x,y,z,signal,mito.p
6,628,1,0.130902049348685,1
7,628,1,0.156568642337803,1
8,628,1,0.120742376260844,1
20,592,1,0.145110587764976,1
20,593,1,0.121378424696515,1
21,589,1,0.10061006150508,1
21,591,1,0.176544719955774,1
21,592,1,0.189129930219195,1
21,593,1,0.153114976998623,1
21,619,1,0.13267717032838,1
22,589,1,0.119185669200822,1
22,590,1,0.17554988055276,1
22,591,1,0.239743573537318,1
22,592,1,0.25860708108329,1
22,593,1,0.193018767674027,1
22,594,1,0.103149495042143,1
23,588,1,0.103331232503408,1
23,589,1,0.176599968841145,1
23,590,1,0.250687340723504,1
23,592,1,0.314603547488434,1
23,593,1,0.211129944873575,1
23,616,1,0.117997306198142,1
23,617,1,0.102068873901688,1
24,588,1,0.136253217612975,1
24,592,1,0.26865690997553,1
24,593,1,0.171170393345604,1
24,615,1,0.10749866725561,1
24,616,1,0.12065401290159,1
25,588,1,0.160481553143714,1
25,591,1,0.259527467384664,1
25,592,1,0.204084688054329,1
25,593,1,0.131527749511267,1
25,613,1,0.105390026880746,1
25,614,1,0.133438334832145,1
25,615,1,0.133285256640874,1
26,588,1,0.162766397376971,1
26,591,1,0.237248637574534,1
26,592,1,0.187998460932661,1
26,593,1,0.124879419768924,1
26,612,1,0.114894686960867,1
26,613,1,0.143051564636339,1
26,614,1,0.172212595160605,1
27,588,1,0.125670735872592,1
27,589,1,0.193536420972651,1
27,590,1,0.210515409953008,1
27,591,1,0.194828081526589,1
27,592,1,0.159924249619784,1
27,593,1,0.110695793458477,1
27,611,1,0.107581910942915,1
27,612,1,0.161981976491055,1
27,613,1,0.170690582047726,1
28,589,1,0.120734936397139,1
28,590,1,0.137506317233511,1
28,591,1,0.132666440803125,1
28,592,1,0.112523102413293,1
28,611,1,0.104355384751559,1
28,612,1,0.160562694497644,1
32,603,1,0.122833729573192,1
32,604,1,0.174877972627609,1
32,605,1,0.150795558640332,1
6,628,2,0.107433930637755,1
7,628,2,0.128692584115185,1
20,592,2,0.112788780708681,1
21,591,2,0.136293848200995,1
21,592,2,0.148493536273748,1
21,593,2,0.120758345280156,1
21,619,2,0.121559780905613,1
22,589,2,0.107969720646581,1
22,590,2,0.154878257375321,1
22,592,2,0.2390576682112,1
22,593,2,0.174216979407337,1
22,619,2,0.100882994484549,1
23,588,2,0.106489438306545,1
23,593,2,0.210322561714322,1
23,616,2,0.111021981919133,1
23,617,2,0.102751511352094,1
24,593,2,0.154827365657566,1
24,616,2,0.105938605176524,1
25,592,2,0.18690099933937,1
25,593,2,0.116729958639501,1
25,614,2,0.11635219220719,1
25,615,2,0.120756504376839,1
26,592,2,0.194701440449829,1
26,593,2,0.12702004175409,1
26,612,2,0.110326479931341,1
26,613,2,0.129524193126383,1
26,614,2,0.159964204846823,1
27,591,2,0.188632232748252,1
27,592,2,0.167102715945971,1
27,593,2,0.110346588259889,1
27,611,2,0.107572423210431,1
27,612,2,0.168794549666686,1
27,613,2,0.173696112697596,1
27,614,2,0.156505398049856,1
28,590,2,0.132577227796187,1
28,591,2,0.1262117218038,1
28,592,2,0.111614436892805,1
28,611,2,0.104630474528998,1
28,612,2,0.168063819978718,1
28,613,2,0.165649698582293,1
32,603,2,0.148548251406086,1
32,604,2,0.225036782111213,1
32,605,2,0.175988505723748,1
32,606,2,0.103149331648358,1
33,604,2,0.284498591064748,1
33,605,2,0.228973265193926,1
7,628,3,0.101809567963939,1
21,591,3,0.105823216485133,1
21,592,3,0.117190315183974,1
21,619,3,0.100220552506044,1
22,591,3,0.176717165757098,1
22,592,3,0.211482178303656,1
22,593,3,0.153740252337363,1
23,588,3,0.101181133678677,1
23,592,3,0.302667740379427,1
23,593,3,0.198509779232955,1
23,616,3,0.106082162956554,1
23,617,3,0.117493781015513,1
24,593,3,0.1313154029475,1
25,592,3,0.161636801672512,1
25,614,3,0.100858038807028,1
25,615,3,0.113616097909777,1
26,592,3,0.189115987282823,1
26,593,3,0.123564720691216,1
26,612,3,0.108578798214708,1
26,613,3,0.120839432169491,1
26,614,3,0.139213738721372,1
27,591,3,0.165693390080562,1
27,592,3,0.162442485536395,1
27,593,3,0.106438394087923,1
27,611,3,0.112241727421568,1
27,612,3,0.167356433816254,1
27,613,3,0.176541332257953,1
27,614,3,0.140681210988617,1
28,590,3,0.115517478714066,1
28,591,3,0.107245809925932,1
28,592,3,0.100639276313946,1
28,611,3,0.10804111283797,1
28,612,3,0.161836806559008,1
28,613,3,0.171988397100921,1
28,614,3,0.117232982747854,1
29,613,3,0.102422218409511,1
30,608,3,0.116384729356363,1
30,609,3,0.125174726804101,1
31,607,3,0.10082590469586,1
31,608,3,0.123752928546391,1
32,603,3,0.155859012234016,1
32,604,3,0.250707841197137,1
32,605,3,0.193453721931299,1
32,606,3,0.126317078116756,1
33,603,3,0.194867448536,1
33,604,3,0.32577835348746,1
33,605,3,0.259588053800365,1
21,592,4,0.105345921451552,1
22,592,4,0.188433654834151,1
22,593,4,0.134223823224127,1
23,592,4,0.265034447962905,1
23,593,4,0.172890526869985,1
23,616,4,0.101230445923171,1
23,617,4,0.131766947120469,1
24,593,4,0.113308721520304,1
25,592,4,0.151561145669228,1
25,615,4,0.104126775059664,1
26,592,4,0.180167900901056,1
26,593,4,0.116568754330627,1
26,612,4,0.100807397626411,1
26,613,4,0.112498016020744,1
26,614,4,0.121037672403102,1
27,591,4,0.143712514284936,1
27,592,4,0.151752752115143,1
27,593,4,0.1008018422377,1
27,611,4,0.112613589891759,1
27,612,4,0.159960544826026,1
27,613,4,0.175863705550306,1
27,614,4,0.129281193888436,1
28,590,4,0.103511183525951,1
28,611,4,0.121992502114482,1
28,612,4,0.168282658722234,1
28,613,4,0.18546762190872,1
28,614,4,0.118295292891403,1
29,609,4,0.110059679665292,1
29,610,4,0.109740745888717,1
29,611,4,0.114470941517288,1
29,612,4,0.12019782834511,1
29,613,4,0.117545740239334,1
30,591,4,0.109875643798109,1
30,607,4,0.0997994758276297,1
30,608,4,0.153721167943205,1
30,609,4,0.172360531894088,1
30,610,4,0.15050484841699,1
31,607,4,0.130591644727718,1
31,608,4,0.179840775649363,1
31,609,4,0.202551749343653,1
32,603,4,0.142241567176517,1
32,604,4,0.23767298212866,1
32,605,4,0.207115642777239,1
32,606,4,0.165677660705468,1
33,603,4,0.20126592739432,1
33,604,4,0.342359772708692,2
33,605,4,0.303861146803623,2
34,603,4,0.156164700221039,1
34,604,4,0.232929813033512,2
22,593,5,0.106269869737453,1
23,592,5,0.205791455967047,1
23,593,5,0.12965972282508,1
23,617,5,0.134225119481493,1
24,592,5,0.159093283290809,1
25,592,5,0.134873389772327,1
26,588,5,0.124572076058207,1
26,591,5,0.185333856862908,1
26,592,5,0.159440364370184,1
26,593,5,0.102007339802031,1
26,614,5,0.101204618812127,1
27,589,5,0.144920332041022,1
27,590,5,0.135287516768394,1
27,591,5,0.124328161815061,1
27,592,5,0.14016154249997,1
27,611,5,0.110671012067661,1
27,612,5,0.140692909983666,1
27,613,5,0.15280962669209,1
27,614,5,0.108481829449413,1
28,610,5,0.110467031265716,1
28,611,5,0.156237268847684,1
28,612,5,0.184856964867332,1
28,613,5,0.184994629578161,1
28,614,5,0.106980262345573,1
29,608,5,0.104127864351568,1
29,609,5,0.133620627832281,1
29,610,5,0.144120192672931,1
29,611,5,0.159941612932734,1
29,612,5,0.15572778523834,1
29,613,5,0.13351022809781,1
30,591,5,0.124759379801102,1
30,607,5,0.114834601619442,1
30,608,5,0.206538448783141,1
30,609,5,0.23957253292255,1
30,610,5,0.190598774994239,1
31,591,5,0.168431368852969,1
31,592,5,0.107251463350914,1
31,606,5,0.105227515421586,1
31,607,5,0.165930790358122,1
31,608,5,0.259420259275472,1
31,609,5,0.295305957118714,3
32,592,5,0.125190891895957,1
32,593,5,0.118960632386372,1
32,594,5,0.109253625442162,1
32,603,5,0.120942250432311,1
32,604,5,0.200764874904314,2
32,605,5,0.211096765042179,2
32,606,5,0.211057681248663,1
32,607,5,0.22259232393526,1
33,594,5,0.115894286569501,1
33,602,5,0.104905368233894,1
33,603,5,0.208621501691181,2
33,604,5,0.34780549151025,2
33,605,5,0.356161253633374,2
33,606,5,0.313118036547258,2
33,607,5,0.276919646570051,2
34,603,5,0.224917025359286,2
34,604,5,0.318088192289364,2
34,605,5,0.311184913776887,2
35,604,5,0.170453443200223,2
5,601,6,0.109854805643986,1
6,601,6,0.105845677684193,1
23,617,6,0.127016120303236,1
24,592,6,0.128738040266339,1
25,592,6,0.116825239002345,1
26,591,6,0.161581356714598,1
26,592,6,0.138111527815379,1
27,590,6,0.102664945324482,1
27,591,6,0.117336084226569,1
27,592,6,0.134462389044025,1
27,611,6,0.104210541607083,1
27,612,6,0.123718049419625,1
27,613,6,0.129474020341284,1
28,610,6,0.118519578094439,1
28,611,6,0.182507819732981,1
28,612,6,0.196434111724024,1
28,613,6,0.172522825494867,1
29,609,6,0.131034964746812,1
29,610,6,0.154650747868249,1
29,611,6,0.187948571363457,1
29,612,6,0.175958996806068,1
29,613,6,0.137184311653766,1
30,591,6,0.125548898573129,1
30,607,6,0.109806343047176,1
30,608,6,0.223703379891513,1
30,609,6,0.268617782610338,3
30,610,6,0.19806953101703,1
31,591,6,0.190354403248493,1
31,592,6,0.126072455833873,1
31,593,6,0.115001415781622,1
31,594,6,0.111473177518693,1
31,607,6,0.172275131408814,1
31,608,6,0.302600618212302,3
31,609,6,0.35580292016863,3
31,610,6,0.236071134812136,3
32,592,6,0.161051067629888,1
32,593,6,0.154843694143207,1
32,594,6,0.157481904670125,1
32,595,6,0.118012120568036,1
32,604,6,0.151657384608947,2
32,605,6,0.190195649846403,2
32,606,6,0.223902393522376,2
32,607,6,0.250350553452622,2
32,608,6,0.250050017816305,1
32,609,6,0.238107892814255,3
33,593,6,0.15648924385092,1
33,594,6,0.161436469998446,1
33,595,6,0.136040653190827,1
33,596,6,0.104018739088625,1
33,602,6,0.128781993194666,1
33,603,6,0.210110759796506,2
33,604,6,0.329808079957157,2
33,605,6,0.37122424351209,2
33,606,6,0.36122389025813,2
33,607,6,0.333868676959414,2
33,608,6,0.222752950919426,2
34,601,6,0.117257927532456,1
34,602,6,0.198850814742262,1
34,603,6,0.313533623194476,2
34,604,6,0.412513983848643,2
34,605,6,0.387435564916015,2
34,606,6,0.288048288378186,2
34,607,6,0.216822083289659,2
35,603,6,0.256617293348071,2
35,604,6,0.260594820949728,2
35,605,6,0.204147213409619,2
5,601,7,0.128830728114451,1
5,602,7,0.103687082382611,1
6,601,7,0.112209941883809,1
25,592,7,0.112949985017556,1
26,591,7,0.140914798744513,1
26,592,7,0.122750823566378,1
27,591,7,0.109659506498516,1
27,592,7,0.124256181406044,1
27,611,7,0.104655484671114,1
27,612,7,0.117378468574554,1
27,613,7,0.114602081369612,1
28,610,7,0.120795054417322,1
28,611,7,0.206462939068355,1
28,612,7,0.204293222096433,1
28,613,7,0.156827392736682,1
29,609,7,0.119201670898892,1
29,610,7,0.160407056470399,1
29,611,7,0.214976735660912,1
29,612,7,0.189867424409886,1
29,613,7,0.138328623691849,1
30,591,7,0.122930415122592,1
30,592,7,0.101833891852155,1
30,608,7,0.20520064582415,1
30,609,7,0.269293710022615,3
30,610,7,0.201227954678547,1
31,591,7,0.197401294005595,1
31,592,7,0.149312563963455,1
31,593,7,0.130494773998694,1
31,594,7,0.128518678662709,1
31,607,7,0.164547694641762,1
31,608,7,0.314951794110146,3
31,609,7,0.392936750461326,3
31,610,7,0.243029117564033,3
32,592,7,0.198811295231985,1
32,593,7,0.193549296402956,1
32,594,7,0.210434562707893,1
32,595,7,0.157117841529967,1
32,604,7,0.115562618970568,1
32,605,7,0.15670882331293,2
32,606,7,0.207748782803526,2
32,607,7,0.256155629653314,2
32,608,7,0.27408230259016,1
32,609,7,0.263708343998962,3
33,593,7,0.203580803405372,1
33,594,7,0.222881356649071,1
33,595,7,0.179027771743885,1
33,596,7,0.122904228545219,1
33,597,7,0.11052360908721,1
33,598,7,0.117631086260013,1
33,599,7,0.103945004919642,1
33,600,7,0.101238386861152,1
33,601,7,0.127124668241471,1
33,602,7,0.152627660479526,1
33,603,7,0.194739652809821,2
33,604,7,0.27441196589199,2
33,605,7,0.316742045354387,2
33,606,7,0.342826904648808,2
33,607,7,0.346424029731746,2
33,608,7,0.235281093179995,2
34,595,7,0.196112225966389,1
34,597,7,0.113673841273609,1
34,598,7,0.105254301109506,1
34,599,7,0.100257425036995,1
34,600,7,0.126583497130639,1
34,601,7,0.198460913598141,1
34,602,7,0.279722263924042,2
34,603,7,0.368343153569334,2
34,604,7,0.441499039265816,2
34,605,7,0.380672282199041,2
34,606,7,0.279942910892118,2
34,607,7,0.221863282649744,2
35,601,7,0.188490254441483,1
35,602,7,0.288851161868956,2
35,603,7,0.361290794566874,2
35,604,7,0.355529224684829,2
35,605,7,0.238707003361461,2
36,603,7,0.186758302099945,2
36,604,7,0.169876739387482,2
4,601,8,0.106100975027736,1
4,602,8,0.129573091439954,1
4,603,8,0.101486505771047,1
5,601,8,0.140522915089126,1
5,602,8,0.142674756780904,1
6,601,8,0.125476090302265,1
6,602,8,0.107880638354671,1
7,600,8,0.10307644712706,1
7,601,8,0.104414936339951,1
26,592,8,0.104442789533937,1
27,592,8,0.103662431706823,1
27,611,8,0.100900248868309,1
27,612,8,0.109537680091971,1
27,613,8,0.102879165470325,1
28,610,8,0.111069932548748,1
28,611,8,0.203861731787416,1
28,612,8,0.192241318256297,1
28,613,8,0.135391043070951,1
29,610,8,0.151987320233753,1
29,611,8,0.221323102794545,1
29,612,8,0.190994928673889,1
30,591,8,0.115325186014251,1
30,592,8,0.113206600404303,1
30,608,8,0.158832190914337,1
30,609,8,0.230087022594101,3
30,610,8,0.188564653078527,1
31,591,8,0.190107286487149,1
31,592,8,0.17191895474204,1
31,593,8,0.147135211055285,1
31,594,8,0.142085275574129,1
31,595,8,0.111336743707716,1
31,607,8,0.146016900414951,1
31,608,8,0.286177385961371,3
31,609,8,0.368628896621594,3
31,610,8,0.224259310907644,3
32,592,8,0.229432336373953,1
32,593,8,0.242092522599126,1
32,594,8,0.273045253125866,4
32,595,8,0.205934676066586,1
32,596,8,0.117547875251466,1
32,605,8,0.127321089357602,1
32,606,8,0.179336749392458,1
32,607,8,0.242426390567706,1
32,608,8,0.28273167245309,1
32,609,8,0.265257752803227,3
33,593,8,0.279571135565279,4
33,594,8,0.312207236014639,4
33,595,8,0.239280646263951,1
33,596,8,0.15251321947209,1
33,597,8,0.129965138489126,1
33,598,8,0.134823805204856,1
33,599,8,0.116676311013229,1
33,600,8,0.113796811436653,1
33,601,8,0.14629426681247,1
33,602,8,0.154103139042265,2
33,603,8,0.161472558239226,2
33,604,8,0.20655912354348,2
33,605,8,0.238396511597142,2
33,606,8,0.283467903065173,2
33,607,8,0.31133456069866,2
34,595,8,0.216494358927418,1
34,596,8,0.171283374701888,1
34,597,8,0.138040200981505,1
34,598,8,0.138286631488949,1
34,599,8,0.135234076107583,1
34,600,8,0.178505096809584,1
34,601,8,0.281108104656,2
34,602,8,0.318558199960106,2
34,603,8,0.350434519306418,2
34,604,8,0.40280882870067,2
34,605,8,0.318588155487467,2
34,606,8,0.240379001076603,2
35,600,8,0.165443430267349,1
35,601,8,0.272796524212504,2
35,602,8,0.337397416296619,2
35,603,8,0.40481164436706,2
35,604,8,0.43130923636391,2
35,605,8,0.265545216936695,2
36,602,8,0.171260902609909,2
36,603,8,0.208045723776559,2
36,604,8,0.221811519498466,2
1,626,9,0.102180657036878,1
3,602,9,0.109686477366059,1
3,603,9,0.108342552586567,1
4,601,9,0.106891169160744,1
4,602,9,0.151948966265813,1
4,603,9,0.127667048466316,1
5,601,9,0.134712926181947,1
5,602,9,0.168926560952533,1
5,603,9,0.126679932142901,1
6,600,9,0.120383541721824,1
6,601,9,0.134292307006132,1
6,602,9,0.121485926914521,1
7,600,9,0.138462704632313,1
7,601,9,0.124718629390973,1
25,592,9,0.100421973472015,1
26,591,9,0.101217929959194,1
28,611,9,0.173092481588988,1
28,612,9,0.159248605423402,1
29,610,9,0.140321711981536,1
29,611,9,0.215477613864215,1
30,591,9,0.105248418933224,1
30,592,9,0.116319872916398,1
30,593,9,0.100407747319748,1
30,608,9,0.113647937912132,1
30,609,9,0.179030799975379,1
30,610,9,0.173498624075399,1
31,591,9,0.163862116103216,1
31,592,9,0.17666119793907,1
31,593,9,0.159787750451292,1
31,594,9,0.153814095435536,4
31,595,9,0.126153313971907,1
31,607,9,0.122885340223604,1
31,608,9,0.230567639967989,1
31,609,9,0.299369800210844,3
32,592,9,0.245569803786785,1
32,593,9,0.290942210179571,4
32,594,9,0.324387894157829,4
32,595,9,0.256146958889758,4
32,596,9,0.155107302783977,1
32,597,9,0.104338816621699,1
32,605,9,0.109486319978697,1
32,606,9,0.152365892742073,1
32,607,9,0.213505625158708,1
32,608,9,0.264881228163686,1
33,592,9,0.259788483510703,4
33,593,9,0.377701652461775,4
33,594,9,0.400108081925542,4
33,595,9,0.307580120078944,4
33,596,9,0.208126527449999,1
33,597,9,0.163321761961312,1
33,598,9,0.159450037282292,1
33,599,9,0.134885524484138,1
33,600,9,0.125423782505034,1
33,601,9,0.154753882025721,2
33,602,9,0.146170098428331,2
33,603,9,0.137121100044577,2
33,604,9,0.159240827879208,2
33,605,9,0.176318060096388,1
33,606,9,0.218933348858012,1
33,607,9,0.25036157708669,1
34,593,9,0.243575462811408,4
34,594,9,0.244820131312607,4
34,595,9,0.22859386482376,1
34,596,9,0.194216269835782,1
34,597,9,0.170298012138439,1
34,598,9,0.185461304015677,1
34,599,9,0.181609589628933,1
34,600,9,0.229858707011021,2
34,601,9,0.345029496450393,2
34,602,9,0.319841669038926,2
34,603,9,0.30692878887786,2
34,604,9,0.354759574597131,2
34,605,9,0.256493680502804,2
35,597,9,0.117540119493109,1
35,598,9,0.132126870951392,1
35,599,9,0.148265362298615,1
35,600,9,0.218461140817624,2
35,601,9,0.343354078358673,2
35,602,9,0.338740687500969,2
35,603,9,0.396772277970376,2
35,604,9,0.484349952759197,2
35,605,9,0.29257111550699,2
35,606,9,0.144282388237438,1
36,601,9,0.157036591246847,2
36,602,9,0.162838748145236,2
36,603,9,0.208939923500561,2
36,604,9,0.264613501999519,2
36,605,9,0.167141364022726,1
1,626,10,0.100517362764049,1
3,602,10,0.128409640543118,1
3,603,10,0.139563401422559,1
3,604,10,0.100854182713688,1
4,601,10,0.12002987042643,1
4,602,10,0.181891552838287,1
4,603,10,0.173656364436018,1
4,604,10,0.102342896173061,1
5,600,10,0.106789843227833,1
5,601,10,0.145826666476835,1
5,602,10,0.197403886520327,1
5,603,10,0.168850844272285,1
6,600,10,0.148108907302442,1
6,601,10,0.149341462877668,1
6,602,10,0.133353587922013,1
7,600,10,0.161917882555423,1
7,601,10,0.136981387464968,1
8,600,10,0.100419544351069,1
28,611,10,0.128537087695887,1
28,612,10,0.123637169495752,1
29,591,10,0.104927382823274,1
29,592,10,0.105326129017656,1
29,610,10,0.114634901734679,1
29,611,10,0.183562308760658,1
30,591,10,0.13540535636657,1
30,592,10,0.142357707479322,1
30,593,10,0.118743972226665,1
30,609,10,0.128300046884655,1
30,610,10,0.14212306311028,1
31,591,10,0.163751204401549,1
31,592,10,0.18965982715882,1
31,593,10,0.18153563760157,4
31,594,10,0.15783511846292,4
31,595,10,0.127634467745467,1
31,607,10,0.100014447584886,1
31,608,10,0.171793043490856,1
31,609,10,0.211239440495766,1
32,592,10,0.257131787700174,4
32,593,10,0.335854673958807,4
32,594,10,0.325858067868996,4
32,595,10,0.271394866962099,4
32,596,10,0.189638215607444,1
32,597,10,0.118310346905516,1
32,606,10,0.130137932863859,1
32,607,10,0.179454120595115,1
32,608,10,0.221760235635625,1
33,592,10,0.285960704015825,4
33,593,10,0.441343357666895,4
33,594,10,0.408966029402252,4
33,595,10,0.337385760873246,4
33,596,10,0.266116942685434,4
33,597,10,0.195350767353809,1
33,598,10,0.182550901227784,1
33,599,10,0.162637098427965,1
33,600,10,0.146038610002598,1
33,601,10,0.157996965454018,2
33,602,10,0.1309701954502,1
33,603,10,0.121227753840352,1
33,604,10,0.137380002944322,2
33,605,10,0.150354842028888,1
33,606,10,0.181663792794077,1
33,607,10,0.197259184983798,1
34,593,10,0.272137851183987,4
34,594,10,0.245098423608244,4
34,595,10,0.230459190066025,4
34,596,10,0.213196462330512,1
34,597,10,0.201365401530995,1
34,598,10,0.246440017303062,1
34,599,10,0.259354444258631,1
34,600,10,0.299337644313838,2
34,601,10,0.380339656023232,2
34,602,10,0.286466789034429,2
34,603,10,0.25823020787034,2
34,604,10,0.329088711583749,2
34,605,10,0.254634411723525,2
35,597,10,0.130079677532833,1
35,598,10,0.178749501234087,1
35,599,10,0.213030650316883,1
35,600,10,0.289702770279511,2
35,601,10,0.390690325553523,2
35,602,10,0.302397661344747,2
35,603,10,0.342893286097438,2
35,604,10,0.495979276698091,2
35,605,10,0.344843902895788,2
35,606,10,0.178641900979809,2
36,601,10,0.168628650509705,2
36,602,10,0.147025955077313,2
36,603,10,0.188660619695271,2
36,604,10,0.278630052717728,2
36,605,10,0.200048186188989,2
3,602,11,0.136473624936833,1
3,603,11,0.156999533536272,1
3,604,11,0.124947032117406,1
3,605,11,0.10855574879802,1
4,601,11,0.14584555479845,1
4,602,11,0.20145158630644,1
4,603,11,0.206622106401369,1
4,604,11,0.123372046739235,1
5,600,11,0.14284002414858,1
5,601,11,0.177873775900777,1
5,602,11,0.206888917560338,1
5,603,11,0.189062437692822,1
6,600,11,0.159374091850744,1
6,601,11,0.157505509625685,1
6,602,11,0.13369065840879,1
6,603,11,0.104459575522178,1
6,627,11,0.10239386414125,1
7,600,11,0.149218928431386,1
7,601,11,0.126991317126582,1
7,627,11,0.113397466131723,1
8,626,11,0.102155799395629,1
8,627,11,0.108941793848801,1
29,591,11,0.146979943387287,1
29,592,11,0.139079418136688,1
29,593,11,0.101961142932382,1
30,591,11,0.200071279177354,1
30,592,11,0.18263844761811,1
30,593,11,0.13973701276622,1
31,592,11,0.197137728936501,1
31,593,11,0.209723734383011,4
31,594,11,0.173120116924593,4
31,595,11,0.136572216747065,1
31,596,11,0.0998676001433066,1
31,608,11,0.123365445630297,1
31,609,11,0.139621210143905,1
32,592,11,0.251115737443513,4
32,593,11,0.373929042453101,4
32,594,11,0.320966079713922,4
32,595,11,0.279719235692549,4
32,596,11,0.234815268390164,4
32,597,11,0.141239799876993,1
32,606,11,0.110598748442749,1
32,607,11,0.147941189027981,1
32,608,11,0.169193905864534,1
33,591,11,0.14521688086897,1
33,592,11,0.273959691893445,4
33,593,11,0.45275081463078,4
33,594,11,0.394705063366621,4
33,595,11,0.361612135678557,4
33,596,11,0.328309301440591,4
33,597,11,0.223111894387635,4
33,598,11,0.186989536985328,1
33,599,11,0.174848529067444,1
33,600,11,0.152171040206283,2
33,601,11,0.142525621826326,2
33,602,11,0.115288738307143,1
33,603,11,0.116492307824803,1
33,604,11,0.133187187690756,1
33,605,11,0.149211651961467,1
33,606,11,0.161008062385517,1
34,592,11,0.169210234350175,1
34,593,11,0.272549058877751,4
34,594,11,0.262646219035037,4
34,595,11,0.255268336039983,4
34,596,11,0.233761748832281,4
34,597,11,0.218390968633167,1
34,598,11,0.278469491091077,1
34,599,11,0.310821199210137,2
34,600,11,0.326269689493683,2
34,601,11,0.339774621590417,2
34,602,11,0.231572119604353,2
34,603,11,0.217310369278551,1
34,604,11,0.302539508936487,2
34,605,11,0.28419023431256,2
34,606,11,0.206806828522452,1
35,594,11,0.126196852969311,1
35,595,11,0.133806689782405,1
35,597,11,0.141839378819718,1
35,598,11,0.20875371994249,1
35,599,11,0.254987146227881,1
35,600,11,0.313536782140998,2
35,601,11,0.355798149070091,2
35,602,11,0.242993258074553,2
35,603,11,0.268466850324118,2
35,604,11,0.434687348416628,2
35,605,11,0.373371150711543,2
35,606,11,0.20431095576863,2
36,601,11,0.158866002535038,2
36,603,11,0.159931057694184,1
36,604,11,0.248497711495576,2
36,605,11,0.211906631786973,2
2,605,12,0.104749969850868,1
3,601,12,0.104872874656398,1
3,602,12,0.141930901125493,1
3,603,12,0.167591895154225,1
3,604,12,0.156532793741242,1
3,605,12,0.143249292902755,1
4,600,12,0.12844434538318,1
4,601,12,0.192092324909666,1
4,602,12,0.227358586018773,1
4,603,12,0.231326092134913,1
4,604,12,0.153931935033712,1
4,605,12,0.102910134039156,1
5,601,12,0.238016043720909,1
5,602,12,0.226243826470047,1
5,603,12,0.198830880700419,1
5,604,12,0.111921475601789,1
6,600,12,0.150715059968625,1
6,601,12,0.1612883262995,1
6,602,12,0.135357427522793,1
6,603,12,0.11043815413734,1
6,626,12,0.11280717884894,1
6,627,12,0.132963272846968,1
7,600,12,0.112594941214363,1
7,601,12,0.103361819820073,1
7,626,12,0.15748366932301,1
7,627,12,0.160816150937869,1
8,626,12,0.151890013787968,1
29,591,12,0.157753171032981,1
29,592,12,0.143375923086596,1
30,591,12,0.23238218242169,1
30,592,12,0.190541739670145,1
30,593,12,0.1424246880385,1
30,594,12,0.10903145346542,1
31,592,12,0.189479287918649,1
31,593,12,0.229862388817656,4
31,594,12,0.191079653798183,4
31,595,12,0.142822649942711,1
31,596,12,0.110461279804463,1
32,592,12,0.230362504516625,4
32,593,12,0.383771796954389,4
32,594,12,0.323488923335287,4
32,595,12,0.272789356671775,4
32,596,12,0.259207651281647,4
32,597,12,0.167566471081185,1
32,598,12,0.101306848857319,1
32,606,12,0.100263111140734,1
32,607,12,0.125647174488709,1
33,592,12,0.231613033408268,4
33,593,12,0.408413366261833,4
33,594,12,0.391793516822228,4
33,595,12,0.365811878828632,4
33,596,12,0.358209209556266,4
33,597,12,0.256966912477583,4
33,598,12,0.19959867899188,1
33,599,12,0.183971011083043,2
33,600,12,0.154779110026218,2
33,601,12,0.127029431450303,1
33,602,12,0.11523487282249,1
33,603,12,0.127685021782732,1
33,604,12,0.144013855997261,1
33,605,12,0.178881643234962,2
33,606,12,0.162123715153605,1
34,592,12,0.146653776712469,1
34,593,12,0.249181873954647,4
34,594,12,0.299954248889022,4
34,595,12,0.281161153171726,4
34,596,12,0.252095010865219,4
34,597,12,0.244668436522055,1
34,598,12,0.295567408961514,2
34,599,12,0.338340372726245,2
34,600,12,0.324993257240564,2
34,601,12,0.272528013758165,2
34,602,12,0.200541308633934,1
34,603,12,0.206434878908908,1
34,604,12,0.289201957433723,2
34,605,12,0.352681946362773,2
34,606,12,0.240789010549273,2
35,593,12,0.104026385917791,1
35,594,12,0.138563322525487,1
35,595,12,0.13432365682713,1
35,597,12,0.163833772727873,1
35,598,12,0.224929290786125,1
35,599,12,0.274593289422331,2
35,600,12,0.303197680890728,2
35,601,12,0.287478240138979,2
35,602,12,0.212136581307909,1
35,603,12,0.228669287395193,2
35,604,12,0.35575298702775,2
35,605,12,0.393459479860222,2
35,606,12,0.222549275119214,2
36,604,12,0.222866694780043,2
36,605,12,0.222563915202404,2
2,604,13,0.110818502191464,1
2,605,13,0.117897603310167,1
3,601,13,0.113378163879184,1
3,602,13,0.143697253305361,1
3,603,13,0.170747671836415,1
3,604,13,0.193244490742376,1
3,605,13,0.181541988173371,1
3,606,13,0.103519571073612,1
4,601,13,0.225554696839894,1
4,602,13,0.253097115845232,1
4,603,13,0.243468646847301,1
4,604,13,0.188585306053027,1
4,605,13,0.134976022855523,1
5,603,13,0.203416821402142,1
5,604,13,0.126142431945786,1
6,601,13,0.148342821845909,1
6,602,13,0.136097775658273,1
6,603,13,0.11380886989803,1
6,626,13,0.15699071027185,1
6,627,13,0.160172564602222,1
7,625,13,0.100759915392315,1
7,626,13,0.22323860082191,1
7,627,13,0.199278862888862,1
8,626,13,0.18708846647605,1
29,592,13,0.129874749046931,1
30,591,13,0.213619260090134,1
30,592,13,0.176565089714379,1
30,593,13,0.1408227971503,1
30,594,13,0.120786394546685,1
31,592,13,0.17078040505813,1
31,593,13,0.231643511795742,4
31,594,13,0.206836718692298,4
31,595,13,0.15297871747435,1
31,596,13,0.119204906095847,1
32,592,13,0.190186891939494,4
32,593,13,0.35231714250412,4
32,594,13,0.342752832799335,4
32,595,13,0.273946598604758,4
32,596,13,0.253089403658552,4
32,597,13,0.187288373326274,1
32,598,13,0.117112496170352,1
32,605,13,0.0997189553700853,1
32,606,13,0.0998553347164674,1
32,607,13,0.104058781459016,1
33,592,13,0.171548693530948,4
33,593,13,0.339427812834019,4
33,594,13,0.419615164914241,4
33,595,13,0.368315006266535,4
33,596,13,0.344638418871015,4
33,597,13,0.290459065648466,4
33,598,13,0.217003886108438,1
33,599,13,0.186660614401993,1
33,600,13,0.15440914292394,1
33,601,13,0.117889368263373,1
33,602,13,0.120522785905914,1
33,603,13,0.142285541890682,1
33,604,13,0.172003995760987,1
33,605,13,0.241467508690443,2
33,606,13,0.179200402724833,1
34,593,13,0.211804172990481,4
34,594,13,0.324698690923881,4
34,595,13,0.288443200265066,4
34,596,13,0.259139330893427,4
34,597,13,0.281448029087566,4
34,598,13,0.292972476001942,1
34,599,13,0.322849487201795,2
34,600,13,0.294147909109722,2
34,601,13,0.211457516734949,1
34,602,13,0.184390867754525,1
34,603,13,0.207520096861198,1
34,604,13,0.292312147249731,2
34,605,13,0.423908630739738,2
34,606,13,0.273945770742911,2
35,594,13,0.139382720574441,1
35,595,13,0.132850879708312,1
35,596,13,0.138583191209816,1
35,597,13,0.187919639770487,1
35,599,13,0.265960716440561,1
35,600,13,0.269079424519258,1
35,601,13,0.222412133268499,1
35,602,13,0.200027053926051,1
35,603,13,0.216445210076709,2
35,604,13,0.298472310825292,2
35,605,13,0.393633853708216,2
35,606,13,0.237828119081629,2
36,604,13,0.216937308587265,2
36,605,13,0.235391961309986,2
2,604,14,0.10972686830986,1
2,605,14,0.122232473120935,1
3,601,14,0.112791231615465,1
3,602,14,0.135376816918684,1
3,603,14,0.161120063379088,1
3,604,14,0.206631539669258,1
3,605,14,0.210971910404141,1
3,606,14,0.121149880362134,1
4,603,14,0.245390244909328,1
4,604,14,0.204720246308643,1
4,605,14,0.159759232789245,1
5,604,14,0.138542549728877,1
5,626,14,0.124748584918333,1
6,603,14,0.122664900220989,1
6,625,14,0.100788030016357,1
6,626,14,0.214469299920348,1
6,627,14,0.192675357508369,1
7,625,14,0.127553947287922,1
7,626,14,0.274665727333948,1
8,625,14,0.100484509720224,1
29,592,14,0.108010830523038,1
30,592,14,0.151268245969158,1
30,593,14,0.130116353991241,1
30,594,14,0.120973480431199,1
31,593,14,0.202836817034932,1
31,594,14,0.21227751389445,4
31,595,14,0.171780407704769,1
31,596,14,0.127111466023594,1
32,592,14,0.144745827477999,1
32,593,14,0.28041825609319,4
32,594,14,0.351458911198788,4
32,595,14,0.288394334630252,4
32,596,14,0.229886222524516,4
32,597,14,0.191677675053485,4
32,598,14,0.133682336218643,1
32,604,14,0.115124320587151,1
32,605,14,0.139296906158243,1
32,606,14,0.104696627226329,1
33,592,14,0.120852394743149,1
33,593,14,0.262135232202866,4
33,594,14,0.414926242555913,4
33,595,14,0.35502331395293,4
33,596,14,0.303289660699103,4
33,597,14,0.315903704519223,4
33,598,14,0.243414160466263,4
33,599,14,0.185480366623997,1
33,600,14,0.151687285671712,1
33,601,14,0.119127936729909,1
33,602,14,0.127437752520521,1
33,603,14,0.156999413714163,1
33,604,14,0.221708951772784,1
33,605,14,0.312142401360512,2
34,593,14,0.163920523935109,1
34,594,14,0.285631890361681,4
34,595,14,0.255057754129099,4
34,596,14,0.251182576394743,4
34,597,14,0.327701476558153,4
34,598,14,0.30036972660705,4
34,599,14,0.281010591244753,1
34,600,14,0.250331534415978,1
34,601,14,0.179318383930956,1
34,602,14,0.176198477631165,1
34,603,14,0.205384387582518,1
34,604,14,0.294149651976768,2
34,605,14,0.432414824074805,2
34,606,14,0.266515274948893,2
35,594,14,0.118946711235839,1
35,595,14,0.119180821851849,1
35,596,14,0.139115582627901,1
35,597,14,0.198918830128749,4
35,598,14,0.209316905642701,1
35,604,14,0.258815615125393,2
35,605,14,0.343413161551546,2
35,606,14,0.23039694792663,2
36,605,14,0.22347123000093,2
2,604,15,0.103987040694218,1
2,605,15,0.119235133946183,1
3,602,15,0.122367142279028,1
3,604,15,0.202486021470165,1
3,605,15,0.218275002617066,1
3,606,15,0.140012342187878,1
4,603,15,0.247053811505133,1
4,604,15,0.219390895029373,1
4,605,15,0.174205487377749,1
4,606,15,0.108869508438051,1
5,604,15,0.161051231023673,1
5,625,15,0.101908747991799,1
5,626,15,0.176109558733041,1
6,603,15,0.135106770562761,1
6,625,15,0.138700235624902,1
6,626,15,0.273764817571817,1
7,625,15,0.142425439649914,1
30,592,15,0.118926809872753,1
30,593,15,0.112598426948455,1
30,594,15,0.116311637869604,1
30,595,15,0.106951777362283,1
31,593,15,0.161565823412047,1
31,594,15,0.21505801862279,4
31,595,15,0.200587189608931,4
31,596,15,0.136671712669577,1
31,597,15,0.100953014168139,1
32,592,15,0.10538861080127,1
32,593,15,0.207930585622305,4
32,594,15,0.346613392236339,4
32,595,15,0.312132946306785,4
32,596,15,0.20879764019206,4
32,597,15,0.190395796340846,4
32,598,15,0.161320928806187,1
32,599,15,0.1131626039043,1
32,601,15,0.106192126974264,1
32,602,15,0.108268284664551,1
32,603,15,0.127043058492022,1
32,604,15,0.172762774715482,1
32,605,15,0.191955488060684,2
32,606,15,0.111501597144469,1
33,593,15,0.192617930039189,4
33,594,15,0.358874113334474,4
33,595,15,0.319820449632636,4
33,596,15,0.257824294135229,4
33,597,15,0.33647809750131,4
33,598,15,0.292043026791926,4
33,599,15,0.187079948213361,1
33,600,15,0.152311863863634,1
33,601,15,0.145248154439534,1
33,602,15,0.142991795189566,1
33,603,15,0.178016484033121,1
33,604,15,0.284272127277904,2
33,605,15,0.360322457635885,2
33,606,15,0.191850916037899,2
34,594,15,0.208920011244556,4
34,595,15,0.199264506021567,4
34,596,15,0.231508069240397,4
34,597,15,0.37484574694784,4
34,598,15,0.339027258415076,4
34,599,15,0.239325002230283,4
34,600,15,0.201784103553058,1
34,601,15,0.171664060436502,1
34,602,15,0.171773763024155,1
34,603,15,0.203887940150626,1
34,604,15,0.284080607975341,2
34,605,15,0.374334738329831,2
34,606,15,0.227127721492637,2
35,596,15,0.131510048517827,1
35,597,15,0.20356958369876,4
35,598,15,0.205188990400777,4
35,605,15,0.271805965726673,2
2,605,16,0.113627884048179,1
2,606,16,0.100754022323114,1
3,605,16,0.197546779832295,1
3,606,16,0.160045095663615,1
4,605,16,0.184425659737939,1
4,606,16,0.13140357023421,1
4,625,16,0.105358056163363,1
4,626,16,0.12552731970051,1
5,605,16,0.12669923439544,1
5,625,16,0.167873444432654,1
5,626,16,0.254117542715071,1
6,603,16,0.14117049912606,1
6,604,16,0.11468358218987,1
6,625,16,0.206058310697692,1
6,626,16,0.343784174374052,1
6,627,16,0.230124211019704,1
7,625,16,0.153691059914978,1
7,626,16,0.252127362834768,1
30,594,16,0.112601760181682,1
30,595,16,0.116557077121416,1
31,593,16,0.134770985440431,1
31,594,16,0.223966182456275,1
31,595,16,0.233101027934984,1
31,596,16,0.141377170479008,1
31,597,16,0.103882664743976,1
31,604,16,0.107175202024715,1
32,593,16,0.164243237554591,1
32,594,16,0.326163570676395,4
32,595,16,0.324542704323227,4
32,596,16,0.190809661906855,1
32,597,16,0.170711431094768,1
32,598,16,0.174260997693178,1
32,599,16,0.118937484933412,1
32,600,16,0.121394949254698,1
32,601,16,0.160188805944511,1
32,602,16,0.147465811148152,1
32,603,16,0.166410307547187,1
32,604,16,0.24886386607619,2
32,605,16,0.226625797569107,2
32,606,16,0.111756077519084,1
33,593,16,0.143342416467629,1
33,594,16,0.273077060449463,4
33,595,16,0.264234319487733,4
33,596,16,0.21017108478215,1
33,597,16,0.305439116841611,4
33,598,16,0.308038646613018,4
33,599,16,0.176755574189633,1
33,600,16,0.164860724456218,1
33,601,16,0.215150630220469,1
33,602,16,0.18898483653758,1
33,603,16,0.212314179459939,2
33,604,16,0.350605494563672,2
33,605,16,0.358262149142801,2
33,606,16,0.175027118475106,2
34,594,16,0.139120963729907,1
34,595,16,0.144046752612762,1
34,596,16,0.19151012017281,4
34,597,16,0.34940034557275,4
34,598,16,0.34519090772473,4
34,599,16,0.200438479478196,4
34,600,16,0.168158501231015,1
34,601,16,0.186193024959277,1
34,604,16,0.28086310112095,2
34,605,16,0.29903508259458,2
35,597,16,0.180497455273696,4
35,598,16,0.191823574811108,4
1,611,17,0.110564664499072,1
1,623,17,0.107624818151014,1
1,624,17,0.124286746936871,1
2,606,17,0.112192273569126,1
2,610,17,0.12189356173084,1
2,611,17,0.123616974023852,1
2,624,17,0.109463521099146,1
3,606,17,0.157729642327855,1
3,607,17,0.10924536860953,1
3,610,17,0.124483157160083,1
3,611,17,0.112292847890623,1
4,606,17,0.147399244519898,1
4,624,17,0.10869759638976,1
4,625,17,0.146559171710606,1
4,626,17,0.148970417376405,1
5,606,17,0.104280506826078,1
5,624,17,0.137222458656245,1
5,625,17,0.24688226981609,1
5,626,17,0.303224804259138,1
5,627,17,0.16891626714404,1
6,624,17,0.133324874187423,1
6,625,17,0.269825676616857,1
6,626,17,0.361198422613414,1
6,627,17,0.209347972247804,1
7,626,17,0.20442454712838,1
30,594,17,0.106094624455936,1
30,595,17,0.116465870710293,1
31,593,17,0.114219282408704,1
31,594,17,0.210191759542489,1
31,595,17,0.230365576319795,1
31,596,17,0.135231015197333,1
31,597,17,0.104710711770647,1
31,598,17,0.11151350310498,1
31,603,17,0.109663634914832,1
31,604,17,0.13881646307106,1
31,605,17,0.102862891449279,1
32,593,17,0.132665111867002,1
32,594,17,0.269459434892891,1
32,595,17,0.286262154657341,1
32,596,17,0.168106476649679,1
32,597,17,0.14916872296753,1
32,598,17,0.168504209802591,1
32,599,17,0.114443524040064,1
32,600,17,0.128074694175554,1
32,601,17,0.201730140032134,1
32,602,17,0.187402030043539,1
32,603,17,0.230488252374024,1
32,604,17,0.328304247126156,2
32,605,17,0.228967688019378,1
33,594,17,0.191754731562775,1
33,595,17,0.199114488740547,1
33,596,17,0.168803481860299,1
33,597,17,0.245417477206929,1
33,598,17,0.275906822957702,1
33,599,17,0.155587996408298,1
33,600,17,0.169857665886243,1
33,601,17,0.27508763187421,1
33,602,17,0.237653048086817,1
33,603,17,0.264699948205021,2
33,604,17,0.394101072791685,2
33,605,17,0.307588442269091,2
34,596,17,0.154505675972473,1
34,597,17,0.280007266257807,4
34,598,17,0.305535279530897,4
34,599,17,0.170206097687579,1
34,604,17,0.264748813839835,2
35,597,17,0.1653275513946,1
35,598,17,0.187831821057185,1
1,610,18,0.114992167693357,1
1,611,18,0.137377878825109,1
1,612,18,0.117366965652048,1
1,623,18,0.161630407529036,1
1,624,18,0.168192726782639,1
2,607,18,0.108995452367993,1
2,609,18,0.104525575718642,1
2,610,18,0.168570395178678,1
2,611,18,0.188938759490041,1
2,612,18,0.127671046167603,1
2,623,18,0.136417624440048,1
2,624,18,0.146661183897416,1
3,607,18,0.119637387660496,1
3,609,18,0.118178226690479,1
3,610,18,0.1774810970623,1
3,611,18,0.177463799106864,1
3,612,18,0.106894807395703,1
4,607,18,0.107461206507032,1
4,610,18,0.106426542592007,1
4,623,18,0.100367367268867,1
4,624,18,0.144602879701436,1
4,625,18,0.177996332132897,1
4,626,18,0.15325777227432,1
5,606,18,0.13104826500096,1
5,623,18,0.100900281547066,1
5,624,18,0.183921687945629,1
5,625,18,0.297182676354296,1
5,626,18,0.290840862460822,1
5,627,18,0.148816456858692,1
6,605,18,0.115165506714042,1
6,624,18,0.162295899524872,1
6,625,18,0.289137209922949,1
6,626,18,0.305311059685376,1
6,627,18,0.163640510558264,1
7,625,18,0.146303994189172,1
7,626,18,0.154343175406233,1
30,595,18,0.117935096737504,1
31,594,18,0.189551311899342,1
31,595,18,0.213942235139673,1
31,596,18,0.138404514658801,1
31,597,18,0.108098572985906,1
31,598,18,0.109015462660269,1
31,603,18,0.13459078388075,1
31,604,18,0.154009514403115,2
32,593,18,0.114094438663586,1
32,594,18,0.211604723642857,1
32,595,18,0.238074299051936,1
32,596,18,0.161602826658026,1
32,597,18,0.140920746278309,1
32,598,18,0.147311011875673,1
32,599,18,0.104365014091991,1
32,600,18,0.117833923305459,1
32,601,18,0.200615511198436,1
32,602,18,0.210622792348906,1
32,603,18,0.299449144233133,2
32,604,18,0.361491311420564,2
32,605,18,0.196927125239779,2
33,594,18,0.138540033464579,1
33,595,18,0.155653669817191,1
33,597,18,0.191068826236658,1
33,598,18,0.210842045023345,1
33,601,18,0.267526638910091,1
33,602,18,0.247782918148164,2
33,603,18,0.302983504316562,2
33,604,18,0.375367692056566,2
33,605,18,0.232281313991378,2
34,597,18,0.212896188124252,1
34,598,18,0.237745245753572,1
34,603,18,0.207543146277887,2
34,604,18,0.227599559173779,2
1,606,19,0.104746462330937,1
1,610,19,0.12232206738004,1
1,611,19,0.150176927982206,1
1,612,19,0.132494430718563,1
1,613,19,0.104065622212173,1
1,621,19,0.101071028053019,1
1,622,19,0.128012680787458,1
1,623,19,0.211212077483137,1
2,607,19,0.129834772034054,1
2,609,19,0.110239674259511,1
2,610,19,0.190967434946232,1
2,611,19,0.24605135795171,1
2,612,19,0.18581079243016,1
2,613,19,0.106002916970537,1
2,622,19,0.100451242745475,1
2,623,19,0.172440681992385,1
3,607,19,0.119674085904742,1
3,609,19,0.122657863395289,1
3,610,19,0.200832236715658,1
3,611,19,0.235939744422674,1
3,612,19,0.164051086462724,1
4,607,19,0.10452685019017,1
4,608,19,0.110392796022457,1
4,609,19,0.124837209707644,1
4,610,19,0.130146865057472,1
4,611,19,0.120645124279654,1
4,623,19,0.138210903915782,1
4,625,19,0.208715616511688,1
5,608,19,0.119022591309873,1
5,609,19,0.125039458535461,1
5,623,19,0.14286511054113,1
5,624,19,0.244704971372515,1
5,625,19,0.326541881754658,1
5,626,19,0.248921772833807,1
6,624,19,0.202281169234696,1
6,625,19,0.29254512500216,1
6,626,19,0.23549030258308,1
7,625,19,0.152003757648584,1
30,595,19,0.116536337003563,1
30,596,19,0.100281040885474,1
31,596,19,0.152852588364785,1
31,597,19,0.127212312668067,1
31,598,19,0.102611319484048,1
31,603,19,0.142599421352822,1
31,604,19,0.140087775652231,1
32,594,19,0.170817658841248,1
32,595,19,0.203363206454626,1
32,598,19,0.122294137935621,1
32,601,19,0.1634853191407,1
32,602,19,0.203712193794833,1
32,603,19,0.321892239262388,1
32,604,19,0.317774301934304,2
32,605,19,0.154135578155167,1
33,602,19,0.22211900481713,1
33,603,19,0.305641703349919,2
33,604,19,0.305783529155821,2
33,605,19,0.172390639922315,1
34,603,19,0.191410341034403,1
34,604,19,0.185857740911223,1
1,606,20,0.107691123349211,1
1,607,20,0.110617157475927,1
1,608,20,0.100794848983677,1
1,610,20,0.114760213875317,1
1,611,20,0.141200454653421,1
1,612,20,0.135889927870069,1
1,613,20,0.106862531676587,1
1,619,20,0.112827396106678,1
1,620,20,0.107067013552808,1
1,621,20,0.120545497642113,1
2,606,20,0.128334087256656,1
2,607,20,0.136251627246795,1
2,608,20,0.104687858426501,1
2,609,20,0.106683125299997,1
2,610,20,0.177112753004959,1
2,611,20,0.249240107499835,1
2,612,20,0.216452399403276,1
2,613,20,0.12611606018879,1
2,622,20,0.130352425332678,1
3,606,20,0.129070394119172,1
3,607,20,0.116310341612238,1
3,609,20,0.122526647292532,1
3,610,20,0.194810914286182,1
3,611,20,0.257856101458827,1
3,612,20,0.210905746813891,1
3,613,20,0.115231321730882,1
4,606,20,0.142241392889812,1
4,607,20,0.102652581861372,1
4,608,20,0.136236377160139,1
4,609,20,0.169986877691897,1
4,610,20,0.156952955414457,1
4,611,20,0.151826823964616,1
4,612,20,0.121123813606871,1
4,625,20,0.223247729088066,1
5,606,20,0.144254959867295,1
5,607,20,0.105759634516696,1
5,608,20,0.168656699776233,1
5,609,20,0.202244939385969,1
5,610,20,0.139693343053788,1
5,621,20,0.103728704226263,1
5,622,20,0.15349732934985,1
5,624,20,0.291688287990466,1
5,625,20,0.319169009502361,1
5,626,20,0.202175791135902,1
6,604,20,0.114684235765012,1
6,605,20,0.128542697549193,1
6,609,20,0.107092001909086,1
6,625,20,0.284916661297507,1
28,595,20,0.104457004793284,1
30,596,20,0.112461546527797,1
30,597,20,0.100227382366282,1
31,597,20,0.162321519670454,1
31,598,20,0.102876790813974,1
31,603,20,0.135730444642402,1
32,603,20,0.291904033144974,1
32,604,20,0.240249353554188,1
33,603,20,0.282189292228245,1
33,604,20,0.233533237176658,1
1,604,21,0.10059610767579,1
1,605,21,0.108501512954119,1
1,606,21,0.103411502423815,1
1,607,21,0.110496812506371,1
1,608,21,0.106995708504772,1
1,610,21,0.100282075712783,1
1,611,21,0.122867094584212,1
1,612,21,0.133193483797962,1
1,613,21,0.109350343670319,1
1,618,21,0.121999626083534,1
1,619,21,0.160156617368748,1
1,620,21,0.130059950456451,1
2,604,21,0.104091580038246,1
2,605,21,0.12562264363503,1
2,606,21,0.120435195943913,1
2,607,21,0.123714574578451,1
2,608,21,0.101180828676944,1
2,610,21,0.138334135508883,1
2,611,21,0.203099968173103,1
2,612,21,0.205747405002449,1
2,613,21,0.133484292057575,1
2,619,21,0.107413125162389,1
3,605,21,0.190861773631543,1
3,606,21,0.136781731151882,1
3,607,21,0.103724891704599,1
3,609,21,0.110397240333426,1
3,610,21,0.164935079521585,1
3,611,21,0.233079917457885,1
3,612,21,0.222602040419044,1
3,613,21,0.139198336133849,1
4,604,21,0.191226294274301,1
4,605,21,0.233372588406654,1
4,606,21,0.138406279311686,1
4,608,21,0.135095463712798,1
4,609,21,0.186514627501017,1
4,610,21,0.169629916734952,1
4,611,21,0.177104463493569,1
4,612,21,0.154420101200494,1
4,613,21,0.104202469954074,1
5,604,21,0.166410351118863,1
5,605,21,0.207521534726511,1
5,606,21,0.132133384916978,1
5,607,21,0.101909902641217,1
5,608,21,0.182390546566595,1
5,609,21,0.245553943696663,1
5,610,21,0.169159418882853,1
5,611,21,0.130373927954863,1
5,612,21,0.103196029592283,1
5,621,21,0.147315630473346,1
5,625,21,0.285502809271055,1
6,605,21,0.115137893164275,1
6,608,21,0.104634842589533,1
6,609,21,0.128615505820057,1
6,619,21,0.101402205470596,1
6,620,21,0.111355937031065,1
6,621,21,0.121933985353398,1
7,620,21,0.101172353985931,1
9,619,21,0.102325805183087,1
15,616,21,0.110136616352472,1
28,595,21,0.158481417135408,1
30,597,21,0.118851528909267,1
1,604,22,0.11135383469769,1
1,605,22,0.114977908862333,1
1,611,22,0.109112976071516,1
1,612,22,0.127832544585292,1
1,613,22,0.113184073847728,1
2,604,22,0.112275146897183,1
2,605,22,0.141249952077539,1
2,606,22,0.115528230025159,1
2,607,22,0.107223119975572,1
2,610,22,0.108194147457564,1
2,611,22,0.153788420825358,1
2,612,22,0.1738213485878,1
2,613,22,0.134689201404278,1
3,606,22,0.138497932332489,1
3,609,22,0.100629036970048,1
3,610,22,0.143895351931024,1
3,611,22,0.203613177160759,1
3,612,22,0.210316200249603,1
3,613,22,0.153525247901349,1
4,606,22,0.1237267310761,1
4,608,22,0.118259760189494,1
4,609,22,0.17952317080891,1
4,610,22,0.185445661783936,1
4,612,22,0.189539329688398,1
4,613,22,0.131671438006326,1
5,604,22,0.106406924444816,1
5,605,22,0.140886215724952,1
5,606,22,0.103913306525236,1
5,608,22,0.164246342036518,1
5,609,22,0.239713421937415,1
5,610,22,0.179580892386904,1
5,611,22,0.157940452990038,1
5,612,22,0.130044144830924,1
5,616,22,0.100820904846021,1
6,608,22,0.10599948570104,1
6,609,22,0.14094308765526,1
6,619,22,0.127525734627608,1
6,620,22,0.151319878405408,1
7,619,22,0.118007218754468,1
7,620,22,0.125734644628601,1
9,619,22,0.151658778902584,1
14,616,22,0.125682859691484,1
15,615,22,0.128233186147587,1
15,616,22,0.15172963734094,1
16,615,22,0.110344660213219,1
18,613,22,0.105615488519038,1
19,613,22,0.106159731433039,1
1,605,23,0.120497122188656,1
2,606,23,0.11929928234641,1
2,611,23,0.119315186008209,1
2,612,23,0.143733940656688,1
3,610,23,0.133951086317201,1
3,612,23,0.195288241998519,1
3,613,23,0.165086850562571,1
4,609,23,0.152279958503765,1
4,613,23,0.169675917532059,1
4,614,23,0.128984677739245,1
4,615,23,0.10123999901317,1
5,608,23,0.126299878197592,1
5,609,23,0.187202014264124,1
5,610,23,0.168109374166144,1
5,612,23,0.158358621259068,1
5,613,23,0.129281836570659,1
5,614,23,0.119061054207003,1
5,615,23,0.113273493820128,1
5,616,23,0.131048079821336,1
6,609,23,0.135976428540166,1
6,610,23,0.100583079744618,1
6,616,23,0.105297927250262,1
9,618,23,0.112692411053933,1
14,615,23,0.102850255663192,1
14,616,23,0.138341989303511,1
15,615,23,0.157144910433782,1
15,616,23,0.180267625574868,1
16,614,23,0.107937401355789,1
16,615,23,0.131622071297236,1
17,613,23,0.126527910564778,1
17,614,23,0.115897293015156,1
18,612,23,0.115515256558582,1
18,613,23,0.129358457363187,1
19,612,23,0.128097961450623,1
19,613,23,0.112100555190808,1
3,610,24,0.125583352876053,1
4,609,24,0.124220300130726,1
4,614,24,0.171874032343919,1
5,609,24,0.138107562792849,1
5,613,24,0.164877227228563,1
5,614,24,0.160162042042429,1
5,615,24,0.134212483695406,1
6,609,24,0.121573985272042,1
6,610,24,0.104392333532943,1
6,611,24,0.101159129982216,1
6,612,24,0.110362077990764,1
6,613,24,0.118645685418166,1
6,614,24,0.11795386523701,1
6,615,24,0.121068869723233,1
6,616,24,0.132149778760134,1
7,613,24,0.111659511791793,1
7,614,24,0.110850734338904,1
7,615,24,0.126654518962781,1
7,616,24,0.125036953164082,1
8,615,24,0.117388479167152,1
8,616,24,0.111082230654344,1
14,615,24,0.115847762912281,1
14,616,24,0.141790229969009,1
15,614,24,0.110957484945497,1
15,615,24,0.170793160666326,1
16,613,24,0.137022540913102,1
16,614,24,0.148736274081638,1
17,612,24,0.118810244746105,1
17,613,24,0.178013695445847,1
17,614,24,0.145949418781498,1
18,612,24,0.13590058114489,1
18,613,24,0.1429219606856,1
19,611,24,0.103160333496588,1
19,612,24,0.138153182337789,1
19,613,24,0.103771241075114,1
5,613,25,0.212403980684506,1
5,614,25,0.196001031048828,1
6,613,25,0.144106946883378,1
6,614,25,0.139258759155764,1
6,615,25,0.141361528247267,1
7,614,25,0.145427571709043,1
7,615,25,0.16180308208166,1
7,616,25,0.16051121456226,1
8,614,25,0.144874701603163,1
8,615,25,0.146577667887136,1
8,616,25,0.134364134914283,1
12,614,25,0.125222307074468,1
12,615,25,0.133004034150016,1
13,614,25,0.121433488402262,1
14,614,25,0.107810335455186,1
14,615,25,0.133274036934263,1
15,613,25,0.123782045318985,1
15,614,25,0.150559672478518,1
16,613,25,0.194474039871947,1
16,614,25,0.200316914501708,1
17,612,25,0.139553456187475,1
17,613,25,0.205263367251983,1
18,611,25,0.111297344019548,1
18,612,25,0.141074390901369,1
19,611,25,0.119198947669132,1
19,612,25,0.126706510865359,1
20,610,25,0.109510262614747,1
23,608,25,0.114247549533613,1
25,606,25,0.104160510429932,1
6,614,26,0.160671068149174,1
7,615,26,0.188765801721522,1
