x,y,z,signal,mito.p
887,352,28,0.229125417487079,1
888,352,28,0.177896106384809,1
889,352,28,0.168421434510805,1
890,352,28,0.194020001220518,1
891,352,28,0.254287167250364,1
879,345,29,0.252349556597348,1
881,339,29,0.11783414116384,1
882,337,29,0.105095122883573,1
882,338,29,0.103285732780578,1
882,339,29,0.115062819166251,1
883,339,29,0.114483544624617,1
884,339,29,0.106527476379833,1
884,340,29,0.108534856179301,1
884,341,29,0.114230295149854,1
885,341,29,0.105218746621759,1
885,342,29,0.113990204321291,1
885,343,29,0.113202156093334,1
885,344,29,0.117280279802327,1
886,341,29,0.101530229948074,1
886,342,29,0.108072484444805,1
886,343,29,0.109047531413923,1
886,344,29,0.11175624091287,1
886,345,29,0.119096314585936,1
887,341,29,0.103536596706071,1
887,342,29,0.110626917531386,1
887,343,29,0.116353891502561,1
887,344,29,0.123069583056248,1
887,345,29,0.129227524476325,1
887,346,29,0.132995940711169,1
887,351,29,0.210356438692537,1
887,352,29,0.21863457787458,1
888,338,29,0.100663099127887,1
888,339,29,0.102680337019086,1
888,340,29,0.103920822639373,1
888,341,29,0.106667581104526,1
888,342,29,0.111640089717145,1
888,343,29,0.118999411178155,1
888,344,29,0.130479687305824,1
888,345,29,0.139926288127461,1
888,351,29,0.175705039291567,1
888,352,29,0.179120927987516,1
889,337,29,0.115011981913091,1
889,338,29,0.117639604522703,1
889,339,29,0.116342181614593,1
889,340,29,0.115529210387872,1
889,341,29,0.116292673297555,1
889,342,29,0.119429147727206,1
889,343,29,0.126368013406188,1
889,351,29,0.169389923942661,1
889,352,29,0.170133583525529,1
890,336,29,0.104969767171259,1
890,337,29,0.121911338974714,1
890,338,29,0.13296926395244,1
890,339,29,0.149819106484658,1
890,351,29,0.190597075698869,1
890,352,29,0.194819476120547,1
891,337,29,0.134162528768689,1
891,351,29,0.240535140178124,1
891,352,29,0.261382662212223,1
892,351,29,0.273470970187791,1
892,352,29,0.277241554113524,1
893,350,29,0.251821576811474,1
893,351,29,0.258401161341755,1
894,350,29,0.225457815217951,1
895,348,29,0.19281696545589,1
895,349,29,0.200561133746587,1
895,350,29,0.214048223241934,1
896,348,29,0.201332744559712,1
897,346,29,0.184064200005431,1
897,347,29,0.193777045554247,1
878,342,30,0.190780773885561,1
878,343,30,0.209165733712263,1
879,341,30,0.144192173081948,1
879,342,30,0.169295013939064,1
879,343,30,0.199300169438505,1
879,344,30,0.213882934088419,1
879,345,30,0.242401467568942,1
880,340,30,0.119354041050425,1
880,341,30,0.12460915555462,1
880,342,30,0.151441933563253,1
880,343,30,0.177598500943714,1
880,344,30,0.195667272009439,1
880,345,30,0.237958354821673,1
881,338,30,0.115802927657512,1
881,339,30,0.112164463946817,1
881,340,30,0.118651839917424,1
881,341,30,0.12991539052787,1
881,342,30,0.146508247314093,1
881,343,30,0.161898874411698,1
881,344,30,0.172365825852742,1
881,345,30,0.205579675835069,1
882,336,30,0.102571549436632,1
882,339,30,0.106499416220385,1
882,340,30,0.121926055308337,1
882,341,30,0.134079295974303,1
882,342,30,0.144993412634862,1
882,343,30,0.153258970495414,1
882,344,30,0.152092077436162,1
882,345,30,0.163824698926313,1
882,346,30,0.200333188522754,1
883,339,30,0.102049266647416,1
883,340,30,0.111832927062912,1
883,341,30,0.119626592777727,1
883,342,30,0.129581500773453,1
883,343,30,0.136358933392259,1
883,344,30,0.1371569268553,1
883,345,30,0.151923531299854,1
883,346,30,0.195324863992332,1
883,347,30,0.248406254547315,1
884,340,30,0.100284406797457,1
884,341,30,0.104720460933188,1
884,342,30,0.112599766777497,1
884,343,30,0.116444477017298,1
884,344,30,0.122131343260567,1
884,345,30,0.143379049354361,1
884,346,30,0.185921050556684,1
884,347,30,0.23153039972443,1
884,348,30,0.245553268335683,1
885,341,30,0.101628298898192,1
885,342,30,0.106710117953378,1
885,343,30,0.106195906817171,1
885,344,30,0.109963233760111,1
885,345,30,0.123300425796546,1
885,346,30,0.14471120978129,1
885,347,30,0.171461539285708,1
885,348,30,0.200933933007816,1
885,349,30,0.245948572367648,1
886,341,30,0.101584247933594,1
886,342,30,0.105507594155946,1
886,343,30,0.10544433897508,1
886,344,30,0.108754544570502,1
886,345,30,0.115825824573334,1
886,346,30,0.123337875652206,1
886,347,30,0.135633595699217,1
886,348,30,0.156375391061112,1
886,349,30,0.186700417128165,1
886,350,30,0.211362879054329,1
886,351,30,0.226361121422271,1
886,352,30,0.24119122069191,1
887,340,30,0.102330031635675,1
887,341,30,0.10658878172819,1
887,342,30,0.109608233528594,1
887,343,30,0.112657924072252,1
887,344,30,0.120656387557941,1
887,345,30,0.129514792537251,1
887,346,30,0.13201738622212,1
887,347,30,0.136338356668193,1
887,348,30,0.148906203618663,1
887,349,30,0.162860337910773,1
887,350,30,0.177309130549414,1
887,351,30,0.192410311002285,1
887,352,30,0.198445816012351,1
888,337,30,0.100812669799226,1
888,338,30,0.10748029090119,1
888,339,30,0.108410164935049,1
888,340,30,0.109775374478345,1
888,341,30,0.111869516377968,1
888,342,30,0.112857122882739,1
888,343,30,0.11655079190713,1
888,344,30,0.129257948399204,1
888,345,30,0.142325693190264,1
888,346,30,0.141582719861295,1
888,347,30,0.139877204634266,1
888,348,30,0.150390287587445,1
888,349,30,0.162861971848629,1
888,350,30,0.167342610701992,1
888,351,30,0.171547713168235,1
888,352,30,0.174511752689481,1
888,353,30,0.179216687638798,1
889,336,30,0.102241199880903,1
889,337,30,0.12553175311856,1
889,338,30,0.128448114333168,1
889,339,30,0.123389584338889,1
889,340,30,0.120954679252935,1
889,341,30,0.121317663994109,1
889,342,30,0.120957173731396,1
889,343,30,0.123383026801627,1
889,344,30,0.134289594669291,1
889,345,30,0.150087562474401,1
889,346,30,0.154275759130294,1
889,347,30,0.153771177334518,1
889,348,30,0.171068065264142,1
889,349,30,0.19239436376881,1
889,350,30,0.184038754146553,1
889,351,30,0.169997324001256,1
889,352,30,0.171064873638863,1
889,353,30,0.179527865657017,1
890,336,30,0.112409336766838,1
890,337,30,0.134890557012734,1
890,338,30,0.143733134580679,1
890,339,30,0.157804465788741,1
890,340,30,0.155810560530126,1
890,341,30,0.147968072752172,1
890,342,30,0.15093777659132,1
890,343,30,0.156260514336915,1
890,344,30,0.152880071199523,1
890,345,30,0.163550545939912,1
890,346,30,0.177857327593026,1
890,347,30,0.178822157004084,1
890,348,30,0.196274072957487,1
890,349,30,0.224012586291386,1
890,350,30,0.211546119738421,1
890,351,30,0.188283637553131,1
890,352,30,0.192053829333778,1
890,353,30,0.188848348262008,1
891,337,30,0.148494527529381,1
891,338,30,0.178080360110372,1
891,339,30,0.235930790443223,1
891,340,30,0.236961500228636,1
891,341,30,0.213128425158187,1
891,342,30,0.208076964668366,1
891,343,30,0.210541182599457,1
891,344,30,0.183225467025181,1
891,345,30,0.17138946084042,1
891,346,30,0.180482913226777,1
891,347,30,0.17947017675778,1
891,348,30,0.187424425885085,1
891,349,30,0.216280726999204,1
891,350,30,0.230412437657505,1
891,351,30,0.232612829089445,1
891,352,30,0.247534951739135,1
892,338,30,0.19696196079487,1
892,339,30,0.258977897833253,1
892,340,30,0.272622041435319,1
892,341,30,0.265778804692591,1
892,342,30,0.241119981001388,1
892,343,30,0.223932392621412,1
892,344,30,0.197887858913279,1
892,345,30,0.178184038913796,1
892,346,30,0.170914039388914,1
892,347,30,0.163518085041172,1
892,348,30,0.171948953841077,1
892,349,30,0.208296979847138,1
892,350,30,0.243382832431103,1
892,351,30,0.259868502893972,1
892,352,30,0.261147614805176,1
893,339,30,0.207127603202345,1
893,340,30,0.227257826517652,1
893,341,30,0.25149241458392,1
893,342,30,0.237407064189053,1
893,343,30,0.223102177903852,1
893,344,30,0.220250455270828,1
893,345,30,0.21577884664735,1
893,346,30,0.205804854257466,1
893,347,30,0.186779543292073,1
893,348,30,0.183749460002686,1
893,349,30,0.211050796923829,1
893,350,30,0.235471937121578,1
893,351,30,0.246466508882167,1
893,352,30,0.247506259790383,1
894,339,30,0.171822922767783,1
894,340,30,0.179286380534817,1
894,341,30,0.200693918429686,1
894,342,30,0.218419813082786,1
894,343,30,0.242738908414966,1
894,344,30,0.26313086678897,1
894,345,30,0.259686983291088,1
894,346,30,0.248296083564143,1
894,347,30,0.21731729717506,1
894,348,30,0.191258471957146,1
894,349,30,0.198858592286457,1
894,350,30,0.209548663388199,1
894,351,30,0.221307765564537,1
895,340,30,0.178422234374446,1
895,341,30,0.187051604838018,1
895,342,30,0.205057600011315,1
895,343,30,0.234131410932826,1
895,344,30,0.25876265375302,1
895,345,30,0.248726157793685,1
895,346,30,0.230888283932853,1
895,347,30,0.20441376313853,1
895,348,30,0.183995759795102,1
895,349,30,0.189386698106808,1
895,350,30,0.200289987205841,1
895,351,30,0.213831170937141,1
896,343,30,0.209196538887308,1
896,344,30,0.217379408599427,1
896,345,30,0.212696978420847,1
896,346,30,0.191673100027488,1
896,347,30,0.180806520065621,1
896,348,30,0.19307604264234,1
897,345,30,0.196580055053323,1
897,346,30,0.178212044608648,1
897,347,30,0.185837153294237,1
879,341,31,0.12571581077158,1
879,342,31,0.146451299133352,1
879,343,31,0.166578112965,1
880,340,31,0.109176743219577,1
880,341,31,0.115873132520726,1
880,342,31,0.139147956383288,1
880,343,31,0.156331002416024,1
880,344,31,0.174853757668583,1
880,345,31,0.212903856739256,1
881,338,31,0.110388460640679,1
881,339,31,0.108726724055273,1
881,340,31,0.111516629372744,1
881,341,31,0.118064994797057,1
881,342,31,0.13145702178794,1
881,343,31,0.144814060722867,1
881,344,31,0.156937062645577,1
881,345,31,0.177655089658127,1
881,346,31,0.206057395692492,1
882,339,31,0.102027339201389,1
882,340,31,0.109246795581924,1
882,341,31,0.114733798546645,1
882,342,31,0.125667958178237,1
882,343,31,0.13871569267702,1
882,344,31,0.142952624252698,1
882,345,31,0.153823833705158,1
882,346,31,0.182383215632081,1
882,347,31,0.222523044970165,1
883,340,31,0.101672796472471,1
883,341,31,0.106229108434405,1
883,342,31,0.11519991744529,1
883,343,31,0.124253142281632,1
883,344,31,0.127386501336438,1
883,345,31,0.141352127658135,1
883,346,31,0.180114100773917,1
883,347,31,0.223472362864511,1
883,348,31,0.232155696849008,1
884,341,31,0.0999508656164491,1
884,342,31,0.104969146274874,1
884,343,31,0.108952643196165,1
884,344,31,0.113741595230038,1
884,345,31,0.12856372088294,1
884,346,31,0.161493243892483,1
884,347,31,0.196902485456911,1
884,348,31,0.204741095355686,1
884,349,31,0.21631549719678,1
885,341,31,0.100127810193337,1
885,342,31,0.103089311664447,1
885,343,31,0.10465223858124,1
885,344,31,0.108751875805337,1
885,345,31,0.117854859495854,1
885,346,31,0.132635570270565,1
885,347,31,0.14804900714064,1
885,348,31,0.164397089143114,1
885,349,31,0.193629686145472,1
885,350,31,0.220758566372373,1
886,341,31,0.102118360432888,1
886,342,31,0.103077678026912,1
886,343,31,0.104118474655356,1
886,344,31,0.108731015865375,1
886,345,31,0.116548733145431,1
886,346,31,0.123836858487595,1
886,347,31,0.131046957850675,1
886,348,31,0.146693056578528,1
886,349,31,0.172044070810135,1
886,350,31,0.19179041676555,1
886,351,31,0.198949025300328,1
887,339,31,0.10399621253205,1
887,340,31,0.108734436241953,1
887,341,31,0.111764007564145,1
887,342,31,0.110278104477884,1
887,343,31,0.110024833217283,1
887,344,31,0.118286426055304,1
887,345,31,0.130500351173243,1
887,346,31,0.135836334708391,1
887,347,31,0.13964157990251,1
887,348,31,0.15276219892259,1
887,349,31,0.167041857207294,1
887,350,31,0.175578398214807,1
887,351,31,0.179129544286477,1
888,337,31,0.105852126292265,1
888,338,31,0.115474168467963,1
888,339,31,0.115317648114275,1
888,340,31,0.117459076175451,1
888,341,31,0.122354571850456,1
888,342,31,0.120020360908108,1
888,343,31,0.116546685276652,1
888,344,31,0.127748745359117,1
888,345,31,0.144652453375988,1
888,346,31,0.147374267056539,1
888,347,31,0.146007423575386,1
888,348,31,0.156830889363693,1
888,349,31,0.169004238358208,1
888,350,31,0.173263108272832,1
888,351,31,0.173748877997426,1
888,352,31,0.176104961921206,1
889,336,31,0.10436286818694,1
889,337,31,0.129028151379134,1
889,338,31,0.13739171283229,1
889,339,31,0.130732729815125,1
889,340,31,0.127962311929817,1
889,341,31,0.131661067947399,1
889,342,31,0.130231339644628,1
889,343,31,0.126756847044243,1
889,344,31,0.13486847706584,1
889,345,31,0.149233350656195,1
889,346,31,0.154301139631657,1
889,347,31,0.154707401940177,1
889,348,31,0.16829166716628,1
889,349,31,0.18512207673093,1
889,350,31,0.186647477541631,1
889,351,31,0.178847581077124,1
889,352,31,0.181188578308033,1
890,335,31,0.0998894186601439,1
890,336,31,0.121182363046712,1
890,337,31,0.150096276809633,1
890,338,31,0.160095954702613,1
890,339,31,0.164555406828442,1
890,340,31,0.161717365701733,1
890,341,31,0.153508919415708,1
890,342,31,0.152963892211537,1
890,343,31,0.153259754785585,1
890,344,31,0.149268992287294,1
890,345,31,0.15298325982159,1
890,346,31,0.164252823323346,1
890,347,31,0.170454804815103,1
890,348,31,0.183271119248878,1
890,349,31,0.203342379193422,1
890,350,31,0.205503991833579,1
890,351,31,0.193595809167258,1
890,352,31,0.194573317936079,1
891,336,31,0.150842343727609,1
891,337,31,0.170243808973296,1
891,338,31,0.190408236054389,1
891,339,31,0.226904656296534,1
891,340,31,0.229244891023111,1
891,341,31,0.202592684933405,1
891,342,31,0.194180257845436,1
891,343,31,0.192075092311745,1
891,344,31,0.172139710639307,1
891,345,31,0.161021885499779,1
891,346,31,0.168499809063298,1
891,347,31,0.17271298318255,1
891,348,31,0.179138160585438,1
891,349,31,0.201102795038776,1
891,350,31,0.220877212046557,1
891,351,31,0.223795512200754,1
892,337,31,0.180571668731116,1
892,338,31,0.195378718584066,1
892,339,31,0.239449246864854,1
892,340,31,0.249726977409252,1
892,341,31,0.233074950286802,1
892,342,31,0.215552491789696,1
892,343,31,0.203512308730447,1
892,344,31,0.18602527400606,1
892,345,31,0.172652886948206,1
892,346,31,0.168723898193791,1
892,347,31,0.165471621141825,1
892,348,31,0.17112380433087,1
892,349,31,0.197067622109559,1
892,350,31,0.226851564209132,1
892,351,31,0.240052649222162,1
893,338,31,0.177165071695108,1
893,339,31,0.19990087035189,1
893,340,31,0.211017268519024,1
893,341,31,0.218586256885718,1
893,342,31,0.211487428690633,1
893,343,31,0.203111536453124,1
893,344,31,0.202576105910626,1
893,345,31,0.200645641012501,1
893,346,31,0.194071590085091,1
893,347,31,0.181146411818429,1
893,348,31,0.179315987488768,1
893,349,31,0.197332603258128,1
893,350,31,0.217057631770982,1
893,351,31,0.229715813699052,1
894,338,31,0.178086993898068,1
894,339,31,0.179141134352336,1
894,340,31,0.178839062814435,1
894,341,31,0.189552314047894,1
894,342,31,0.201995360824922,1
894,343,31,0.216200010469116,1
894,344,31,0.232614310526434,1
894,345,31,0.234351121109865,1
894,346,31,0.223661224294828,1
894,347,31,0.199227448310993,1
894,348,31,0.181605025495856,1
894,349,31,0.186748040970209,1
894,350,31,0.196362567031769,1
894,351,31,0.210469528978011,1
895,339,31,0.1891643736292,1
895,340,31,0.181703693556521,1
895,341,31,0.184226188604477,1
895,342,31,0.196396182579926,1
895,343,31,0.214744215411082,1
895,344,31,0.234107141509205,1
895,345,31,0.229227026635885,1
895,346,31,0.213218400669458,1
895,347,31,0.191692010134942,1
895,348,31,0.178081449402276,1
895,349,31,0.182493658938229,1
895,350,31,0.191064076923956,1
896,342,31,0.208722980124959,1
896,343,31,0.207760612513603,1
896,344,31,0.211846786089766,1
896,345,31,0.201728920025201,1
896,346,31,0.18264297907243,1
896,347,31,0.17423305735584,1
896,348,31,0.184014157935361,1
896,349,31,0.19724735527372,1
897,345,31,0.19301510765323,1
897,346,31,0.172624783217082,1
897,347,31,0.174546697173762,1
897,348,31,0.206916324144643,1
898,346,31,0.18396025977195,1
898,347,31,0.185058157082003,1
879,340,32,0.119114222544838,1
880,343,32,0.146299310233985,1
881,343,32,0.132763921535615,1
881,344,32,0.146624246008951,1
881,345,32,0.157127634264184,1
882,344,32,0.132683346613475,1
882,345,32,0.142700529427353,1
882,346,32,0.16780210670586,1
883,345,32,0.129777987247098,1
883,346,32,0.158962393975623,1
883,347,32,0.19166695642115,1
884,346,32,0.140292268421371,1
884,347,32,0.163369364017518,1
884,348,32,0.171054558044532,1
885,347,32,0.136282138313027,1
885,348,32,0.145665788955532,1
885,349,32,0.162613754902462,1
886,348,32,0.141592774025569,1
886,349,32,0.162126340347094,1
886,350,32,0.176638311916167,1
887,348,32,0.152621168299778,1
887,349,32,0.169664861219233,1
887,350,32,0.175661119041998,1
888,346,32,0.1480174612471,1
888,347,32,0.147705901976715,1
888,348,32,0.157645908459193,1
888,349,32,0.173341569968678,1
888,350,32,0.178232468831848,1
888,351,32,0.17437218171782,1
889,345,32,0.145031189278093,1
889,346,32,0.152644511825281,1
889,347,32,0.153998948271646,1
889,348,32,0.163479229998956,1
889,349,32,0.180826519464978,1
889,350,32,0.188406901824989,1
889,351,32,0.182895444257023,1
890,337,32,0.161797984195549,1
890,338,32,0.175322283902336,1
890,339,32,0.167462737813166,1
890,340,32,0.159937876661503,1
890,341,32,0.152387079469606,1
890,342,32,0.149319568110397,1
890,343,32,0.147783633846985,1
890,344,32,0.145517547220315,1
890,345,32,0.144518851723961,1
890,346,32,0.152723561738755,1
890,347,32,0.160378767559651,1
890,348,32,0.168632996784402,1
890,349,32,0.18496433637031,1
890,350,32,0.194767364395859,1
890,351,32,0.190448648784028,1
891,336,32,0.160933467675931,1
891,337,32,0.187082932873178,1
891,338,32,0.200442357357374,1
891,339,32,0.206023213712544,1
891,340,32,0.204109828911473,1
891,341,32,0.181320927274371,1
891,342,32,0.17297024125152,1
891,343,32,0.172679825136992,1
891,344,32,0.163446605706431,1
891,345,32,0.153150030412094,1
891,346,32,0.156775182975722,1
891,347,32,0.163441093889397,1
891,348,32,0.169328912703117,1
891,349,32,0.185484157359823,1
891,350,32,0.203460393078302,1
891,351,32,0.206142316889329,1
892,337,32,0.182016058902915,1
892,338,32,0.189563010894391,1
892,339,32,0.207495304577462,1
892,340,32,0.212994551183184,1
892,341,32,0.194867818895247,1
892,342,32,0.187235063380492,1
892,343,32,0.185150158676216,1
892,344,32,0.176847216317518,1
892,345,32,0.166652184814473,1
892,346,32,0.163217974228698,1
892,347,32,0.162918963601047,1
892,348,32,0.168391206660469,1
892,349,32,0.185195996079536,1
892,350,32,0.206378606089147,1
892,351,32,0.214700578377408,1
893,337,32,0.169584024867036,1
893,338,32,0.175427422356911,1
893,339,32,0.188187692722225,1
893,340,32,0.191199454121787,1
893,341,32,0.187550522315893,1
893,342,32,0.186500161704532,1
893,343,32,0.184933422266075,1
893,344,32,0.185828242886462,1
893,345,32,0.185139527187232,1
893,346,32,0.179924291659643,1
893,347,32,0.170946119035488,1
893,348,32,0.170777594685018,1
893,349,32,0.180916124617002,1
893,350,32,0.196282504076824,1
893,351,32,0.207673011658683,1
894,339,32,0.186822047462167,1
894,340,32,0.176758863851184,1
894,341,32,0.176760083858116,1
894,342,32,0.183880534497496,1
894,343,32,0.190128963396039,1
894,344,32,0.201634587346314,1
894,345,32,0.208803849155912,1
894,346,32,0.201561517645393,1
894,347,32,0.183205674591285,1
894,348,32,0.172512586150969,1
894,349,32,0.173922674520711,1
894,350,32,0.182983437257029,1
895,340,32,0.18136132911109,1
895,341,32,0.179074861832896,1
895,342,32,0.188788197563068,1
895,343,32,0.20051344454703,1
895,344,32,0.210597803992628,1
895,345,32,0.210905768599729,1
895,346,32,0.200396824955786,1
895,347,32,0.18385609078717,1
895,348,32,0.174513648057394,1
895,349,32,0.175591295430951,1
895,350,32,0.182339349847106,1
896,340,32,0.195654178720752,1
896,341,32,0.196694169273188,1
896,342,32,0.206567053588541,1
896,343,32,0.218870518500989,1
896,344,32,0.214283553864876,1
896,345,32,0.19519608790344,1
896,346,32,0.178027409630918,1
896,347,32,0.170371038267684,1
896,348,32,0.17633811396034,1
896,349,32,0.187827180673674,1
897,345,32,0.200416257923354,1
897,346,32,0.174820850160163,1
897,347,32,0.169410391737537,1
897,348,32,0.190225779660468,1
898,346,32,0.19134659567218,1
898,347,32,0.182235573007411,1
878,340,33,0.161797984195549,1
879,339,33,0.12240207587039,1
879,340,33,0.109923507284372,1
879,341,33,0.108545727312503,1
879,343,33,0.151169131298812,1
880,337,33,0.123076042557239,1
880,338,33,0.110888489196297,1
880,339,33,0.102995480059835,1
880,341,33,0.103627922939304,1
880,342,33,0.121381038997084,1
880,343,33,0.142863781605007,1
880,344,33,0.161486065458835,1
880,345,33,0.174232392887778,1
881,336,33,0.102338571684202,1
881,338,33,0.101205512031489,1
881,339,33,0.10106977536733,1
881,342,33,0.108848909928146,1
881,343,33,0.123911997843134,1
881,344,33,0.139479482374274,1
881,345,33,0.147949249788071,1
881,346,33,0.162780078883286,1
882,342,33,0.100385046476469,1
882,343,33,0.111771654393311,1
882,344,33,0.123285132138214,1
882,345,33,0.132921966897968,1
882,346,33,0.153018400378413,1
882,347,33,0.17195992301055,1
883,342,33,0.101158541764588,1
883,343,33,0.108056940249335,1
883,344,33,0.114451639264749,1
883,345,33,0.1209298869692,1
883,346,33,0.137363619994086,1
883,347,33,0.156029998384189,1
883,348,33,0.161559963021603,1
884,342,33,0.101480383950547,1
884,343,33,0.104519399433546,1
884,344,33,0.110045235654645,1
884,345,33,0.116115314789744,1
884,346,33,0.126308930213314,1
884,347,33,0.138174782996245,1
884,348,33,0.145053781192182,1
884,349,33,0.15130851709085,1
885,339,33,0.102954664292192,1
885,340,33,0.10396999327592,1
885,341,33,0.102120114192853,1
885,342,33,0.100276814432886,1
885,343,33,0.102470996900973,1
885,344,33,0.109701291735953,1
885,345,33,0.116020873181667,1
885,346,33,0.124041111612516,1
885,347,33,0.129848823899616,1
885,348,33,0.13543462564003,1
885,349,33,0.144736764569358,1
885,350,33,0.160265568344987,1
886,338,33,0.104027562353047,1
886,339,33,0.112098845002519,1
886,340,33,0.113017216113871,1
886,341,33,0.107209373111743,1
886,342,33,0.100879116605371,1
886,343,33,0.101409623548462,1
886,344,33,0.107732865014973,1
886,345,33,0.114950099240024,1
886,346,33,0.125138289989912,1
886,347,33,0.1310450842686,1
886,348,33,0.139051826372759,1
886,349,33,0.154705027283826,1
886,350,33,0.165521347317243,1
886,351,33,0.165815848276411,1
887,337,33,0.103511673707308,1
887,338,33,0.113065754961114,1
887,339,33,0.119290404617393,1
887,340,33,0.12022801262377,1
887,341,33,0.120138549079693,1
887,342,33,0.113550402715046,1
887,343,33,0.108567752794802,1
887,344,33,0.112717432088969,1
887,345,33,0.12290547033799,1
887,346,33,0.135508882669127,1
887,347,33,0.141435774383444,1
887,348,33,0.151785256585559,1
887,349,33,0.168945492845824,1
887,350,33,0.174513909487451,1
887,351,33,0.168298638634466,1
888,336,33,0.101271337941248,1
888,337,33,0.112830631303633,1
888,338,33,0.125029012226102,1
888,339,33,0.127248346444252,1
888,340,33,0.127800661011262,1
888,341,33,0.137041592628503,1
888,342,33,0.133147820681345,1
888,343,33,0.121271292837755,1
888,344,33,0.12374704637011,1
888,345,33,0.136111980024701,1
888,346,33,0.147635348540092,1
888,347,33,0.149212392679962,1
888,348,33,0.156331873849547,1
888,349,33,0.174587643656433,1
888,350,33,0.181941627587114,1
888,351,33,0.176535264902047,1
888,352,33,0.17883991246212,1
889,335,33,0.107909972985646,1
889,336,33,0.113214759200664,1
889,337,33,0.127600438266385,1
889,338,33,0.143957332640362,1
889,339,33,0.140851990173328,1
889,340,33,0.134789274651499,1
889,341,33,0.140039705200507,1
889,342,33,0.138440929687152,1
889,343,33,0.13145566017306,1
889,344,33,0.133929703517125,1
889,345,33,0.140138362368253,1
889,346,33,0.148491706263349,1
889,347,33,0.15058938836166,1
889,348,33,0.156195755933222,1
889,349,33,0.174561457079061,1
889,350,33,0.186248230272973,1
889,351,33,0.181371383275364,1
889,352,33,0.182991073193276,1
890,335,33,0.124758061757898,1
890,336,33,0.13791985601195,1
890,337,33,0.159607788535831,1
890,338,33,0.179151744055481,1
890,339,33,0.167231230604807,1
890,340,33,0.153066013327537,1
890,341,33,0.144074932594319,1
890,342,33,0.13850699524113,1
890,343,33,0.139615164573838,1
890,344,33,0.141748117944,1
890,345,33,0.138267634238143,1
890,346,33,0.143041771902122,1
890,347,33,0.151482172006187,1
890,348,33,0.157111490958167,1
890,349,33,0.17053688296007,1
890,350,33,0.180747077406419,1
890,351,33,0.179099708581226,1
890,352,33,0.176602289032901,1
891,335,33,0.143089526459194,1
891,336,33,0.15579666116543,1
891,337,33,0.182634428130984,1
891,338,33,0.198372136307964,1
891,339,33,0.184763394692778,1
891,340,33,0.175129065304403,1
891,341,33,0.158881437801317,1
891,342,33,0.151374244964338,1
891,343,33,0.156825878620935,1
891,344,33,0.156853884315787,1
891,345,33,0.14783589807254,1
891,346,33,0.147875352225303,1
891,347,33,0.156113351000684,1
891,348,33,0.161824726311792,1
891,349,33,0.171983734931572,1
891,350,33,0.182636105640516,1
891,351,33,0.183501711452038,1
891,352,33,0.179676336143533,1
892,336,33,0.163890982338672,1
892,337,33,0.175073925348222,1
892,338,33,0.180997865081479,1
892,339,33,0.177652769466372,1
892,340,33,0.178059794279224,1
892,341,33,0.166395188175559,1
892,342,33,0.163442444611358,1
892,343,33,0.169332921297324,1
892,344,33,0.167230184884579,1
892,345,33,0.159932048949817,1
892,346,33,0.156412121984116,1
892,347,33,0.158372607767116,1
892,348,33,0.163063011562434,1
892,349,33,0.172898489593803,1
892,350,33,0.18376927422242,1
892,351,33,0.187405973280231,1
892,352,33,0.184086606739897,1
893,337,33,0.17547317261688,1
893,338,33,0.179104381643495,1
893,339,33,0.176506910633786,1
893,340,33,0.173237095982165,1
893,341,33,0.166437082342188,1
893,342,33,0.166998612318705,1
893,343,33,0.168985785753354,1
893,344,33,0.169062461010477,1
893,345,33,0.170370700587194,1
893,346,33,0.167368034775031,1
893,347,33,0.162310016747948,1
893,348,33,0.162579267920781,1
893,349,33,0.167456191168823,1
893,350,33,0.176128643127199,1
893,351,33,0.183262404913646,1
893,352,33,0.183023643021206,1
894,339,33,0.197437676355189,1
894,340,33,0.178099139502797,1
894,341,33,0.169517153237049,1
894,342,33,0.171303079992432,1
894,343,33,0.172118730877236,1
894,344,33,0.175459905041489,1
894,345,33,0.185637878233317,1
894,346,33,0.183794164542427,1
894,347,33,0.173813320506467,1
894,348,33,0.167691728757227,1
894,349,33,0.166740689781673,1
894,350,33,0.171971447718895,1
894,351,33,0.180062729767724,1
895,340,33,0.187629953481534,1
895,341,33,0.178947240393422,1
895,342,33,0.18755010838497,1
895,343,33,0.19683270541754,1
895,344,33,0.193705326575287,1
895,345,33,0.192903694877287,1
895,346,33,0.188625631639314,1
895,347,33,0.179075700587662,1
895,348,33,0.171957079958681,1
895,349,33,0.170737181955379,1
895,350,33,0.174885423384233,1
895,351,33,0.179098935183974,1
896,340,33,0.19156425798044,1
896,341,33,0.189283106446737,1
896,342,33,0.20583794694551,1
896,343,33,0.236434239375419,1
896,344,33,0.226341688454703,1
896,345,33,0.196731553771333,1
896,346,33,0.180060518505159,1
896,347,33,0.171677959801197,1
896,348,33,0.1697124414896,1
896,349,33,0.178313882508754,1
896,350,33,0.184847509813605,1
897,342,33,0.215701746566384,1
897,343,33,0.253367216665751,1
897,345,33,0.219146850071198,1
897,346,33,0.190106785412873,1
897,347,33,0.175414056745249,1
897,348,33,0.178530313917162,1
897,349,33,0.198278413632543,1
898,346,33,0.204710900184107,1
898,347,33,0.187111254462682,1
898,348,33,0.192002894044347,1
899,346,33,0.198450391038348,1
899,347,33,0.193135692267004,1
876,340,34,0.257906143528897,1
877,339,34,0.233349364703261,1
877,340,34,0.21228659858893,1
878,339,34,0.166433433214309,1
878,340,34,0.140462971355648,1
878,341,34,0.127474919160286,1
878,343,34,0.172697449879999,1
879,337,34,0.147202518402034,1
879,338,34,0.129712782233724,1
879,339,34,0.113429175419049,1
879,340,34,0.104734371190803,1
879,341,34,0.105879554662408,1
879,342,34,0.121909988252753,1
879,343,34,0.153462777010654,1
879,344,34,0.180045268418503,1
879,345,34,0.198182490587475,1
880,336,34,0.125725015288169,1
880,337,34,0.108794913728464,1
880,338,34,0.102234936452455,1
880,342,34,0.11193394799409,1
880,343,34,0.13686379840393,1
880,344,34,0.156214175859319,1
880,345,34,0.167563649815154,1
880,346,34,0.184602233955579,1
881,335,34,0.101196547159119,1
881,342,34,0.100953123097329,1
881,343,34,0.115731274036066,1
881,344,34,0.131513163892673,1
881,345,34,0.143662472214865,1
881,346,34,0.159582974466257,1
881,347,34,0.168735695225112,1
882,343,34,0.103382854046739,1
882,344,34,0.11439499608574,1
882,345,34,0.12396356492187,1
882,346,34,0.13730604002404,1
882,347,34,0.146478814646847,1
882,348,34,0.149930998549038,1
883,343,34,0.102014768772816,1
883,344,34,0.108859323558748,1
883,345,34,0.113956425379347,1
883,346,34,0.12176260705814,1
883,347,34,0.129083106155692,1
883,348,34,0.134779024414682,1
883,349,34,0.141703958050211,1
884,343,34,0.101595445854367,1
884,344,34,0.108005122633461,1
884,345,34,0.113441222987507,1
884,346,34,0.119343333311009,1
884,347,34,0.124549102891952,1
884,348,34,0.129139782013457,1
884,349,34,0.133396811024764,1
884,350,34,0.144570102908044,1
885,339,34,0.108316169936651,1
885,340,34,0.109818532223582,1
885,341,34,0.103059334351248,1
885,343,34,0.10041352056684,1
885,344,34,0.108564190810276,1
885,345,34,0.115073733871129,1
885,346,34,0.121734252789879,1
885,347,34,0.125948385486006,1
885,348,34,0.129692957121071,1
885,349,34,0.133469946083199,1
885,350,34,0.141989537708686,1
885,351,34,0.147776117732848,1
886,333,34,0.0998624151138435,1
886,338,34,0.108385503366342,1
886,339,34,0.120781067909274,1
886,340,34,0.121380298278589,1
886,341,34,0.110331577817452,1
886,342,34,0.102009213384106,1
886,343,34,0.100916697176059,1
886,344,34,0.106870156719915,1
886,345,34,0.113254561926836,1
886,346,34,0.122623398199446,1
886,347,34,0.12908868333024,1
886,348,34,0.136295144458361,1
886,349,34,0.145693119289403,1
886,350,34,0.151938345669749,1
886,351,34,0.14804719891608,1
886,352,34,0.136955353388462,1
887,333,34,0.119874275970861,1
887,337,34,0.105229367217823,1
887,338,34,0.115576300476883,1
887,339,34,0.122230196500856,1
887,340,34,0.122900851740317,1
887,341,34,0.121153170023684,1
887,342,34,0.115236267116127,1
887,343,34,0.109508476176024,1
887,344,34,0.111850889486409,1
887,345,34,0.118981176431682,1
887,346,34,0.130209630056981,1
887,347,34,0.137169715142253,1
887,348,34,0.147111943780215,1
887,349,34,0.161190268242301,1
887,350,34,0.165413638133774,1
887,351,34,0.157427962935039,1
887,352,34,0.151318919828533,1
888,334,34,0.103595178824669,1
888,335,34,0.0998023079865802,1
888,337,34,0.110712960698884,1
888,338,34,0.122538433430934,1
888,339,34,0.126027021468556,1
888,340,34,0.127740706384865,1
888,341,34,0.135718037607616,1
888,342,34,0.132520824261397,1
888,343,34,0.1225871574578,1
888,344,34,0.12326770346775,1
888,345,34,0.131028537924578,1
888,346,34,0.141049587724715,1
888,347,34,0.143885450267616,1
888,348,34,0.150140425810503,1
888,349,34,0.167051497440645,1
888,350,34,0.174692052285433,1
888,351,34,0.169274045069912,1
888,352,34,0.16921357847632,1
888,353,34,0.168035618211323,1
889,334,34,0.102570373001376,1
889,335,34,0.109646119101015,1
889,336,34,0.112506261960457,1
889,337,34,0.122005813261549,1
889,338,34,0.136757047797337,1
889,339,34,0.137589364848273,1
889,340,34,0.132805031412072,1
889,341,34,0.135931342748259,1
889,342,34,0.133819772178173,1
889,343,34,0.13022972749261,1
889,344,34,0.133176011555821,1
889,345,34,0.13621038665531,1
889,346,34,0.141647772373803,1
889,347,34,0.143325815659012,1
889,348,34,0.147644749129224,1
889,349,34,0.163789122652728,1
889,350,34,0.174734273239632,1
889,351,34,0.170343065251589,1
889,352,34,0.168976657487198,1
889,353,34,0.164508926742898,1
890,335,34,0.124385218924993,1
890,336,34,0.134906667639994,1
890,337,34,0.148696798143036,1
890,338,34,0.166941032348659,1
890,339,34,0.158022847029657,1
890,340,34,0.143165254032361,1
890,341,34,0.135282625847745,1
890,342,34,0.130459361118895,1
890,343,34,0.134611720071145,1
890,344,34,0.139900057978413,1
890,345,34,0.13700021042907,1
890,346,34,0.137916370277857,1
890,347,34,0.143351337768323,1
890,348,34,0.148653368074824,1
890,349,34,0.158505839059895,1
890,350,34,0.164625284904085,1
890,351,34,0.162381103937604,1
890,352,34,0.159518139812131,1
890,353,34,0.154292359938911,1
891,335,34,0.138922004563639,1
891,336,34,0.145861796140739,1
891,337,34,0.166579343864851,1
891,338,34,0.182828648877469,1
891,339,34,0.166819750588067,1
891,340,34,0.153990538938148,1
891,341,34,0.143841279480909,1
891,342,34,0.138779830184328,1
891,343,34,0.146880382107261,1
891,344,34,0.151761172341561,1
891,345,34,0.145854323598278,1
891,346,34,0.144285253075146,1
891,347,34,0.150302991734257,1
891,348,34,0.156838743158321,1
891,349,34,0.161766841340013,1
891,350,34,0.163874174564593,1
891,351,34,0.161328804386653,1
891,352,34,0.157812581013426,1
891,353,34,0.154617568036853,1
892,335,34,0.165328662472343,1
892,336,34,0.153716690953479,1
892,337,34,0.16769249126156,1
892,338,34,0.173770456870044,1
892,339,34,0.160078199244578,1
892,340,34,0.155727687202069,1
892,341,34,0.150515305619268,1
892,342,34,0.149316332913443,1
892,343,34,0.156701710236797,1
892,344,34,0.158043554468752,1
892,345,34,0.153583503232376,1
892,346,34,0.151687176742522,1
892,347,34,0.153920954971319,1
892,348,34,0.159401509327968,1
892,349,34,0.163891940915548,1
892,350,34,0.165549875872209,1
892,351,34,0.163957712360712,1
892,352,34,0.160282604870365,1
892,353,34,0.159258006012534,1
893,336,34,0.173990472048817,1
893,337,34,0.17957004303954,1
893,338,34,0.181209645213457,1
893,339,34,0.166992283532743,1
893,340,34,0.158195173008872,1
893,341,34,0.152595820477171,1
893,342,34,0.153368335402577,1
893,343,34,0.156518415088109,1
893,344,34,0.157079531133703,1
893,345,34,0.159844644167439,1
893,346,34,0.16129025434617,1
893,347,34,0.160087556262033,1
893,348,34,0.163133543213218,1
893,349,34,0.16431406331419,1
893,350,34,0.164867815746513,1
893,351,34,0.163249356728453,1
893,352,34,0.158633242640989,1
893,353,34,0.155963050503768,1
894,336,34,0.191145555958376,1
894,339,34,0.196717806907505,1
894,340,34,0.173181139057056,1
894,341,34,0.160724802918799,1
894,342,34,0.160763047957548,1
894,343,34,0.160841041257875,1
894,344,34,0.160828895653146,1
894,345,34,0.170325059256416,1
894,346,34,0.174725297474343,1
894,347,34,0.17250394806617,1
894,348,34,0.171709178907166,1
894,349,34,0.16805041079538,1
894,350,34,0.16706187839249,1
894,351,34,0.165017843920452,1
894,352,34,0.157194767324228,1
895,340,34,0.18602527400606,1
895,341,34,0.172640643307205,1
895,342,34,0.179232918088168,1
895,343,34,0.189178251208057,1
895,344,34,0.183073434554138,1
895,345,34,0.180399168465197,1
895,346,34,0.181736099990665,1
895,347,34,0.180335205244593,1
895,348,34,0.176824243151262,1
895,349,34,0.171348078640986,1
895,350,34,0.170036745475262,1
895,351,34,0.166595639671735,1
895,352,34,0.160369258041329,1
896,340,34,0.187918637621935,1
896,341,34,0.180312972796832,1
896,342,34,0.19421685805341,1
896,343,34,0.233679224077633,1
896,344,34,0.231514517848469,1
896,345,34,0.199223897219386,1
896,346,34,0.185345948003042,1
896,347,34,0.180526528474614,1
896,348,34,0.174215596006618,1
896,349,34,0.175049536102491,1
896,350,34,0.176704486399335,1
896,351,34,0.17502185719521,1
897,341,34,0.194869017116342,1
897,342,34,0.194276660178941,1
897,343,34,0.246464809586797,1
897,344,34,0.265898060370242,1
897,345,34,0.226744399671616,1
897,346,34,0.201925951144799,1
897,347,34,0.188124121646707,1
897,348,34,0.178495402111638,1
897,349,34,0.184219315172562,1
897,350,34,0.188265293877467,1
898,342,34,0.20234297565733,1
898,343,34,0.215375699713675,1
898,345,34,0.21805764531054,1
898,346,34,0.208577189296526,1
898,347,34,0.194236421736006,1
898,348,34,0.183527669278111,1
898,349,34,0.185435073866629,1
899,345,34,0.189186856614098,1
899,346,34,0.192285129576676,1
899,347,34,0.191445721235445,1
899,348,34,0.188327470659348,1
900,346,34,0.17596636041934,1
900,347,34,0.178418683282839,1
876,339,35,0.217185645355541,1
877,338,35,0.211025547137494,1
877,339,35,0.19514774512874,1
877,340,35,0.182011756199894,1
878,337,35,0.208443751038285,1
878,338,35,0.186442189589401,1
878,339,35,0.147129078341865,1
878,340,35,0.126277983430321,1
878,341,35,0.123934012432514,1
878,342,35,0.142593582748217,1
878,343,35,0.197165244449996,1
879,336,35,0.15928642563831,1
879,337,35,0.1425967199089,1
879,338,35,0.126234575147946,1
879,339,35,0.107309250286422,1
879,340,35,0.101073849319051,1
879,341,35,0.103360784992764,1
879,342,35,0.116114051211136,1
879,343,35,0.15514415352909,1
879,344,35,0.192994868609653,1
879,345,35,0.203003217266189,1
880,335,35,0.133217611613635,1
880,336,35,0.103190855455739,1
880,342,35,0.101919303230349,1
880,343,35,0.126323973334509,1
880,344,35,0.154329798901652,1
880,345,35,0.176268148741346,1
880,346,35,0.197255786393057,1
881,334,35,0.113140393242377,1
881,343,35,0.109072497984363,1
881,344,35,0.126945959011699,1
881,345,35,0.147229946772177,1
881,346,35,0.164851716012171,1
881,347,35,0.166114793546548,1
882,343,35,0.100937557116021,1
882,344,35,0.11195619133477,1
882,345,35,0.122076094375195,1
882,346,35,0.126881963112338,1
882,347,35,0.125978199405419,1
882,348,35,0.133420426873243,1
883,343,35,0.0999718453785204,1
883,344,35,0.10749606384796,1
883,345,35,0.114001576528769,1
883,346,35,0.118033285509731,1
883,347,35,0.117965869233792,1
883,348,35,0.122684463903585,1
883,349,35,0.133018096908497,1
884,340,35,0.100847930178159,1
884,344,35,0.106024027447637,1
884,345,35,0.114148576471215,1
884,346,35,0.122903509612563,1
884,347,35,0.126255326158718,1
884,348,35,0.126321326355182,1
884,349,35,0.128668521657025,1
884,350,35,0.134654932280977,1
885,338,35,0.0998787435994846,1
885,339,35,0.113115709887832,1
885,340,35,0.11656384162414,1
885,341,35,0.106159589825091,1
885,344,35,0.105681412465069,1
885,345,35,0.113906960633986,1
885,346,35,0.122987711876743,1
885,347,35,0.129023053493023,1
885,348,35,0.131345347581941,1
885,349,35,0.1302929391018,1
885,350,35,0.132419127969238,1
885,351,35,0.131591538445166,1
886,332,35,0.10400245417466,1
886,337,35,0.100562339626766,1
886,338,35,0.110965981422348,1
886,339,35,0.124878461192048,1
886,340,35,0.126750507365362,1
886,341,35,0.11467246051953,1
886,342,35,0.105078914220041,1
886,343,35,0.10159065296999,1
886,344,35,0.106119002808748,1
886,345,35,0.112448398774516,1
886,346,35,0.119848699396955,1
886,347,35,0.12715417715915,1
886,348,35,0.135225133021051,1
886,349,35,0.139648736550319,1
886,350,35,0.140853014107717,1
886,351,35,0.135621330272378,1
886,352,35,0.127116400515919,1
887,332,35,0.129128420698898,1
887,333,35,0.113899858450772,1
887,337,35,0.103855356195942,1
887,338,35,0.114436672393988,1
887,339,35,0.121325343502032,1
887,340,35,0.123897488474973,1
887,341,35,0.122284530381028,1
887,342,35,0.116153341970113,1
887,343,35,0.110509524542891,1
887,344,35,0.113181503118834,1
887,345,35,0.118288070886079,1
887,346,35,0.124548078957562,1
887,347,35,0.130755779231814,1
887,348,35,0.14132313070765,1
887,349,35,0.152371175807807,1
887,350,35,0.154872919844991,1
887,351,35,0.147257843537838,1
887,352,35,0.140028006205458,1
888,333,35,0.113592329560432,1
888,334,35,0.102779854727436,1
888,335,35,0.0998041815686551,1
888,337,35,0.107579721466188,1
888,338,35,0.117285421260113,1
888,339,35,0.121432061429868,1
888,340,35,0.125410231713748,1
888,341,35,0.129579583619702,1
888,342,35,0.124776917400757,1
888,343,35,0.119223227985672,1
888,344,35,0.123226865914268,1
888,345,35,0.129129662491669,1
888,346,35,0.134170415242074,1
888,347,35,0.136762189255124,1
888,348,35,0.144503296635571,1
888,349,35,0.158954355001372,1
888,350,35,0.164306089697453,1
888,351,35,0.158695179778651,1
888,352,35,0.1535625779349,1
888,353,35,0.149442984883122,1
889,333,35,0.102061194393765,1
889,334,35,0.101290520371678,1
889,335,35,0.107056937602696,1
889,336,35,0.111503045902701,1
889,337,35,0.117815274628062,1
889,338,35,0.127554274075493,1
889,339,35,0.130298527169268,1
889,340,35,0.12812001961168,1
889,341,35,0.127710108175281,1
889,342,35,0.123956016128975,1
889,343,35,0.123963608493546,1
889,344,35,0.130768709126715,1
889,345,35,0.135131726240282,1
889,346,35,0.136216693655434,1
889,347,35,0.136174679666696,1
889,348,35,0.142942254193772,1
889,349,35,0.155437826626411,1
889,350,35,0.159668810668293,1
889,351,35,0.154097039007603,1
889,352,35,0.149686005906907,1
889,353,35,0.144966321945209,1
890,334,35,0.11031593558571,1
890,335,35,0.118550252554455,1
890,336,35,0.128928993137112,1
890,337,35,0.137299046770016,1
890,338,35,0.148482066029999,1
890,339,35,0.144952901868952,1
890,340,35,0.132986442085766,1
890,341,35,0.126286806694744,1
890,342,35,0.122700018991975,1
890,343,35,0.128302704756901,1
890,344,35,0.136729063888323,1
890,345,35,0.138828761176656,1
890,346,35,0.137251215962511,1
890,347,35,0.138825460622187,1
890,348,35,0.146502103707755,1
890,349,35,0.152911976559391,1
890,350,35,0.150183594448659,1
890,351,35,0.145449793263885,1
890,352,35,0.142785690268408,1
890,353,35,0.140992530614783,1
891,334,35,0.147453208040823,1
891,335,35,0.137388782637068,1
891,336,35,0.141755557807704,1
891,337,35,0.154592775753118,1
891,338,35,0.165122503086589,1
891,339,35,0.153387909978092,1
891,340,35,0.140118885829009,1
891,341,35,0.134678842238271,1
891,342,35,0.131902498605004,1
891,343,35,0.139067577533691,1
891,344,35,0.145533723205089,1
891,345,35,0.145690069272072,1
891,346,35,0.144741252452002,1
891,347,35,0.148495802000908,1
891,348,35,0.157043410214166,1
891,349,35,0.159156462221242,1
891,350,35,0.15219831607556,1
891,351,35,0.146838455261875,1
891,352,35,0.143161506868211,1
891,353,35,0.143052327140672,1
892,334,35,0.194139866901635,1
892,335,35,0.165898830533659,1
892,336,35,0.159437771855453,1
892,337,35,0.17058658734965,1
892,338,35,0.172814004113728,1
892,339,35,0.154452823529291,1
892,340,35,0.144020369962847,1
892,341,35,0.142856178347517,1
892,342,35,0.141617653452657,1
892,343,35,0.147343265808951,1
892,344,35,0.149778040179876,1
892,345,35,0.150169455439745,1
892,346,35,0.150681204776249,1
892,347,35,0.155217942162668,1
892,348,35,0.165820793661656,1
892,349,35,0.169426110219712,1
892,350,35,0.159663887068887,1
892,351,35,0.1509799866526,1
892,352,35,0.143683016260175,1
892,353,35,0.144759715949775,1
893,335,35,0.182533222020182,1
893,336,35,0.17963223071434,1
893,337,35,0.186219233322488,1
893,338,35,0.186679088792685,1
893,339,35,0.167627395177376,1
893,340,35,0.153971280257285,1
893,341,35,0.149068693291985,1
893,342,35,0.148134418518834,1
893,343,35,0.150555424240093,1
893,344,35,0.150593004810781,1
893,345,35,0.154205815697137,1
893,346,35,0.157655080297025,1
893,347,35,0.163567353713991,1
893,348,35,0.177231572965848,1
893,349,35,0.182271127495158,1
893,350,35,0.169970037239061,1
893,351,35,0.154598734179833,1
893,352,35,0.143128697396062,1
893,353,35,0.143081345876995,1
894,335,35,0.18376371883371,1
894,336,35,0.186136185707726,1
894,337,35,0.191545130014605,1
894,338,35,0.202746405806899,1
894,339,35,0.192110015010187,1
894,340,35,0.172251493774497,1
894,341,35,0.15835270640403,1
894,342,35,0.157008781624537,1
894,343,35,0.157629819617771,1
894,344,35,0.155614956382922,1
894,345,35,0.161297116885166,1
894,346,35,0.166293785992215,1
894,347,35,0.173106544347469,1
894,348,35,0.182047528546022,1
894,349,35,0.182958013183989,1
894,350,35,0.172773406204465,1
894,351,35,0.158479674268361,1
894,352,35,0.147103741412178,1
895,336,35,0.184504818580603,1
895,339,35,0.206236780283245,1
895,340,35,0.187267110348308,1
895,341,35,0.168382089287232,1
895,342,35,0.170994374666835,1
895,343,35,0.179315595343682,1
895,344,35,0.176088339326751,1
895,345,35,0.171708438188671,1
895,346,35,0.175338939175548,1
895,347,35,0.183876308044908,1
895,348,35,0.187415733335691,1
895,349,35,0.18348591671943,1
895,350,35,0.173701221476626,1
895,351,35,0.162919094316076,1
895,352,35,0.158829631078363,1
896,340,35,0.193196474755247,1
896,341,35,0.174806634900816,1
896,342,35,0.178939789636799,1
896,343,35,0.211388368484882,1
896,344,35,0.222358888680231,1
896,345,35,0.196808784567328,1
896,346,35,0.191048783265624,1
896,347,35,0.196182659580902,1
896,348,35,0.189755728418049,1
896,349,35,0.182623393603996,1
896,350,35,0.172251657168282,1
896,351,35,0.165639023521633,1
897,341,35,0.184670510772123,1
897,342,35,0.179048326682114,1
897,343,35,0.222062252708931,1
897,344,35,0.250919011325649,1
897,345,35,0.216985803862832,1
897,346,35,0.206839245849515,1
897,347,35,0.206947695751478,1
897,348,35,0.188605327238223,1
897,349,35,0.176448393872702,1
897,350,35,0.168824701266589,1
897,351,35,0.170057888631119,1
898,342,35,0.188880003084739,1
898,343,35,0.196725519094185,1
898,344,35,0.2084006804364,1
898,345,35,0.196518074343985,1
898,346,35,0.205250099676592,1
898,347,35,0.208646097902374,1
898,348,35,0.185517968980524,1
898,349,35,0.168257136612923,1
898,350,35,0.162362749369021,1
899,345,35,0.171672916379682,1
899,346,35,0.183360103504517,1
899,347,35,0.19299682933508,1
899,348,35,0.183263298133007,1
899,349,35,0.166708021917472,1
900,346,35,0.16503897618339,1
900,347,35,0.171113968024976,1
900,348,35,0.171169227803267,1
901,346,35,0.164908479013289,1
901,347,35,0.158536219411098,1
875,339,36,0.224071800199288,1
876,338,36,0.190621889768442,1
876,339,36,0.190061623370533,1
877,337,36,0.223143418495337,1
877,338,36,0.197966462217072,1
877,339,36,0.164799724109593,1
877,340,36,0.156947596098289,1
878,336,36,0.204371694685198,1
878,337,36,0.215560029689672,1
878,338,36,0.179148443501012,1
878,339,36,0.133356322044692,1
878,340,36,0.117046615795997,1
878,341,36,0.120993174828823,1
878,342,36,0.145522873857725,1
879,335,36,0.168152934949385,1
879,336,36,0.139022796743518,1
879,337,36,0.134393404187744,1
879,338,36,0.120444509389692,1
879,339,36,0.103791120652363,1
879,341,36,0.100484520613143,1
879,342,36,0.110664258457856,1
879,343,36,0.150900185127712,1
879,344,36,0.196779787616843,1
880,334,36,0.154490382314141,1
880,335,36,0.115458319270759,1
880,343,36,0.113472191556338,1
880,344,36,0.146465481713942,1
880,345,36,0.176209196263501,1
880,346,36,0.210021873577139,1
881,333,36,0.126766628885541,1
881,334,36,0.108612925730061,1
881,343,36,0.102044833229367,1
881,344,36,0.11988575710753,1
881,345,36,0.143419658156542,1
881,346,36,0.163335497932222,1
881,347,36,0.160126868806849,1
882,343,36,0.0998754430450154,1
882,344,36,0.11140376783857,1
882,345,36,0.121305932320303,1
882,346,36,0.119555418444719,1
882,347,36,0.111964175844426,1
882,348,36,0.120083387337674,1
883,344,36,0.106379093036668,1
883,345,36,0.113563376181623,1
883,346,36,0.115753920414751,1
883,347,36,0.112585802055288,1
883,348,36,0.117638863804208,1
883,349,36,0.129431134919023,1
884,339,36,0.101845372988824,1
884,340,36,0.104921947256673,1
884,344,36,0.103012919623218,1
884,345,36,0.112118681008091,1
884,346,36,0.123727341079566,1
884,347,36,0.128245919969945,1
884,348,36,0.128509343431092,1
884,349,36,0.129794261268144,1
884,350,36,0.130962450584762,1
885,338,36,0.100664460742767,1
885,339,36,0.11471035698487,1
885,340,36,0.119575483201591,1
885,341,36,0.108055491491103,1
885,344,36,0.102568227096325,1
885,345,36,0.11103438895392,1
885,346,36,0.122470897332885,1
885,347,36,0.131733102821012,1
885,348,36,0.135610992892209,1
885,349,36,0.132350273827986,1
885,350,36,0.128403507829698,1
885,351,36,0.12282603917235,1
886,338,36,0.110214500723609,1
886,339,36,0.123367362784048,1
886,340,36,0.126804111419958,1
886,341,36,0.117759078058734,1
886,342,36,0.108441547434803,1
886,343,36,0.103426959475933,1
886,344,36,0.106175232056833,1
886,345,36,0.111371666406159,1
886,346,36,0.117005200917807,1
886,347,36,0.125401800594411,1
886,348,36,0.134468739615825,1
886,349,36,0.136372102931379,1
886,350,36,0.133922416154287,1
886,351,36,0.127997376236207,1
887,332,36,0.110395127107132,1
887,333,36,0.103772134294476,1
887,338,36,0.109712522335484,1
887,339,36,0.117964877978159,1
887,340,36,0.123502184443007,1
887,341,36,0.12278903592637,1
887,342,36,0.116430174614599,1
887,343,36,0.111607105958291,1
887,344,36,0.11538965030913,1
887,345,36,0.118950240541608,1
887,346,36,0.120616759118473,1
887,347,36,0.125699569429292,1
887,348,36,0.136024738636109,1
887,349,36,0.144888056321906,1
887,350,36,0.14702859116372,1
887,351,36,0.140118264932624,1
887,352,36,0.132955299230231,1
888,331,36,0.10032261915745,1
888,332,36,0.112910705151497,1
888,333,36,0.105101920065054,1
888,337,36,0.103309108984838,1
888,338,36,0.111760685223838,1
888,339,36,0.117437758732889,1
888,340,36,0.124057701528214,1
888,341,36,0.124632139613794,1
888,342,36,0.118160558375796,1
888,343,36,0.116143037268701,1
888,344,36,0.124014663605087,1
888,345,36,0.129592034226164,1
888,346,36,0.129033271051083,1
888,347,36,0.129612109875955,1
888,348,36,0.13826358207226,1
888,349,36,0.150146297093865,1
888,350,36,0.153773443061678,1
888,351,36,0.147755900475109,1
888,352,36,0.139523969055634,1
889,332,36,0.102886866764086,1
889,335,36,0.101519238992763,1
889,336,36,0.109460895905657,1
889,337,36,0.114279552929753,1
889,338,36,0.119802448062711,1
889,339,36,0.123229088069753,1
889,340,36,0.124417080713186,1
889,341,36,0.121188125400884,1
889,342,36,0.116230344014808,1
889,343,36,0.118135493769084,1
889,344,36,0.129108704515436,1
889,345,36,0.137044228714911,1
889,346,36,0.134610227741237,1
889,347,36,0.130422902518868,1
889,348,36,0.137706975695149,1
889,349,36,0.146105721276804,1
889,350,36,0.14479450793319,1
889,351,36,0.138410473085516,1
889,352,36,0.132901313923468,1
890,332,36,0.103017135182887,1
890,333,36,0.105918583991329,1
890,334,36,0.108926434832954,1
890,335,36,0.110576450637474,1
890,336,36,0.121396713907583,1
890,337,36,0.127986178315434,1
890,338,36,0.133797125799488,1
890,339,36,0.133876393571343,1
890,340,36,0.127428613361447,1
890,341,36,0.121583571040797,1
890,342,36,0.118746499383882,1
890,343,36,0.123171290241326,1
890,344,36,0.133856786317071,1
890,345,36,0.141776297925557,1
890,346,36,0.13945104096266,1
890,347,36,0.134747336913195,1
890,348,36,0.141548766632647,1
890,349,36,0.144425368692758,1
890,350,36,0.136185158654813,1
890,351,36,0.130258179797143,1
890,352,36,0.128162817890588,1
891,332,36,0.121222067736613,1
891,333,36,0.139036238605613,1
891,334,36,0.14484976771148,1
891,335,36,0.134770506151993,1
891,336,36,0.138824839725802,1
891,337,36,0.14574762745628,1
891,338,36,0.149590028397244,1
891,339,36,0.141856774811425,1
891,340,36,0.13107844927962,1
891,341,36,0.1276617762935,1
891,342,36,0.127042012771794,1
891,343,36,0.131753734009674,1
891,344,36,0.1397874034097,1
891,345,36,0.14564560437655,1
891,346,36,0.146227449647078,1
891,347,36,0.144771556552772,1
891,348,36,0.152352113199487,1
891,349,36,0.15197918322323,1
891,350,36,0.139880657689602,1
891,351,36,0.132028115747375,1
891,352,36,0.128539386101805,1
892,332,36,0.145448497006519,1
892,333,36,0.174422866470114,1
892,334,36,0.182513571194234,1
892,335,36,0.169542304987113,1
892,336,36,0.169568644065352,1
892,337,36,0.173403191211688,1
892,338,36,0.169766405010525,1
892,339,36,0.151783393896403,1
892,340,36,0.13821967271561,1
892,341,36,0.136684217740635,1
892,342,36,0.135812043498932,1
892,343,36,0.139125222861252,1
892,344,36,0.144209340322355,1
892,345,36,0.148831194978153,1
892,346,36,0.151072118961841,1
892,347,36,0.154768511215992,1
892,348,36,0.171147812324434,1
892,349,36,0.176796618708577,1
892,350,36,0.156199764527429,1
892,351,36,0.138173508524718,1
892,352,36,0.128056306928214,1
893,334,36,0.176643126586382,1
893,335,36,0.18125875049249,1
893,336,36,0.18420469687521,1
893,337,36,0.184740051167275,1
893,338,36,0.18251588049307,1
893,339,36,0.166028347341046,1
893,340,36,0.151030006936832,1
893,341,36,0.144929471200096,1
893,342,36,0.142809317009806,1
893,343,36,0.145103017186243,1
893,344,36,0.148516901585089,1
893,345,36,0.152035456042991,1
893,346,36,0.154838846794234,1
893,347,36,0.164037361384733,1
893,348,36,0.190305842615412,1
893,349,36,0.202280994947992,1
893,350,36,0.175173595557439,1
893,351,36,0.144319783628503,1
893,352,36,0.128025458181492,1
894,334,36,0.152557619010098,1
894,335,36,0.17184406592364,1
894,336,36,0.17582133209524,1
894,337,36,0.175114283613265,1
894,338,36,0.181944546889417,1
894,339,36,0.178533647150388,1
894,340,36,0.167704713116723,1
894,341,36,0.155476169701432,1
894,342,36,0.152549068068651,1
894,343,36,0.153910824556612,1
894,344,36,0.153352202989478,1
894,345,36,0.153907186321653,1
894,346,36,0.156841455495162,1
894,347,36,0.168851149274018,1
894,348,36,0.18742686589895,1
894,349,36,0.195085306916802,1
894,350,36,0.175908388304208,1
894,351,36,0.150270694229303,1
894,352,36,0.137378652222361,1
895,335,36,0.166582568168887,1
895,336,36,0.174332324527052,1
895,337,36,0.173516695428086,1
895,338,36,0.182349175260081,1
895,339,36,0.188651469643277,1
895,340,36,0.181456925368586,1
895,341,36,0.162185009609044,1
895,342,36,0.160612692996038,1
895,343,36,0.167356194172035,1
895,344,36,0.169902784356907,1
895,345,36,0.165908067729005,1
895,346,36,0.169559984194715,1
895,347,36,0.184411847516596,1
895,348,36,0.197620808110091,1
895,349,36,0.198555376992056,1
895,350,36,0.177382439894553,1
895,351,36,0.156067905742448,1
895,352,36,0.153672705346395,1
896,336,36,0.194504474687745,1
896,337,36,0.191791527843292,1
896,338,36,0.190387844509946,1
896,339,36,0.198662389028706,1
896,340,36,0.193473242042218,1
896,341,36,0.168379518558338,1
896,342,36,0.164260393902079,1
896,343,36,0.185657311200885,1
896,344,36,0.206240069944795,1
896,345,36,0.194434193574099,1
896,346,36,0.196665237680217,1
896,347,36,0.21307051840057,1
896,348,36,0.213559196534547,1
896,349,36,0.199260649928227,1
896,350,36,0.169579373590606,1
896,351,36,0.153543526219499,1
897,336,36,0.209634608519425,1
897,340,36,0.197390139656498,1
897,341,36,0.174075676461548,1
897,342,36,0.166477495071826,1
897,343,36,0.194221825224493,1
897,344,36,0.225255228709643,1
897,345,36,0.206300808861362,1
897,346,36,0.211614962986755,1
897,347,36,0.230792382673624,1
897,348,36,0.208230380540127,1
897,349,36,0.175714984526651,1
897,350,36,0.151415038946143,1
897,351,36,0.146783380663208,1
898,341,36,0.18774949237508,1
898,342,36,0.174821656236172,1
898,343,36,0.178429608880636,1
898,344,36,0.187341291126971,1
898,345,36,0.181527947200728,1
898,346,36,0.204890284774859,1
898,347,36,0.232575880308061,1
898,348,36,0.200545469729008,1
898,349,36,0.162344841410119,1
898,350,36,0.145105195770051,1
899,345,36,0.160476433471765,1
899,346,36,0.176258410471724,1
899,347,36,0.198564766688269,1
899,348,36,0.183348818440391,1
899,349,36,0.159601274570245,1
900,346,36,0.156124276598481,1
900,347,36,0.164637768189305,1
900,348,36,0.162149389763783,1
901,346,36,0.159893444444739,1
901,347,36,0.154503355780718,1
902,346,36,0.158756474234089,1
875,339,37,0.20477044087958,1
876,338,37,0.179757542854977,1
877,337,37,0.232121493083222,1
877,338,37,0.189226746483623,1
877,339,37,0.14929695441047,1
878,336,37,0.186458027893685,1
878,337,37,0.205891300462969,1
878,338,37,0.168560242978133,1
878,339,37,0.127878327524018,1
878,340,37,0.113004950687032,1
878,341,37,0.119187444746626,1
879,335,37,0.147676098950221,1
879,336,37,0.121947405429655,1
879,337,37,0.122754102335009,1
879,338,37,0.113571741943446,1
879,339,37,0.102299041281006,1
879,342,37,0.107894450576014,1
879,343,37,0.144690676628899,1
879,344,37,0.192377305457593,1
880,334,37,0.138319996499969,1
880,335,37,0.105052640499316,1
880,343,37,0.105855089166244,1
880,344,37,0.139465049256546,1
880,345,37,0.169879233865942,1
881,333,37,0.125593363468651,1
881,334,37,0.103122687568386,1
881,343,37,0.100370406393279,1
881,344,37,0.119359574653297,1
881,345,37,0.141640833584374,1
881,346,37,0.155291164364455,1
882,331,37,0.104831111204798,1
882,332,37,0.100126437685538,1
882,343,37,0.101452912008728,1
882,344,37,0.115939045573837,1
882,345,37,0.124852198364243,1
882,346,37,0.115687190392711,1
882,347,37,0.104658676296393,1
883,344,37,0.107527402776038,1
883,345,37,0.114474209393,1
883,346,37,0.114950948887709,1
883,347,37,0.112962381159423,1
883,348,37,0.121195576157507,1
884,339,37,0.101094905331555,1
884,340,37,0.105177843710763,1
884,344,37,0.100824815403956,1
884,345,37,0.110063590223227,1
884,346,37,0.122688091245626,1
884,347,37,0.130507322641428,1
884,348,37,0.134792270204235,1
884,349,37,0.137140641941335,1
885,339,37,0.109535893653248,1
885,340,37,0.114699474958749,1
885,341,37,0.106848741241083,1
885,344,37,0.10118711389123,1
885,345,37,0.108874802396704,1
885,346,37,0.120560976480069,1
885,347,37,0.131683474681865,1
885,348,37,0.136929221275685,1
885,349,37,0.134293777550203,1
885,350,37,0.125944649214775,1
886,328,37,0.104223427930307,1
886,338,37,0.101230140921438,1
886,339,37,0.112832504885708,1
886,340,37,0.117998166738746,1
886,341,37,0.115873317700349,1
886,342,37,0.110443066843828,1
886,343,37,0.105952994722576,1
886,344,37,0.10707629431983,1
886,345,37,0.110431770886783,1
886,346,37,0.114307090229087,1
886,347,37,0.123047350608487,1
886,348,37,0.130706739310296,1
886,349,37,0.132072177604892,1
886,350,37,0.128163286286107,1
887,328,37,0.10117031701007,1
887,329,37,0.101300149712109,1
887,338,37,0.100331616708577,1
887,339,37,0.110949467757083,1
887,340,37,0.117762607364503,1
887,341,37,0.117979256631292,1
887,342,37,0.113516601987265,1
887,343,37,0.112055393148468,1
887,344,37,0.116893624748079,1
887,345,37,0.118857944838581,1
887,346,37,0.116746646591471,1
887,347,37,0.121530783955129,1
887,348,37,0.130418610708766,1
887,349,37,0.138123019844967,1
887,350,37,0.140402167081566,1
887,351,37,0.134269355625715,1
888,338,37,0.103258108337892,1
888,339,37,0.11129334631826,1
888,340,37,0.117615923316709,1
888,341,37,0.11519560384935,1
888,342,37,0.109300606601982,1
888,343,37,0.112002268382309,1
888,344,37,0.123682211715983,1
888,345,37,0.130048828786111,1
888,346,37,0.125021267360664,1
888,347,37,0.124130030510641,1
888,348,37,0.132415729378498,1
888,349,37,0.143316175425661,1
888,350,37,0.145552927421357,1
888,351,37,0.138433163035877,1
888,352,37,0.127404213222797,1
889,336,37,0.104954495298765,1
889,337,37,0.109310323085766,1
889,338,37,0.111000915013709,1
889,339,37,0.115503622921047,1
889,340,37,0.119037198714305,1
889,341,37,0.115679358383921,1
889,342,37,0.110767425294085,1
889,343,37,0.114349213147015,1
889,344,37,0.127852369697945,1
889,345,37,0.139348320736112,1
889,346,37,0.134828129693715,1
889,347,37,0.127447164002572,1
889,348,37,0.132948295083288,1
889,349,37,0.138751737346124,1
889,350,37,0.13414242044014,1
889,351,37,0.127802066197818,1
889,352,37,0.121760755261903,1
890,332,37,0.101133052334034,1
890,333,37,0.104923613873286,1
890,334,37,0.106281546946664,1
890,335,37,0.104946935612951,1
890,336,37,0.114144001445218,1
890,337,37,0.121184487165924,1
890,338,37,0.123158458382696,1
890,339,37,0.124472776208238,1
890,340,37,0.121922743860949,1
890,341,37,0.11860603519286,1
890,342,37,0.116435435894495,1
890,343,37,0.12001001263502,1
890,344,37,0.131924404265194,1
890,345,37,0.143860657983881,1
890,346,37,0.141719600281953,1
890,347,37,0.133266869393535,1
890,348,37,0.137065927409639,1
890,349,37,0.138140731731326,1
890,350,37,0.127528621251154,1
890,351,37,0.121998362504925,1
890,352,37,0.119460148974795,1
891,331,37,0.103700121206702,1
891,332,37,0.125173953406849,1
891,333,37,0.138416420619312,1
891,334,37,0.139587997633752,1
891,335,37,0.132750490566439,1
891,336,37,0.138358579219209,1
891,337,37,0.143521060339887,1
891,338,37,0.143456824796307,1
891,339,37,0.137898429640198,1
891,340,37,0.127422034038347,1
891,341,37,0.123854091085517,1
891,342,37,0.124352137129869,1
891,343,37,0.128284317509561,1
891,344,37,0.13949326191686,1
891,345,37,0.150041790428595,1
891,346,37,0.150599366275501,1
891,347,37,0.146091985305895,1
891,348,37,0.152019617738707,1
891,349,37,0.151759625547057,1
891,350,37,0.135513893411885,1
891,351,37,0.126261066727052,1
891,352,37,0.121708959431868,1
892,331,37,0.116906696250927,1
892,332,37,0.15400072381745,1
892,333,37,0.17521613240629,1
892,334,37,0.173079769552468,1
892,335,37,0.169310405633668,1
892,336,37,0.174306649916875,1
892,337,37,0.173362963661673,1
892,338,37,0.167232766506391,1
892,339,37,0.15514210566031,1
892,340,37,0.140727396965347,1
892,341,37,0.135434113672835,1
892,342,37,0.13411757369181,1
892,343,37,0.137645474274248,1
892,344,37,0.149370536078586,1
892,345,37,0.158704188222697,1
892,346,37,0.158783412422875,1
892,347,37,0.161469954831575,1
892,348,37,0.180774908814566,1
892,349,37,0.187790319035642,1
892,350,37,0.157090380481067,1
892,351,37,0.133654886062662,1
892,352,37,0.121591119833692,1
893,331,37,0.112361157385924,1
893,332,37,0.15012399928859,1
893,333,37,0.168921092707175,1
893,334,37,0.165770729805747,1
893,335,37,0.169747701868533,1
893,336,37,0.175843237755429,1
893,337,37,0.173267835799696,1
893,338,37,0.170633361544008,1
893,339,37,0.163091736189942,1
893,340,37,0.153871610048068,1
893,341,37,0.147416891048743,1
893,342,37,0.143617506245068,1
893,343,37,0.14711643166286,1
893,344,37,0.157241127587663,1
893,345,37,0.161114518883296,1
893,346,37,0.159153379525154,1
893,347,37,0.169454518952569,1
893,348,37,0.199488464437032,1
893,349,37,0.213856464295152,1
893,350,37,0.178292978997116,1
893,351,37,0.14283798717272,1
893,352,37,0.125319678877768,1
894,332,37,0.121454696915633,1
894,333,37,0.136158285823541,1
894,334,37,0.1415822078941,1
894,335,37,0.153130749945393,1
894,336,37,0.15714243774116,1
894,337,37,0.153656518468702,1
894,338,37,0.155062935924727,1
894,339,37,0.159509000653056,1
894,340,37,0.160332581582921,1
894,341,37,0.154388740486578,1
894,342,37,0.151179697430281,1
894,343,37,0.155665532206026,1
894,344,37,0.160225961691357,1
894,345,37,0.158936893652151,1
894,346,37,0.157701734669274,1
894,347,37,0.170113845556228,1
894,348,37,0.190438126224235,1
894,349,37,0.202137055915796,1
894,350,37,0.180053557929892,1
894,351,37,0.149891696897141,1
894,352,37,0.136455542691226,1
895,332,37,0.108218329737833,1
895,333,37,0.12497740157569,1
895,334,37,0.13938352665045,1
895,335,37,0.157436078159724,1
895,336,37,0.166971107698129,1
895,337,37,0.163584825956131,1
895,338,37,0.160206583188384,1
895,339,37,0.168596429255184,1
895,340,37,0.170465109516514,1
895,341,37,0.156931452792272,1
895,342,37,0.153211934870999,1
895,343,37,0.162014568104823,1
895,344,37,0.172194022733641,1
895,345,37,0.175139544292519,1
895,346,37,0.176190874373675,1
895,347,37,0.188880939875776,1
895,348,37,0.208866875585478,1
895,349,37,0.216083456235387,1
895,350,37,0.185952182519301,1
895,351,37,0.153890324082979,1
896,332,37,0.10858059554635,1
896,333,37,0.130564739217689,1
896,334,37,0.149276475722675,1
896,335,37,0.172363679947691,1
896,336,37,0.196755997481659,1
896,338,37,0.192867857173645,1
896,339,37,0.193843427002877,1
896,340,37,0.186215965446776,1
896,341,37,0.162480382001735,1
896,342,37,0.153746875232139,1
896,343,37,0.166394186027008,1
896,344,37,0.188593606457336,1
896,345,37,0.197139362874357,1
896,346,37,0.20685915810552,1
896,347,37,0.227594613788534,1
896,348,37,0.235264557728892,1
896,349,37,0.215052702878298,1
896,350,37,0.168998508682793,1
896,351,37,0.14411463728422,1
897,332,37,0.110638747241464,1
897,333,37,0.133451319191641,1
897,335,37,0.176965633240403,1
897,339,37,0.200921820081843,1
897,340,37,0.184715520313596,1
897,341,37,0.164513501768895,1
897,342,37,0.155871800520969,1
897,343,37,0.167428980657061,1
897,344,37,0.189979360045942,1
897,345,37,0.192819470827269,1
897,346,37,0.214968870973365,1
897,348,37,0.22666514279268,1
897,349,37,0.176294683892127,1
897,350,37,0.141353641773882,1
898,335,37,0.182255158475845,1
898,340,37,0.180586058277168,1
898,341,37,0.168874721550821,1
898,342,37,0.161260440426758,1
898,343,37,0.161217326253197,1
898,344,37,0.166490610146351,1
898,345,37,0.169121162951184,1
898,346,37,0.202203197720207,1
898,348,37,0.219306758122707,1
898,349,37,0.165066731341104,1
899,340,37,0.178487929569177,1
899,341,37,0.179076245233614,1
899,345,37,0.154228767077555,1
899,346,37,0.167521516004306,1
899,347,37,0.196924358438343,1
899,348,37,0.183390309569015,1
899,349,37,0.158063749940653,1
900,346,37,0.15125699358379,1
900,347,37,0.157078017017956,1
900,348,37,0.152111858977138,1
901,346,37,0.157459290970198,1
901,347,37,0.15136582473792,1
875,338,38,0.190428605812994,1
876,337,38,0.19778672905291,1
876,338,38,0.174446329817726,1
876,339,38,0.162322968428687,1
876,340,38,0.170046461959046,1
877,336,38,0.21976813860157,1
877,337,38,0.228219780198084,1
877,338,38,0.182740329089892,1
877,339,38,0.144347190212808,1
877,340,38,0.133934452829827,1
877,341,38,0.14618974925428,1
878,335,38,0.1933068635968,1
878,336,38,0.170604321021847,1
878,337,38,0.184690597314832,1
878,338,38,0.156237018310546,1
878,339,38,0.125647294310818,1
878,340,38,0.112243546539048,1
878,341,38,0.117459457427617,1
878,342,38,0.149552959793751,1
878,343,38,0.18832971460067,1
879,334,38,0.177857480093893,1
879,335,38,0.139681535129549,1
879,336,38,0.11349418435988,1
879,337,38,0.112640157721298,1
879,338,38,0.107383245885462,1
879,339,38,0.100476448960134,1
879,342,38,0.107492098825429,1
879,343,38,0.136776524336581,1
879,344,38,0.176493708415909,1
880,333,38,0.169012440726245,1
880,334,38,0.130446115329342,1
880,335,38,0.102702667503118,1
880,343,38,0.103926879102359,1
880,344,38,0.133556719076273,1
880,345,38,0.156749551937221,1
880,346,38,0.188768851738853,1
881,332,38,0.16233450402995,1
881,333,38,0.125541567638615,1
881,343,38,0.102054625963584,1
881,344,38,0.122905459445071,1
881,345,38,0.140009096098004,1
881,346,38,0.143306219297659,1
881,347,38,0.136008442829225,1
882,331,38,0.112027627097835,1
882,332,38,0.103129735287004,1
882,343,38,0.10247954784242,1
882,344,38,0.119263618929473,1
882,345,38,0.125561610609649,1
882,346,38,0.114034462251351,1
882,347,38,0.104271128022784,1
882,348,38,0.111149015140979,1
883,330,38,0.102030378325801,1
883,344,38,0.106193161801573,1
883,345,38,0.111638063634203,1
883,346,38,0.113116624893031,1
883,347,38,0.116344578056781,1
883,348,38,0.127300142274288,1
884,340,38,0.0999411709185034,1
884,345,38,0.106303670465235,1
884,346,38,0.118184446547251,1
884,347,38,0.129556065807494,1
884,348,38,0.137872341099097,1
884,349,38,0.139850462518023,1
885,328,38,0.101711520799659,1
885,339,38,0.101882888201998,1
885,340,38,0.105853607729255,1
885,341,38,0.101516439512569,1
885,344,38,0.100195869151499,1
885,345,38,0.106306872983432,1
885,346,38,0.117188964462013,1
885,347,38,0.128634938787624,1
885,348,38,0.134027009962911,1
885,349,38,0.133184725891053,1
886,328,38,0.11072640256098,1
886,339,38,0.103158231163213,1
886,340,38,0.109482910495037,1
886,341,38,0.111087176039588,1
886,342,38,0.109653232177148,1
886,343,38,0.107744836332998,1
886,344,38,0.107839975087894,1
886,345,38,0.109119217714126,1
886,346,38,0.112791732689741,1
886,347,38,0.121239812301729,1
886,348,38,0.126418905123943,1
886,349,38,0.128006678789067,1
887,328,38,0.105296336884082,1
887,339,38,0.104986531373662,1
887,340,38,0.112397452592165,1
887,341,38,0.112132732873653,1
887,342,38,0.109762411904687,1
887,343,38,0.111751796601901,1
887,344,38,0.116929004949121,1
887,345,38,0.117821821272405,1
887,346,38,0.114520242868863,1
887,347,38,0.117928604557756,1
887,348,38,0.124214102059792,1
887,349,38,0.131045073375681,1
887,350,38,0.133963133885659,1
888,339,38,0.106753842130405,1
888,340,38,0.112023433324004,1
888,341,38,0.108600834589927,1
888,342,38,0.104758967401995,1
888,343,38,0.110699704016412,1
888,344,38,0.123571201978045,1
888,345,38,0.130455515918474,1
888,346,38,0.123111629723743,1
888,347,38,0.119430193447434,1
888,348,38,0.125169923026805,1
888,349,38,0.134447411280344,1
888,350,38,0.136026786504889,1
888,351,38,0.129044153077204,1
889,336,38,0.101508324287885,1
889,337,38,0.10433461195495,1
889,338,38,0.104501981656001,1
889,339,38,0.109066027590453,1
889,340,38,0.113233941631093,1
889,341,38,0.110959914066442,1
889,342,38,0.108055284525641,1
889,343,38,0.114042130866355,1
889,344,38,0.129280976030055,1
889,345,38,0.142081277872842,1
889,346,38,0.13569734106144,1
889,347,38,0.125470327948093,1
889,348,38,0.127007656505142,1
889,349,38,0.13050934872437,1
889,350,38,0.125421549456631,1
889,351,38,0.119062317785612,1
890,332,38,0.100447147007916,1
890,333,38,0.103281027039552,1
890,334,38,0.104061580939209,1
890,335,38,0.103714358251887,1
890,336,38,0.110169796183868,1
890,337,38,0.116643120288914,1
890,338,38,0.117267251871155,1
890,339,38,0.116857155255133,1
890,340,38,0.116139605999204,1
890,341,38,0.114670946403783,1
890,342,38,0.114546701769212,1
890,343,38,0.120083953769464,1
890,344,38,0.133876110355448,1
890,345,38,0.146465677786485,1
890,346,38,0.142842834521693,1
890,347,38,0.133698773633475,1
890,348,38,0.134559553881862,1
890,349,38,0.134183573888274,1
890,350,38,0.123363985979145,1
890,351,38,0.115925930499313,1
891,331,38,0.108644068585597,1
891,332,38,0.131429277523145,1
891,333,38,0.139560885158261,1
891,334,38,0.133604027023664,1
891,335,38,0.130598703339256,1
891,336,38,0.136133526218563,1
891,337,38,0.139883097703467,1
891,338,38,0.137684089672246,1
891,339,38,0.131990905535934,1
891,340,38,0.121710310153829,1
891,341,38,0.117760875390376,1
891,342,38,0.121011551183244,1
891,343,38,0.127863796370018,1
891,344,38,0.145399620478787,1
891,345,38,0.159416094946563,1
891,346,38,0.154869913399336,1
891,347,38,0.149889006346138,1
891,348,38,0.157191826236087,1
891,349,38,0.156144221533243,1
891,350,38,0.134876483361334,1
891,351,38,0.119535974584233,1
892,331,38,0.123505637498343,1
892,332,38,0.168982757521861,1
892,333,38,0.186011331069688,1
892,334,38,0.167973855360366,1
892,335,38,0.163880862816884,1
892,336,38,0.170828486402773,1
892,337,38,0.168279390846522,1
892,338,38,0.160337211073513,1
892,339,38,0.153677334836987,1
892,340,38,0.139081008502868,1
892,341,38,0.131061140431265,1
892,342,38,0.132716036263515,1
892,343,38,0.139568488415751,1
892,344,38,0.161715916943501,1
892,345,38,0.176101476187113,1
892,346,38,0.167399852991547,1
892,347,38,0.16989537717196,1
892,348,38,0.192779188812659,1
892,349,38,0.19578232302034,1
892,350,38,0.157339490646595,1
892,351,38,0.12721579840216,1
893,331,38,0.117342271404584,1
893,332,38,0.160547063158821,1
893,333,38,0.178220486620904,1
893,334,38,0.160859820650301,1
893,335,38,0.157795348415505,1
893,336,38,0.166367552839955,1
893,337,38,0.164762884257399,1
893,338,38,0.157972380135744,1
893,339,38,0.154992393381023,1
893,340,38,0.149326615829016,1
893,341,38,0.14434239732843,1
893,342,38,0.143557006972719,1
893,343,38,0.149893319942078,1
893,344,38,0.167490787079694,1
893,345,38,0.171645324615753,1
893,346,38,0.164081248955546,1
893,347,38,0.177208131404074,1
893,348,38,0.206510606482075,1
893,349,38,0.21311125791778,1
893,350,38,0.175118553637529,1
893,351,38,0.137351060458432,1
894,331,38,0.1021840447347,1
894,332,38,0.125178267002789,1
894,333,38,0.137852407057253,1
894,334,38,0.137182884681372,1
894,335,38,0.141621291687616,1
894,336,38,0.148006481184708,1
894,337,38,0.145544768624996,1
894,338,38,0.140769726848737,1
894,339,38,0.145644101153723,1
894,340,38,0.149896772997414,1
894,341,38,0.14842428998741,1
894,342,38,0.147234587155688,1
894,343,38,0.15494147987743,1
894,344,38,0.164519590910639,1
894,345,38,0.162582405081465,1
894,346,38,0.159428284122969,1
894,347,38,0.174297826652452,1
894,348,38,0.196774820445761,1
894,349,38,0.206824170049563,1
894,350,38,0.183831374753868,1
894,351,38,0.148254142592004,1
895,332,38,0.109462333770971,1
895,333,38,0.124388290728163,1
895,334,38,0.137398477335014,1
895,335,38,0.150932558883099,1
895,336,38,0.163304932401395,1
895,337,38,0.163032587639555,1
895,338,38,0.151895721677545,1
895,339,38,0.155432096950996,1
895,340,38,0.157158450332149,1
895,341,38,0.148636146369821,1
895,342,38,0.145498865864161,1
895,343,38,0.156997300487869,1
895,344,38,0.172866170303011,1
895,345,38,0.181908295254851,1
895,346,38,0.18049286935478,1
895,347,38,0.191049654699147,1
895,348,38,0.219440109237596,1
895,349,38,0.227832798356265,1
895,350,38,0.191743838643735,1
895,351,38,0.149596945400835,1
896,332,38,0.109094523466662,1
896,333,38,0.127762535794621,1
896,334,38,0.145303087430253,1
896,335,38,0.163800277001825,1
896,336,38,0.192513837304842,1
896,338,38,0.197015336098166,1
896,339,38,0.182828158696112,1
896,340,38,0.170155140612309,1
896,341,38,0.152863317890039,1
896,342,38,0.145385688435334,1
896,343,38,0.152838645428413,1
896,344,38,0.172635109704332,1
896,345,38,0.195096962340175,1
896,346,38,0.208639431435921,1
896,348,38,0.243806871983496,1
896,349,38,0.216676532105445,1
896,350,38,0.163882278896359,1
897,332,38,0.113053892572279,1
897,333,38,0.131331873041088,1
897,334,38,0.151174654008766,1
897,335,38,0.171230369757839,1
897,339,38,0.189985765082338,1
897,340,38,0.168641765584229,1
897,341,38,0.153198242471765,1
897,342,38,0.147062587964044,1
897,343,38,0.148686580584977,1
897,344,38,0.162021234571276,1
897,345,38,0.181137501410654,1
897,349,38,0.175724515830811,1
897,350,38,0.13365842626135,1
898,331,38,0.104223079356898,1
898,332,38,0.122264825090484,1
898,333,38,0.140556857424855,1
898,334,38,0.161901456033511,1
898,335,38,0.182829977813592,1
898,339,38,0.178371070333715,1
898,340,38,0.16311207326979,1
898,341,38,0.153832188574062,1
898,342,38,0.151310151028706,1
898,343,38,0.149579418694099,1
898,344,38,0.15189089611441,1
898,345,38,0.16129026523909,1
898,349,38,0.169136946790873,1
899,331,38,0.113565990482193,1
899,332,38,0.133295049375092,1
899,333,38,0.15382675300746,1
899,334,38,0.177438276997553,1
899,335,38,0.200284693247188,1
899,338,38,0.197623967056613,1
899,339,38,0.172256025228817,1
899,340,38,0.16378592013453,1
899,341,38,0.162734470231265,1
899,342,38,0.169625799211555,1
899,343,38,0.171122486287666,1
899,344,38,0.160756294347743,1
899,345,38,0.150128824851725,1
899,346,38,0.159334496090034,1
899,348,38,0.182878767197972,1
900,331,38,0.118570905528956,1
900,334,38,0.193835039455217,1
900,340,38,0.178344938220937,1
900,341,38,0.184406651594214,1
900,345,38,0.163132987674347,1
900,346,38,0.146562722802213,1
900,347,38,0.148474811345918,1
901,331,38,0.121634234007252,1
901,346,38,0.15211558435545,1
902,331,38,0.11987247863922,1
902,345,38,0.165452122816743,1
903,331,38,0.109131123674637,1
905,332,38,0.107741045597172,1
911,334,38,0.1785782209751,1
879,337,39,0.111828711503243,1
879,338,39,0.104623906098817,1
879,340,39,0.0997288134618166,1
879,341,39,0.102527781687929,1
879,342,39,0.112233187373041,1
880,335,39,0.113704156267298,1
880,343,39,0.11298909059691,1
881,333,39,0.125057834889882,1
881,343,39,0.111692038048047,1
881,346,39,0.131410585274072,1
881,348,39,0.114135962470966,1
882,332,39,0.108940813486087,1
882,343,39,0.103097862605893,1
882,344,39,0.120854911007447,1
882,345,39,0.12415704494986,1
882,346,39,0.114128337427638,1
883,329,39,0.118458893642466,1
883,330,39,0.121205205497939,1
883,331,39,0.105508323981521,1
883,344,39,0.104273840359625,1
883,345,39,0.109479315831754,1
883,346,39,0.113124620295607,1
884,329,39,0.106760987885295,1
884,330,39,0.102929621471319,1
884,345,39,0.10625538215513,1
884,346,39,0.115268499263566,1
884,350,39,0.130150699364974,1
885,328,39,0.101852693030418,1
885,344,39,0.101773904547001,1
885,345,39,0.107192314800527,1
885,346,39,0.115156901308,1
885,350,39,0.122698504876228,1
886,328,39,0.109667545472767,1
886,340,39,0.10137424334742,1
886,341,39,0.104488027826711,1
886,342,39,0.10643036600659,1
886,343,39,0.108096220115394,1
886,344,39,0.108636421756431,1
886,345,39,0.110075692256281,1
886,350,39,0.120698434225436,1
887,328,39,0.106563836943589,1
887,340,39,0.106950633605784,1
887,341,39,0.106863904184386,1
887,342,39,0.106963029747651,1
887,343,39,0.111271952625265,1
887,344,39,0.115583348195502,1
887,345,39,0.117008381650166,1
887,350,39,0.12607066939515,1
888,339,39,0.102318114782245,1
888,340,39,0.106765562911292,1
888,341,39,0.103864299282474,1
888,342,39,0.103318237250994,1
888,343,39,0.111118493181828,1
888,348,39,0.120099301892392,1
888,349,39,0.125748173634049,1
888,350,39,0.124834595407074,1
889,337,39,0.101217995316709,1
889,338,39,0.100594016235334,1
889,339,39,0.105731748643953,1
889,340,39,0.109113912862554,1
889,341,39,0.108126241000268,1
889,342,39,0.108143887529113,1
889,348,39,0.120619700206614,1
889,349,39,0.121258025262364,1
889,350,39,0.116877753765037,1
890,332,39,0.103695328322324,1
890,333,39,0.104231172795745,1
890,334,39,0.105546296697295,1
890,335,39,0.110999106789149,1
890,336,39,0.114218933835295,1
890,337,39,0.117377433747245,1
890,338,39,0.115251800418678,1
890,339,39,0.113742967737837,1
890,340,39,0.1121746379332,1
890,341,39,0.111760009862857,1
890,342,39,0.113108291809966,1
890,349,39,0.13092581769803,1
890,350,39,0.120235430701636,1
891,331,39,0.117327271855066,1
891,334,39,0.130433272577794,1
891,335,39,0.133250388407027,1
891,336,39,0.137792234572476,1
891,337,39,0.138842410004213,1
891,338,39,0.133534530200188,1
891,339,39,0.128822166280086,1
891,340,39,0.118399734199159,1
891,341,39,0.115037307949859,1
892,331,39,0.133986226874024,1
892,351,39,0.122221111806376,1
893,331,39,0.126510362072204,1
893,351,39,0.131793111912004,1
894,331,39,0.110444123456974,1
894,351,39,0.143209152496092,1
895,332,39,0.114627919373575,1
895,350,39,0.188029701824468,1
895,351,39,0.142755168309258,1
896,332,39,0.114124045617537,1
896,350,39,0.15569827632066,1
896,351,39,0.128555006547708,1
897,331,39,0.103206889832566,1
897,350,39,0.133637446499279,1
898,331,39,0.111483079182101,1
898,349,39,0.168227682159838,1
898,350,39,0.134900883499984,1
899,348,39,0.176547421399696,1
899,349,39,0.149579756374589,1
900,330,39,0.103004532075557,1
900,347,39,0.141233264125569,1
900,348,39,0.140447100372607,1
901,330,39,0.100477505573281,1
901,346,39,0.143125582021217,1
901,347,39,0.141267032174594,1
902,344,39,0.169295329833716,1
902,345,39,0.14504007790003,1
902,346,39,0.134519282760171,1
903,331,39,0.10780325505781,1
903,343,39,0.179583005613198,1
903,344,39,0.153669916759121,1
903,345,39,0.133094380020535,1
904,343,39,0.17224838929257,1
