x,y,z,signal,mito.p
264,170,37,0.178422212588608,1
282,166,37,0.20035854723828,1
286,159,37,0.165224101342477,1
286,164,37,0.184386761124047,1
287,163,37,0.210177947321146,1
287,169,37,0.177038583119214,1
287,170,37,0.189007058092422,1
288,163,37,0.202508025166626,1
288,167,37,0.194269122278965,1
288,168,37,0.182455457471155,1
288,169,37,0.189103808999337,1
288,170,37,0.192353188534838,1
289,163,37,0.194089062327232,1
289,164,37,0.181271647708633,1
289,165,37,0.243165736554634,1
289,166,37,0.252541489830835,1
289,167,37,0.228488116365718,1
289,168,37,0.158591991156584,1
290,163,37,0.187567733127977,1
290,164,37,0.214124604390243,1
290,165,37,0.261197351873513,1
290,166,37,0.201384769141048,1
291,163,37,0.164617213251076,1
291,164,37,0.161351886482099,1
291,165,37,0.158180151673515,1
291,172,37,0.114938236851189,1
291,173,37,0.12760084130439,1
292,163,37,0.130760321579054,1
292,170,37,0.107044563246667,1
292,171,37,0.144838961935792,1
292,172,37,0.178760873441565,1
292,173,37,0.178553123689632,1
292,174,37,0.125031572062076,1
293,169,37,0.116776438725045,1
293,170,37,0.171381988297958,1
293,171,37,0.211565008060037,1
293,172,37,0.215011527644327,1
263,170,38,0.163205283978016,1
263,171,38,0.128084617624799,1
264,169,38,0.111481216492945,1
264,170,38,0.224639451996306,1
264,171,38,0.170921762468514,1
265,170,38,0.163108260748126,1
265,171,38,0.120523472159814,1
269,169,38,0.114412827794209,1
269,185,38,0.127769485476969,1
270,169,38,0.118853021239175,1
270,185,38,0.107713432047405,1
271,185,38,0.10677785012397,1
272,185,38,0.113124402437226,1
279,162,38,0.103896825538728,1
281,165,38,0.141813769567055,1
281,166,38,0.12353154085982,1
282,162,38,0.116811579281869,1
282,166,38,0.206383137543468,1
283,161,38,0.109841407353566,1
284,166,38,0.130619737565922,1
285,160,38,0.156543958983258,1
285,165,38,0.136533895457882,1
286,158,38,0.102897737897288,1
286,159,38,0.160513992256615,1
286,164,38,0.153376973487375,1
286,170,38,0.114985457655228,1
287,162,38,0.220387684264895,1
287,163,38,0.190056830486155,1
287,164,38,0.13623330535697,1
287,168,38,0.115795705652188,1
287,169,38,0.150036943079622,1
287,170,38,0.171084437321459,1
287,171,38,0.116417386327645,1
288,162,38,0.24504785867806,1
288,163,38,0.187345060076959,1
288,164,38,0.131569120817782,1
288,165,38,0.119581681272525,1
288,166,38,0.146001421576995,1
288,167,38,0.179656881390128,1
288,168,38,0.160954196900864,1
288,169,38,0.155030366096797,1
288,170,38,0.159981731553559,1
288,171,38,0.109928539812968,1
289,163,38,0.183268515841227,1
289,164,38,0.160110649250398,1
289,165,38,0.188710596407827,1
289,166,38,0.20648524776655,1
289,167,38,0.204192898312073,1
289,168,38,0.14217390036344,1
289,169,38,0.107791959100765,1
289,170,38,0.104752115755919,1
290,164,38,0.212216077831064,1
290,165,38,0.23664155341059,1
290,166,38,0.18203211506558,1
290,167,38,0.134222581431357,1
291,163,38,0.178579212230733,1
291,164,38,0.192917550670306,1
291,165,38,0.176544981385831,1
291,166,38,0.120794531557208,1
291,171,38,0.105563975904897,1
291,172,38,0.116459988534011,1
291,173,38,0.121549280131659,1
291,174,38,0.105345812522362,1
292,162,38,0.156513959884222,1
292,163,38,0.156907684442926,1
292,164,38,0.140673444337341,1
292,165,38,0.110176538900754,1
292,169,38,0.100457560638519,1
292,170,38,0.119260884806794,1
292,171,38,0.151099743404527,1
292,172,38,0.184815190522813,1
292,173,38,0.184309432291781,1
292,174,38,0.12744900490589,1
293,160,38,0.206529320516986,1
293,161,38,0.208247438851344,1
293,162,38,0.161719805715598,1
293,163,38,0.132706276208055,1
293,169,38,0.126055473773089,1
293,170,38,0.17505386059135,1
293,171,38,0.210969448604438,1
293,172,38,0.22794440720475,1
293,173,38,0.201815475159894,1
293,174,38,0.124816393339358,1
294,158,38,0.273782115527253,1
294,160,38,0.249125405062343,1
294,161,38,0.281471841008588,1
294,162,38,0.177538252208503,1
294,168,38,0.108145020392693,1
294,169,38,0.158424610562613,1
294,170,38,0.218882413568581,1
294,171,38,0.21794246358461,1
294,172,38,0.192957789113241,1
294,173,38,0.154081778028027,1
294,174,38,0.0997765135542932,1
295,158,38,0.272667007405117,1
295,160,38,0.162936283342321,1
295,161,38,0.171749885745619,1
295,169,38,0.15411567679208,1
295,170,38,0.185774192222185,1
295,171,38,0.163598322282822,1
295,172,38,0.135518904154644,1
295,173,38,0.105570773086378,1
296,170,38,0.122992526546959,1
296,171,38,0.106837445284038,1
262,170,39,0.101674375945732,1
263,171,39,0.140402777085033,1
264,170,39,0.230774561858075,1
264,171,39,0.168444396784141,1
265,170,39,0.14778812172963,1
265,171,39,0.107951137326698,1
268,185,39,0.121066462388125,1
269,169,39,0.105082149416996,1
269,185,39,0.12693187446738,1
269,186,39,0.127819930585044,1
270,185,39,0.113447595345146,1
270,186,39,0.120276028610899,1
271,185,39,0.102595394036411,1
271,186,39,0.106703004877245,1
272,185,39,0.104849945061818,1
273,184,39,0.100002454481023,1
274,184,39,0.100125468215743,1
281,165,39,0.1319295566159,1
281,166,39,0.114899621453192,1
282,162,39,0.109422661759826,1
282,166,39,0.20082641989689,1
284,161,39,0.150191840388372,1
284,166,39,0.117043870780399,1
285,160,39,0.132541063304973,1
285,161,39,0.220555565933141,1
285,165,39,0.121653394651844,1
286,159,39,0.142992786445199,1
286,160,39,0.215569375814208,1
286,161,39,0.255304348030329,1
286,162,39,0.246728527156758,1
286,164,39,0.13972056445847,1
286,170,39,0.116833986016334,1
287,157,39,0.112263502366729,1
287,158,39,0.168852881248145,1
287,161,39,0.241109589156623,1
287,162,39,0.20238484803812,1
287,163,39,0.171322142600752,1
287,164,39,0.123421555056272,1
287,169,39,0.117182243530966,1
287,170,39,0.1413541101694,1
287,171,39,0.105084066570747,1
288,157,39,0.177081119968066,1
288,162,39,0.206112361361969,1
288,163,39,0.164366218610554,1
288,164,39,0.118542453224423,1
288,165,39,0.101446234649356,1
288,166,39,0.118787631046177,1
288,167,39,0.138945424339576,1
288,168,39,0.124259078922509,1
288,169,39,0.115398233929334,1
288,170,39,0.120232282648034,1
289,162,39,0.237151799524267,1
289,163,39,0.161918699524351,1
289,164,39,0.133210759967559,1
289,165,39,0.139732601134009,1
289,166,39,0.154310169861541,1
289,167,39,0.154735679958005,1
289,168,39,0.117242982447533,1
290,163,39,0.173095771250538,1
290,164,39,0.193810443244024,1
290,165,39,0.195025940508033,1
290,166,39,0.157277912975261,1
290,167,39,0.123974501412586,1
291,163,39,0.200050647988692,1
291,164,39,0.229943170705258,1
291,165,39,0.189231691868867,1
291,166,39,0.130275935255178,1
291,167,39,0.102075681976089,1
291,169,39,0.102543718028485,1
291,170,39,0.11096221247236,1
291,171,39,0.113167505717868,1
291,172,39,0.114803480549744,1
291,173,39,0.109059524517786,1
292,162,39,0.164989990726467,1
292,163,39,0.191949584098564,1
292,164,39,0.189605362563619,1
292,165,39,0.13504800326454,1
292,166,39,0.100978754135831,1
292,168,39,0.104176969630601,1
292,169,39,0.119790215314629,1
292,170,39,0.138775767125526,1
292,171,39,0.159342306312985,1
292,172,39,0.180749386705255,1
292,173,39,0.168088002258987,1
292,174,39,0.120615266788565,1
293,158,39,0.237620521830563,1
293,159,39,0.218039018418981,1
293,160,39,0.213864416126051,1
293,161,39,0.217774756203068,1
293,162,39,0.181481194792208,1
293,163,39,0.154110557120131,1
293,164,39,0.118873478141133,1
293,168,39,0.113128487281866,1
293,169,39,0.142504892601392,1
293,170,39,0.17531260009731,1
293,171,39,0.20234014349838,1
293,173,39,0.202730632860129,1
293,174,39,0.134656871220567,1
294,157,39,0.250930536033993,1
294,158,39,0.297099432666991,1
294,159,39,0.24551187524333,1
294,160,39,0.267653367130203,1
294,161,39,0.305615974275146,1
294,162,39,0.205292843490905,1
294,163,39,0.116282542882848,1
294,168,39,0.113203408779024,1
294,169,39,0.153061961161655,1
294,170,39,0.189980536481199,1
294,171,39,0.201586309929128,1
294,173,39,0.177864604062945,1
294,174,39,0.119947846746058,1
295,157,39,0.287421161243208,1
295,158,39,0.331857103386116,2
295,159,39,0.221593094685873,1
295,160,39,0.186782048663452,1
295,161,39,0.194629939329249,1
295,162,39,0.127531747518919,1
295,168,39,0.109801604627394,1
295,169,39,0.144575843476378,1
295,170,39,0.166735090821287,1
295,171,39,0.165087177350142,1
295,172,39,0.162128660538849,1
295,173,39,0.130578932691198,1
296,158,39,0.213939446552399,1
296,168,39,0.101874947264017,1
296,169,39,0.119341753837748,1
296,170,39,0.12467689861813,1
296,171,39,0.117280911591631,1
296,172,39,0.112322367701222,1
297,168,39,0.102902269351609,1
297,169,39,0.104469662365209,1
262,171,40,0.0998504655816565,1
264,171,40,0.144953217763604,1
265,170,40,0.119042449101283,1
268,185,40,0.102524045416698,1
269,185,40,0.125402138274902,1
269,186,40,0.116541042744589,1
270,185,40,0.114843631849326,1
270,186,40,0.114425245721915,1
271,185,40,0.100224103597651,1
271,186,40,0.101176057578404,1
273,184,40,0.100875086225326,1
274,184,40,0.109250978462835,1
279,162,40,0.101883323918759,1
280,161,40,0.10601775312627,1
281,164,40,0.109241120371104,1
281,165,40,0.117021235294634,1
282,166,40,0.176682558953308,1
284,161,40,0.126385768864223,1
284,166,40,0.103142164107629,1
285,160,40,0.108766679282312,1
285,161,40,0.180976155493832,1
285,165,40,0.107246452608156,1
286,159,40,0.122154621428555,1
286,160,40,0.168187193179766,1
286,161,40,0.210031807919304,1
286,162,40,0.241411431943225,1
286,164,40,0.127744823908262,1
286,170,40,0.10570204365373,1
287,156,40,0.10128346176014,1
287,157,40,0.101190381766942,1
287,158,40,0.139648475120262,1
287,159,40,0.209380759934115,1
287,160,40,0.241483586638946,1
287,161,40,0.216825569023752,1
287,162,40,0.191596457449122,1
287,163,40,0.152179863470706,1
287,164,40,0.109425134452449,1
287,170,40,0.110962419437822,1
288,156,40,0.122539500937,1
288,157,40,0.149842994656113,1
288,161,40,0.219188918524531,1
288,162,40,0.180137705729477,1
288,163,40,0.140136053069417,1
288,164,40,0.10378275489054,1
289,156,40,0.157955779327127,1
289,162,40,0.199773270698255,1
289,163,40,0.140178382952806,1
289,164,40,0.10875773619578,1
289,165,40,0.103931813594685,1
289,166,40,0.11025772382636,1
289,167,40,0.109916437779915,1
290,156,40,0.231194636387937,1
290,162,40,0.193455813371754,1
290,163,40,0.158340059725024,1
290,164,40,0.16614290817059,1
290,165,40,0.155916603096981,1
290,166,40,0.135759278199102,1
290,167,40,0.115530277893938,1
291,162,40,0.173359053103738,1
291,163,40,0.210503558457093,1
291,164,40,0.260399924842263,1
291,165,40,0.203043237850742,1
291,166,40,0.140388986649528,1
291,167,40,0.111310742309967,1
291,168,40,0.101990074525352,1
291,169,40,0.112059085848023,1
291,170,40,0.127051293538817,1
291,171,40,0.124905039914506,1
291,172,40,0.112377333370698,1
292,160,40,0.197883327458958,1
292,161,40,0.164391098037641,1
292,162,40,0.163839535082046,1
292,163,40,0.219887437850897,1
292,164,40,0.257356900765057,1
292,165,40,0.18217146817886,1
292,166,40,0.12025570242397,1
292,167,40,0.10423020332595,1
292,168,40,0.118019157393736,1
292,169,40,0.145184104075578,1
292,170,40,0.172167182581126,1
292,171,40,0.185017090777222,1
292,173,40,0.150740799936317,1
292,174,40,0.113417857676166,1
293,158,40,0.234689607676117,1
293,159,40,0.227213731981378,1
293,160,40,0.209158435456506,1
293,161,40,0.201276210309894,1
293,162,40,0.180157367448345,1
293,163,40,0.166488246382919,1
293,164,40,0.152452883593527,1
293,165,40,0.112424227387166,1
293,168,40,0.134779231380144,1
293,169,40,0.173428560820133,1
293,170,40,0.195364296359257,1
293,174,40,0.137993535716337,1
294,157,40,0.244465043937738,1
294,158,40,0.283226951696006,2
294,159,40,0.248665331733765,1
294,160,40,0.25106992182603,1
294,161,40,0.274138292194026,1
294,162,40,0.207244506009483,1
294,163,40,0.124113048449857,1
294,168,40,0.125033946718427,1
294,169,40,0.163619846690845,1
294,170,40,0.180446040695826,1
294,174,40,0.136754782070177,1
295,157,40,0.290923626859688,2
295,158,40,0.34381121059911,2
295,159,40,0.24195982505938,2
295,160,40,0.197411729422036,1
295,161,40,0.197142456463364,1
295,162,40,0.142690867408164,1
295,168,40,0.111829277935033,1
295,169,40,0.142773827879574,1
295,170,40,0.154347870254339,1
295,171,40,0.164584283956818,1
295,173,40,0.153325188550259,1
295,174,40,0.107628630672678,1
296,158,40,0.266140122817152,2
296,159,40,0.166225541854429,1
296,160,40,0.111860562398517,1
296,168,40,0.10305704683825,1
296,169,40,0.118950621793775,1
296,170,40,0.12206764147002,1
296,171,40,0.123441314811411,1
296,172,40,0.127514427777645,1
296,173,40,0.106315663569098,1
297,169,40,0.10179559234881,1
297,170,40,0.100230432383613,1
298,167,40,0.102446945335732,1
298,168,40,0.110502411466758,1
262,171,41,0.124576030187819,1
264,171,41,0.112036199825119,1
269,185,41,0.11654727349428,1
269,186,41,0.106257146808014,1
270,185,41,0.113890185538665,1
270,186,41,0.105469697690605,1
271,185,41,0.104915248111464,1
274,184,41,0.106754484812628,1
282,163,41,0.154640029235914,1
282,165,41,0.233094993257836,1
282,166,41,0.138315759154462,1
283,162,41,0.140671440040238,1
283,166,41,0.143231461194287,1
284,161,41,0.112453692733169,1
285,161,41,0.152704379308325,1
285,162,41,0.276405805793091,1
286,159,41,0.101086931714818,1
286,160,41,0.128468745521829,1
286,161,41,0.173775631006589,1
286,162,41,0.227122122532251,1
286,163,41,0.188572692052779,1
286,164,41,0.116234733861181,1
287,158,41,0.113397825598052,1
287,159,41,0.165848123995527,1
287,160,41,0.206534570903963,1
287,161,41,0.202969013500403,1
287,162,41,0.179339254763837,1
287,163,41,0.132991431042687,1
288,156,41,0.11520762963197,1
288,157,41,0.12334974893396,1
288,158,41,0.17986837830621,1
288,161,41,0.222476140060779,1
288,162,41,0.160732297247098,1
288,163,41,0.117999996749144,1
289,155,41,0.150379514490514,1
289,156,41,0.155769134759016,1
289,162,41,0.161633490225124,1
289,163,41,0.118385911084897,1
290,155,41,0.207241216347933,1
290,161,41,0.210107186919061,1
290,162,41,0.162099914125503,1
290,163,41,0.137976346690092,1
290,164,41,0.137436700587926,1
290,165,41,0.128173547415843,1
290,166,41,0.123848372303021,1
290,167,41,0.117271565467094,1
290,168,41,0.10402434894193,1
290,170,41,0.100220846614858,1
291,160,41,0.235214472087146,1
291,161,41,0.180596406550256,1
291,162,41,0.156336928163982,1
291,163,41,0.196017936859178,1
291,164,41,0.264941967080254,1
291,165,41,0.222097872554192,1
291,166,41,0.160536540599028,1
291,167,41,0.126355105297125,1
291,168,41,0.107543742154598,1
291,169,41,0.111739770819281,1
291,170,41,0.132203459065163,1
291,171,41,0.129429773304143,1
291,172,41,0.106937409602069,1
292,159,41,0.224703328073557,1
292,160,41,0.197445541042736,1
292,161,41,0.16166350021708,1
292,162,41,0.156032525541406,1
292,163,41,0.229577451841405,1
292,164,41,0.331569029249181,3
292,165,41,0.265405874716334,1
292,166,41,0.161091197143632,1
292,167,41,0.117655813186234,1
292,168,41,0.12401599254121,1
292,169,41,0.159582898215824,1
292,170,41,0.201274314941981,1
292,173,41,0.13417976136661,1
292,174,41,0.105616610489699,1
293,159,41,0.242998682748235,1
293,160,41,0.204997645384918,1
293,161,41,0.178308316227124,1
293,162,41,0.165952194944036,1
293,163,41,0.175748730789837,1
293,164,41,0.208018861838206,1
293,165,41,0.166128583982053,1
293,166,41,0.110206951930714,1
293,167,41,0.101221589979992,1
293,168,41,0.1492394180121,1
293,169,41,0.208069361410876,1
293,174,41,0.132265374416987,1
294,158,41,0.260171042827392,2
294,159,41,0.239163503812594,1
294,160,41,0.219886849633269,1
294,161,41,0.221623289857452,1
294,162,41,0.189411337889677,1
294,163,41,0.131957878205404,1
294,164,41,0.104113409448002,1
294,168,41,0.136685143638754,1
294,169,41,0.185349368379621,1
294,170,41,0.188865188714844,1
294,174,41,0.144436686435641,1
295,157,41,0.271945874378824,2
295,158,41,0.315351281023023,2
295,159,41,0.244725711490368,2
295,160,41,0.200930120486152,1
295,161,41,0.190800119709776,1
295,162,41,0.150847354470368,1
295,168,41,0.116257848635384,1
295,169,41,0.146461582048926,1
295,170,41,0.149344197000347,1
295,171,41,0.163713220792857,1
295,173,41,0.168910777112844,1
295,174,41,0.126077869614635,1
296,158,41,0.290301249037413,2
296,159,41,0.196200676468995,1
296,160,41,0.132251235408073,1
296,161,41,0.108104574984297,1
296,168,41,0.10600084731592,1
296,169,41,0.12041434689687,1
296,170,41,0.120480183699548,1
296,171,41,0.125861808565475,1
296,172,41,0.135633519448784,1
296,173,41,0.121198321173105,1
297,169,41,0.101892288791129,1
297,170,41,0.101910697824307,1
297,171,41,0.099791131851645,1
270,185,42,0.109553877862584,1
271,185,42,0.110464525894337,1
282,163,42,0.129933962954833,1
282,164,42,0.209890047470916,1
282,165,42,0.179305715466113,1
282,166,42,0.101984758780861,1
283,162,42,0.120284230978936,1
283,163,42,0.22525185190474,1
283,165,42,0.242260099265639,1
283,166,42,0.112223786783909,1
284,161,42,0.102627876720989,1
284,162,42,0.19239856843556,1
284,165,42,0.165420849246179,1
285,161,42,0.132188873446569,1
285,162,42,0.240968591212568,1
285,163,42,0.248526120228432,1
285,164,42,0.162925869711719,1
286,160,42,0.104059184497021,1
286,161,42,0.147213062747664,1
286,162,42,0.197050367725799,1
286,163,42,0.163411595864636,1
287,159,42,0.134226622704321,1
287,160,42,0.179051474735717,1
287,161,42,0.188474198278818,1
287,162,42,0.158742313439337,1
287,163,42,0.112434336016035,1
288,156,42,0.110132389899885,1
288,157,42,0.109380255626003,1
288,158,42,0.15006533002664,1
288,160,42,0.287536887615091,1
288,161,42,0.224236501135174,1
288,162,42,0.142594595789688,1
289,156,42,0.159492683060334,1
289,161,42,0.202506108012875,1
289,162,42,0.132907174313911,1
289,163,42,0.0998456835901979,1
290,161,42,0.175429993085805,1
290,162,42,0.134271305458223,1
290,163,42,0.117772824922563,1
290,164,42,0.11322320121292,1
290,165,42,0.108055502384022,1
290,166,42,0.114235926788997,1
290,167,42,0.12243373069312,1
290,168,42,0.114669693718094,1
290,169,42,0.10325938280942,1
290,170,42,0.101058697268666,1
291,160,42,0.207554823487098,1
291,161,42,0.159772620186746,1
291,162,42,0.138639485815415,1
291,163,42,0.166684525891103,1
291,164,42,0.237233953919668,3
291,165,42,0.226809343254933,1
291,166,42,0.176199948175236,1
291,167,42,0.144246855535529,1
291,168,42,0.117714732985322,1
291,169,42,0.112936488690865,1
291,170,42,0.131369388254262,1
291,171,42,0.127783406627502,1
291,172,42,0.101783697281218,1
292,160,42,0.189165528278618,1
292,161,42,0.152560483847805,1
292,162,42,0.142935402547695,1
292,163,42,0.216079316926152,3
292,164,42,0.361545362084841,3
292,165,42,0.334500422692064,3
292,166,42,0.201445246627559,1
292,167,42,0.132677464437194,1
292,168,42,0.128338727640167,1
292,169,42,0.170499443997329,1
292,172,42,0.160839603392562,1
292,173,42,0.12305946353446,1
292,174,42,0.103897097861704,1
293,160,42,0.195223233057688,1
293,161,42,0.158441254942907,1
293,162,42,0.147581864307605,1
293,163,42,0.179060875324848,1
293,164,42,0.254856300484372,3
293,165,42,0.222958282443332,1
293,166,42,0.13326317669398,1
293,167,42,0.105280041077198,1
293,168,42,0.156204045444611,1
293,173,42,0.176773972329892,1
293,174,42,0.132337812328604,1
293,175,42,0.107744139186179,1
294,159,42,0.224507059458292,1
294,160,42,0.192256394056248,1
294,161,42,0.180019909702977,1
294,162,42,0.161592358562829,1
294,163,42,0.134901319216746,1
294,164,42,0.124510356778926,1
294,165,42,0.104676780327838,1
294,168,42,0.142127191526596,1
294,169,42,0.207001114626451,1
294,174,42,0.152131891055253,1
294,175,42,0.111909972679283,1
295,158,42,0.276672181235298,2
295,159,42,0.233710552112793,1
295,160,42,0.192865068586371,1
295,161,42,0.176708669280247,1
295,162,42,0.144005620950467,1
295,163,42,0.0999931519281628,1
295,168,42,0.117906099787019,1
295,169,42,0.149121905201496,1
295,170,42,0.152257333910919,1
295,173,42,0.185754584967913,1
295,174,42,0.143551985337042,1
295,175,42,0.10145685524542,1
296,160,42,0.150071419168384,1
296,161,42,0.115998205017144,1
296,168,42,0.107493351511119,1
296,169,42,0.121994430161152,1
296,170,42,0.122602233257752,1
296,171,42,0.12974675724821,1
296,172,42,0.141650038100963,1
296,173,42,0.137315473291928,1
297,169,42,0.104264189233355,1
297,170,42,0.104578264768039,1
297,171,42,0.104046494246339,1
297,172,42,0.101890622174516,1
261,171,43,0.109656587196213,1
270,184,43,0.101665781432609,1
270,185,43,0.111940113386267,1
271,184,43,0.113124892618583,1
271,185,43,0.11779975221843,1
282,163,43,0.109043620855988,1
282,164,43,0.157597641934927,1
282,165,43,0.129998699572689,1
283,162,43,0.103881869560886,1
283,163,43,0.172719845721545,1
283,164,43,0.238262942623872,1
283,165,43,0.171353002240393,1
284,162,43,0.156323682374429,1
284,163,43,0.208440635663439,1
284,164,43,0.207189300695788,1
284,165,43,0.130504076551554,1
285,161,43,0.117183038714055,1
285,162,43,0.193602105274463,1
285,163,43,0.194168907423796,1
285,164,43,0.13183117177113,1
286,161,43,0.129477277324077,1
286,162,43,0.16267551775342,1
286,163,43,0.132654208055043,1
287,159,43,0.113453597343537,1
287,160,43,0.157094552469059,1
287,161,43,0.169272977563846,1
287,162,43,0.13771092982476,1
288,157,43,0.103025021656272,1
288,158,43,0.131336045029081,1
288,159,43,0.210599394358807,1
288,160,43,0.273120632125623,1
288,161,43,0.214966125957767,1
288,162,43,0.128715088885922,1
289,156,43,0.154248777369831,1
289,160,43,0.301981355764872,1
289,161,43,0.19521083691582,1
289,162,43,0.117401572455838,1
289,169,43,0.101254301415869,1
290,160,43,0.228421996347145,1
290,161,43,0.152635122129068,1
290,162,43,0.116141534045874,1
290,163,43,0.102263149112769,1
290,166,43,0.105478923993032,1
290,167,43,0.124281452978217,1
290,168,43,0.126735475137087,1
290,169,43,0.113472028162553,1
290,170,43,0.103880812947739,1
291,160,43,0.182427604277169,1
291,161,43,0.141272489527033,1
291,162,43,0.123902303145188,1
291,163,43,0.137991738384695,1
291,164,43,0.193682233586922,1
291,165,43,0.2155127326352,4
291,166,43,0.186826796774869,1
291,167,43,0.162826755041373,1
291,168,43,0.133193429333366,1
291,169,43,0.117690267489158,1
291,170,43,0.125737760003446,1
291,171,43,0.121042399929965,1
291,172,43,0.0999688607187034,1
292,160,43,0.17635151225076,1
292,161,43,0.139333746010436,1
292,162,43,0.128211040843179,1
292,163,43,0.184493293872259,1
292,164,43,0.332492269495344,3
292,165,43,0.367490085507627,4
292,166,43,0.244671072608462,4
292,167,43,0.155461300866943,1
292,168,43,0.133993710309405,1
292,172,43,0.143672951202982,1
292,173,43,0.120068398681075,1
292,174,43,0.114882650285328,1
292,175,43,0.104792648307667,1
293,160,43,0.181142904298498,1
293,161,43,0.139876115342362,1
293,162,43,0.129770177024146,1
293,163,43,0.170848758125107,1
293,164,43,0.270677873245041,1
293,165,43,0.272891750110752,4
293,166,43,0.168234413983805,1
293,167,43,0.115772678021338,1
293,173,43,0.168808187601324,1
293,174,43,0.147514622318371,1
293,175,43,0.126152954505579,1
293,176,43,0.102486889669853,1
294,160,43,0.17475358638509,1
294,161,43,0.147137738212502,1
294,162,43,0.131183130231596,1
294,163,43,0.127872140346003,1
294,164,43,0.137933341445721,1
294,165,43,0.124433006160822,1
294,168,43,0.136663913339544,1
294,173,43,0.208030647976608,1
294,174,43,0.163697622132791,1
294,175,43,0.129059762630189,1
295,160,43,0.178693075913459,1
295,161,43,0.151334779918655,1
295,169,43,0.146566894790205,1
295,172,43,0.197676863071472,1
295,173,43,0.195463574423389,1
296,170,43,0.129669635381406,1
296,171,43,0.135890015013421,1
296,172,43,0.145649318861943,1
261,171,44,0.113850894779687,1
270,184,44,0.117865403841485,1
270,185,44,0.116666017204736,1
271,184,44,0.123119864770537,1
271,185,44,0.118305455984867,1
272,184,44,0.107305764552329,1
278,162,44,0.10024045386913,1
279,161,44,0.102513381248958,1
282,164,44,0.110491409618528,1
283,163,44,0.132586192668557,1
283,164,44,0.153366320212554,1
283,165,44,0.109622830040107,1
284,162,44,0.126772325882199,1
284,163,44,0.156575624698908,1
284,164,44,0.14483001884926,1
285,161,44,0.10479544778786,1
285,162,44,0.146991380952279,1
285,163,44,0.142851222069354,1
285,164,44,0.102173848962478,1
286,161,44,0.114205633581147,1
286,162,44,0.129612752558179,1
286,163,44,0.102959718606626,1
287,159,44,0.10019393021191,1
287,160,44,0.134166885936305,1
287,161,44,0.142159630639497,1
287,162,44,0.114180765046978,1
288,158,44,0.116353412214123,1
288,159,44,0.173596823740545,1
288,160,44,0.231230909808341,1
288,161,44,0.184209674939212,1
288,162,44,0.110582583350893,1
289,156,44,0.144851260041388,1
289,159,44,0.245637753815758,1
289,160,44,0.264722039044834,1
289,161,44,0.175651707559947,1
289,162,44,0.102678975404206,1
289,169,44,0.116132220600094,1
289,170,44,0.109094000606548,1
290,160,44,0.19202328558879,1
290,161,44,0.131734497114649,1
290,162,44,0.100128006265879,1
290,167,44,0.122291948458894,1
290,168,44,0.142125459552468,1
290,169,44,0.134639137548369,1
290,170,44,0.111298259024747,1
291,160,44,0.154719253436093,1
291,161,44,0.123310000672382,1
291,162,44,0.108943384214981,1
291,163,44,0.115163088486015,1
291,164,44,0.152135747148593,1
291,165,44,0.191493454006679,4
291,166,44,0.184408634105479,1
291,167,44,0.172329432610229,1
291,168,44,0.148362385528505,1
291,169,44,0.126527289668392,1
291,170,44,0.119452970541147,1
291,171,44,0.112557948861302,1
292,159,44,0.192341402396437,1
292,160,44,0.15654733578816,1
292,161,44,0.126750518258281,1
292,162,44,0.114395616982125,1
292,163,44,0.149167121708431,1
292,164,44,0.267627202338669,4
292,165,44,0.357056956580203,4
292,166,44,0.271448721553833,4
292,167,44,0.170580944817587,1
292,168,44,0.136701809804885,1
292,172,44,0.125405046684285,1
292,173,44,0.112086797434061,1
292,174,44,0.118374321019039,1
292,175,44,0.11051998174517,1
293,159,44,0.206760424687341,1
293,160,44,0.162794392178905,1
293,163,44,0.149512035096917,1
293,164,44,0.244183091621304,1
293,165,44,0.294947906869865,4
293,166,44,0.201818851964796,1
293,167,44,0.123796162542061,1
293,173,44,0.156363888138606,1
293,174,44,0.162291455213904,1
293,175,44,0.143677548014817,1
293,176,44,0.114707546611758,1
294,166,44,0.104488572472663,1
261,171,45,0.11462298488125,1
269,184,45,0.11320062019175,1
269,185,45,0.10748709897559,1
270,183,45,0.109659964001115,1
270,184,45,0.146644583088799,1
270,185,45,0.131684879868421,1
270,186,45,0.101041410206149,1
271,183,45,0.10213296783732,1
271,184,45,0.134638277007765,1
271,185,45,0.120704654082208,1
272,184,45,0.113942634943843,1
283,163,45,0.109118335387684,1
283,164,45,0.102635403728045,1
284,162,45,0.10676989829307,1
284,163,45,0.121037291150936,1
284,164,45,0.102340902768877,1
285,162,45,0.113366377740783,1
285,163,45,0.10590029478026,1
286,161,45,0.103756056345973,1
286,162,45,0.106303419928097,1
287,160,45,0.116508276844116,1
287,161,45,0.119736633045871,1
288,156,45,0.104232109586782,1
288,157,45,0.103746535934731,1
288,158,45,0.110126377008574,1
288,159,45,0.142752390614903,1
288,160,45,0.183116102118018,1
288,161,45,0.149953350818908,1
288,170,45,0.104232087800944,1
288,171,45,0.103168535864625,1
289,155,45,0.129874803511526,1
289,156,45,0.140271702590223,1
289,157,45,0.177540692222368,1
289,158,45,0.17671351662922,1
289,159,45,0.192105265697486,1
289,160,45,0.210846707192694,1
289,161,45,0.150726824321189,1
289,169,45,0.136603217994653,1
289,170,45,0.138825166513373,1
289,171,45,0.113943136018118,1
290,155,45,0.155089972149785,1
290,156,45,0.207919082699799,1
290,159,45,0.194224657383443,1
290,160,45,0.160416958133806,1
290,161,45,0.118587255800435,1
290,167,45,0.114473087422339,1
290,168,45,0.150103792923771,1
290,169,45,0.160070595987088,1
290,170,45,0.13101887590539,1
290,171,45,0.105509663810563,1
291,159,45,0.180754179589633,1
291,160,45,0.135436074398263,1
291,161,45,0.112792974482512,1
291,162,45,0.102102380520656,1
291,163,45,0.102492978811596,1
291,164,45,0.12335564200316,1
291,165,45,0.162767279703414,1
291,166,45,0.16872153443036,1
291,167,45,0.166199736529223,1
291,168,45,0.159746063250126,1
291,169,45,0.142066550646299,1
291,171,45,0.112757801246931,1
291,172,45,0.102808350603645,1
292,158,45,0.219329175750092,1
292,159,45,0.174586990081291,1
292,160,45,0.141774457022239,1
292,161,45,0.121151067690309,1
292,162,45,0.107918709106716,1
292,163,45,0.122271916380779,1
292,164,45,0.202078408439684,1
292,165,45,0.313416785744852,4
292,166,45,0.267233967961321,1
292,167,45,0.170338925942354,1
292,168,45,0.137566533289965,1
292,172,45,0.117430329762104,1
292,174,45,0.114614205188503,1
292,175,45,0.110931614262776,1
293,158,45,0.197006055331144,1
293,159,45,0.179648635450414,1
293,160,45,0.148491444833292,1
293,161,45,0.121024110718897,1
293,162,45,0.107349848195685,1
293,163,45,0.125234528929631,1
293,164,45,0.196338515466528,1
293,165,45,0.281250932610454,1
293,166,45,0.214238304679184,1
293,167,45,0.125572459957013,1
260,171,46,0.107692430499496,1
261,171,46,0.11530647197934,1
263,171,46,0.113481984290556,1
269,183,46,0.100820283949635,1
269,184,46,0.136093135274762,1
269,185,46,0.121898180328513,1
269,186,46,0.100494607456174,1
270,183,46,0.128542240046593,1
270,184,46,0.17163991083499,1
270,185,46,0.147240371295698,1
270,186,46,0.110128207018973,1
271,183,46,0.112722780512217,1
271,184,46,0.143906037884602,1
271,185,46,0.126053785370638,1
272,184,46,0.115925636390499,1
272,185,46,0.100731277908159,1
279,161,46,0.10044211447932,1
284,163,46,0.100250311960862,1
287,160,46,0.103228457812265,1
287,161,46,0.103301832514919,1
287,172,46,0.111398277807374,1
288,156,46,0.105634039160163,1
288,157,46,0.103704816054808,1
288,158,46,0.104730722062924,1
288,159,46,0.118205034164236,1
288,160,46,0.136294545347813,1
288,161,46,0.115252584708849,1
288,170,46,0.123741218658423,1
288,171,46,0.126791355811762,1
288,172,46,0.123902934934493,1
289,155,46,0.121945128809576,1
289,156,46,0.13218783861926,1
289,157,46,0.159554936092648,1
289,158,46,0.152020543636825,1
289,159,46,0.145058791934941,1
289,160,46,0.148674522123599,1
289,161,46,0.116357747595901,1
289,169,46,0.151137541833596,1
289,170,46,0.173275689594324,1
289,171,46,0.132638315286163,1
289,172,46,0.112009621102661,1
290,155,46,0.142469708472893,1
290,156,46,0.174047049870311,1
290,157,46,0.224318633744736,1
290,158,46,0.207998666366306,1
290,159,46,0.154567471502188,1
290,160,46,0.124741776843933,1
290,167,46,0.103810913086259,1
290,168,46,0.147048013238369,1
290,169,46,0.175752619561935,1
290,170,46,0.152747460803129,1
290,171,46,0.113105230899715,1
291,155,46,0.177322016872638,1
291,156,46,0.190844344961079,1
291,158,46,0.222499864838448,1
291,159,46,0.155078687085659,1
291,160,46,0.114872018796345,1
291,164,46,0.103133569594507,1
291,165,46,0.138137126175124,1
291,166,46,0.150179858177428,1
291,167,46,0.15338384691929,1
291,168,46,0.164103938905906,1
292,156,46,0.184766618996813,1
292,157,46,0.205855353830136,1
292,158,46,0.205550678884585,1
292,159,46,0.155200546170961,1
292,160,46,0.127969348755517,1
292,161,46,0.11485142028644,1
292,162,46,0.102133632305382,1
292,163,46,0.104843866812994,1
292,164,46,0.156181736746417,1
292,165,46,0.259615569313861,1
292,166,46,0.244790415429466,1
293,157,46,0.164775171470077,1
293,158,46,0.170597240624471,1
293,159,46,0.156443003409594,1
293,160,46,0.137520499814101,1
293,161,46,0.117685180495966,1
293,162,46,0.10121740709908,1
293,163,46,0.106317395543225,1
293,164,46,0.157182207788575,1
294,159,46,0.178604941305506,1
294,164,46,0.109015952841626,1
294,165,46,0.136918230320374,1
294,166,46,0.121114935877853,1
260,171,47,0.112020612057973,1
262,171,47,0.100832832592369,1
268,184,47,0.115744944649462,1
268,185,47,0.10581836913616,1
269,183,47,0.113696531223969,1
269,184,47,0.157702083242683,1
269,185,47,0.137391179079257,1
269,186,47,0.106123599620583,1
270,183,47,0.142654223628513,1
270,184,47,0.191633493373859,1
270,185,47,0.165361156049839,1
270,186,47,0.12232411524882,1
271,183,47,0.125087147735019,1
271,184,47,0.157013149685073,1
271,185,47,0.138716683932653,1
271,186,47,0.105958887791777,1
272,183,47,0.10647746698852,1
272,184,47,0.121310017164943,1
272,185,47,0.106302842603388,1
276,163,47,0.100673131506322,1
277,162,47,0.161789139145288,1
278,161,47,0.158966979894539,1
278,162,47,0.120803300357035,1
279,161,47,0.11552628019265,1
284,162,47,0.104541021877841,1
287,156,47,0.115873230556997,1
287,160,47,0.102091879746701,1
287,171,47,0.10095822098344,1
287,172,47,0.137955290677587,1
287,173,47,0.101867649008261,1
288,155,47,0.135271798286219,1
288,156,47,0.103198284426524,1
288,157,47,0.1017963875319,1
288,158,47,0.105273973721292,1
288,159,47,0.108770012515538,1
288,160,47,0.109158573830618,1
288,170,47,0.12994421319165,1
288,171,47,0.140332822758957,1
288,172,47,0.147112651819953,1
288,173,47,0.110973421286052,1
289,155,47,0.115708507835272,1
289,156,47,0.120470423644088,1
289,157,47,0.139331567426628,1
289,158,47,0.134655869072015,1
289,159,47,0.118232168425565,1
289,160,47,0.107867610423499,1
289,169,47,0.142124544547269,1
289,170,47,0.18523124556555,1
289,171,47,0.141867776659656,1
289,172,47,0.119111630030106,1
290,155,47,0.130471190828972,1
290,156,47,0.145419543627711,1
290,157,47,0.170220062409788,1
290,158,47,0.163614160587106,1
290,159,47,0.125374622761406,1
290,168,47,0.125464641844354,1
291,155,47,0.15125835519867,1
291,156,47,0.156658988208322,1
291,157,47,0.177554929267554,1
291,158,47,0.177100465792281,1
291,159,47,0.130539968719792,1
291,160,47,0.0998802359293931,1
291,165,47,0.115333192309746,1
291,166,47,0.127740368704375,1
292,156,47,0.16489678001824,1
292,157,47,0.184405584088148,1
292,158,47,0.180449210535267,1
292,159,47,0.136921705161548,1
292,160,47,0.117709340990397,1
292,161,47,0.107745653301926,1
292,164,47,0.126368656088411,1
293,157,47,0.153906467388996,1
293,158,47,0.154047650512675,1
293,159,47,0.140370893511002,1
293,160,47,0.134902354044054,1
293,161,47,0.118950610900856,1
293,162,47,0.101662883916145,1
294,158,47,0.148134952271867,1
294,159,47,0.15385853854522,1
294,160,47,0.136222063864521,1
294,161,47,0.110436389484456,1
267,184,48,0.103371394695909,1
267,185,48,0.108067419237452,1
268,184,48,0.134376465698636,1
268,185,48,0.126296653893556,1
269,183,48,0.114757185643824,1
269,184,48,0.162482386298839,1
269,185,48,0.146467246366826,1
269,186,48,0.109996936451621,1
270,183,48,0.140050772406252,1
270,184,48,0.190870836540185,1
270,185,48,0.172448906146261,1
271,183,48,0.126756258826615,1
271,184,48,0.162375483191379,1
272,183,48,0.106286220008932,1
272,184,48,0.120789379206502,1
276,162,48,0.204124120421254,1
276,163,48,0.123905167982896,1
277,161,48,0.256844301780867,1
277,162,48,0.228669505253574,1
277,163,48,0.134281305157902,1
278,161,48,0.179624812636474,1
278,162,48,0.16785238842015,1
278,163,48,0.101102051086446,1
279,161,48,0.12883369098843,1
279,162,48,0.109878846316307,1
283,162,48,0.108246139360143,1
284,162,48,0.114611590887934,1
285,157,48,0.138763153125278,1
286,156,48,0.172943444670681,1
286,157,48,0.10393538647213,1
287,156,48,0.117179389586177,1
287,159,48,0.101450940390381,1
287,171,48,0.103374324891131,1
287,172,48,0.146487027907803,1
287,173,48,0.111812589983064,1
288,155,48,0.128444301811503,1
288,156,48,0.0998055867552112,1
288,157,48,0.1021282076317,1
288,158,48,0.115203566573168,1
288,159,48,0.107665535882386,1
288,170,48,0.124031776380899,1
288,171,48,0.144433287844901,1
288,174,48,0.103248348282432,1
289,155,48,0.108440991895932,1
289,156,48,0.109572461182466,1
289,157,48,0.122420953299086,1
289,158,48,0.122575556499022,1
290,155,48,0.116886729530327,1
290,156,48,0.12342645686984,1
290,157,48,0.130116408455836,1
290,158,48,0.12206037589302,1
291,155,48,0.127162499349297,1
291,156,48,0.130684735613835,1
291,157,48,0.135896616122359,1
291,158,48,0.128582968670884,1
291,159,48,0.0999475868478181,1
292,155,48,0.132815434149756,1
292,156,48,0.141406407073712,1
292,157,48,0.151550601323597,1
292,158,48,0.142305432360849,1
292,159,48,0.111954557396914,1
292,160,48,0.100833834740921,1
293,156,48,0.131827250320275,1
293,157,48,0.137797365137344,1
293,158,48,0.133479978461635,1
293,159,48,0.122909675004739,1
293,160,48,0.12855839424553,1
293,161,48,0.115416011173207,1
294,157,48,0.121628624153947,1
294,158,48,0.125880642422495,1
294,159,48,0.133215280528961,1
294,160,48,0.13475352409121,1
260,171,49,0.103425772147757,1
267,184,49,0.110212638034453,1
267,185,49,0.12828103874093,1
267,186,49,0.106110724190277,1
268,184,49,0.145631116794227,1
268,185,49,0.15315268828434,1
268,186,49,0.112328870773889,1
269,183,49,0.110178096588177,1
269,184,49,0.157262706460281,1
269,185,49,0.151035224645052,1
270,183,49,0.133272588176031,1
270,184,49,0.179989082742094,1
271,183,49,0.132651201609388,1
272,183,49,0.115598707211348,1
273,183,49,0.101384384655046,1
276,162,49,0.222680883367056,1
276,163,49,0.164987049638326,1
276,164,49,0.0999550593902796,1
277,161,49,0.280492110084282,1
277,162,49,0.294027498782652,1
277,163,49,0.185283596934457,1
278,160,49,0.219018771129125,1
278,161,49,0.215153723809476,1
278,162,49,0.213311382626385,1
278,163,49,0.12445765683661,1
279,160,49,0.130169173755666,1
279,161,49,0.137172089798603,1
279,162,49,0.117276772282396,1
283,161,49,0.100424925453075,1
283,162,49,0.120347420802287,1
284,157,49,0.164594403478606,1
284,158,49,0.100816874465976,1
284,161,49,0.113044099838062,1
284,162,49,0.124617957033204,1
285,157,49,0.154848269169204,1
286,156,49,0.175969410436671,1
286,157,49,0.111691929118857,1
286,159,49,0.10036505797003,1
286,160,49,0.103582619289016,1
287,155,49,0.173441490715033,1
287,156,49,0.11801513790661,1
287,157,49,0.102079864857,1
287,158,49,0.120648511977475,1
287,159,49,0.116169703134511,1
288,155,49,0.118938585118235,1
288,156,49,0.100063966794843,1
288,157,49,0.112752801397092,1
288,158,49,0.135769299684619,1
288,159,49,0.112004065713951,1
288,170,49,0.101885742146786,1
289,154,49,0.111845813386136,1
289,155,49,0.1021906240578,1
289,156,49,0.102445986758857,1
289,157,49,0.114176876274881,1
289,158,49,0.116521555312426,1
290,154,49,0.102339290616859,1
290,155,49,0.104983731893469,1
290,156,49,0.106566679995458,1
290,157,49,0.105914956649288,1
291,154,49,0.107578588602608,1
291,155,49,0.107526106518673,1
291,156,49,0.107597052100381,1
291,157,49,0.105584748701507,1
292,155,49,0.110195285614422,1
292,156,49,0.115032286314182,1
292,157,49,0.116987085993443,1
292,158,49,0.107266114327023,1
293,155,49,0.11112051926477,1
293,156,49,0.115348747398135,1
293,157,49,0.118042893064324,1
293,158,49,0.112839225816756,1
293,159,49,0.107983075365324,1
293,160,49,0.11742061327832,1
293,161,49,0.106604315030742,1
294,156,49,0.112970485491189,1
294,157,49,0.11366237102986,1
294,158,49,0.113802541112068,1
294,159,49,0.123118753692795,1
294,160,49,0.13529073017951,1
294,161,49,0.114567006170303,1
295,159,49,0.133487483682854,1
261,171,50,0.10730881456966,1
262,170,50,0.126357937456076,1
267,184,50,0.106415006990744,1
267,185,50,0.142160338679235,1
267,186,50,0.127878763240779,1
268,169,50,0.104524355711709,1
268,184,50,0.144257704882893,1
268,185,50,0.180114819706574,1
268,187,50,0.101546776292096,1
269,184,50,0.144524842829433,1
270,183,50,0.118915622844899,1
275,162,50,0.112396058298528,1
275,163,50,0.109597209894525,1
276,162,50,0.219346255847147,1
276,163,50,0.200058686962943,1
276,164,50,0.118504502294487,1
277,161,50,0.29205217684392,1
277,162,50,0.307422564897948,1
277,163,50,0.217051858523891,1
277,164,50,0.110379778984204,1
278,160,50,0.238702798694712,1
278,161,50,0.256192839864755,1
278,162,50,0.22457222089999,1
278,163,50,0.131827141391085,1
279,160,50,0.141585334161865,1
279,161,50,0.14391412043053,1
279,162,50,0.112067996255797,1
283,161,50,0.11950593191352,1
283,162,50,0.122049777082794,1
284,157,50,0.172879633950945,1
284,158,50,0.104329285317539,1
284,160,50,0.107198501978541,1
284,161,50,0.131925983738455,1
284,162,50,0.117935989956865,1
285,156,50,0.240848878032317,1
285,157,50,0.154953603696321,1
285,158,50,0.10233337576182,1
285,159,50,0.102666110866819,1
285,160,50,0.109557069487862,1
286,155,50,0.229513967909239,1
286,156,50,0.166785710216066,1
286,157,50,0.116114955323416,1
286,158,50,0.111774867804428,1
286,159,50,0.116184201609754,1
286,160,50,0.101172070770036,1
287,154,50,0.211706202076635,1
287,155,50,0.153913983503134,1
287,156,50,0.11542881035308,1
287,157,50,0.115613848368814,1
287,158,50,0.143737851214623,1
287,159,50,0.120895966419309,1
288,154,50,0.139806531375534,1
288,155,50,0.108300473240315,1
288,156,50,0.101597014434709,1
288,157,50,0.121495774113334,1
288,158,50,0.143892574236669,1
288,159,50,0.10373315943015,1
289,154,50,0.103492589313149,1
289,157,50,0.104328501027368,1
289,158,50,0.102138610369383,1
293,156,50,0.10000022143262,1
294,156,50,0.107801120045678,1
294,157,50,0.104498441457313,1
294,158,50,0.102322166948128,1
294,159,50,0.113257993196334,1
295,157,50,0.110281350567758,1
295,158,50,0.108319121917711,1
261,170,51,0.188985795114456,1
262,169,51,0.107203763258438,1
262,170,51,0.119432110601185,1
267,184,51,0.100434326042206,1
267,185,51,0.145182274065179,1
268,169,51,0.106905035846682,1
268,184,51,0.138755909334116,1
268,185,51,0.199082245700188,1
269,169,51,0.105985673479697,1
269,184,51,0.146184596903574,1
270,183,51,0.11556781489295,1
275,162,51,0.11943500811765,1
275,163,51,0.121397356589806,1
276,161,51,0.16967023142832,1
276,162,51,0.22675468258719,1
276,163,51,0.22934044370893,1
276,164,51,0.125402737385449,1
277,161,51,0.280156956751256,1
277,162,51,0.289039391509969,1
277,163,51,0.231459573964831,1
277,164,51,0.118730530364569,1
278,160,51,0.264228023380527,1
278,161,51,0.272632956140198,1
278,162,51,0.20672866093542,1
278,163,51,0.132406906114075,1
279,160,51,0.157667465545974,1
279,161,51,0.143913499534145,1
283,157,51,0.137928123737501,1
283,160,51,0.111433320327926,1
283,161,51,0.141063497982329,1
283,162,51,0.119498089011811,1
284,156,51,0.231418071943288,1
284,157,51,0.172800638502066,1
284,158,51,0.108681834335909,1
284,159,51,0.115009846900959,1
284,160,51,0.143740509086869,1
284,161,51,0.149352813299308,1
284,162,51,0.105408414128085,1
285,155,51,0.243057940227813,1
285,156,51,0.219338020800352,1
285,157,51,0.149057310191588,1
285,158,51,0.114974303306131,1
285,159,51,0.13911366547415,1
285,160,51,0.134124240158263,1
285,161,51,0.102140549308972,1
286,155,51,0.208895698249259,1
286,156,51,0.156519504380013,1
286,157,51,0.121395254256432,1
286,158,51,0.130350333892222,1
286,159,51,0.1386898219943,1
286,160,51,0.102372317947389,1
287,154,51,0.197297593416333,1
287,155,51,0.139389528648841,1
287,156,51,0.114560949707316,1
287,157,51,0.127140550117431,1
287,158,51,0.154192635265099,1
287,159,51,0.120769957131853,1
288,154,51,0.128764989348044,1
288,155,51,0.10450267880282,1
288,156,51,0.109808837525636,1
288,157,51,0.128545834709876,1
288,158,51,0.135300588271242,1
289,156,51,0.106020487248949,1
289,157,51,0.103837687881259,1
294,155,51,0.102221777806254,1
294,156,51,0.104032464166615,1
294,159,51,0.106892748634005,1
295,156,51,0.111869854058458,1
295,157,51,0.104442702390585,1
261,170,52,0.149610528870878,1
262,170,52,0.0998869132887647,1
267,185,52,0.134658287300042,1
268,184,52,0.124071688036262,1
268,185,52,0.190847351406734,1
268,186,52,0.187152037551568,1
269,169,52,0.101551776141936,1
269,184,52,0.143551843729094,1
269,187,52,0.11011734677869,1
270,183,52,0.108340624539896,1
275,162,52,0.120990222847763,1
275,163,52,0.118073752703965,1
276,161,52,0.152732526611125,1
276,162,52,0.222788941123934,1
276,163,52,0.218288335549971,1
276,164,52,0.113084490781863,1
277,160,52,0.205207704435688,1
277,161,52,0.235208154194103,1
277,162,52,0.244304286238544,1
277,163,52,0.203900053076599,1
277,164,52,0.10850558690584,1
278,160,52,0.278754580568195,1
278,161,52,0.248777855587449,1
278,162,52,0.169737048593712,1
278,163,52,0.116031624492759,1
279,159,52,0.182113550528324,1
279,160,52,0.18388627506583,1
279,161,52,0.139524677095371,1
280,159,52,0.134326728630299,1
280,160,52,0.106743177962665,1
281,158,52,0.113064240845367,1
281,159,52,0.113181753655972,1
282,161,52,0.102293910716138,1
283,157,52,0.153100086378295,1
283,160,52,0.133009023106936,1
283,161,52,0.147163706931494,1
283,162,52,0.106299792586056,1
284,156,52,0.228277643384025,1
284,157,52,0.167886918973507,1
284,158,52,0.111977312704788,1
284,159,52,0.140443734460623,1
284,160,52,0.169541901949108,1
284,161,52,0.145264580961446,1
285,155,52,0.225965577746086,1
285,156,52,0.196732076631447,1
285,157,52,0.139651590495108,1
285,158,52,0.123529057274279,1
285,159,52,0.165694915089228,1
285,160,52,0.145688478905892,1
286,155,52,0.193090312366282,1
286,156,52,0.144095901463471,1
286,157,52,0.121235161025299,1
286,158,52,0.135533892811243,1
286,159,52,0.147041357664835,1
287,154,52,0.183928136553701,1
287,155,52,0.126955217992883,1
287,156,52,0.111962890479979,1
287,157,52,0.126357251202176,1
287,158,52,0.140410772487608,1
287,159,52,0.107740097913215,1
288,154,52,0.116055403735024,1
288,156,52,0.112194147151201,1
288,157,52,0.121569301316854,1
288,158,52,0.109851712054978,1
289,156,52,0.106338309947782,1
295,158,52,0.0999656690934247,1
259,170,53,0.113184672958275,1
266,185,53,0.100488845102002,1
267,185,53,0.12321232386735,1
268,184,53,0.110929315856859,1
268,185,53,0.164929208238223,1
268,186,53,0.180860810374117,1
269,184,53,0.138587145339428,1
269,185,53,0.175286032267771,1
269,186,53,0.162081254555187,1
270,183,53,0.105470481980776,1
270,184,53,0.142342228641366,1
271,183,53,0.116703434381639,1
272,183,53,0.116866479593831,1
273,183,53,0.103290492986198,1
275,162,53,0.113666270694876,1
275,163,53,0.10269481370849,1
276,161,53,0.1334894553012,1
276,162,53,0.195615247428103,1
276,163,53,0.173749934610573,1
277,160,53,0.167227821121147,1
277,161,53,0.17908786797823,1
277,162,53,0.189750761246967,1
277,163,53,0.15421395270766,1
278,160,53,0.257865839728448,1
278,161,53,0.198746242719477,1
278,162,53,0.130783991892128,1
279,159,53,0.231008912118303,1
279,160,53,0.215127101515342,1
279,161,53,0.134766802559519,1
280,158,53,0.186020742551739,1
280,159,53,0.187667381551356,1
280,160,53,0.136231998206685,1
281,158,53,0.140803429540247,1
281,159,53,0.13143580238165,1
282,157,53,0.132816305583279,1
282,158,53,0.117207471531462,1
282,159,53,0.101775048303501,1
282,160,53,0.105389427770198,1
282,161,53,0.111132839156204,1
283,156,53,0.20469554116826,1
283,157,53,0.166266553694615,1
283,158,53,0.11214003112941,1
283,159,53,0.117513007017618,1
283,160,53,0.157429749373761,1
283,161,53,0.145536577149878,1
284,156,53,0.215117058243987,1
284,157,53,0.158861525545312,1
284,158,53,0.117654516928868,1
284,159,53,0.157350383565635,1
284,160,53,0.179418402713583,1
284,161,53,0.12915631746456,1
285,155,53,0.211601194337088,1
285,156,53,0.175831843762113,1
285,157,53,0.133313632694974,1
285,158,53,0.130283484048073,1
285,159,53,0.17111597232208,1
285,160,53,0.139468273560582,1
286,154,53,0.244270801405415,1
286,155,53,0.177384956158852,1
286,156,53,0.135416303750205,1
286,157,53,0.12268725249086,1
286,158,53,0.134227287172382,1
286,159,53,0.138926405302932,1
287,154,53,0.172985763661152,1
287,155,53,0.121567166304722,1
287,156,53,0.111930571189187,1
287,157,53,0.118498413152744,1
287,158,53,0.117168180772485,1
288,154,53,0.110135701347273,1
288,156,53,0.111435444447138,1
288,157,53,0.108161937095963,1
289,156,53,0.100140816338671,1
295,156,53,0.106427522954721,1
259,170,54,0.123986853982778,1
268,185,54,0.135200253593963,1
269,184,54,0.121302751587943,1
269,185,54,0.15956853045561,1
270,184,54,0.130461844704436,1
270,185,54,0.144911541455356,1
271,183,54,0.10136301274789,1
271,184,54,0.110183662869806,1
271,185,54,0.101633963216093,1
272,183,54,0.108707182158515,1
273,182,54,0.103556073245315,1
273,183,54,0.103548088735659,1
276,161,54,0.108272195222487,1
276,162,54,0.142874859703671,1
276,163,54,0.118064264971481,1
277,161,54,0.127643443510756,1
277,162,54,0.131435933096678,1
277,163,54,0.105395386196913,1
278,160,54,0.207335222239249,1
278,161,54,0.145495314772554,1
279,159,54,0.291894447376219,1
279,160,54,0.232955215320714,1
279,161,54,0.124515933953475,1
280,158,54,0.259803493953141,1
280,159,54,0.267136824909321,1
280,160,54,0.170362857685485,1
281,157,54,0.146288667852083,1
281,158,54,0.17260971831005,1
281,159,54,0.156373386764009,1
281,160,54,0.10523235187764,1
282,157,54,0.160694912748952,1
282,158,54,0.132955549767369,1
282,159,54,0.113620662042855,1
282,160,54,0.120597718295991,1
282,161,54,0.109686978440335,1
283,156,54,0.198646703225289,1
283,157,54,0.171930468557466,1
283,158,54,0.125837059853416,1
283,159,54,0.135767905390981,1
283,160,54,0.170681704318708,1
283,161,54,0.130961274149506,1
284,155,54,0.233433610539117,1
284,156,54,0.193851095617882,1
284,157,54,0.146122888517212,1
284,158,54,0.122993506909672,1
284,159,54,0.156626080699901,1
284,160,54,0.168610067189822,1
284,161,54,0.106310500325473,1
285,155,54,0.202542730006687,1
285,156,54,0.157181194747104,1
285,157,54,0.128779237286149,1
285,158,54,0.133610410274222,1
285,159,54,0.152325872157519,1
285,160,54,0.118753808532558,1
286,154,54,0.213484580039122,1
286,155,54,0.159050648405686,1
286,156,54,0.128277498542242,1
286,157,54,0.124968926884676,1
286,158,54,0.131730031017842,1
286,159,54,0.118240523294469,1
287,153,54,0.202382865526855,1
287,154,54,0.153296627316536,1
287,155,54,0.117431778520336,1
287,156,54,0.111232738116721,1
287,157,54,0.109719286838208,1
288,153,54,0.127842173925724,1
288,154,54,0.101660748904013,1
288,156,54,0.101539979110615,1
295,156,54,0.102913870310387,1
259,170,55,0.123182923878861,1
269,184,55,0.106063078562396,1
270,184,55,0.115069834206113,1
272,183,55,0.105491941031285,1
273,182,55,0.115495398767172,1
273,183,55,0.111107894371602,1
278,160,55,0.155186853771727,1
278,161,55,0.109799752831157,1
279,159,55,0.309223491202849,1
279,160,55,0.218034922681422,1
279,161,55,0.116092962519874,1
280,158,55,0.311762064199308,1
280,159,55,0.311589084644951,1
280,160,55,0.183746475342869,1
281,157,55,0.174497472072619,1
281,158,55,0.194923242067323,1
281,159,55,0.172170537600191,1
281,160,55,0.115207259272723,1
282,156,55,0.158337075065207,1
282,157,55,0.17588147190126,1
282,158,55,0.142162931193966,1
282,159,55,0.125226762278356,1
282,160,55,0.126623267178055,1
283,156,55,0.171010768509991,1
283,157,55,0.159219673830432,1
283,158,55,0.132832982642329,1
283,159,55,0.146213789926601,1
283,160,55,0.163020082568497,1
283,161,55,0.107103319651969,1
284,155,55,0.234253781985323,1
284,156,55,0.161958120998357,1
284,157,55,0.128213938359643,1
284,158,55,0.122479709704388,1
284,159,55,0.140120497981027,1
284,160,55,0.138982394906798,1
285,154,55,0.24033558190131,1
285,155,55,0.189813526246476,1
285,156,55,0.141137275722988,1
285,157,55,0.12588320225847,1
285,158,55,0.131125953299554,1
285,159,55,0.122358362586282,1
286,153,55,0.216952297243864,1
286,154,55,0.17790789252321,1
286,155,55,0.143332601947574,1
286,156,55,0.127283345393128,1
286,157,55,0.128934221738251,1
286,158,55,0.127221571649252,1
287,153,55,0.165081807141056,1
287,154,55,0.135417284112918,1
287,155,55,0.117029230697209,1
287,156,55,0.11246174260034,1
287,157,55,0.10283575718795,1
288,153,55,0.114617440385458,1
288,154,55,0.101264802189824,1
259,170,56,0.107278946185652,1
273,182,56,0.11147548681753,1
273,183,56,0.105022009610976,1
278,159,56,0.149646965685067,1
278,160,56,0.116362061191841,1
279,158,56,0.288994970186123,1
279,159,56,0.281494018991753,1
279,160,56,0.180193749797938,1
279,161,56,0.104747355550298,1
280,157,56,0.244256292037253,1
280,158,56,0.332505951001659,1
280,159,56,0.301603436831694,1
280,160,56,0.17234110981944,1
281,157,56,0.194645494417639,1
281,158,56,0.207241521349666,1
281,159,56,0.172584915133395,1
281,160,56,0.11699199869993,1
282,156,56,0.151755148557332,1
282,157,56,0.170917350836303,1
282,158,56,0.143150766450037,1
282,159,56,0.129453247544674,1
282,160,56,0.117116308692016,1
283,155,56,0.174234604150343,1
283,156,56,0.13948202042441,1
283,157,56,0.135208172746105,1
283,158,56,0.129607676457906,1
283,159,56,0.140118297611381,1
283,160,56,0.132938676635775,1
284,154,56,0.291824928766905,1
284,155,56,0.211578602422999,1
284,156,56,0.129789337668738,1
284,157,56,0.110128904165792,1
284,158,56,0.116379762185281,1
284,159,56,0.117146460291919,1
284,160,56,0.101968190651001,1
285,153,56,0.24530318870036,1
285,154,56,0.224599039266667,1
285,155,56,0.16747052625028,1
285,156,56,0.121558408397814,1
285,157,56,0.11904600019289,1
285,158,56,0.12020191318975,1
286,153,56,0.186785164038298,1
286,154,56,0.147892192678139,1
286,155,56,0.126438664879082,1
286,156,56,0.119036098529482,1
286,157,56,0.12334101281289,1
286,158,56,0.111200723827662,1
287,153,56,0.131617387342049,1
287,154,56,0.116686898930536,1
287,155,56,0.114316730462437,1
287,156,56,0.107946998017463,1
295,155,56,0.102504514412859,1
278,159,57,0.13797523561235,1
279,158,57,0.274975434808096,1
279,159,57,0.226428417876101,1
279,160,57,0.138485743156083,1
280,157,57,0.25047937311319,1
280,158,57,0.31117341085438,1
280,159,57,0.244744948385392,1
280,160,57,0.146002260331761,1
281,156,57,0.158414654434611,1
281,157,57,0.21357799771281,1
281,158,57,0.212702599167071,1
281,159,57,0.162875871213325,1
281,160,57,0.113410014774458,1
282,156,57,0.143063220059712,1
282,157,57,0.159554304303344,1
282,158,57,0.144722146272006,1
282,159,57,0.127483579030923,1
282,160,57,0.101206917218045,1
283,155,57,0.160576060109306,1
283,156,57,0.117604246107498,1
283,157,57,0.113327435555215,1
283,158,57,0.12112258270702,1
283,159,57,0.121034981852099,1
284,154,57,0.260727017415199,1
284,155,57,0.184153598191993,1
284,156,57,0.112644765426052,1
284,157,57,0.0998274924154009,1
284,158,57,0.108387028375007,1
285,153,57,0.245488542610746,1
285,154,57,0.211401527131083,1
285,155,57,0.155060343409995,1
285,156,57,0.113927820573948,1
285,157,57,0.111877642495571,1
285,158,57,0.105752238224667,1
286,152,57,0.192728384238256,1
286,153,57,0.171853629906557,1
286,154,57,0.139226058612806,1
286,155,57,0.121985192965806,1
286,156,57,0.112938645488835,1
286,157,57,0.11036291674553,1
287,152,57,0.133727487368065,1
287,153,57,0.114257483875778,1
287,154,57,0.110831791552693,1
287,155,57,0.112944189984626,1
287,156,57,0.100130457172663,1
295,154,57,0.105399579970744,1
295,155,57,0.102715074537905,1
296,155,57,0.108933656838278,1
278,159,58,0.132432308401277,1
279,158,58,0.239444236122096,1
279,159,58,0.167741705469783,1
279,160,58,0.100091950703857,1
280,157,58,0.239821131120883,1
280,158,58,0.253403511871992,1
280,159,58,0.175869053973554,1
280,160,58,0.112285571420704,1
281,156,58,0.166308807327571,1
281,157,58,0.213728232852212,1
281,158,58,0.19646082116151,1
281,159,58,0.141997304359961,1
281,160,58,0.10029492935725,1
282,155,58,0.141405045458832,1
282,156,58,0.12607736854036,1
282,157,58,0.140791523579736,1
282,158,58,0.135439189773108,1
282,159,58,0.113259529097918,1
283,154,58,0.216076571910554,1
283,155,58,0.141931140769712,1
283,158,58,0.103371590768452,1
284,153,58,0.256367061211882,1
284,154,58,0.214082143791825,1
284,155,58,0.148500246311877,1
285,153,58,0.228826472216942,1
285,154,58,0.185199329312763,1
285,155,58,0.135120049031071,1
285,156,58,0.102408580474873,1
286,152,58,0.153721658124562,1
286,153,58,0.152074125905583,1
286,154,58,0.127976516296245,1
286,155,58,0.112503059442259,1
286,156,58,0.0997064067273511,1
287,152,58,0.102994619519231,1
287,154,58,0.102163457117714,1
287,155,58,0.103441436165337,1
295,154,58,0.111797459718517,1
295,155,58,0.103087612369076,1
268,185,59,0.100878920532828,1
278,159,59,0.133070273990699,1
279,158,59,0.193915538126923,1
279,159,59,0.121676857999456,1
280,157,59,0.202740893989865,1
280,158,59,0.184421008461509,1
280,159,59,0.123903261722064,1
281,156,59,0.15507061543265,1
281,157,59,0.183258036853111,1
281,158,59,0.167241578877895,1
281,159,59,0.12430990528275,1
282,155,59,0.144181672307993,1
282,156,59,0.108316039221623,1
282,157,59,0.118265446293233,1
282,158,59,0.12380378758539,1
282,159,59,0.102493349170843,1
283,154,59,0.20545994086898,1
283,155,59,0.126338036092989,1
284,153,59,0.216919574915068,1
284,154,59,0.171919477602154,1
284,155,59,0.117731497187725,1
285,152,59,0.189206768870104,1
285,153,59,0.19142626648204,1
285,154,59,0.148887467797914,1
285,155,59,0.110912159509371,1
286,152,59,0.131925232127041,1
286,153,59,0.128506151805813,1
286,154,59,0.109860132281396,1
295,154,59,0.119520735390496,1
295,155,59,0.100631128410504,1
277,159,60,0.165342768802499,1
278,158,60,0.215168494607694,1
278,159,60,0.129074173962079,1
279,157,60,0.1381712101188,1
279,158,60,0.146462050444444,1
280,156,60,0.150547352587084,1
280,157,60,0.153471306166263,1
280,158,60,0.129360200230234,1
281,155,60,0.133663437004109,1
281,156,60,0.129771211851455,1
281,157,60,0.13823396422539,1
281,158,60,0.133548091884393,1
281,159,60,0.106722307129784,1
282,154,60,0.208482115899144,1
282,155,60,0.134498934787404,1
282,158,60,0.10501549564539,1
283,153,60,0.223860804357481,1
283,154,60,0.181498046137963,1
283,155,60,0.110738264949814,1
284,153,60,0.171110613005912,1
284,154,60,0.134130013405354,1
285,152,60,0.156179939414776,1
285,153,60,0.141255256929111,1
285,154,60,0.109948081709726,1
286,151,60,0.0999173263187246,1
286,152,60,0.109392009085648,1
295,154,60,0.119615710751606,1
276,159,61,0.152722624947717,1
277,158,61,0.262396444401448,1
277,159,61,0.166903538921323,1
278,157,61,0.133764490614044,1
278,158,61,0.184810397638436,1
278,159,61,0.115204873723453,1
279,157,61,0.111731895238815,1
279,158,61,0.112686071375052,1
280,156,61,0.120099737609154,1
280,157,61,0.114336087179571,1
280,158,61,0.100790873068227,1
281,155,61,0.117430188154156,1
281,156,61,0.103296756414646,1
281,157,61,0.103586050558514,1
281,158,61,0.109872452172831,1
282,154,61,0.174202361109985,1
282,155,61,0.115178654467324,1
283,153,61,0.188420343687084,1
283,154,61,0.151449722000366,1
284,152,61,0.148776033236134,1
284,153,61,0.141387682145882,1
284,154,61,0.112108191127055,1
285,151,61,0.128982172367866,1
285,152,61,0.13027943188219,1
285,153,61,0.108893810540429,1
286,151,61,0.0998283093843289,1
289,150,61,0.0998094101697943,1
290,150,61,0.115879788094259,1
291,150,61,0.115336035361615,1
293,151,61,0.101309909767569,1
276,158,62,0.201433046558234,1
276,159,62,0.140622127795743,1
277,157,62,0.143782915220692,1
277,158,62,0.211534420743372,1
277,159,62,0.142596033655001,1
278,157,62,0.103554156091564,1
278,158,62,0.130626327781942,1
281,154,62,0.111300426715636,1
282,153,62,0.154020821253079,1
282,154,62,0.125528256491548,1
283,152,62,0.145323642368482,1
283,153,62,0.143397926783057,1
283,154,62,0.111223348420508,1
284,151,62,0.126687241291577,1
284,152,62,0.126805429463162,1
284,153,62,0.1097647647752,1
285,151,62,0.113743980779308,1
285,152,62,0.103358007298409,1
290,150,62,0.10197205763726,1
291,150,62,0.1115532186878,1
292,150,62,0.146121646724441,1
292,151,62,0.103070717451645,1
293,150,62,0.142619072178771,1
293,151,62,0.102201048581321,1
276,159,63,0.112899289372343,1
277,158,63,0.150329886351367,1
277,159,63,0.11080583372662,1
283,153,63,0.111454354554592,1
284,152,63,0.112529474770931,1
292,151,63,0.109500687738911,1
293,151,63,0.102077424843135,1
