x,y,z,signal,mito.p
851,261,22,0.124925431458949,1
851,262,22,0.111864287776828,1
854,286,22,0.0998089199884375,1
850,261,23,0.102940590640792,1
851,261,23,0.129375635496514,1
851,262,23,0.117636554505371,1
852,262,23,0.102253138520171,1
847,257,24,0.107911410850959,1
848,257,24,0.138960369424499,1
848,258,24,0.112795610568919,1
849,258,24,0.149600038989842,1
849,259,24,0.103116805392104,1
850,258,24,0.164457577522543,1
850,259,24,0.126520100341826,1
850,260,24,0.104821122398038,1
850,261,24,0.108809401310787,1
851,259,24,0.124864790578653,1
851,260,24,0.11513421135764,1
851,261,24,0.126673548892344,1
851,262,24,0.11533325766726,1
852,261,24,0.101854915185903,1
852,262,24,0.100669994345639,1
841,293,25,0.110735214932483,1
845,256,25,0.108224811024662,1
845,257,25,0.104185368071181,1
846,257,25,0.118210426159161,1
847,257,25,0.159598997950165,1
847,258,25,0.135605611790203,1
847,290,25,0.106896844371564,1
848,257,25,0.205783765566205,1
848,258,25,0.193990742839976,1
848,259,25,0.124941095476529,1
848,289,25,0.103743725561619,1
848,290,25,0.118590959392908,1
849,258,25,0.21154511758987,1
849,259,25,0.150771202073358,1
849,260,25,0.110435158584604,1
849,261,25,0.102226657833984,1
849,289,25,0.114177889316352,1
849,290,25,0.111143132964697,1
850,258,25,0.179347239273494,1
850,259,25,0.165016297125948,1
850,260,25,0.131954152827092,1
850,261,25,0.118015715231319,1
850,289,25,0.104459738915963,1
851,259,25,0.157437167451628,1
851,260,25,0.142434306486012,1
851,261,25,0.120058093979663,1
851,262,25,0.107868939359622,1
852,259,25,0.118641458965578,1
852,260,25,0.123144286695025,1
852,261,25,0.101820286596274,1
843,256,26,0.10845213535211,1
843,257,26,0.104642064594857,1
844,257,26,0.151634694658587,1
844,258,26,0.128144365285734,1
845,257,26,0.16398111035081,1
845,258,26,0.137350352418695,1
846,257,26,0.168905330653323,1
846,258,26,0.151629934452966,1
847,257,26,0.223245354431715,1
847,258,26,0.225612647169187,2
847,259,26,0.1470022629784,1
847,290,26,0.111266952775426,1
848,258,26,0.30740256549859,2
848,259,26,0.199562035212229,1
848,260,26,0.121732956532513,1
848,289,26,0.119278357048934,1
848,290,26,0.130398164699727,1
849,258,26,0.26131869899162,1
849,259,26,0.196523063300906,1
849,260,26,0.138615902645693,1
849,261,26,0.121870991602589,1
849,288,26,0.100410405191994,1
850,259,26,0.183488683520866,1
850,260,26,0.157742114720156,1
850,261,26,0.127962998183716,1
850,262,26,0.106992680273278,1
851,259,26,0.170290321737597,1
851,260,26,0.164189611714157,1
851,261,26,0.114320597448696,1
852,260,26,0.136310198472474,1
843,257,27,0.138669680986994,1
843,258,27,0.109222460800788,1
844,257,27,0.218424823825544,1
844,258,27,0.172144852097094,1
845,257,27,0.228945205034479,1
845,258,27,0.197062001363334,1
845,259,27,0.115221463639151,1
846,258,27,0.220768718572918,2
846,259,27,0.151724735527372,1
847,257,27,0.256906761778643,2
847,258,27,0.327462485914413,2
847,259,27,0.235681647598938,2
847,260,27,0.129852157132842,1
847,290,27,0.107146706148506,1
848,257,27,0.309131075677713,2
848,258,27,0.39647524985399,2
848,259,27,0.2834567051444,2
848,260,27,0.164622932033572,1
848,261,27,0.115818689711363,1
849,258,27,0.267197694540917,2
849,259,27,0.224932319017618,1
849,260,27,0.170933962537839,1
849,261,27,0.137611041757163,1
849,262,27,0.102236298067335,1
850,259,27,0.174090719582743,1
850,260,27,0.175176852540232,1
850,261,27,0.139498664804704,1
850,262,27,0.106068350735211,1
851,260,27,0.163901918829388,1
851,261,27,0.11435323263414,1
843,257,28,0.183659495384334,1
843,258,28,0.129074664143435,1
844,257,28,0.285488692047979,1
844,258,28,0.213456149520428,1
844,259,28,0.1110904439153,1
845,258,28,0.248039359248206,1
845,259,28,0.141885009257577,1
846,258,28,0.278524391403039,2
846,259,28,0.207049435615313,2
846,260,28,0.111208544943533,1
847,257,28,0.249947384733109,2
847,258,28,0.403017754887859,2
847,259,28,0.330698685017877,2
847,260,28,0.177205636925614,2
848,257,28,0.273857233096953,2
848,258,28,0.422875502726298,2
848,259,28,0.35563780530182,2
848,260,28,0.223750023370843,2
848,261,28,0.140605603237559,1
849,258,28,0.235882926956961,2
849,259,28,0.241609791998945,2
849,260,28,0.218164352345457,1
849,261,28,0.164687832045213,1
849,262,28,0.105436605002561,1
850,260,28,0.18381296572069,1
850,261,28,0.1535559986118,1
850,262,28,0.100730210402093,1
851,261,28,0.116824574534284,1
855,266,28,0.116568242363432,1
855,267,28,0.129194213929901,1
856,266,28,0.128349457165421,1
856,267,28,0.145004272875145,1
843,258,29,0.159645554286143,1
844,258,29,0.252196641799863,1
844,259,29,0.128065151978475,1
845,258,29,0.287275566487318,2
845,259,29,0.171586807854669,1
846,257,29,0.209523936461978,2
846,258,29,0.317377363964483,2
846,259,29,0.261639190455618,2
846,260,29,0.135008516433019,1
847,257,29,0.214319609426899,2
847,258,29,0.42111607844294,2
847,259,29,0.402355421838545,2
847,260,29,0.229601394477455,2
847,261,29,0.12019782834511,1
848,257,29,0.205680522479543,2
848,258,29,0.376788259414424,2
848,259,29,0.386459428654993,2
848,260,29,0.288493917696116,2
848,261,29,0.184695172340829,1
848,262,29,0.104563809864473,1
849,258,29,0.186790523354465,2
849,259,29,0.234880408046024,2
849,260,29,0.258510264818861,1
849,261,29,0.202957379862868,1
849,262,29,0.11179992151822,1
850,261,29,0.155936112314982,1
855,266,29,0.140760184651658,1
855,267,29,0.180382491406146,1
855,268,29,0.108704698572974,1
856,266,29,0.148723093649599,1
856,267,29,0.196820069631453,1
856,268,29,0.118571907677507,1
857,267,29,0.121459544264606,1
871,272,29,0.101770898101346,1
835,292,30,0.177845650383815,1
836,292,30,0.105849947708457,1
842,258,30,0.100095741439683,1
844,259,30,0.14555595565285,1
845,258,30,0.309678815218725,2
845,259,30,0.200174347977311,1
846,257,30,0.18201975160247,2
846,258,30,0.3194098301565,2
846,259,30,0.300449440988586,2
846,260,30,0.155680651577653,1
847,257,30,0.162270529916428,2
847,258,30,0.36722678186859,2
847,259,30,0.417354927785095,2
847,260,30,0.266363885160073,2
847,261,30,0.138348938985859,1
848,258,30,0.284603272016723,2
848,259,30,0.362245188561492,2
848,260,30,0.330351484116392,2
848,261,30,0.228366812819288,2
848,262,30,0.113481788218013,1
849,259,30,0.202214417426819,2
849,260,30,0.269297783974336,2
849,261,30,0.230310545292804,1
849,262,30,0.116673130280869,1
854,266,30,0.120968338973412,1
854,267,30,0.146666564999422,1
855,266,30,0.164925450181154,1
855,267,30,0.246453328450128,1
855,268,30,0.165976028650896,1
856,266,30,0.158806723269621,1
856,267,30,0.249529467001217,1
856,268,30,0.174623927969756,1
857,267,30,0.145788160008028,1
857,268,30,0.103868438591709,1
871,271,30,0.115660372026034,1
871,272,30,0.129927100415838,1
818,278,31,0.107490007384974,1
819,280,31,0.129301389360336,1
834,292,31,0.130858837138853,1
835,292,31,0.145374174619909,1
835,293,31,0.110919566694318,1
846,258,31,0.281320930508206,2
846,259,31,0.31328744322417,2
846,260,31,0.186703031428735,1
847,258,31,0.27086433823317,2
847,259,31,0.37052883956057,2
847,260,31,0.286528268669491,2
847,261,31,0.161116849967971,1
848,259,31,0.293314121514716,2
848,260,31,0.331335768280856,2
848,261,31,0.254245077011193,2
848,262,31,0.119102676050655,1
849,260,31,0.239483036699716,2
849,262,31,0.115366720714551,1
852,265,31,0.101715551179704,1
852,266,31,0.101568965168181,1
853,266,31,0.118802064163906,1
853,267,31,0.112937512625255,1
854,266,31,0.147501180456275,1
854,267,31,0.210910539698269,1
854,268,31,0.158281608321455,1
855,266,31,0.171520568013987,1
855,267,31,0.304991069295653,1
855,268,31,0.247725251034766,1
855,269,31,0.107783560660185,1
856,266,31,0.147818839761323,1
856,267,31,0.275708876832905,1
856,268,31,0.235962401694278,1
856,269,31,0.103247433277233,1
857,267,31,0.153004326727013,1
857,268,31,0.130545251785526,1
869,269,31,0.105751671792877,1
870,270,31,0.105823183806376,1
870,271,31,0.103648260019152,1
870,272,31,0.103978696718233,1
871,270,31,0.104934909830331,1
871,271,31,0.131562552387601,1
871,272,31,0.146251577462751,1
871,273,31,0.111723170010664,1
817,278,32,0.119478852116786,1
818,278,32,0.141152787239701,1
818,279,32,0.152871640080186,1
818,280,32,0.157661234796283,1
819,280,32,0.104455795679271,1
819,281,32,0.129570172137651,1
835,292,32,0.10192598058972,1
847,259,32,0.288250221311351,2
848,260,32,0.282420527113629,2
848,262,32,0.118084329728353,1
851,266,32,0.100782474627647,1
852,265,32,0.106851388220409,1
852,266,32,0.138352228647409,1
852,267,32,0.105532811263523,1
853,266,32,0.138655389477214,1
853,267,32,0.158193114247173,1
853,268,32,0.123825105027951,1
854,266,32,0.149653773759467,1
854,267,32,0.260800108901958,1
854,268,32,0.23765720918189,1
854,269,32,0.122973256973177,1
855,266,32,0.152459179700732,1
855,267,32,0.327581349446979,1
855,268,32,0.324601286441825,3
855,269,32,0.162430666719236,1
856,266,32,0.116830031886723,1
856,267,32,0.256682128002198,1
856,268,32,0.266995456606019,1
856,269,32,0.136100956390633,1
857,267,32,0.133165565246462,1
857,268,32,0.13741326991907,1
868,269,32,0.107543023221942,1
869,269,32,0.122769788138426,1
869,270,32,0.114716696663752,1
870,270,32,0.128964177265612,1
870,271,32,0.132513046717202,1
870,272,32,0.135232866993569,1
870,273,32,0.101306827071481,1
871,271,32,0.138718786266027,1
871,272,32,0.152903752405516,1
871,273,32,0.118709899175907,1
817,278,33,0.14254135120142,1
817,279,33,0.176464733251263,1
818,278,33,0.149007377050708,1
818,279,33,0.157066045699931,1
818,280,33,0.142809948799111,1
838,293,33,0.101545349319702,1
839,292,33,0.103671734259683,1
840,292,33,0.101095972837621,1
841,292,33,0.10572304520164,1
851,266,33,0.13650474600653,1
851,267,33,0.111460563518445,1
852,266,33,0.168388527002385,1
852,267,33,0.161360230458084,1
852,268,33,0.103296288019128,1
853,266,33,0.148988358014064,1
853,267,33,0.208680062023941,1
853,268,33,0.187576382105695,1
853,269,33,0.103793364593685,1
854,266,33,0.136058517578052,1
854,267,33,0.285973840876188,1
854,268,33,0.321710937517884,3
854,269,33,0.182818169889352,1
855,266,33,0.122804460299731,1
855,267,33,0.31341510823532,3
855,268,33,0.388366473777182,3
855,269,33,0.22493240616097,3
856,267,33,0.212588506733045,1
856,268,33,0.276922478729001,3
856,269,33,0.167119164253722,1
857,267,33,0.10649675834814,1
857,268,33,0.139035770210094,1
868,269,33,0.107222608008377,1
869,269,33,0.120337018064604,1
869,270,33,0.138921307416821,1
869,271,33,0.11314955418729,1
870,270,33,0.144642290282523,1
870,271,33,0.159824764590191,1
870,272,33,0.161607477934456,1
870,273,33,0.117719220867967,1
871,272,33,0.145411591796812,1
817,278,34,0.133679373344665,1
817,279,34,0.163268288621744,1
818,278,34,0.141757910678217,1
818,279,34,0.150335659598459,1
818,280,34,0.126751629336023,1
819,279,34,0.103038594233396,1
821,283,34,0.101514206464166,1
833,290,34,0.107269197023112,1
839,292,34,0.103171901776609,1
839,293,34,0.121063826301717,1
840,292,34,0.117282708923272,1
840,293,34,0.136529745255727,1
841,292,34,0.141004164252318,1
841,293,34,0.150885512365765,1
842,292,34,0.144653161415725,1
851,266,34,0.137574626728812,1
851,267,34,0.138015125481874,1
852,266,34,0.165631431157062,1
852,267,34,0.201513784874159,1
852,268,34,0.130800930381235,1
853,266,34,0.140019999909963,1
853,267,34,0.231150171492416,1
853,268,34,0.220794273360986,3
853,269,34,0.121159934526408,1
854,266,34,0.111998096394317,1
854,267,34,0.266567452031095,3
854,268,34,0.350159995960769,3
854,269,34,0.211801841905807,3
855,267,34,0.265998710942173,3
855,268,34,0.392418857518483,3
855,269,34,0.247831958069683,3
856,267,34,0.164200341239411,1
856,268,34,0.249955445493199,3
856,269,34,0.167081158859191,1
857,268,34,0.121238352650578,1
868,270,34,0.103276582728584,1
869,269,34,0.101124457820911,1
869,270,34,0.143798699060381,1
869,271,34,0.127971973949005,1
870,270,34,0.135270011847496,1
870,271,34,0.156884994492566,1
870,272,34,0.157895051303479,1
870,273,34,0.121031735762225,1
817,278,35,0.111499549275689,1
817,279,35,0.134681304037974,1
817,280,35,0.130037914081233,1
818,278,35,0.13933994408137,1
818,279,35,0.166195488290797,1
818,280,35,0.138186155203723,1
818,281,35,0.102530014736332,1
819,278,35,0.108435589008088,1
819,279,35,0.147147803269695,1
819,280,35,0.134783457832732,1
820,283,35,0.102767523943083,1
821,282,35,0.111116891922729,1
821,283,35,0.132875835385833,1
821,284,35,0.110039484193392,1
822,283,35,0.106223956083699,1
822,284,35,0.101154598527895,1
832,290,35,0.113642545917207,1
832,291,35,0.102518903958911,1
833,290,35,0.117500207837746,1
833,291,35,0.116370742848316,1
839,293,35,0.119107360005843,1
840,292,35,0.142717217379322,1
840,293,35,0.176897530710564,1
841,292,35,0.189023441042659,1
841,293,35,0.214111576459071,1
842,292,35,0.164771173768789,1
851,266,35,0.121449882245418,1
851,267,35,0.159841496113836,1
851,268,35,0.1017973025371,1
852,266,35,0.144696155767176,1
852,267,35,0.228042508833625,1
852,268,35,0.16400584816995,1
853,266,35,0.120105118711159,1
853,267,35,0.22617581108356,1
853,268,35,0.225020137730919,1
853,269,35,0.13039223895177,1
854,267,35,0.2192205951331,1
854,268,35,0.322327999595668,3
854,269,35,0.215355918172699,1
855,267,35,0.202846446375364,1
855,268,35,0.343286999763224,3
855,269,35,0.240481459873095,1
856,267,35,0.120232141040086,1
856,268,35,0.202116533656324,1
856,269,35,0.153598263137675,1
868,270,35,0.100760786825838,1
869,270,35,0.130236840568743,1
869,271,35,0.124945038713222,1
870,270,35,0.113152201166616,1
870,271,35,0.13089801896864,1
870,272,35,0.128795925238118,1
870,273,35,0.112520281147262,1
818,278,36,0.120980244933922,1
818,279,36,0.157646747213959,1
818,280,36,0.133564540192144,1
819,278,36,0.107609807708577,1
819,279,36,0.162576860585674,1
819,280,36,0.153583437874862,1
819,281,36,0.105807552467553,1
820,280,36,0.108604984792081,1
820,281,36,0.106702024514531,1
820,282,36,0.119856673013693,1
820,283,36,0.128402494788228,1
820,284,36,0.103305971824154,1
821,282,36,0.136943447427952,1
821,283,36,0.161375840011069,1
821,284,36,0.121544454568524,1
822,283,36,0.108278338828825,1
822,284,36,0.104343762006943,1
822,285,36,0.10417732909693,1
823,285,36,0.115905375561084,1
823,286,36,0.12115253823438,1
832,290,36,0.115174199263436,1
832,291,36,0.123263683980624,1
833,290,36,0.109474217945643,1
833,291,36,0.124115673643346,1
839,293,36,0.115141781936373,1
840,292,36,0.168656362095743,1
840,293,36,0.222914688981333,1
840,294,36,0.142710267696975,1
841,291,36,0.101549695594399,1
841,292,36,0.229213671917142,1
841,293,36,0.278880807714032,1
841,294,36,0.16299405938491,1
842,292,36,0.168502031218783,1
842,293,36,0.178684296220713,1
850,267,36,0.104704698879337,1
851,267,36,0.163800734504425,1
851,268,36,0.129905979045819,1
852,266,36,0.117896154551935,1
852,267,36,0.226554492521071,1
852,268,36,0.190192360184852,1
853,266,36,0.0998425900011905,1
853,267,36,0.200718340354174,1
853,268,36,0.208176177374983,1
853,269,36,0.127294467063468,1
854,267,36,0.167969814087402,1
854,268,36,0.259695436196263,1
854,269,36,0.192382316200352,1
855,267,36,0.142482573010279,1
855,268,36,0.257549749003743,1
855,269,36,0.20122497001873,1
856,268,36,0.144728780059702,1
856,269,36,0.124056078483277,1
869,270,36,0.107711939717497,1
869,271,36,0.10775673140059,1
870,271,36,0.100162373425451,1
818,278,37,0.109182342179964,1
818,279,37,0.150607623108133,1
818,280,37,0.132958850321838,1
819,278,37,0.109247536300419,1
819,279,37,0.168763461275745,1
819,280,37,0.163218431731298,1
819,281,37,0.122041520250162,1
819,282,37,0.104224506329292,1
820,279,37,0.103929983584286,1
820,280,37,0.122602560045323,1
820,281,37,0.13339073277594,1
820,282,37,0.159044526585186,1
820,283,37,0.160659412725801,1
820,284,37,0.114704551059022,1
821,281,37,0.107145954537092,1
821,282,37,0.158579910909368,1
821,283,37,0.178643774561884,1
821,284,37,0.129351573038354,1
822,283,37,0.101650956169796,1
822,284,37,0.100247458016073,1
822,285,37,0.108553461285021,1
822,286,37,0.108265877329443,1
823,285,37,0.122815952329318,1
823,286,37,0.141096067810259,1
823,287,37,0.108741298780949,1
832,291,37,0.129037138037342,1
833,291,37,0.120216531487102,1
839,293,37,0.113504020665774,1
840,292,37,0.189181824085502,1
840,293,37,0.255292344033547,1
840,294,37,0.16105944428463,1
841,291,37,0.106637963257656,1
841,292,37,0.247043768233778,1
841,293,37,0.309561912411587,1
841,294,37,0.178425676536863,1
842,292,37,0.160910745046813,1
842,293,37,0.175530218833893,1
850,267,37,0.102781771881187,1
851,267,37,0.152154308682638,1
851,268,37,0.150241729957576,1
852,267,37,0.198696004576864,1
852,268,37,0.20066777542399,1
852,269,37,0.103113210728821,1
853,267,37,0.165602989745449,1
853,268,37,0.18274533983265,1
853,269,37,0.116753313057923,1
854,267,37,0.125589452910715,1
854,268,37,0.187415362976444,1
854,269,37,0.152517315209649,1
855,268,37,0.168106847008927,1
855,269,37,0.148645165706786,1
818,278,38,0.102351370864075,1
818,279,38,0.141659024759171,1
818,280,38,0.131826879961028,1
819,278,38,0.112151479587321,1
819,279,38,0.170200204618378,1
819,280,38,0.170168691403595,1
819,281,38,0.137639788170509,1
819,282,38,0.123951277709193,1
819,283,38,0.113959137716188,1
820,265,38,0.100221816084653,1
820,279,38,0.116318533087356,1
820,280,38,0.140958054526021,1
820,281,38,0.159236666784134,1
820,282,38,0.193053472514089,1
820,283,38,0.187219268647884,1
820,284,38,0.126625554691053,1
821,281,38,0.119421947507721,1
821,282,38,0.172849939853641,1
821,283,38,0.18403515948327,1
821,284,38,0.130900502554181,1
822,285,38,0.108806220578428,1
822,286,38,0.117615923316709,1
822,287,38,0.109282055960857,1
823,285,38,0.129598090689151,1
823,286,38,0.157292062877094,1
823,287,38,0.12039618840083,1
824,286,38,0.118359702721687,1
825,259,38,0.10583380440244,1
826,258,38,0.109267187126367,1
826,259,38,0.130034025309136,1
827,258,38,0.102558935436384,1
827,259,38,0.10611727083462,1
831,291,38,0.105121963036088,1
832,291,38,0.12534473259156,1
833,291,38,0.109793968691147,1
839,293,38,0.113014983065468,1
840,292,38,0.195628471431818,1
840,293,38,0.255056751980548,1
840,294,38,0.164258356926219,1
841,291,38,0.104897111401262,1
841,292,38,0.236025624196387,1
841,293,38,0.288761839932827,1
841,294,38,0.172108535105014,1
842,292,38,0.145947261983528,1
842,293,38,0.15734203958965,1
851,267,38,0.131825463881553,1
851,268,38,0.151218541579578,1
852,267,38,0.157896423811278,1
852,268,38,0.185776915451945,1
852,269,38,0.103802993934116,1
853,267,38,0.130898966652596,1
853,268,38,0.156469004807343,1
853,269,38,0.104162961336716,1
854,268,38,0.126448773507951,1
854,269,38,0.107831249859743,1
818,279,39,0.134600293399072,1
818,280,39,0.135387088941339,1
818,281,39,0.106911658741458,1
819,265,39,0.122544871146086,1
819,266,39,0.114031412234019,1
819,278,39,0.113320420515353,1
819,279,39,0.174969614755494,1
819,280,39,0.185912161934747,1
819,281,39,0.157022343308742,1
819,282,39,0.135942377275247,1
819,283,39,0.117507015912146,1
820,263,39,0.112543254313517,1
820,264,39,0.126114949111048,1
820,265,39,0.128943927329116,1
820,266,39,0.113253287455309,1
820,279,39,0.124077504855029,1
820,280,39,0.15291131209133,1
820,281,39,0.170306944332052,1
820,282,39,0.199363043367204,1
820,283,39,0.185184057440268,1
820,284,39,0.123413243759045,1
821,262,39,0.118118097777377,1
821,263,39,0.157534996757527,1
821,264,39,0.138291860090088,1
821,265,39,0.106031467311341,1
821,281,39,0.119108580012775,1
821,282,39,0.165204439623609,1
821,283,39,0.167760158074637,1
821,284,39,0.119595406350516,1
822,262,39,0.114089700243803,1
822,263,39,0.138013012255581,1
822,264,39,0.112127820167166,1
822,283,39,0.100256531817634,1
822,285,39,0.106561266214695,1
822,286,39,0.117319221987895,1
822,287,39,0.111348083236437,1
823,281,39,0.108768727151092,1
823,285,39,0.140756960347622,1
823,286,39,0.165864583196197,1
823,287,39,0.121171731557729,1
824,281,39,0.104951728497329,1
824,285,39,0.124266464321618,1
824,286,39,0.153116066290527,1
824,287,39,0.109399536092704,1
825,258,39,0.110643039051566,1
825,259,39,0.154190837933457,1
825,260,39,0.138571132748439,1
826,257,39,0.100031288037722,1
826,258,39,0.154434479853627,1
826,259,39,0.206433920332033,1
826,260,39,0.161367866394331,1
827,257,39,0.111721895539136,1
827,258,39,0.144197336325573,1
827,259,39,0.154494543409214,1
827,260,39,0.105125514127695,1
828,257,39,0.110475179169158,1
828,258,39,0.11258963636279,1
831,291,39,0.109588430201779,1
832,291,39,0.109565762037256,1
832,292,39,0.102280163852309,1
839,293,39,0.107866292380295,1
840,292,39,0.186385677125421,1
840,293,39,0.223235616162093,1
840,294,39,0.148275601642513,1
841,291,39,0.103241006454999,1
841,292,39,0.20779061161264,1
841,293,39,0.235478843232249,1
841,294,39,0.149611226017696,1
842,292,39,0.132221062022332,1
842,293,39,0.138276152500833,1
851,267,39,0.10583175653366,1
851,268,39,0.135763700724232,1
852,267,39,0.115562695221002,1
852,268,39,0.157147295983051,1
852,269,39,0.102620251677661,1
853,267,39,0.0999670633870618,1
853,268,39,0.136010861057252,1
853,269,39,0.10095844973474,1
818,279,40,0.124646049871409,1
818,280,40,0.139325140604395,1
818,281,40,0.121481950999072,1
819,264,40,0.108113115032825,1
819,265,40,0.151656578532938,1
819,266,40,0.15147260802327,1
819,267,40,0.116054053013063,1
819,278,40,0.108854497995614,1
819,279,40,0.176469493456883,1
819,280,40,0.202479790720474,1
819,281,40,0.178064075196407,1
819,282,40,0.146058260828547,1
819,283,40,0.119360021262978,1
820,263,40,0.144391720465844,1
820,264,40,0.152396806846309,1
820,265,40,0.157630614800861,1
820,266,40,0.146345921034558,1
820,267,40,0.118692579434634,1
820,279,40,0.126775473935802,1
820,280,40,0.155177268002972,1
820,281,40,0.167196024690469,1
820,282,40,0.186605343730783,1
820,283,40,0.167180861747165,1
820,284,40,0.112947065715253,1
821,262,40,0.155633202022315,1
821,263,40,0.225923683579458,1
821,264,40,0.178383902192344,1
821,265,40,0.121103988494218,1
821,281,40,0.11009465682833,1
821,282,40,0.146503672288097,1
821,283,40,0.144618576397773,1
821,284,40,0.105342871434221,1
822,262,40,0.145836687962352,1
822,263,40,0.192474208865374,1
822,264,40,0.140682060636302,1
822,281,40,0.10057317808121,1
822,282,40,0.114763263892648,1
822,283,40,0.109380920094065,1
822,284,40,0.104285070959155,1
822,285,40,0.107866619167866,1
822,286,40,0.110983072412322,1
822,287,40,0.102563499569462,1
823,263,40,0.101776704027195,1
823,281,40,0.150098444500522,1
823,282,40,0.144211039617725,1
823,283,40,0.111832556703665,1
823,284,40,0.12116297365082,1
823,285,40,0.16121989698209,1
823,286,40,0.171587243571431,1
823,287,40,0.119103166232012,1
824,259,40,0.115526563408546,1
824,260,40,0.109691891146822,1
824,281,40,0.132825390277758,1
824,282,40,0.12489115144273,1
824,284,40,0.102330783247089,1
824,285,40,0.160802491217393,1
824,286,40,0.190543743967248,1
824,287,40,0.129199496995635,1
825,258,40,0.13773101636747,1
825,259,40,0.216196241519129,1
825,260,40,0.205987310651388,1
825,261,40,0.11872802499319,1
825,286,40,0.109933343590265,1
826,257,40,0.122156919834473,1
826,258,40,0.189582182431902,1
826,259,40,0.290356759352841,1
826,260,40,0.24990912880144,1
826,261,40,0.125884247978698,1
827,256,40,0.107558643667845,1
827,257,40,0.146294081632846,1
827,258,40,0.178684917117098,1
827,259,40,0.195728337713577,1
827,260,40,0.140767068976491,1
828,256,40,0.106955372025566,1
828,257,40,0.142356912296233,1
828,258,40,0.150028304994823,1
828,259,40,0.116470097162881,1
829,257,40,0.108283131713203,1
829,258,40,0.107345861387316,1
832,292,40,0.102721000285863,1
840,292,40,0.162034545718343,1
840,293,40,0.179522223124954,1
841,292,40,0.172935340338916,1
841,293,40,0.183734514917763,1
851,268,40,0.111740326358152,1
852,268,40,0.122507432183345,1
853,268,40,0.114014473744912,1
869,273,40,0.118237625778004,1
818,265,41,0.0998445289407796,1
818,266,41,0.122434362482424,1
818,267,41,0.110100016144497,1
818,279,41,0.121285126844936,1
818,280,41,0.156092839634131,1
818,281,41,0.153516206778546,1
818,282,41,0.120969253978611,1
819,264,41,0.113668242313222,1
819,265,41,0.175090297405539,1
819,266,41,0.207076406482856,1
819,267,41,0.168893816837898,1
819,268,41,0.110243258029875,1
819,278,41,0.103918916378541,1
819,279,41,0.183376301275129,1
819,280,41,0.2318432661451,1
819,281,41,0.220644757154242,1
819,282,41,0.180354638212161,1
819,283,41,0.144252999141868,1
819,284,41,0.116920116327184,1
820,262,41,0.115739138723613,1
820,263,41,0.170223624394314,1
820,264,41,0.167237929750016,1
820,265,41,0.183904346418518,1
820,266,41,0.197432382396536,1
820,267,41,0.162528550489731,1
820,268,41,0.109139609258569,1
820,279,41,0.13733270588985,1
820,280,41,0.164567487075658,1
820,281,41,0.17034078863151,1
820,282,41,0.175759384064659,1
820,283,41,0.15464756713589,1
820,284,41,0.111570211641503,1
821,262,41,0.185208653651461,1
821,263,41,0.277312445230637,1
821,264,41,0.200090733930759,1
821,265,41,0.130558976863517,1
821,266,41,0.115066958475486,1
821,267,41,0.101324963781682,1
821,281,41,0.105418130611869,1
821,282,41,0.133555640677288,1
821,283,41,0.130894979844228,1
822,261,41,0.100508604857141,1
822,262,41,0.169416295699657,1
822,263,41,0.233341151442305,1
822,264,41,0.15650602983916,1
822,281,41,0.116500107154836,1
822,282,41,0.145024566383317,1
822,283,41,0.139904938006143,1
822,284,41,0.126243975737078,1
822,285,41,0.110984303312173,1
822,286,41,0.102243683466444,1
823,263,41,0.114571504945866,1
823,281,41,0.172405770186862,1
823,282,41,0.19398797603854,1
823,283,41,0.166669548127423,1
823,284,41,0.167399722276519,1
823,285,41,0.177207325328065,1
823,286,41,0.166137036887228,1
823,287,41,0.119160833345411,1
823,288,41,0.107084714546248,1
824,258,41,0.120848723829432,1
824,259,41,0.138242939990679,1
824,260,41,0.127714378199545,1
824,281,41,0.137039555652642,1
824,282,41,0.148499777916358,1
824,283,41,0.122242320319747,1
824,284,41,0.135927192546105,1
824,285,41,0.183935718025353,1
824,286,41,0.205116073200722,1
824,287,41,0.143614053189732,1
824,288,41,0.111818156264693,1
824,289,41,0.125236032152459,1
825,257,41,0.121857527954656,1
825,258,41,0.16078833042264,1
825,259,41,0.266622788059819,1
825,260,41,0.263269838650083,1
825,261,41,0.139615110109242,1
825,285,41,0.101748948869481,1
825,286,41,0.126547681212835,1
825,287,41,0.104690843086318,1
826,257,41,0.145232904352878,1
826,258,41,0.209387905689005,1
826,259,41,0.340402228013832,4
826,260,41,0.322400938581561,1
826,261,41,0.156154199447084,1
827,256,41,0.129631858738175,1
827,257,41,0.188701206711614,1
827,258,41,0.210443647402372,1
827,259,41,0.219748291703079,1
827,260,41,0.171440624881151,1
828,256,41,0.116432026410835,1
828,257,41,0.171884391509926,1
828,258,41,0.180341740996017,1
828,259,41,0.132871510896974,1
829,257,41,0.112740045788896,1
829,258,41,0.119655796693674,1
840,292,41,0.125362934659276,1
852,268,41,0.101277830120996,1
868,273,41,0.109230652275907,1
869,272,41,0.121770842104934,1
869,273,41,0.167525731563975,1
818,265,42,0.105416572924446,1
818,266,42,0.146919248042396,1
818,267,42,0.139870734240357,1
818,279,42,0.115169885667496,1
818,280,42,0.169014445023348,1
818,281,42,0.188545416183503,1
818,282,42,0.163802575407743,1
818,283,42,0.133758957011172,1
819,264,42,0.112172339527283,1
819,265,42,0.184410834475125,1
819,266,42,0.262549947416561,1
819,267,42,0.229140776502925,1
819,268,42,0.136333106281215,1
819,279,42,0.178586412450218,1
819,280,42,0.246809962619502,1
819,281,42,0.258918967141246,1
819,282,42,0.227700013673166,1
819,283,42,0.183066092726705,1
819,284,42,0.141888070167827,1
820,262,42,0.120526130032059,1
820,263,42,0.177893067260397,1
820,264,42,0.168356175032836,1
820,265,42,0.196023405104536,1
820,266,42,0.248701082294055,1
820,267,42,0.209905406486762,1
820,268,42,0.1257627919314,1
820,279,42,0.143049832662212,1
820,280,42,0.1697054046639,1
820,281,42,0.171166308500964,1
820,282,42,0.169734771973632,1
820,283,42,0.149435305375199,1
820,284,42,0.115427819097447,1
821,262,42,0.189549612603972,1
821,263,42,0.289054619810787,1
821,264,42,0.202667453929697,1
821,265,42,0.132633860082276,1
821,266,42,0.127993814251681,1
821,267,42,0.113840001860647,1
821,281,42,0.106893761675475,1
821,282,42,0.140598119802179,1
821,283,42,0.138175033533383,1
821,284,42,0.104464455549908,1
822,261,42,0.100539508068457,1
822,262,42,0.173274839946639,1
822,263,42,0.24506600628118,1
822,264,42,0.159335792347399,1
822,281,42,0.137151371466589,1
822,282,42,0.209385117101731,1
822,283,42,0.206675808492237,1
822,284,42,0.158626913855026,1
822,285,42,0.116400469624376,1
822,286,42,0.100627555533059,1
822,287,42,0.100035405561119,1
823,262,42,0.101679212401786,1
823,263,42,0.120114127155206,1
823,281,42,0.180601330149662,1
823,282,42,0.256375666617924,1
823,283,42,0.24781598905037,1
823,284,42,0.216644964426067,1
823,285,42,0.186042789819876,1
823,286,42,0.160149874651862,1
823,287,42,0.136525791126116,1
823,288,42,0.153757256183985,1
824,258,42,0.136362299304243,1
824,259,42,0.156171105257434,1
824,260,42,0.136570996740132,1
824,281,42,0.125554475747677,1
824,282,42,0.16360400838656,1
824,283,42,0.157500161202437,1
824,284,42,0.165653870570285,1
824,285,42,0.19067888152086,1
824,286,42,0.19621139510133,1
824,287,42,0.153352464419535,1
824,288,42,0.149263927079941,1
824,289,42,0.170290125665054,1
825,257,42,0.139353832553146,1
825,258,42,0.177770314955734,1
825,259,42,0.29221955743789,4
825,260,42,0.282221709555309,1
825,261,42,0.140269219004682,1
825,285,42,0.113062487085402,1
825,286,42,0.132144669981104,1
825,287,42,0.109655683083932,1
825,288,42,0.10530850427465,1
825,289,42,0.118403317969523,1
826,257,42,0.161459257985078,1
826,258,42,0.218403451918387,4
826,259,42,0.34300787960574,4
826,260,42,0.336438577991032,4
826,261,42,0.159668614595751,1
827,256,42,0.142404024171081,1
827,257,42,0.221381183838867,1
827,258,42,0.239651637300619,1
827,259,42,0.227809247865301,4
827,260,42,0.182101579210299,1
828,256,42,0.120210551274549,1
828,257,42,0.192585861285535,1
828,258,42,0.204800766766187,1
828,259,42,0.145076427570867,1
829,257,42,0.115041817618342,1
829,258,42,0.126171864613033,1
868,272,42,0.10342415999574,1
868,273,42,0.130498020088568,1
868,274,42,0.110088023040634,1
869,272,42,0.124887545886528,1
818,265,43,0.110698244365261,1
818,266,43,0.169981453018215,1
818,267,43,0.174656377975576,1
818,268,43,0.129433498682455,1
818,279,43,0.102276351330645,1
818,280,43,0.164773973248982,1
818,281,43,0.207634581440309,1
818,282,43,0.20116085429726,1
819,264,43,0.114812107741624,1
819,265,43,0.187669821565221,1
819,266,43,0.304511170854422,1
819,267,43,0.287567823505165,1
819,268,43,0.168754964798894,1
819,279,43,0.157145662045195,1
819,280,43,0.230765629664462,1
819,281,43,0.265487070534859,1
819,282,43,0.259619970053153,1
819,283,43,0.215552883934782,1
820,262,43,0.119578119287999,1
820,263,43,0.171581895148182,1
820,264,43,0.167498041763775,1
820,265,43,0.196407358714862,1
820,266,43,0.27721878791273,1
820,267,43,0.245081844585465,1
820,268,43,0.139205819569229,1
820,279,43,0.139271231548065,1
820,280,43,0.16505713467943,1
820,281,43,0.163268724338506,1
820,282,43,0.162951653251087,1
820,283,43,0.144977639688092,1
820,284,43,0.118690095849092,1
821,262,43,0.180431694721451,1
821,263,43,0.265678306621527,1
821,264,43,0.19345370014546,1
821,265,43,0.130510100335784,1
821,266,43,0.132753409868741,1
821,267,43,0.120386820490456,1
821,281,43,0.119302190755794,1
821,282,43,0.170333533947429,1
821,283,43,0.163364690955249,1
821,284,43,0.118115984551084,1
822,261,43,0.100878081778062,1
822,262,43,0.167870013163157,1
822,263,43,0.230375837449531,1
822,264,43,0.151465592983408,1
822,281,43,0.161695884865386,1
822,282,43,0.297880999608119,1
822,283,43,0.294108651029501,5
822,284,43,0.193642844791673,1
822,285,43,0.130570599608132,1
822,286,43,0.122992276009821,1
823,262,43,0.104130533116733,1
823,263,43,0.120209135195073,1
823,281,43,0.173223741263422,1
823,282,43,0.308863284156031,1
823,283,43,0.323205010293426,5
823,284,43,0.250404124828461,1
823,285,43,0.190903972799905,1
823,286,43,0.16563668154404,1
823,287,43,0.178669035241138,1
824,258,43,0.166394567279174,1
824,259,43,0.182999580563046,1
824,260,43,0.151979205009068,1
824,281,43,0.103744411815519,1
824,282,43,0.162169672379035,1
824,283,43,0.179364199548439,1
824,284,43,0.184221733400589,1
824,285,43,0.190353466457456,1
824,286,43,0.175351302638659,1
824,287,43,0.154750527006657,1
824,288,43,0.189759039865437,1
825,257,43,0.166898408356455,1
825,258,43,0.212576350235396,1
825,259,43,0.316055638953994,4
825,260,43,0.285385579676346,1
825,261,43,0.14007098966399,1
825,285,43,0.127221419148385,1
825,286,43,0.130858848031772,1
825,287,43,0.106279509970804,1
825,288,43,0.114204380895457,1
825,289,43,0.144064235747822,1
826,257,43,0.178157144296686,1
826,258,43,0.239575125437282,4
826,259,43,0.33432968707903,4
826,260,43,0.317209547653751,4
826,261,43,0.154993809460498,1
827,257,43,0.237373666499276,1
827,258,43,0.269855980717627,1
827,259,43,0.241729439821682,4
827,260,43,0.190698815562703,1
827,261,43,0.102933423100064,1
828,256,43,0.122329605280016,1
828,257,43,0.198074585331464,1
828,258,43,0.219777550083621,1
828,259,43,0.16039557533373,1
828,260,43,0.102129983177503,1
829,257,43,0.113554465773848,1
829,258,43,0.124882840145503,1
867,274,43,0.101107922369808,1
868,272,43,0.118535089611152,1
868,273,43,0.147287058346704,1
868,274,43,0.130320487294052,1
816,271,44,0.107683378483774,1
816,272,44,0.103834833936471,1
816,273,44,0.106574544683005,1
816,274,44,0.118097619089582,1
816,275,44,0.110545220638586,1
817,270,44,0.100337880137025,1
817,271,44,0.122420561154001,1
817,272,44,0.11865063080341,1
817,273,44,0.126826855834914,1
817,274,44,0.151377262302912,1
817,275,44,0.14605492759532,1
817,276,44,0.101964868310694,1
818,265,44,0.108929234313148,1
818,266,44,0.17373442309386,1
818,267,44,0.193522216606223,1
818,268,44,0.151868630987892,1
818,269,44,0.105168955088827,1
818,274,44,0.133319678265041,1
818,275,44,0.133787180564405,1
818,280,44,0.141356060001908,1
818,281,44,0.189245329803506,1
818,282,44,0.19570674794804,1
819,264,44,0.114086170938034,1
819,265,44,0.179663014103547,1
819,266,44,0.303536319957847,1
819,267,44,0.310358729439371,1
819,268,44,0.189943958059062,1
819,274,44,0.101004276245142,1
819,279,44,0.125968112562387,1
819,280,44,0.188802227642792,1
819,281,44,0.228815230724493,1
819,282,44,0.240578036493304,1
819,283,44,0.207335984743582,1
820,262,44,0.109981860651669,1
820,263,44,0.154433281632533,1
820,264,44,0.163031378525541,1
820,265,44,0.186935355606022,1
820,266,44,0.265651205038955,1
820,267,44,0.249517201574377,1
820,268,44,0.144713497294288,1
820,279,44,0.123886998593937,1
820,280,44,0.153479247104243,1
820,281,44,0.154396278386553,1
820,282,44,0.15485068739723,1
820,283,44,0.136021688618778,1
820,284,44,0.114580001422717,1
821,262,44,0.160714607146577,1
821,263,44,0.224543245735343,1
821,264,44,0.177983935991029,1
821,265,44,0.127381762916655,1
821,266,44,0.128008683086171,1
821,267,44,0.119134864626419,1
821,280,44,0.0997783435646919,1
821,281,44,0.138725082373232,1
821,282,44,0.199624996284281,1
821,283,44,0.182841872881184,5
821,284,44,0.131331219465946,1
821,285,44,0.107650242224054,1
822,262,44,0.152465889738861,1
822,263,44,0.198063474554043,1
822,264,44,0.136645330019662,1
822,281,44,0.172987517421118,1
822,282,44,0.345241538012428,5
822,283,44,0.337440094753418,5
822,284,44,0.212191786621604,5
822,285,44,0.151599303564625,1
822,286,44,0.163560534746671,1
823,259,44,0.104782833787612,1
823,262,44,0.103200866048336,1
823,263,44,0.113748000266434,1
823,281,44,0.149851719884264,1
823,282,44,0.308119602787324,5
823,283,44,0.335306128341785,5
823,284,44,0.251615853142482,5
823,285,44,0.191656978507309,1
823,286,44,0.178109672955509,1
823,287,44,0.221155373627166,1
824,258,44,0.212425744736748,1
824,259,44,0.212514500241087,4
824,260,44,0.170535978847789,1
824,261,44,0.107614230233707,1
824,282,44,0.142292208357134,1
824,283,44,0.175398773979836,5
824,284,44,0.186015383235571,1
824,285,44,0.182488038192004,1
824,286,44,0.152741012195057,1
824,287,44,0.148830421580901,1
824,288,44,0.210021851791301,1
825,257,44,0.205505538628082,1
825,258,44,0.269727161057059,4
825,259,44,0.333964512861129,4
825,260,44,0.280744891163527,4
825,261,44,0.141243568826981,1
825,284,44,0.101548845946714,1
825,285,44,0.131146050735183,1
825,286,44,0.12099117053172,1
825,288,44,0.117652654239713,1
825,289,44,0.167507366102473,1
826,256,44,0.15491356132593,1
826,257,44,0.207116013136486,1
826,258,44,0.281249974033579,4
826,259,44,0.333936866632605,4
826,260,44,0.293628687230756,4
826,261,44,0.148911660971103,1
826,289,44,0.103194297618155,1
826,290,44,0.127437926807226,1
827,256,44,0.15503044234723,1
827,257,44,0.241475874452266,1
827,258,44,0.297598960148332,1
827,259,44,0.274145220090536,4
827,260,44,0.212687915512205,1
827,261,44,0.114701217825796,1
827,290,44,0.124134071783605,1
828,257,44,0.189321057376672,1
828,258,44,0.225833947712406,1
828,259,44,0.189808907648803,1
828,260,44,0.133228613461866,1
828,290,44,0.11348500162913,1
828,291,44,0.124687312248733,1
829,257,44,0.109503672398728,1
829,258,44,0.123061467831563,1
829,259,44,0.108192644234737,1
860,270,44,0.111681188700683,1
860,271,44,0.103783604538225,1
867,271,44,0.106146104391319,1
867,272,44,0.120516773014604,1
867,273,44,0.117204987945921,1
867,274,44,0.123153926928376,1
868,272,44,0.124097046751787,1
868,273,44,0.156254806447338,1
869,273,44,0.152506149967633,1
816,271,45,0.100445785393036,1
816,272,45,0.113936720088804,1
816,273,45,0.133779108911396,1
816,274,45,0.161477743268689,1
816,275,45,0.165019336250361,1
816,276,45,0.127316078614843,1
817,270,45,0.107618816152623,1
817,271,45,0.127600688803523,1
817,272,45,0.136586824151498,1
817,273,45,0.169311985106929,1
817,274,45,0.226573555129391,1
817,275,45,0.232283862934434,1
817,276,45,0.155740976563297,1
818,265,45,0.103544984253732,1
818,266,45,0.161341363922307,1
818,267,45,0.196825908236059,1
818,268,45,0.167896929566105,1
818,269,45,0.116884343981057,1
818,273,45,0.118738928805149,1
818,274,45,0.171789666685953,1
818,275,45,0.173428125103371,1
818,276,45,0.110264695294546,1
818,280,45,0.113222776389077,1
818,281,45,0.154686868787786,1
818,282,45,0.167506233238893,1
819,264,45,0.116589788557293,1
819,265,45,0.165148014302981,1
819,266,45,0.266276415020181,1
819,267,45,0.302102702882979,1
819,268,45,0.209541474061632,1
819,269,45,0.111677757431186,1
819,274,45,0.106145025992334,1
819,275,45,0.0998466639529115,1
819,280,45,0.146541100357918,1
819,281,45,0.182378052388456,1
819,282,45,0.19616407626102,1
819,283,45,0.175529194899503,1
820,262,45,0.104001942207465,1
820,263,45,0.143232975310033,1
820,264,45,0.159918803160264,1
820,265,45,0.172167759905835,1
820,266,45,0.227274231253727,1
820,267,45,0.233326358858248,1
820,268,45,0.153724751713569,1
820,279,45,0.106886485205556,1
820,280,45,0.142893225165172,1
820,281,45,0.150840078000449,1
820,282,45,0.145346103567542,1
820,283,45,0.124335623464604,1
820,284,45,0.109413718673295,1
821,262,45,0.148031632934771,1
821,263,45,0.192240468608611,1
821,264,45,0.162873692629517,1
821,265,45,0.123631004103575,1
821,266,45,0.120732213167379,1
821,267,45,0.117340888003866,1
821,280,45,0.113802900578396,1
821,281,45,0.159770376245423,1
821,282,45,0.207586761525723,1
821,283,45,0.183594170548851,1
821,284,45,0.144809540161465,1
821,285,45,0.128975037505895,1
822,262,45,0.138540469181341,1
822,263,45,0.164084353437472,1
822,264,45,0.119785934397446,1
822,281,45,0.17487546725623,1
822,282,45,0.327593810946361,1
822,283,45,0.317909635560458,5
822,284,45,0.215363695716893,1
822,285,45,0.170093541155137,1
822,286,45,0.190535465348778,1
823,258,45,0.139195656475765,1
823,259,45,0.116467755185287,1
823,260,45,0.10328298776498,1
823,262,45,0.100922917032831,1
823,263,45,0.102829384830312,1
823,281,45,0.127426707100615,1
823,282,45,0.263943413191847,1
823,283,45,0.293228568528575,5
823,284,45,0.229764396117971,1
823,285,45,0.179350670542991,1
823,286,45,0.172322482927881,1
823,287,45,0.22784613128917,1
824,257,45,0.210063876672958,1
824,258,45,0.249434981821463,4
824,259,45,0.226865572503018,4
824,260,45,0.178899300656726,1
824,261,45,0.115741622309154,1
824,282,45,0.120863189625918,1
824,283,45,0.16121150943443,1
824,284,45,0.176422185509492,1
824,285,45,0.161812341062844,1
824,286,45,0.127478611859841,1
824,287,45,0.135178239004583,1
824,288,45,0.199608134045607,1
825,256,45,0.194102308116785,1
825,257,45,0.238618792503074,4
825,258,45,0.307098151983095,4
825,259,45,0.316020084466247,4
825,260,45,0.254630729916889,4
825,261,45,0.136574624082173,1
825,284,45,0.105368175685151,1
825,285,45,0.122946623786124,1
825,286,45,0.106013613817035,1
825,288,45,0.115829604416241,1
825,289,45,0.174586216684039,1
826,256,45,0.192397348428627,1
826,257,45,0.240214757643317,4
826,258,45,0.299170220148192,4
826,259,45,0.311253626310192,4
826,260,45,0.261919160260786,4
826,261,45,0.140226671262911,1
826,289,45,0.113573615525521,1
826,290,45,0.146471712463633,1
827,256,45,0.160918631520198,1
827,257,45,0.232020733582101,1
827,258,45,0.29072376358114,4
827,259,45,0.295753351089529,4
827,260,45,0.241493913126196,1
827,261,45,0.13065676259774,1
827,289,45,0.109818532223582,1
827,290,45,0.156646940639863,1
827,291,45,0.183808750161022,1
828,257,45,0.167505383591208,1
828,258,45,0.210378311673969,1
828,259,45,0.218826946824829,1
828,260,45,0.178420545971995,1
828,261,45,0.101087389217418,1
828,289,45,0.103002723850997,1
828,290,45,0.13854184168914,1
828,291,45,0.154895086935238,1
829,258,45,0.120884125816313,1
829,259,45,0.120661550801566,1
829,260,45,0.102255044781003,1
859,270,45,0.131871889502502,1
859,271,45,0.122430822283736,1
860,270,45,0.140163535904155,1
860,271,45,0.137595987743049,1
866,274,45,0.107642442894021,1
867,271,45,0.106959892586968,1
867,272,45,0.12818878660958,1
867,273,45,0.130681827204451,1
868,272,45,0.11794467161334,1
869,273,45,0.129389164501961,1
816,273,46,0.151912823560438,1
816,274,46,0.200861974384637,1
816,275,46,0.22143198841327,1
816,276,46,0.171518934076131,1
817,270,46,0.102587202561293,1
817,271,46,0.114980392447875,1
817,272,46,0.13773522103422,1
817,273,46,0.210917402237264,1
817,274,46,0.312883599143677,6
817,275,46,0.33329019760087,6
817,276,46,0.21763561005525,1
817,277,46,0.106690412662835,1
818,266,46,0.142732097106731,1
818,267,46,0.186688325988031,1
818,268,46,0.172428634423927,1
818,269,46,0.121990879069545,1
818,270,46,0.100872395674323,1
818,273,46,0.147243573813896,1
818,274,46,0.218372363527447,1
818,275,46,0.219149420800092,1
818,276,46,0.133956576348397,1
818,281,46,0.114984117826186,1
819,264,46,0.116168875272664,1
819,265,46,0.147681120585899,1
819,266,46,0.215437854709718,1
819,267,46,0.274618081706067,1
819,268,46,0.22364327276425,1
819,269,46,0.126722719528891,1
819,274,46,0.109023436277007,1
819,275,46,0.101057695120114,1
819,280,46,0.115183022527859,1
819,281,46,0.142899009305182,1
819,282,46,0.147701065520661,1
820,262,46,0.100099445032156,1
820,263,46,0.136864648051615,1
820,264,46,0.151740497581223,1
820,265,46,0.154144739100079,1
820,266,46,0.184897660812866,1
820,267,46,0.209623192740271,1
820,268,46,0.162200096301914,1
820,280,46,0.133947905584841,1
820,281,46,0.152724335136006,1
820,282,46,0.141519214143291,1
820,283,46,0.122637918460527,1
820,284,46,0.109950467258996,1
821,262,46,0.136999600425603,1
821,263,46,0.170981978524968,1
821,264,46,0.147556908630084,1
821,265,46,0.116813757865677,1
821,266,46,0.112314263369456,1
821,267,46,0.112154420675462,1
821,280,46,0.127715249633068,1
821,281,46,0.176126758652205,1
821,282,46,0.199301846948037,1
821,283,46,0.178281508753367,1
821,284,46,0.15743442243603,1
821,285,46,0.152026022775102,1
822,262,46,0.124428594528611,1
822,263,46,0.137236597665159,1
822,264,46,0.106382644128275,1
822,281,46,0.168945242308686,1
822,282,46,0.269174824704211,1
822,283,46,0.268731635400145,1
822,284,46,0.21196521390557,1
822,285,46,0.183740146556907,1
822,286,46,0.194459399788757,1
823,258,46,0.148030478285353,1
823,259,46,0.126711739466498,1
823,260,46,0.110398373197006,1
823,261,46,0.100077789909104,1
823,281,46,0.109737053189162,1
823,282,46,0.209796934798961,1
823,283,46,0.248196151924869,1
823,284,46,0.2119912044104,1
823,285,46,0.164426946634202,1
823,286,46,0.155678908710607,1
823,287,46,0.205111258530507,1
824,257,46,0.20604210203416,1
824,258,46,0.272506423992628,4
824,259,46,0.23178424830974,1
824,260,46,0.177855704548089,1
824,261,46,0.11785354145265,1
824,282,46,0.105807901040962,1
824,283,46,0.156222977337903,1
824,284,46,0.169523874168097,1
824,285,46,0.136682169871856,1
824,286,46,0.107377734068427,1
824,287,46,0.121166143490261,1
824,288,46,0.171654725204885,1
825,256,46,0.207543364136267,1
825,257,46,0.261904040889159,4
825,258,46,0.320742992731981,4
825,259,46,0.283337645539291,4
825,260,46,0.220363850558035,1
825,261,46,0.126752065052785,1
825,284,46,0.112069150905216,1
825,285,46,0.109397041614244,1
825,288,46,0.109972514527133,1
825,289,46,0.160085486607416,1
826,256,46,0.231026950792234,1
826,257,46,0.275106106264902,4
826,258,46,0.302041353962945,4
826,259,46,0.282955173365955,4
826,260,46,0.234613684030408,1
826,261,46,0.130494523461556,1
826,289,46,0.118080430063337,1
826,290,46,0.152139537884419,1
827,256,46,0.16693239426386,1
827,257,46,0.220098912981142,1
827,258,46,0.263156813722123,4
827,259,46,0.293874605771006,1
827,260,46,0.261933669628948,1
827,261,46,0.141158277270897,1
827,289,46,0.116922131517207,1
827,290,46,0.16910872323764,1
828,257,46,0.144011786342644,1
828,258,46,0.187897222143102,1
828,259,46,0.234065007698358,1
828,260,46,0.219036679088027,1
828,261,46,0.122615293867681,1
828,289,46,0.110180079099442,1
828,290,46,0.142496788269627,1
828,291,46,0.158153518486462,1
829,258,46,0.12204721724682,1
829,259,46,0.137279864339586,1
829,260,46,0.12880804905701,1
830,259,46,0.102776260064153,1
831,259,46,0.106525036365968,1
838,291,46,0.100481546846245,1
839,291,46,0.105230118829237,1
858,270,46,0.117405515692531,1
858,271,46,0.114767871597402,1
859,270,46,0.160881791668005,1
859,271,46,0.166781756086455,1
860,270,46,0.153710155202055,1
860,271,46,0.169962009157728,1
860,272,46,0.10066078982905,1
861,271,46,0.108685265605406,1
866,272,46,0.121034709529123,1
866,273,46,0.128999775325035,1
866,274,46,0.137750285941252,1
867,271,46,0.102147597027591,1
867,272,46,0.133827506150691,1
867,273,46,0.152332669339,1
868,272,46,0.122604074161069,1
869,273,46,0.13129951017862,1
816,272,47,0.101695682495374,1
816,273,47,0.158955259113652,1
816,274,47,0.224995497948051,6
816,275,47,0.261237960675694,6
816,276,47,0.205644379774167,1
817,268,47,0.106016119188414,1
817,269,47,0.103729542981029,1
817,270,47,0.101460428122865,1
817,271,47,0.106189414637423,1
817,272,47,0.145045001499436,1
817,273,47,0.254735999086493,6
817,274,47,0.385178987807666,6
817,275,47,0.413245726578082,6
817,276,47,0.270802815026431,6
817,277,47,0.116863211718119,1
818,266,47,0.135150756169845,1
818,267,47,0.181077721070962,1
818,268,47,0.187292926566433,1
818,269,47,0.142011748370609,1
818,270,47,0.11013426348196,1
818,271,47,0.105185773755825,1
818,272,47,0.132714293396468,1
818,273,47,0.203941751170685,1
818,274,47,0.273187841436101,6
818,275,47,0.261668644908702,6
818,276,47,0.158248787956387,1
819,264,47,0.11513409153553,1
819,265,47,0.134912299279138,1
819,266,47,0.174736637003064,1
819,267,47,0.241054296699576,1
819,268,47,0.23809024628541,1
819,269,47,0.15378602438317,1
819,273,47,0.115394159977613,1
819,274,47,0.121473073270054,1
819,275,47,0.107102295717579,1
819,280,47,0.104875554314481,1
819,281,47,0.131418199424481,1
819,282,47,0.130720551531638,1
820,263,47,0.135019757925469,1
820,264,47,0.145399043154077,1
820,265,47,0.139760726650971,1
820,266,47,0.153003803866899,1
820,267,47,0.185529079757945,1
820,268,47,0.171011901373571,1
820,269,47,0.11121379533051,1
820,280,47,0.139445975755307,1
820,281,47,0.173458494561655,1
820,282,47,0.170737323563327,1
820,283,47,0.154899084636526,1
821,262,47,0.127104004374052,1
821,263,47,0.159377381512294,1
821,264,47,0.141004741577027,1
821,265,47,0.115072448506682,1
821,266,47,0.108375296701201,1
821,267,47,0.107766611278159,1
821,280,47,0.148066392239428,1
821,281,47,0.191532211012624,1
821,282,47,0.197944894237373,1
821,283,47,0.184152073183328,1
821,284,47,0.168249969072195,1
821,285,47,0.168423482379584,1
822,262,47,0.116008596861908,1
822,263,47,0.125255857265112,1
822,264,47,0.104619407323253,1
822,280,47,0.110237027280184,1
822,281,47,0.161548525456611,1
822,282,47,0.207857581278898,1
822,283,47,0.22018540275832,1
822,284,47,0.19791700836463,1
822,285,47,0.1830734127683,1
822,286,47,0.178015536349164,1
823,258,47,0.14350025486452,1
823,259,47,0.12861649707569,1
823,260,47,0.115951234750243,1
823,261,47,0.107684816349087,1
823,282,47,0.16387489349725,1
823,283,47,0.21726361687003,1
823,284,47,0.194600680948708,1
823,285,47,0.144798396705287,1
823,286,47,0.131391424629481,1
823,287,47,0.165164549754084,1
824,257,47,0.197252736375726,1
824,258,47,0.258454907004299,1
824,259,47,0.216355844568904,1
824,260,47,0.167227091295571,1
824,261,47,0.120360165517564,1
824,283,47,0.15604109826869,1
824,284,47,0.161182381768916,1
824,285,47,0.114173434112464,1
824,287,47,0.105862256706972,1
825,256,47,0.214776676309822,1
825,257,47,0.267036152551553,1
825,258,47,0.302801897570325,4
825,259,47,0.249325834772681,1
825,260,47,0.189078559213002,1
825,261,47,0.119245068288348,1
825,284,47,0.122602581831161,1
825,285,47,0.10487398573414,1
825,288,47,0.100309918013849,1
826,255,47,0.165529124861438,1
826,256,47,0.252229647344554,1
826,257,47,0.287427980210528,1
826,258,47,0.289867601930426,4
826,259,47,0.262523455837455,1
826,260,47,0.217515003655638,1
826,261,47,0.125588581477192,1
826,285,47,0.110535308082259,1
826,286,47,0.10162798300354,1
826,289,47,0.120343281493052,1
827,256,47,0.169602510150647,1
827,257,47,0.202687300828188,1
827,258,47,0.229731935219232,1
827,259,47,0.276677409836437,1
827,260,47,0.269079228446715,1
827,261,47,0.148027493625536,1
827,285,47,0.104890031003886,1
827,286,47,0.112279623886909,1
827,289,47,0.118538880346978,1
827,290,47,0.169732811248205,1
828,257,47,0.124168711266152,1
828,258,47,0.167180480494999,1
828,259,47,0.236496002226376,1
828,260,47,0.247555190782711,1
828,261,47,0.140468036563002,1
828,288,47,0.0997873737945762,1
828,289,47,0.108050132174935,1
828,290,47,0.130941547073124,1
828,291,47,0.145183908003035,1
829,258,47,0.128073790063273,1
829,259,47,0.160316351133552,1
829,260,47,0.160007667593793,1
830,258,47,0.110657417704699,1
830,259,47,0.120057745406254,1
830,260,47,0.10486229763201,1
830,291,47,0.100945846627411,1
831,258,47,0.100689634278668,1
831,259,47,0.109602874212426,1
837,261,47,0.102077925917411,1
838,261,47,0.145322923435825,1
838,291,47,0.112254602851873,1
839,290,47,0.100833867419678,1
839,291,47,0.116334033711151,1
840,262,47,0.111876150165663,1
841,262,47,0.191642970213424,1
841,263,47,0.112276127259897,1
842,262,47,0.29995132958672,7
842,263,47,0.187522832515694,1
847,282,47,0.100131600929163,1
847,283,47,0.129188963542923,1
857,270,47,0.106284302855181,1
858,270,47,0.140326788081809,1
858,271,47,0.151156277654345,1
859,270,47,0.17408893314402,1
859,271,47,0.211418629013976,1
859,272,47,0.120827090492219,1
860,270,47,0.147517138582669,1
860,271,47,0.188946863821807,1
860,272,47,0.12157740564862,1
861,271,47,0.114994150204622,1
865,272,47,0.102619271314947,1
865,273,47,0.111674195446659,1
865,274,47,0.121486613168421,1
866,272,47,0.14034867195616,1
866,273,47,0.169633598541588,1
867,272,47,0.145730133428301,1
868,272,47,0.148436860415982,1
869,273,47,0.146133748757495,1
816,273,48,0.142899052876859,1
816,274,48,0.206853711646,6
816,275,48,0.244776211063038,6
816,276,48,0.194763987590957,1
817,267,48,0.110464003034223,1
817,268,48,0.125821439407512,1
817,269,48,0.118746760813939,1
817,270,48,0.0997613723968274,1
817,271,48,0.104362312648069,1
817,272,48,0.15839072269148,1
817,273,48,0.266370246624793,6
817,274,48,0.377378132766284,6
817,275,48,0.399605569784384,6
817,276,48,0.262270282613125,6
817,277,48,0.109138323894123,1
818,266,48,0.128359358828829,1
818,267,48,0.171232831557542,1
818,268,48,0.198508842441917,1
818,269,48,0.163072945904598,1
818,270,48,0.118690825674668,1
818,271,48,0.131706153739306,1
818,272,48,0.196398731522982,1
818,273,48,0.259163731032077,1
818,274,48,0.286204574687295,6
818,275,48,0.258008406252845,6
818,276,48,0.155691490032098,1
819,264,48,0.107547957714267,1
819,265,48,0.123075280052906,1
819,266,48,0.145031875531993,1
819,267,48,0.197556953818678,1
819,268,48,0.226555058952861,1
819,269,48,0.168433525650939,1
819,270,48,0.107364662565579,1
819,271,48,0.110788372377399,1
819,272,48,0.146509859466111,1
819,273,48,0.150191328421177,1
819,274,48,0.126607080300361,1
819,275,48,0.103308607910562,1
819,281,48,0.126783055407454,1
819,282,48,0.126041683337584,1
820,263,48,0.12445970470539,1
820,264,48,0.134452378451427,1
820,265,48,0.129352793045286,1
820,266,48,0.132266300315106,1
820,267,48,0.156880234286945,1
820,268,48,0.161002365388859,1
820,269,48,0.116725612364804,1
820,280,48,0.142604846026504,1
820,281,48,0.190093278193264,1
820,282,48,0.20216923359864,1
820,283,48,0.185927738808975,1
821,262,48,0.110269618893952,1
821,263,48,0.140439660508902,1
821,264,48,0.134967689772457,1
821,265,48,0.116123223048967,1
821,266,48,0.105270858346447,1
821,267,48,0.0998094319556324,1
821,279,48,0.102712013627654,1
821,280,48,0.1567182456879,1
821,281,48,0.192192583336511,1
821,282,48,0.196412543744325,1
821,283,48,0.186623251689685,1
821,284,48,0.162182613166855,1
822,262,48,0.106383254131742,1
822,263,48,0.116113800673998,1
822,264,48,0.106311426223591,1
822,280,48,0.122360345097547,1
822,281,48,0.146530806549425,1
822,282,48,0.162314973026111,1
822,283,48,0.183578027242833,1
822,284,48,0.17238638079097,1
822,285,48,0.165139801042025,1
823,258,48,0.127832925837458,1
823,259,48,0.121029056104141,1
823,260,48,0.115511509394432,1
823,261,48,0.112359893807315,1
823,282,48,0.132484692448941,1
823,283,48,0.195309657477352,1
823,284,48,0.171971785399385,1
823,285,48,0.122731706493462,1
823,286,48,0.105310780894729,1
824,256,48,0.133915139684369,1
824,257,48,0.184176386178625,1
824,258,48,0.222970133939247,1
824,259,48,0.186407484749339,1
824,260,48,0.147226755146898,1
824,261,48,0.118663037838197,1
824,283,48,0.149825010446777,1
824,284,48,0.144781948397536,1
825,255,48,0.156076979544009,1
825,256,48,0.210129953119855,1
825,257,48,0.258090560648246,1
825,258,48,0.277105566912227,1
825,259,48,0.218992998482676,1
825,260,48,0.158412192634908,1
825,261,48,0.109940728989374,1
825,284,48,0.127298083512589,1
825,285,48,0.106158772856163,1
826,255,48,0.165590593603581,1
826,256,48,0.243332311072595,1
826,257,48,0.272537338096864,1
826,258,48,0.272535050583865,1
826,259,48,0.242676731633085,1
826,260,48,0.195430176733612,1
826,261,48,0.118104176626844,1
826,284,48,0.115791914916363,1
826,285,48,0.144520496554736,1
826,286,48,0.121982480628965,1
826,289,48,0.111016982069294,1
827,256,48,0.161905192304742,1
827,257,48,0.181522032345689,1
827,258,48,0.202246094035387,1
827,259,48,0.245855764697426,1
827,260,48,0.24734083992184,1
827,261,48,0.141257097832429,1
827,285,48,0.146279408870899,1
827,286,48,0.146774786150086,1
827,287,48,0.109594345056818,1
827,289,48,0.106717329065783,1
827,290,48,0.146764383412402,1
828,257,48,0.109910326852333,1
828,258,48,0.154309145927152,1
828,259,48,0.232122582375126,1
828,260,48,0.256376712338152,1
828,261,48,0.146910653529273,1
828,286,48,0.111566791264924,1
828,287,48,0.123868197415674,1
828,288,48,0.111513121852813,1
828,290,48,0.106996481902023,1
829,258,48,0.13686391822604,1
829,259,48,0.191526764553104,1
829,260,48,0.198882077419907,1
829,261,48,0.117507146627175,1
829,287,48,0.106890482906844,1
829,288,48,0.10413851762639,1
830,258,48,0.121716137865515,1
830,259,48,0.140742854017465,1
830,260,48,0.125848268667108,1
830,291,48,0.105876962147677,1
831,258,48,0.101202908623838,1
831,259,48,0.105031421093026,1
837,261,48,0.101083979733758,1
838,260,48,0.290774197796296,1
838,261,48,0.169190245843737,1
838,291,48,0.115846488440753,1
839,261,48,0.195618907448901,1
839,290,48,0.113595717258253,1
839,291,48,0.118364353998117,1
840,262,48,0.145498212289019,1
840,290,48,0.100876709270263,1
841,262,48,0.232162624745517,7
841,263,48,0.125755471889805,1
841,288,48,0.101195730190191,1
841,289,48,0.106042316658705,1
842,261,48,0.27023599109126,7
842,262,48,0.334669175793834,7
842,263,48,0.206303314232742,7
842,288,48,0.118064188721048,1
842,289,48,0.107938501540612,1
843,262,48,0.327140665514292,7
843,263,48,0.224526252781641,1
843,264,48,0.100294896678493,1
846,283,48,0.138251436467531,1
847,282,48,0.144718823931699,1
847,283,48,0.196053491346925,1
847,284,48,0.105800363140986,1
848,282,48,0.100266477052717,1
848,283,48,0.118896952381664,1
857,270,48,0.131549894815676,1
857,271,48,0.139146660125923,1
858,270,48,0.160320141869378,1
858,271,48,0.198553677696686,1
858,272,48,0.123891998443776,1
859,270,48,0.169024510080541,1
859,271,48,0.236541033553688,1
859,272,48,0.155366336398751,1
860,270,48,0.127182618570764,1
860,271,48,0.183113117458201,1
860,272,48,0.135012230918412,1
861,271,48,0.111215396589609,1
864,274,48,0.112437473176719,1
865,272,48,0.115579557459676,1
865,273,48,0.144370163379063,1
866,272,48,0.161467874284038,1
817,267,49,0.120795838707493,1
817,268,49,0.151668789495182,1
817,269,49,0.143613432293347,1
817,270,49,0.109448031368271,1
817,271,49,0.113674483955832,1
817,272,49,0.177763190986681,1
817,273,49,0.247890235186547,1
817,274,49,0.304817457951992,6
817,275,49,0.317552957819409,6
817,276,49,0.212076626681512,1
818,266,49,0.121428967840861,1
818,267,49,0.164232475350579,1
818,268,49,0.216874151442671,1
818,269,49,0.200970053927353,1
818,270,49,0.144852578084592,1
818,271,49,0.168917617866001,1
818,272,49,0.275061053151752,1
818,273,49,0.305217293438278,1
818,274,49,0.267717025349074,1
818,275,49,0.226093787403188,1
818,276,49,0.139509982547586,1
819,264,49,0.100389599716628,1
819,265,49,0.117284495361995,1
819,266,49,0.129939856024034,1
819,267,49,0.160162924368872,1
819,268,49,0.203558058990416,1
819,269,49,0.180661361026492,1
819,270,49,0.125925695535645,1
819,271,49,0.13713150278226,1
819,272,49,0.201246930143514,1
819,273,49,0.190569342326993,1
819,274,49,0.13537278653864,1
819,275,49,0.103278565239849,1
819,281,49,0.126479262788344,1
820,263,49,0.112832897030794,1
820,264,49,0.127481280625006,1
820,265,49,0.130341728486181,1
820,266,49,0.126518499082727,1
820,267,49,0.132119191443469,1
820,268,49,0.139869862806833,1
820,269,49,0.115027591466075,1
820,280,49,0.148564383819185,1
820,281,49,0.20568952003067,1
820,282,49,0.22566401817538,1
820,283,49,0.206505508595964,1
821,263,49,0.123053864574073,1
821,264,49,0.134188377665571,1
821,265,49,0.124643686107977,1
821,266,49,0.10743863637878,1
821,279,49,0.100189224470885,1
821,280,49,0.156924023821486,1
821,281,49,0.193921790662452,1
821,282,49,0.205541790262648,1
821,283,49,0.19414457264266,1
821,284,49,0.15706582784155,1
822,263,49,0.109051289470992,1
822,264,49,0.110081498182129,1
822,280,49,0.122535339841926,1
822,281,49,0.132619230892005,1
822,282,49,0.141904518475578,1
822,283,49,0.16427411898007,1
822,284,49,0.152890964118563,1
822,285,49,0.142493531286834,1
823,258,49,0.103573316736156,1
823,259,49,0.100866437247608,1
823,260,49,0.103054018606757,1
823,261,49,0.108176446464124,1
823,282,49,0.112949690908742,1
823,283,49,0.171319724372725,1
823,284,49,0.153568209574044,1
823,285,49,0.109468477377309,1
824,256,49,0.128811033716827,1
824,257,49,0.164529873826212,1
824,258,49,0.179178704030105,1
824,259,49,0.144904134270409,1
824,260,49,0.118605022151389,1
824,261,49,0.109433216998376,1
824,283,49,0.137881796152824,1
824,284,49,0.129184257801898,1
825,255,49,0.14952720893314,1
825,256,49,0.198068093151716,1
825,257,49,0.245786137158922,1
825,258,49,0.256848898592702,1
825,259,49,0.189113264053063,1
825,260,49,0.1293396997566,1
825,283,49,0.100979723605625,1
825,284,49,0.125478693709915,1
825,285,49,0.109615433748079,1
826,255,49,0.155521288172097,1
826,256,49,0.216940663606329,1
826,257,49,0.251730185220727,1
826,258,49,0.259844995974683,1
826,259,49,0.215675385702307,1
826,260,49,0.163341314750989,1
826,261,49,0.104021331603356,1
826,284,49,0.133254625752534,1
826,285,49,0.167359788835318,1
826,286,49,0.132701777432491,1
827,256,49,0.146297447544829,1
827,257,49,0.162820840186334,1
827,258,49,0.18146040020976,1
827,259,49,0.207052790634377,1
827,260,49,0.204434938973144,1
827,261,49,0.120248131845237,1
827,284,49,0.103004913327724,1
827,285,49,0.164911409208511,1
827,286,49,0.156495561743963,1
827,287,49,0.11733947192439,1
828,257,49,0.101701172526571,1
828,258,49,0.1431986299363,1
828,259,49,0.218184939962443,1
828,260,49,0.243343857566778,1
828,261,49,0.136413768346707,1
828,286,49,0.124884691941739,1
828,287,49,0.14407854904344,1
828,288,49,0.119869014690965,1
829,258,49,0.145474879656435,1
829,259,49,0.222360457260573,1
829,260,49,0.234385586305708,1
829,261,49,0.127390912968649,1
829,287,49,0.124635614454968,1
829,288,49,0.114092521509834,1
830,258,49,0.136736721610408,1
830,259,49,0.170696649403631,1
830,260,49,0.15605358155391,1
830,291,49,0.102083775414935,1
831,258,49,0.104006952950223,1
831,259,49,0.104155358079226,1
838,260,49,0.270703057673862,1
838,261,49,0.178087778188238,1
838,289,49,0.105868454777906,1
838,290,49,0.11199930550833,1
838,291,49,0.116971138759968,1
839,261,49,0.253728011930197,1
839,262,49,0.115786021847162,1
839,290,49,0.122145983343757,1
839,291,49,0.11383316110749,1
840,261,49,0.279375934456081,1
840,262,49,0.17705780912132,1
841,262,49,0.257472844995319,7
841,263,49,0.130519359316968,1
841,288,49,0.118189076037843,1
841,289,49,0.106346120170734,1
842,261,49,0.276015360003017,7
842,262,49,0.333808308402094,7
842,263,49,0.19544767076159,7
842,287,49,0.102099602826301,1
842,288,49,0.13054656982873,1
842,289,49,0.105172626002543,1
843,262,49,0.324619956905059,7
843,263,49,0.224642610942827,1
843,264,49,0.099905191606914,1
846,282,49,0.104975409703322,1
846,283,49,0.147678419141977,1
847,282,49,0.15961369249795,1
847,283,49,0.212840111377034,1
847,284,49,0.107925070571435,1
848,282,49,0.103822230829141,1
848,283,49,0.123911899806863,1
856,271,49,0.113633156220994,1
857,270,49,0.152454985926902,1
857,271,49,0.212130067342323,1
857,272,49,0.154423804792968,1
858,270,49,0.166421581718394,1
858,271,49,0.249789589907894,1
858,272,49,0.19047893109896,1
859,270,49,0.141633186755208,1
859,271,49,0.222272856405652,1
859,272,49,0.180981612846271,1
860,271,49,0.154062159880836,1
860,272,49,0.13806646380931,1
861,271,49,0.100840163526883,1
864,273,49,0.111119190328647,1
865,272,49,0.120255103313423,1
817,267,50,0.12649122321345,1
817,268,50,0.171989366570716,1
817,269,50,0.167516015080191,1
817,270,50,0.124739837904344,1
817,271,50,0.12350577910629,1
817,272,50,0.185415902329118,1
817,273,50,0.2140070697938,1
817,274,50,0.219428693458442,1
817,275,50,0.219350939802334,1
818,266,50,0.111080433322702,1
818,267,50,0.162282936951214,1
818,268,50,0.23644761588,1
818,269,50,0.247763506966434,1
818,270,50,0.18621818760226,1
818,271,50,0.193670491020197,1
818,272,50,0.309286277988196,1
818,273,50,0.313778713872879,1
818,274,50,0.231514801064364,1
818,275,50,0.179418740394073,1
818,276,50,0.114977004750053,1
819,265,50,0.107093810133647,1
819,266,50,0.120689741676042,1
819,267,50,0.138389918147287,1
819,268,50,0.18204256137494,1
819,269,50,0.193304467154611,1
819,270,50,0.15198190645299,1
819,271,50,0.148461010017494,1
819,272,50,0.216491265338411,1
819,273,50,0.205864198880397,1
819,274,50,0.136840400413832,1
819,281,50,0.117053445656235,1
820,264,50,0.112578688979155,1
820,265,50,0.12842334383527,1
820,266,50,0.125162189054286,1
820,267,50,0.113565489407917,1
820,268,50,0.115028865937603,1
820,269,50,0.107623227784834,1
820,280,50,0.149720558246102,1
820,281,50,0.210875769500693,1
820,282,50,0.222132185249168,1
821,263,50,0.100792278254783,1
821,264,50,0.123062785874767,1
821,265,50,0.125848039915808,1
821,266,50,0.108282445459303,1
821,280,50,0.153091960260691,1
821,281,50,0.202167055014832,1
821,282,50,0.216128269704318,1
821,283,50,0.194801677090836,1
821,284,50,0.148372156476884,1
822,264,50,0.104099292224926,1
822,280,50,0.114338897552684,1
822,281,50,0.125983482471153,1
822,282,50,0.138989202981198,1
822,283,50,0.155810636780559,1
822,284,50,0.140754356939971,1
822,285,50,0.120645015350463,1
823,282,50,0.101086779213951,1
823,283,50,0.144883622903857,1
823,284,50,0.13838319721624,1
823,285,50,0.101132398758891,1
824,257,50,0.144087372307863,1
824,258,50,0.141783247607904,1
824,259,50,0.107785129240527,1
824,283,50,0.127723070748939,1
824,284,50,0.115166182075023,1
825,256,50,0.181964840397588,1
825,257,50,0.229854480558433,1
825,258,50,0.231335024328526,1
825,259,50,0.154160348653064,1
825,260,50,0.100558516212182,1
825,283,50,0.111249850892533,1
825,284,50,0.117064022680623,1
825,285,50,0.105333067807085,1
826,255,50,0.135389409133095,1
826,256,50,0.188881658808433,1
826,257,50,0.239134811863842,1
826,258,50,0.246806999745523,1
826,259,50,0.17912712605845,1
826,260,50,0.124448615713807,1
826,284,50,0.134848183557668,1
826,285,50,0.161655635529533,1
826,286,50,0.12715576752533,1
827,256,50,0.128554821368084,1
827,257,50,0.154201937817959,1
827,258,50,0.169987041085682,1
827,259,50,0.170735330159142,1
827,260,50,0.156754976610903,1
827,284,50,0.103497044517037,1
827,285,50,0.156120747292712,1
827,286,50,0.150178551027143,1
827,287,50,0.120023737713011,1
828,258,50,0.135149329197451,1
828,259,50,0.198158286521368,1
828,260,50,0.210398485360032,1
828,261,50,0.118148957417018,1
828,286,50,0.132661789526695,1
828,287,50,0.149682683566599,1
828,288,50,0.116173777086232,1
829,258,50,0.155473805938001,1
829,259,50,0.244431014458657,1
829,260,50,0.242940231344666,1
829,261,50,0.126548770504739,1
829,287,50,0.128870552626462,1
829,288,50,0.113223451750058,1
830,258,50,0.16388431587222,1
830,259,50,0.221814547729959,1
830,260,50,0.189137272046628,1
831,258,50,0.118366685082792,1
831,259,50,0.128433626750844,1
837,291,50,0.0998850505996088,1
838,261,50,0.15791773036092,1
838,289,50,0.115540713310379,1
838,290,50,0.129796973604985,1
838,291,50,0.116807004255872,1
839,262,50,0.120244275751897,1
839,289,50,0.105046148319569,1
839,290,50,0.125681291111142,1
840,261,50,0.304407099905913,1
840,262,50,0.181762417283066,1
841,262,50,0.253658014032446,1
841,263,50,0.124487405398509,1
841,287,50,0.099747669104675,1
841,288,50,0.125522058420614,1
841,289,50,0.103056763622355,1
842,262,50,0.301698270584858,7
842,263,50,0.16778758644478,1
842,288,50,0.121620606965533,1
846,282,50,0.104307510372378,1
846,283,50,0.133158375919895,1
847,282,50,0.148565375074818,1
847,283,50,0.180293398221317,1
848,283,50,0.109484751398355,1
856,271,50,0.139538870568881,1
856,272,50,0.107162293915652,1
857,270,50,0.1576081536018,1
857,271,50,0.276740109478432,1
857,272,50,0.223756101619667,1
858,270,50,0.15322099777964,1
858,271,50,0.27576907110352,1
858,272,50,0.240345385528446,1
858,273,50,0.102500745462872,1
859,270,50,0.110058808231769,1
859,271,50,0.187419916216603,1
859,272,50,0.181565516878497,1
860,271,50,0.124860487875632,1
860,272,50,0.131055824686774,1
865,272,50,0.13374649551179,1
818,267,51,0.159976056342739,1
818,268,51,0.24538477666397,1
818,269,51,0.282556841102497,1
818,270,51,0.229853696268262,1
818,271,51,0.202839736337235,1
818,272,51,0.282096811345595,1
818,273,51,0.280654479935494,1
818,274,51,0.18954351256931,1
818,275,51,0.132506369357831,1
819,266,51,0.11652253567514,1
819,267,51,0.127995469975375,1
819,268,51,0.161366700851994,1
819,269,51,0.19256605795872,1
819,270,51,0.171625597539371,1
819,271,51,0.147301338963565,1
819,272,51,0.188678549440011,1
819,273,51,0.185749029579203,1
819,274,51,0.124821600154659,1
820,264,51,0.103419399790119,1
820,265,51,0.130432226857566,1
820,266,51,0.132949493304382,1
820,267,51,0.107258685356238,1
820,280,51,0.14449218585815,1
820,281,51,0.196613322028072,1
820,282,51,0.18885649616545,1
821,264,51,0.116799237604596,1
821,265,51,0.131229348887083,1
821,266,51,0.119047612344908,1
821,280,51,0.146171492721968,1
821,281,51,0.201155647481958,1
821,282,51,0.205457500855115,1
821,283,51,0.180523837923611,1
822,280,51,0.100690168031701,1
822,281,51,0.121510719198257,1
822,282,51,0.137872450028287,1
822,283,51,0.154020265714208,1
822,284,51,0.140790554109941,1
823,283,51,0.126850831149721,1
823,284,51,0.131399561640004,1
824,257,51,0.135081357382641,1
824,258,51,0.125416353534249,1
824,282,51,0.102136094105085,1
824,283,51,0.121381834180174,1
824,284,51,0.108687792762624,1
825,256,51,0.175806583082859,1
825,257,51,0.230233946286114,1
825,258,51,0.221284781505362,1
825,259,51,0.133322946140753,1
825,282,51,0.108415578715811,1
825,283,51,0.128366864050047,1
825,284,51,0.114495592193076,1
825,285,51,0.101929509895489,1
826,255,51,0.117035189123924,1
826,256,51,0.179625161209883,1
826,257,51,0.258458610596773,1
826,258,51,0.258713722760692,1
826,259,51,0.15829142284151,1
826,283,51,0.101295247898541,1
826,284,51,0.1242026644948,1
826,285,51,0.136584362351794,1
826,286,51,0.116740720843513,1
827,256,51,0.120803910360501,1
827,257,51,0.164789310478991,1
827,258,51,0.176898227857383,1
827,259,51,0.148495889144261,1
827,260,51,0.12180198496047,1
827,285,51,0.131184186844743,1
827,286,51,0.140678825439347,1
827,287,51,0.120078605346216,1
828,258,51,0.131016348748173,1
828,259,51,0.176032839904241,1
828,260,51,0.171464251622549,1
828,261,51,0.100560008542091,1
828,286,51,0.131900886452986,1
828,287,51,0.135675065042003,1
828,288,51,0.100772801715539,1
829,258,51,0.156157837682043,1
829,259,51,0.246490342589027,1
829,260,51,0.223831110260177,1
829,261,51,0.1192592290831,1
829,287,51,0.121301836582744,1
829,288,51,0.106060181045931,1
830,258,51,0.18527891297927,1
830,259,51,0.270709636996962,1
830,260,51,0.212713099941026,1
830,261,51,0.106658071586204,1
830,287,51,0.105293123472965,1
830,288,51,0.103483482832832,1
831,258,51,0.13229359797022,1
831,259,51,0.163481397689845,1
831,260,51,0.119972900459851,1
837,290,51,0.106169458809741,1
838,289,51,0.112164060908812,1
838,290,51,0.134211557797288,1
838,291,51,0.111024955686031,1
839,262,51,0.112128364813118,1
839,289,51,0.100354524517318,1
839,290,51,0.118276382783949,1
840,262,51,0.176273486271675,1
841,263,51,0.116951749364077,1
841,288,51,0.118645260594323,1
846,282,51,0.101394220960939,1
846,283,51,0.114867389305752,1
847,282,51,0.126385409397895,1
847,283,51,0.132420391547847,1
856,271,51,0.163018884347402,1
856,272,51,0.131527085043206,1
857,270,51,0.144823592027027,1
857,271,51,0.293309938633805,1
857,272,51,0.247441708352152,1
858,270,51,0.127721099130593,1
858,271,51,0.25833177344747,1
858,272,51,0.238230612440161,1
858,273,51,0.104411897215539,1
859,271,51,0.151921635931941,1
859,272,51,0.156015031513428,1
860,271,51,0.107265994504914,1
860,272,51,0.115446413310248,1
863,273,51,0.132756960960348,1
818,269,52,0.271219447393877,1
818,270,52,0.235669382172099,1
819,266,52,0.106483556130263,1
819,267,52,0.11343302061947,1
819,268,52,0.135741740599447,1
819,269,52,0.168781728700975,1
819,270,52,0.164774005927739,1
819,271,52,0.132689043610133,1
819,272,52,0.138238190677978,1
819,273,52,0.140784475861117,1
819,274,52,0.100735057751065,1
820,265,52,0.124199309475736,1
820,266,52,0.135513316087176,1
820,267,52,0.100882841983683,1
820,280,52,0.126063087923498,1
820,281,52,0.159676522854974,1
821,264,52,0.100794380588158,1
821,265,52,0.129662914450358,1
821,266,52,0.125990105365929,1
821,280,52,0.130951960703726,1
821,281,52,0.178016756356097,1
821,282,52,0.174733075018538,1
821,283,52,0.163949357491808,1
822,281,52,0.112819640348322,1
822,282,52,0.132955582446126,1
822,283,52,0.159305575389982,1
822,284,52,0.150098793073931,1
823,283,52,0.117873039777732,1
823,284,52,0.123448623960087,1
824,257,52,0.126260086364338,1
824,258,52,0.111178534951577,1
824,282,52,0.109493193410611,1
824,283,52,0.119221801013278,1
824,284,52,0.109707805701539,1
825,256,52,0.162966260655519,1
825,257,52,0.219325624658485,1
825,258,52,0.197761958555013,1
825,259,52,0.112117003498559,1
825,282,52,0.131807948067736,1
825,283,52,0.145765132377177,1
825,284,52,0.120758911711947,1
825,285,52,0.102206124681594,1
826,256,52,0.164744159329569,1
826,257,52,0.253737423412248,1
826,258,52,0.24360369725756,1
826,259,52,0.135349987659089,1
826,283,52,0.10726013411447,1
826,284,52,0.108513614987172,1
826,285,52,0.109558191458523,1
826,286,52,0.106573139496449,1
826,287,52,0.100133006115719,1
826,288,52,0.104797288691178,1
827,257,52,0.161888275601472,1
827,258,52,0.171627307727661,1
827,259,52,0.129064718908352,1
827,285,52,0.105606817755482,1
827,286,52,0.128510291115048,1
827,287,52,0.113336313284232,1
828,258,52,0.124874626884546,1
828,259,52,0.15408379321805,1
828,260,52,0.134000747135105,1
828,286,52,0.119318323168892,1
828,287,52,0.111441936626886,1
829,258,52,0.14836539197416,1
829,259,52,0.230248324939247,1
829,260,52,0.191240738284949,1
829,261,52,0.104718805209494,1
829,287,52,0.11484744437099,1
829,288,52,0.100755950369784,1
830,258,52,0.185754432467046,1
830,259,52,0.284082198341521,1
830,260,52,0.21195761064808,1
830,261,52,0.105658875015575,1
830,287,52,0.135578139848384,1
830,288,52,0.12582078583237,1
831,258,52,0.136981104249073,1
831,259,52,0.186388138925124,1
831,260,52,0.136320034778367,1
831,287,52,0.109834218027,1
831,288,52,0.10284834940236,1
837,290,52,0.10549324818157,1
838,290,52,0.119069430861745,1
839,290,52,0.101259148764842,1
841,263,52,0.106419799875121,1
856,271,52,0.179898235797299,1
856,272,52,0.150274288892587,1
857,270,52,0.124558895626169,1
857,271,52,0.260052767512454,1
857,272,52,0.224293776103487,1
858,270,52,0.104046287280877,1
858,271,52,0.211546773313564,1
858,272,52,0.197783308676332,1
859,271,52,0.127001077182042,1
859,272,52,0.127085421054169,1
860,272,52,0.10052971533424,1
819,267,53,0.101141995420566,1
819,268,53,0.113406409218255,1
819,269,53,0.135935122591166,1
819,270,53,0.138514522248187,1
819,271,53,0.115287354906425,1
819,273,53,0.0999417155644555,1
820,265,53,0.11627967804514,1
820,266,53,0.133942578947431,1
821,265,53,0.132100836874887,1
821,266,53,0.133540281661441,1
821,280,53,0.112426405970974,1
821,281,53,0.143790355084396,1
821,282,53,0.140161411784942,1
822,281,53,0.106142814729769,1
822,282,53,0.123144112408321,1
822,283,53,0.154970400577481,1
822,284,53,0.154905772888816,1
823,283,53,0.10598053202191,1
823,284,53,0.110306306245279,1
824,257,53,0.121122571814101,1
824,258,53,0.103733344609774,1
824,282,53,0.106385824860635,1
824,283,53,0.114020650030008,1
824,284,53,0.112265288805452,1
825,256,53,0.151196363596413,1
825,257,53,0.211112036914673,1
825,258,53,0.181403441136099,1
825,259,53,0.10313580264291,1
825,282,53,0.134282154805587,1
825,283,53,0.148566987226835,1
825,284,53,0.126807488224861,1
825,285,53,0.101715017426671,1
826,256,53,0.151473185347979,1
826,257,53,0.234462141740722,1
826,258,53,0.218043048799026,1
826,259,53,0.122420070972644,1
826,283,53,0.101061300676317,1
826,286,53,0.0998643213746755,1
826,287,53,0.108996912019144,1
826,288,53,0.108405666159485,1
827,257,53,0.151158554274424,1
827,258,53,0.161943600737277,1
827,259,53,0.121473639701844,1
827,286,53,0.112116622246392,1
827,287,53,0.103600298496618,1
828,258,53,0.122679115480337,1
828,259,53,0.145023640485198,1
828,260,53,0.118678963285833,1
829,258,53,0.145113692246903,1
829,259,53,0.219444989265326,1
829,260,53,0.177125519506074,1
829,287,53,0.117084773691395,1
829,288,53,0.104106209228517,1
830,258,53,0.179574291277966,1
830,259,53,0.276645341082783,1
830,260,53,0.208757488892478,1
830,261,53,0.102954620720516,1
830,286,53,0.110848937007262,1
830,287,53,0.16489656215986,1
830,288,53,0.143150472341223,1
831,258,53,0.136786948860102,1
831,259,53,0.197342624743645,1
831,260,53,0.152681863644669,1
831,286,53,0.104780066986176,1
831,287,53,0.132142938006977,1
831,288,53,0.114847803837318,1
855,271,53,0.101768065942396,1
856,271,53,0.186302302723088,1
856,272,53,0.154785242739638,1
857,271,53,0.203162362813365,1
857,272,53,0.177030064856525,1
858,271,53,0.154894792826424,1
858,272,53,0.147972920101145,1
819,269,54,0.100964255660588,1
819,270,54,0.10422294864187,1
820,265,54,0.100173397059519,1
820,266,54,0.1207644344219,1
821,265,54,0.121627807185019,1
821,266,54,0.1271647323977,1
822,282,54,0.106355760404084,1
822,283,54,0.128661016435806,1
824,280,54,0.104215661279032,1
824,283,54,0.103623249877036,1
824,284,54,0.106712274751348,1
825,257,54,0.196548356658917,1
825,258,54,0.160319063470393,1
825,282,54,0.119553838971459,1
825,283,54,0.137625235230672,1
825,284,54,0.125837560927692,1
826,256,54,0.135435344572687,1
826,257,54,0.199518746751963,1
826,258,54,0.181078113216048,1
826,259,54,0.115549286037663,1
826,287,54,0.107431730268109,1
827,257,54,0.135741337561443,1
827,258,54,0.147980294607335,1
827,259,54,0.119845845452167,1
828,258,54,0.121529596626953,1
828,259,54,0.141037213368686,1
828,260,54,0.111721993575407,1
829,258,54,0.144226289704381,1
829,259,54,0.214280547419221,1
829,260,54,0.173025141563482,1
829,287,54,0.104579038165291,1
830,258,54,0.174254984801867,1
830,259,54,0.270673472505749,1
830,260,54,0.211169660456395,1
830,286,54,0.105763697575497,1
830,287,54,0.158700114270976,1
830,288,54,0.132645482826892,1
831,258,54,0.134662404823439,1
831,259,54,0.201833295975443,1
831,260,54,0.164710053600055,1
831,286,54,0.102849907089783,1
831,287,54,0.129415928404043,1
831,288,54,0.107841293131098,1
855,271,54,0.113645955400866,1
820,266,55,0.101406627995726,1
821,265,55,0.106565873919449,1
821,266,55,0.11021482751118,1
822,281,55,0.10095152183823,1
823,281,55,0.103660155086743,1
824,279,55,0.110805844619539,1
824,280,55,0.110987418687019,1
825,258,55,0.137939757375036,1
825,282,55,0.101107922369808,1
825,283,55,0.120856163693137,1
825,284,55,0.119703169998579,1
826,257,55,0.160672876373734,1
826,258,55,0.153532578835863,1
826,259,55,0.115571137233258,1
827,257,55,0.121045373696863,1
827,258,55,0.141685320265734,1
827,259,55,0.125286030650853,1
828,258,55,0.121781920203598,1
828,259,55,0.141503157980626,1
828,260,55,0.113672229121591,1
829,258,55,0.140805041692265,1
829,259,55,0.215902023775855,1
829,260,55,0.17971938495958,1
830,258,55,0.171088761810318,1
830,259,55,0.28316993815775,1
830,260,55,0.23366212219474,1
830,261,55,0.106708908839365,1
830,287,55,0.132808538932003,1
830,288,55,0.111086500678608,1
831,258,55,0.13185136724303,1
831,259,55,0.211149203554438,1
831,260,55,0.186710612900387,1
831,287,55,0.115219034518205,1
832,259,55,0.0998204991613771,1
855,271,55,0.124196891247709,1
823,280,56,0.108181903816563,1
823,281,56,0.112744697065326,1
824,279,56,0.106065801792156,1
824,280,56,0.105570380941293,1
825,258,56,0.108984646592305,1
826,257,56,0.114310630427775,1
826,258,56,0.122927299747746,1
826,259,56,0.109034035087233,1
827,257,56,0.101215794947062,1
827,258,56,0.129655420122059,1
827,259,56,0.122278898741884,1
828,258,56,0.115191911149795,1
828,259,56,0.130775451843601,1
828,260,56,0.105976959144465,1
829,258,56,0.128677246885176,1
829,259,56,0.198895737140384,1
829,260,56,0.168958727742458,1
830,258,56,0.156890658810467,1
830,259,56,0.27514902436592,1
830,260,56,0.240383728603467,1
830,261,56,0.114510678885946,1
831,258,56,0.129591021184694,1
831,259,56,0.218748539593578,1
831,260,56,0.207939539601756,1
831,261,56,0.109593833089623,1
832,259,56,0.113699167310377,1
832,260,56,0.111568697525756,1
855,271,56,0.121510839020366,1
856,271,56,0.133173734935742,1
823,279,57,0.100460436369145,1
823,280,57,0.114880765810334,1
823,281,57,0.112768127734181,1
826,258,57,0.116101655069268,1
826,259,57,0.107877032798469,1
827,258,57,0.129199257351416,1
827,259,57,0.127818209503835,1
828,258,57,0.116305461584508,1
828,259,57,0.128372648190058,1
828,260,57,0.104541588309631,1
829,258,57,0.121662032736643,1
829,259,57,0.177812241801119,1
829,260,57,0.157059172268017,1
830,258,57,0.144162969166001,1
830,259,57,0.255542489026384,1
830,260,57,0.244722530758008,1
830,261,57,0.129004284993517,1
831,258,57,0.132884680436094,1
831,259,57,0.232837702510109,1
831,260,57,0.237415321021685,1
831,261,57,0.128163896289573,1
832,259,57,0.131652081289191,1
832,260,57,0.128331843315333,1
855,271,57,0.113954431975163,1
856,271,57,0.109643526586284,1
823,280,58,0.100599495373611,1
826,258,58,0.111246757303526,1
826,259,58,0.101953986284572,1
827,258,58,0.120270701973488,1
827,259,58,0.126987940321679,1
827,260,58,0.102710662905693,1
828,258,58,0.112221041768311,1
828,259,58,0.123314662841732,1
828,260,58,0.10499960287651,1
829,258,58,0.112528766731194,1
829,259,58,0.144777863552896,1
829,260,58,0.135428187924878,1
830,258,58,0.12627231911242,1
830,259,58,0.210396960351366,1
830,260,58,0.221010149230523,1
830,261,58,0.131241494491813,1
831,258,58,0.129517777197068,1
831,259,58,0.224537733918309,1
831,260,58,0.233553171218501,1
831,261,58,0.127611461900454,1
832,259,58,0.137263154601779,1
832,260,58,0.127577759208944,1
854,271,58,0.110907344839155,1
855,271,58,0.101763360201371,1
827,258,59,0.109750985232614,1
827,259,59,0.124630353175072,1
827,260,59,0.113727249255663,1
828,258,59,0.106875537821921,1
828,259,59,0.121433499295181,1
828,260,59,0.113005397296713,1
829,258,59,0.112061558540645,1
829,259,59,0.123932683496391,1
829,260,59,0.121455230668666,1
830,258,59,0.12004757141987,1
830,259,59,0.176577344248299,1
830,260,59,0.194834835136394,1
830,261,59,0.128532523562809,1
831,258,59,0.123666721985108,1
831,259,59,0.205082719082622,1
831,260,59,0.211102799719327,1
831,261,59,0.117781419435686,1
832,259,59,0.130727838894476,1
832,260,59,0.118827401093593,1
853,271,59,0.100274962636649,1
854,270,59,0.102830365193025,1
854,271,59,0.127842707678756,1
826,258,60,0.105608506157933,1
827,258,60,0.101330137918226,1
827,259,60,0.119997997745319,1
827,260,60,0.119938609550712,1
828,258,60,0.103088636303466,1
828,259,60,0.119084855235106,1
828,260,60,0.119080737711709,1
829,258,60,0.113846243503257,1
829,259,60,0.115976756859554,1
829,260,60,0.116604962393516,1
830,258,60,0.115466902890963,1
830,259,60,0.149550192992315,1
830,260,60,0.165292127621882,1
830,261,60,0.118175078636876,1
831,258,60,0.110303953374766,1
831,259,60,0.167897190996162,1
831,260,60,0.170544420860045,1
831,261,60,0.10106125710464,1
832,259,60,0.114490483414046,1
832,260,60,0.105554335671547,1
836,285,60,0.11600040538679,1
854,270,60,0.108603220139196,1
854,271,60,0.122227549521529,1
861,272,60,0.134226470203454,1
825,275,61,0.101417488236009,1
826,258,61,0.0997761323021268,1
826,275,61,0.102126595479682,1
827,259,61,0.110501398425287,1
827,260,61,0.110635370436562,1
828,258,61,0.100215356583662,1
828,259,61,0.111198076848335,1
828,260,61,0.110786782011219,1
829,258,61,0.112908864248179,1
829,259,61,0.113134249636038,1
829,260,61,0.11148989814942,1
830,258,61,0.109663830987374,1
830,259,61,0.129772715074283,1
830,260,61,0.13795831890908,1
830,261,61,0.101631446951795,1
831,259,61,0.128944951263506,1
831,260,61,0.130546776794192,1
835,285,61,0.107714336159686,1
835,286,61,0.111998532111079,1
836,285,61,0.121602404897817,1
836,286,61,0.110151267328581,1
854,271,61,0.101069426793921,1
825,274,62,0.102722688688314,1
825,275,62,0.115631658291444,1
826,275,62,0.114007338882941,1
829,258,62,0.100377900721578,1
829,259,62,0.105040821682158,1
829,260,62,0.101760724114963,1
830,259,62,0.10362478577862,1
830,260,62,0.104241586426347,1
833,287,62,0.104947371329713,1
833,288,62,0.102804853976633,1
834,286,62,0.112408334618286,1
834,287,62,0.107407700488707,1
835,285,62,0.112681006167698,1
835,286,62,0.125869782182212,1
835,287,62,0.103220887233532,1
836,285,62,0.111692103405561,1
836,286,62,0.108323163190675,1
825,275,63,0.112255561428749,1
826,275,63,0.113070264629597,1
833,287,63,0.102056466866902,1
834,285,63,0.101757608740117,1
834,286,63,0.125305496297178,1
834,287,63,0.117733043982229,1
835,285,63,0.111523154231249,1
835,286,63,0.132793637418756,1
835,287,63,0.116173069046495,1
836,260,63,0.1072793165449,1
836,261,63,0.101704974155316,1
836,286,63,0.100630649122066,1
825,274,64,0.102330728782494,1
825,275,64,0.112364850085478,1
826,274,64,0.106001784106957,1
826,275,64,0.122340726950356,1
833,286,64,0.0999724771678247,1
834,285,64,0.117472790360522,1
834,286,64,0.148747744325387,1
834,287,64,0.135971777263736,1
835,260,64,0.112951161452812,1
835,261,64,0.109588157878803,1
835,285,64,0.118254978198035,1
835,286,64,0.151360726851809,1
835,287,64,0.135929981133379,1
836,259,64,0.104324546897757,1
836,260,64,0.152740543799538,1
836,261,64,0.151449896287071,1
836,286,64,0.102593346167632,1
837,260,64,0.128923165425426,1
837,261,64,0.134242025291843,1
862,270,64,0.117667784504259,1
862,271,64,0.129018532931622,1
825,275,65,0.102001261553207,1
826,274,65,0.111342331775184,1
826,275,65,0.12115298484406,1
834,285,65,0.129189519081794,1
834,286,65,0.172789288080426,1
835,260,65,0.135806324716436,1
835,261,65,0.143578487809066,1
835,285,65,0.125350767268708,1
835,286,65,0.174110435766205,1
836,259,65,0.11910898305078,1
836,260,65,0.19381037788651,1
836,261,65,0.205795268488711,1
836,262,65,0.106481127009317,1
836,286,65,0.106998399055775,1
837,260,65,0.152636538208543,1
837,261,65,0.167147747273283,1
838,261,65,0.111372984449362,1
839,262,65,0.110999727685534,1
840,262,65,0.0999008780109741,1
843,265,65,0.118743776154122,1
843,266,65,0.107751633514479,1
844,265,65,0.122005660760682,1
844,266,65,0.11371616026408,1
846,266,65,0.10507393615604,1
847,266,65,0.113006867840783,1
847,267,65,0.105655901248677,1
862,270,65,0.15313634890578,1
862,271,65,0.156389747928407,1
863,270,65,0.172134754361144,1
863,271,65,0.187782367204743,1
825,260,66,0.106602986094619,1
826,275,66,0.104486633533073,1
834,261,66,0.105485459744456,1
834,285,66,0.125942285451343,1
834,286,66,0.170801493749392,1
835,259,66,0.103819507599381,1
835,260,66,0.145071198969727,1
835,261,66,0.172656122145161,1
835,262,66,0.110201973866713,1
835,285,66,0.122706718137184,1
835,286,66,0.175784775458941,1
835,287,66,0.156971887307749,1
836,259,66,0.117321291642513,1
836,260,66,0.199630420957963,1
836,261,66,0.232369089133004,1
836,262,66,0.126820450798519,1
836,286,66,0.106455637578763,1
836,287,66,0.10474018800957,1
837,260,66,0.149389958153235,1
837,261,66,0.172716251058262,1
837,262,66,0.103304218064189,1
838,261,66,0.110090179838604,1
839,262,66,0.1065607542475,1
840,263,66,0.103308564338886,1
843,264,66,0.106766325415625,1
843,265,66,0.149605823129852,1
843,266,66,0.131281885435613,1
844,264,66,0.101843041904149,1
844,265,66,0.143965654830509,1
844,266,66,0.126595599163693,1
845,265,66,0.107471413172172,1
845,266,66,0.102157008509642,1
846,265,66,0.10455442016826,1
846,266,66,0.120809378605859,1
847,265,66,0.100204060626617,1
847,266,66,0.135085845265285,1
847,267,66,0.118572321608431,1
848,266,66,0.107338465095288,1
848,267,66,0.111310676952453,1
862,269,66,0.108379751905089,1
862,270,66,0.172005106838729,1
862,271,66,0.173682147975386,1
863,270,66,0.189613009392785,1
863,271,66,0.198415838699153,1
825,260,67,0.107576377340043,1
834,259,67,0.102889056240813,1
834,260,67,0.104856023310643,1
834,261,67,0.129053880453907,1
834,262,67,0.102183663482533,1
834,285,67,0.119403658296653,1
834,286,67,0.154219094165447,1
834,287,67,0.130519511817834,1
835,259,67,0.116846501980311,1
835,260,67,0.163769569863051,1
835,261,67,0.223044358289587,1
835,262,67,0.153788791184606,1
835,285,67,0.120049238036484,1
835,286,67,0.166442005941594,1
835,287,67,0.148326831040758,1
836,259,67,0.115954023337517,1
836,260,67,0.191751093327816,1
836,261,67,0.246829134157012,1
836,262,67,0.147819656730251,1
836,286,67,0.109023523420359,1
836,287,67,0.106667265209874,1
837,260,67,0.139505538236618,1
837,261,67,0.16812881802663,1
837,262,67,0.107045761467761,1
838,261,67,0.110187671464013,1
840,263,67,0.104154748075759,1
841,263,67,0.103812067735677,1
842,264,67,0.10385696834796,1
842,265,67,0.104908952004258,1
843,264,67,0.122490384765048,1
843,265,67,0.165622248426311,1
843,266,67,0.145664111445999,1
844,264,67,0.115692854710612,1
844,265,67,0.160220210230104,1
844,266,67,0.136988206432287,1
845,265,67,0.125860490522271,1
845,266,67,0.112732126636754,1
846,265,67,0.118764973774574,1
846,266,67,0.130192473709493,1
847,265,67,0.11081979844883,1
847,266,67,0.147779026142231,1
847,267,67,0.120378846873718,1
848,266,67,0.131415312800935,1
848,267,67,0.133539432013756,1
849,266,67,0.121473835774387,1
849,267,67,0.134298363469119,1
850,266,67,0.106042011656972,1
850,267,67,0.112353074839996,1
861,270,67,0.1019897586307,1
861,271,67,0.110194141857923,1
862,270,67,0.17313944096297,1
862,271,67,0.184610741325349,1
862,272,67,0.14720596056445,1
863,271,67,0.202971148512535,1
863,272,67,0.181026371850607,1
834,259,68,0.123923816660292,1
834,260,68,0.127368909272188,1
834,261,68,0.147161419418495,1
834,262,68,0.112854748226388,1
834,285,68,0.110450670101318,1
834,286,68,0.129322652338303,1
835,258,68,0.121173975499051,1
835,259,68,0.133740188511665,1
835,260,68,0.182585780354551,1
835,261,68,0.246821661614551,1
835,262,68,0.172770007613725,1
835,285,68,0.11390339864946,1
835,286,68,0.144813363576048,1
835,287,68,0.134673918638864,1
836,259,68,0.112967032435854,1
836,260,68,0.172853599874439,1
836,261,68,0.228992589232304,1
836,262,68,0.150413848971328,1
836,286,68,0.107472600500348,1
836,287,68,0.106796422550933,1
837,260,68,0.124751667614422,1
837,261,68,0.150762226308069,1
837,262,68,0.106375563730899,1
838,261,68,0.104715145188697,1
840,263,68,0.100359317401696,1
841,263,68,0.115262769588151,1
842,263,68,0.114648430740127,1
842,264,68,0.118887105182852,1
842,265,68,0.107913295325953,1
843,263,68,0.100518288662167,1
843,264,68,0.130703613042531,1
843,265,68,0.157008138942314,1
843,266,68,0.139827293279225,1
844,264,68,0.124112405767634,1
844,265,68,0.161682377645776,1
844,266,68,0.139213313897529,1
845,264,68,0.105528203558769,1
845,265,68,0.14178171170632,1
845,266,68,0.12169122575967,1
846,265,68,0.123727036077833,1
846,266,68,0.1260460405052,1
847,265,68,0.110490843186737,1
847,266,68,0.141006255692774,1
847,267,68,0.111131847900572,1
848,266,68,0.148173208203536,1
848,267,68,0.148005784037889,1
849,266,68,0.148943729724757,1
849,267,68,0.168867597581769,1
850,266,68,0.122474884141254,1
850,267,68,0.140430107418904,1
858,268,68,0.102234576986127,1
858,269,68,0.103107589982596,1
861,270,68,0.108362911452253,1
861,271,68,0.12086315694716,1
861,272,68,0.102325990362711,1
862,271,68,0.186067560317773,1
862,272,68,0.151338494404048,1
862,273,68,0.103236485893598,1
834,259,69,0.146480219833403,1
834,260,69,0.152985285904531,1
834,261,69,0.153425653942566,1
834,262,69,0.110636557764737,1
835,259,69,0.150111755647589,1
835,260,69,0.191037389272308,1
835,261,69,0.231702965347863,1
835,262,69,0.163299082903871,1
835,283,69,0.100870718164791,1
835,286,69,0.110352209006114,1
836,259,69,0.109447606544428,1
836,260,69,0.150030843044959,1
836,261,69,0.19097926465631,1
836,262,69,0.138974824328065,1
837,260,69,0.108883342445232,1
837,261,69,0.129844978699195,1
837,262,69,0.100608013636301,1
838,261,69,0.100092713208189,1
841,262,69,0.102973563506726,1
841,263,69,0.126366771613417,1
841,264,69,0.102021827384354,1
842,263,69,0.136907892940205,1
842,264,69,0.129442594269853,1
842,265,69,0.105027706607634,1
843,263,69,0.117700136473808,1
843,264,69,0.134492028676733,1
843,265,69,0.138042052777742,1
843,266,69,0.120020241085999,1
844,264,69,0.131780269160455,1
844,265,69,0.157285799448646,1
844,266,69,0.136198491587718,1
845,264,69,0.121064893807783,1
845,265,69,0.155647036029496,1
845,266,69,0.131372982917546,1
846,265,69,0.122916188970325,1
846,266,69,0.118087586711146,1
847,265,69,0.100973678035558,1
847,266,69,0.125982709073901,1
847,267,69,0.102079603426943,1
848,266,69,0.156580766156695,1
848,267,69,0.155163063636544,1
849,266,69,0.166250769854926,1
849,267,69,0.190844933178707,1
849,268,69,0.119161759243529,1
850,266,69,0.130926743596149,1
850,267,69,0.162602960019694,1
850,268,69,0.11101826743374,1
851,267,69,0.105002391463784,1
861,270,69,0.111448635772096,1
861,271,69,0.124906532244415,1
861,272,69,0.112357366650098,1
862,271,69,0.169571868369388,1
862,272,69,0.145161904306574,1
834,260,70,0.1603083121593,1
834,261,70,0.143121126817329,1
834,262,70,0.101768763089214,1
835,260,70,0.179669593426648,1
835,261,70,0.186254134235092,1
835,262,70,0.135707199153171,1
836,260,70,0.134650259218709,1
836,261,70,0.152917521055183,1
836,262,70,0.122833882074058,1
837,261,70,0.114272036815615,1
841,262,70,0.108302924147099,1
841,263,70,0.127880941824587,1
841,264,70,0.102872945613553,1
842,263,70,0.1448005208245,1
842,264,70,0.131831258914482,1
843,263,70,0.128674632584607,1
843,264,70,0.137033292224194,1
843,265,70,0.123719280319476,1
844,264,70,0.137077049079979,1
844,265,70,0.148530975236489,1
844,266,70,0.125085383082134,1
845,264,70,0.129833432205012,1
845,265,70,0.155467063221115,1
845,266,70,0.130275357930469,1
846,265,70,0.12228541270747,1
846,266,70,0.112461187061469,1
847,266,70,0.112980910014711,1
848,266,70,0.144536171465234,1
848,267,70,0.144518307078009,1
849,266,70,0.156911791073404,1
849,267,70,0.179971708536225,1
849,268,70,0.126028982193984,1
850,266,70,0.12585380226998,1
850,267,70,0.160574121169717,1
850,268,70,0.125151002026432,1
851,267,70,0.112132504122353,1
851,268,70,0.101783751745814,1
861,271,70,0.120366418053093,1
861,272,70,0.112593808350782,1
