x,y,z,signal,mito.p
261,573,22,0.17049568594026,1
261,574,22,0.202863373971552,1
262,573,22,0.126498325396665,1
262,574,22,0.145436209793842,1
238,605,23,0.198003323855104,1
238,606,23,0.164537193867807,1
260,573,23,0.120918187974151,1
260,574,23,0.127904982496909,1
261,572,23,0.126543737976143,1
261,573,23,0.192272842363999,1
261,574,23,0.208892648231927,1
261,575,23,0.119460922372046,1
262,572,23,0.113219138154118,1
262,573,23,0.143013101739209,1
262,574,23,0.148646690715452,1
237,605,24,0.202082242747186,1
237,606,24,0.18443802320105,1
238,604,24,0.198693956708085,1
238,605,24,0.273863115273235,1
238,606,24,0.218682724576738,1
238,607,24,0.133586238886872,1
239,605,24,0.190517012743924,1
239,606,24,0.165517785332717,1
239,608,24,0.159821888859564,1
239,609,24,0.224196023048021,1
239,610,24,0.214851488877789,1
260,572,24,0.117698491643033,1
260,573,24,0.128401645140542,1
260,574,24,0.120221923482026,1
261,571,24,0.146363665599674,1
261,572,24,0.151789472145227,1
261,573,24,0.183879815564839,1
261,574,24,0.181711394850282,1
261,575,24,0.110541397224003,1
262,572,24,0.133160336645323,1
262,573,24,0.137794881551803,1
262,574,24,0.132179135176947,1
236,604,25,0.128951879160015,1
236,605,25,0.145645081516436,1
236,606,25,0.129570509818141,1
237,604,25,0.186579091795897,1
237,605,25,0.234042502927621,1
237,606,25,0.191403870640493,1
237,607,25,0.136927423944044,1
238,604,25,0.202985984668268,1
238,605,25,0.281500271527282,1
238,606,25,0.225799961805001,1
238,607,25,0.165184200580033,1
238,608,25,0.17978940464317,1
238,609,25,0.202248817265147,1
238,610,25,0.172634782916761,1
239,605,25,0.170821809043402,1
239,606,25,0.162070797352908,1
239,607,25,0.157994405618043,1
239,608,25,0.218077078278108,1
239,609,25,0.28496735694272,1
239,610,25,0.245447367376775,1
239,611,25,0.151164044305621,1
240,608,25,0.150819228953406,1
240,609,25,0.19596650049547,1
240,610,25,0.181530038641184,1
260,571,25,0.145152830505014,1
260,572,25,0.154291542969983,1
260,573,25,0.136581170726516,1
260,574,25,0.110103109733505,1
261,571,25,0.170334405380952,1
261,572,25,0.179715572437916,1
261,573,25,0.164902618622846,1
261,574,25,0.141537329067655,1
261,575,25,0.102520483432172,1
262,572,25,0.143996939293992,1
262,573,25,0.125332499843478,1
262,574,25,0.110545177066909,1
235,604,26,0.116914016292522,1
235,605,26,0.117888987011207,1
236,603,26,0.139065028590636,1
236,604,26,0.180378733349078,1
236,605,26,0.190255626258637,1
236,606,26,0.142805765918199,1
237,603,26,0.162533310695351,1
237,604,26,0.222037046494272,1
237,605,26,0.257206120979703,1
237,606,26,0.204311914345505,1
237,607,26,0.16760454183323,1
237,608,26,0.148109789628884,1
237,609,26,0.113710550410774,1
238,604,26,0.187615879830134,1
238,605,26,0.253474097987372,1
238,606,26,0.226314412585427,1
238,607,26,0.222871858023668,1
238,608,26,0.248124476517586,1
238,609,26,0.220091135436947,1
238,610,26,0.158435394552463,1
239,605,26,0.141459455589437,1
239,606,26,0.153869191820041,1
239,607,26,0.193155059877057,1
239,608,26,0.275384964992328,1
239,609,26,0.305498091105294,1
239,610,26,0.235783627106992,1
239,611,26,0.141935857403656,1
240,608,26,0.16260447413544,1
240,609,26,0.204234574620321,1
240,610,26,0.188902943572237,1
259,571,26,0.130079361638181,1
259,572,26,0.125785220451704,1
260,570,26,0.165669316729484,1
260,571,26,0.214093581356817,1
260,572,26,0.218593903714885,1
260,573,26,0.155322928116376,1
261,570,26,0.155180546771603,1
261,571,26,0.214883012985491,1
261,572,26,0.229239749565324,1
261,573,26,0.170354502816581,1
261,574,26,0.122992374046092,1
262,571,26,0.151222179814538,1
262,572,26,0.157278446728294,1
262,573,26,0.130474436918846,1
263,572,26,0.103864528033774,1
235,603,27,0.127898468531323,1
235,604,27,0.145117646376514,1
235,605,27,0.126837530895574,1
236,602,27,0.118290881259191,1
236,603,27,0.179756987316106,1
236,604,27,0.229314104630691,1
236,605,27,0.216934345713286,1
236,606,27,0.144777133727321,1
236,607,27,0.103800575706089,1
237,602,27,0.108651900594387,1
237,603,27,0.172063667171488,1
237,604,27,0.231076666074733,1
237,605,27,0.254373765956733,1
237,606,27,0.215052092874832,1
237,607,27,0.196620511354638,1
237,608,27,0.161362833865735,1
237,609,27,0.109735920325582,1
238,603,27,0.106683364944216,1
238,604,27,0.153399783259845,1
238,605,27,0.207328533986958,1
238,606,27,0.232825959943384,1
238,607,27,0.277201184955561,1
238,608,27,0.279129754485774,1
238,609,27,0.204518117302935,1
238,610,27,0.131152575593688,1
239,605,27,0.110528293042397,1
239,606,27,0.147358624824797,1
239,607,27,0.217463066217655,1
239,608,27,0.286033708359232,1
239,609,27,0.268117557982178,1
239,610,27,0.196207778652209,1
240,607,27,0.10991546831012,1
240,608,27,0.161320482196507,1
240,609,27,0.185994948119452,1
259,570,27,0.132841784120914,1
259,571,27,0.150349667892344,1
259,572,27,0.136620581307603,1
260,569,27,0.114230491222396,1
260,570,27,0.188335357132733,1
260,571,27,0.250595861989405,1
260,572,27,0.233872224817186,1
260,573,27,0.148056054859259,1
261,569,27,0.101350671070617,1
261,570,27,0.175225151743256,1
261,571,27,0.237842998809038,1
261,572,27,0.234419550427275,1
261,573,27,0.161168536868816,1
261,574,27,0.109797726748215,1
262,570,27,0.115625558256782,1
262,571,27,0.147822543353796,1
262,572,27,0.156655851047638,1
262,573,27,0.13789147995785,1
235,603,28,0.162050362236789,1
235,604,28,0.168105714145346,1
235,605,28,0.128194647000023,1
236,602,28,0.147341054546386,1
236,603,28,0.221835592849544,1
236,604,28,0.263345435508222,1
236,605,28,0.218326722196669,1
236,606,28,0.136104137122992,1
237,602,28,0.113244453297967,1
237,603,28,0.176024626643285,1
237,604,28,0.231042266236404,1
237,605,28,0.238910439517454,1
237,606,28,0.212465111746159,1
237,607,28,0.19837342167241,1
237,608,28,0.152782655824547,1
238,604,28,0.128782211053047,1
238,605,28,0.174389218243199,1
238,606,28,0.237597385270522,1
238,607,28,0.29513236756089,1
238,608,28,0.262546592397497,1
238,609,28,0.172477380236631,1
239,606,28,0.141677161469373,1
239,607,28,0.217604587021824,1
239,608,28,0.254108741236487,1
239,609,28,0.212097955016993,1
239,610,28,0.15413372635893,1
240,607,28,0.108127667972662,1
240,608,28,0.149075011185028,1
240,609,28,0.159355508530862,1
259,570,28,0.145660549461473,1
259,571,28,0.163526472588833,1
259,572,28,0.136050456817963,1
260,569,28,0.108204158050162,1
260,570,28,0.195577318284005,1
260,571,28,0.255449093138534,1
260,572,28,0.21432799697456,1
260,573,28,0.127428972827775,1
261,569,28,0.104618753748111,1
261,570,28,0.200298461896854,1
261,571,28,0.254414810475676,1
261,572,28,0.220373479898467,1
261,573,28,0.149788769705131,1
262,570,28,0.125272893790491,1
262,571,28,0.156811282109421,1
262,572,28,0.165869920726526,1
262,573,28,0.159020496805783,1
263,572,28,0.130039700519956,1
235,602,29,0.151952473785744,1
235,603,29,0.188041161175298,1
235,604,29,0.178000863587217,1
235,605,29,0.125449184792236,1
236,601,29,0.101684168679949,1
236,602,29,0.179744754568024,1
236,603,29,0.262729135934771,1
236,604,29,0.285230922011814,1
236,605,29,0.214497469008986,1
236,606,29,0.132034880250099,1
237,602,29,0.12222197234698,1
237,603,29,0.185427623110005,1
237,604,29,0.234651983533753,1
237,605,29,0.228251478592491,1
237,606,29,0.21158483317269,1
237,607,29,0.200225871484371,1
237,608,29,0.149930584618114,1
238,604,29,0.118255468379392,1
238,605,29,0.157118702070571,1
238,606,29,0.248922295693921,1
238,607,29,0.319058925662542,1
238,608,29,0.253577362859873,1
238,609,29,0.151542747528969,1
239,606,29,0.153403236315181,1
239,607,29,0.246186691577865,1
239,608,29,0.245514968832338,1
239,609,29,0.178578918121919,1
240,607,29,0.123586822423949,1
240,608,29,0.151971819609959,1
258,570,29,0.127262659739871,1
258,571,29,0.110821290778738,1
259,569,29,0.111315328228883,1
259,570,29,0.159411607063918,1
259,571,29,0.175210566124661,1
259,572,29,0.13987602819901,1
260,569,29,0.104987381021347,1
260,570,29,0.194745774630322,1
260,571,29,0.241380147479741,1
260,572,29,0.192410267430609,1
260,573,29,0.118846714239051,1
261,569,29,0.109566143289423,1
261,570,29,0.21812823142592,1
261,571,29,0.258346348173146,1
261,572,29,0.208896547896944,1
261,573,29,0.150320997729431,1
262,570,29,0.137943101501181,1
262,571,29,0.17184780219487,1
262,572,29,0.18510096625383,1
262,573,29,0.187620563785321,1
262,574,29,0.144098613800312,1
263,571,29,0.0998844405961426,1
263,572,29,0.142480481569823,1
263,573,29,0.181729368166698,1
265,576,29,0.109639931923,1
235,602,30,0.162269898127123,1
235,603,30,0.191519684155728,1
235,604,30,0.177698454368826,1
235,605,30,0.128231062028374,1
236,601,30,0.112899997412081,1
236,602,30,0.198964928962126,1
236,603,30,0.281254309415357,1
236,604,30,0.300145855334938,1
236,605,30,0.223848059642204,1
236,606,30,0.137998698959962,1
237,602,30,0.127087501601706,1
237,603,30,0.192281709200097,1
237,604,30,0.243786894369977,1
237,605,30,0.228798041698247,1
237,606,30,0.205863218517683,1
237,607,30,0.199199736724955,1
237,608,30,0.149193983646784,1
238,604,30,0.117897243843839,1
238,605,30,0.153518733935763,1
238,606,30,0.250135570802446,1
238,607,30,0.331772487191012,1
238,608,30,0.241130372846152,1
238,609,30,0.134505481431747,1
239,606,30,0.182342345399842,1
239,607,30,0.287659825099377,1
239,608,30,0.241801899519136,1
239,609,30,0.155030061095064,1
240,607,30,0.141225366759265,1
240,608,30,0.152071816606747,1
240,609,30,0.141766472512583,1
241,609,30,0.104451689048793,1
241,610,30,0.14287816025814,1
258,570,30,0.137450730667649,1
258,571,30,0.121614092999947,1
259,569,30,0.111644163668866,1
259,570,30,0.171334342670077,1
259,571,30,0.182883625439864,1
259,572,30,0.139741718507246,1
260,569,30,0.10663395466345,1
260,570,30,0.187492092698162,1
260,571,30,0.225969433839427,1
260,572,30,0.181004520655013,1
260,573,30,0.116589614270589,1
261,569,30,0.110050834615031,1
261,570,30,0.206584024756405,1
261,571,30,0.245149032110104,1
261,572,30,0.20672593770566,1
261,573,30,0.157719522806066,1
261,574,30,0.10312013862533,1
262,570,30,0.137823431892607,1
262,571,30,0.177585135332052,1
262,572,30,0.202722376027497,1
262,573,30,0.208916198722892,1
262,574,30,0.148824887978029,1
263,571,30,0.101410091943981,1
263,572,30,0.148071010837101,1
263,573,30,0.190584374555268,1
263,574,30,0.159022631817915,1
263,575,30,0.103933970392655,1
264,573,30,0.11191294644618,1
265,576,30,0.114573117097884,1
266,576,30,0.106144023843783,1
235,600,31,0.113830949844924,1
235,601,31,0.123375684974194,1
235,602,31,0.154202743893968,1
235,603,31,0.17136596481405,1
235,604,31,0.167299855994759,1
235,605,31,0.137507101523682,1
236,601,31,0.118631491944657,1
236,602,31,0.191400777051486,1
236,603,31,0.260195094392632,1
236,604,31,0.290727292886909,1
236,605,31,0.228712249067887,1
236,606,31,0.152685926703471,1
236,607,31,0.117518758478872,1
237,602,31,0.12402110132024,1
237,603,31,0.186137078927087,1
237,604,31,0.244510619911002,1
237,605,31,0.222140856012724,1
237,606,31,0.191099457124998,1
237,607,31,0.190945039104686,1
237,608,31,0.152542249101332,1
238,604,31,0.125026092923799,1
238,605,31,0.158304156663868,1
238,606,31,0.243480454771541,1
238,607,31,0.309456272882736,1
238,608,31,0.215773116971935,1
238,609,31,0.128184516585316,1
239,605,31,0.11859786550358,1
239,606,31,0.224268853104723,1
239,607,31,0.299072053161802,1
239,608,31,0.216392292276012,1
239,609,31,0.141063214766434,1
240,606,31,0.11748348720702,1
240,607,31,0.146576752881937,1
240,608,31,0.141601139787392,1
240,609,31,0.141291061953996,1
240,610,31,0.125728392093072,1
241,609,31,0.116392191005906,1
258,570,31,0.132524124815866,1
258,571,31,0.126029646662045,1
259,569,31,0.107519156836325,1
259,570,31,0.166245530360867,1
259,571,31,0.178104662212751,1
259,572,31,0.137851709910435,1
260,569,31,0.105393861188248,1
260,570,31,0.167262591318723,1
260,571,31,0.200979116835994,1
260,572,31,0.171604476169353,1
260,573,31,0.121133595448169,1
261,569,31,0.102319400146692,1
261,570,31,0.165294611207423,1
261,571,31,0.204134882625266,1
261,572,31,0.198850945457291,1
261,573,31,0.167302274222786,1
261,574,31,0.108203537153777,1
262,570,31,0.12040934704703,1
262,571,31,0.157563111381569,1
262,572,31,0.201297190071966,1
262,573,31,0.213690543352333,1
262,574,31,0.148952738168803,1
263,572,31,0.140479691986375,1
263,573,31,0.182123070939565,1
263,574,31,0.155182649104978,1
263,575,31,0.107194950886934,1
264,573,31,0.110953890282213,1
264,574,31,0.122676762609824,1
264,575,31,0.113057116876315,1
265,575,31,0.104987206734643,1
265,576,31,0.104527405729041,1
266,576,31,0.103018061081005,1
267,578,31,0.10559253713862,1
268,579,31,0.114498751139597,1
235,598,32,0.104864683181279,1
235,599,32,0.103942859014591,1
235,600,32,0.110306142851493,1
235,601,32,0.118166854483001,1
235,602,32,0.135682189011055,1
235,603,32,0.145040600760144,1
235,604,32,0.155153477867788,1
235,605,32,0.15207404965515,1
236,601,32,0.116052353717692,1
236,602,32,0.166392051014876,1
236,603,32,0.220084272897952,1
236,604,32,0.262942070716167,1
236,605,32,0.224131297323085,1
236,606,32,0.17613862104104,1
236,607,32,0.151082434556172,1
237,602,32,0.116617816037983,1
237,603,32,0.177584274791448,1
237,604,32,0.243126304187709,1
237,605,32,0.219447973925143,1
237,606,32,0.187345887938806,1
237,607,32,0.180434788310458,1
237,608,32,0.154197232076934,1
237,609,32,0.109201415681203,1
238,604,32,0.147985904460641,1
238,605,32,0.189202869205087,1
238,606,32,0.252171566300233,1
238,607,32,0.260360034972738,1
238,608,32,0.189109081172152,1
238,609,32,0.129152711908358,1
239,605,32,0.16893090722723,1
239,606,32,0.27256666183492,1
239,607,32,0.272871641782204,1
239,608,32,0.184075888107561,1
239,609,32,0.136105716596253,1
240,605,32,0.110704758330847,1
240,606,32,0.147356064988823,1
240,607,32,0.144938196428248,1
240,608,32,0.13127012108305,1
240,609,32,0.141446547480375,1
240,610,32,0.113925097344188,1
241,609,32,0.12228882219113,1
241,610,32,0.123253052491641,1
258,570,32,0.124700035178171,1
258,571,32,0.127798231890316,1
258,572,32,0.109023675921225,1
259,569,32,0.108331343772874,1
259,570,32,0.15211547542626,1
259,571,32,0.166367988556716,1
259,572,32,0.139786368582391,1
259,573,32,0.100685266218133,1
260,569,32,0.105803064584908,1
260,570,32,0.146955619499071,1
260,571,32,0.175321957114765,1
260,572,32,0.164303115930555,1
260,573,32,0.128630897514661,1
261,570,32,0.129497679761439,1
261,571,32,0.163906156174895,1
261,572,32,0.184613715092247,1
261,573,32,0.170959343039202,1
261,574,32,0.113936916161347,1
262,571,32,0.130630151196525,1
262,572,32,0.180570514081698,1
262,573,32,0.200007054526693,1
262,574,32,0.148185168628642,1
263,572,32,0.124465848311728,1
263,573,32,0.16197477627157,1
263,574,32,0.152005424265198,1
263,575,32,0.116229951869722,1
264,573,32,0.107921573944424,1
264,574,32,0.129311410845853,1
264,575,32,0.125841711129846,1
265,575,32,0.111205985107559,1
266,576,32,0.104583340868312,1
266,577,32,0.11528184308939,1
267,576,32,0.105818042348589,1
267,577,32,0.134328525961941,1
267,578,32,0.127817860930426,1
267,579,32,0.101752282102707,1
268,578,32,0.12267305901735,1
268,579,32,0.12906065584955,1
269,579,32,0.111547173117733,1
269,580,32,0.107693193003829,1
234,601,33,0.0998478730669249,1
235,598,33,0.105917527378182,1
235,600,33,0.11008477695076,1
235,601,33,0.114764298719957,1
235,602,33,0.116685395707708,1
235,603,33,0.12423592057663,1
235,604,33,0.144376426807511,1
235,605,33,0.163804677741117,1
235,606,33,0.180962267022056,1
235,607,33,0.156758832704243,1
236,601,33,0.107178306506641,1
236,602,33,0.136448723723907,1
236,603,33,0.176125691146139,1
236,604,33,0.213641024142376,1
236,605,33,0.205855179543432,1
236,606,33,0.199247730926246,1
236,607,33,0.181359913031615,1
236,608,33,0.126510460108475,1
237,602,33,0.109966207527009,1
237,603,33,0.165223959734529,1
237,604,33,0.220082355744201,1
237,605,33,0.213127074436226,1
237,606,33,0.191097082468648,1
237,607,33,0.168950884840749,1
237,608,33,0.144080074052106,1
237,609,33,0.103319326542898,1
238,603,33,0.108931151466899,1
238,604,33,0.169439595653484,1
238,605,33,0.228972459117917,1
238,606,33,0.258011173054282,1
238,607,33,0.20519848902618,1
238,608,33,0.16331792765381,1
238,609,33,0.128765239885182,1
239,604,33,0.113508813550151,1
239,605,33,0.208535229772383,1
239,606,33,0.277920487971456,1
239,607,33,0.216354777062838,1
239,608,33,0.155027784474985,1
239,609,33,0.133065110747074,1
240,605,33,0.12917776562215,1
240,606,33,0.159786051155922,1
240,607,33,0.140219525508021,1
240,608,33,0.125962023420644,1
240,609,33,0.132746972153589,1
241,608,33,0.100045100259065,1
241,609,33,0.116789161654484,1
257,572,33,0.105463957122271,1
258,570,33,0.105424655470374,1
258,571,33,0.119662408695531,1
258,572,33,0.122243409611651,1
259,570,33,0.122169414012612,1
259,571,33,0.139095986266548,1
259,572,33,0.139467009981973,1
259,573,33,0.117190119111432,1
260,570,33,0.121291651703441,1
260,571,33,0.139027709450005,1
260,572,33,0.148539373677069,1
260,573,33,0.135888304825132,1
261,571,33,0.123541061271061,1
261,572,33,0.152233728955359,1
261,573,33,0.157392985772001,1
261,574,33,0.115086685551868,1
262,571,33,0.102949087117643,1
262,572,33,0.138788490054965,1
262,573,33,0.16315293260911,1
262,574,33,0.140182979764641,1
263,572,33,0.105995008711314,1
263,573,33,0.13539093414176,1
263,574,33,0.146115176330531,1
263,575,33,0.130574760703206,1
264,573,33,0.105296260633648,1
264,574,33,0.12866914255341,1
264,575,33,0.136326004098001,1
264,576,33,0.105932341748076,1
265,574,33,0.108479171577168,1
265,575,33,0.115083700892051,1
265,576,33,0.103776066638249,1
266,575,33,0.102799353052518,1
266,576,33,0.108737333758418,1
266,577,33,0.127665915602736,1
266,578,33,0.111953021495329,1
267,576,33,0.12027566914457,1
267,577,33,0.153528112739057,1
267,578,33,0.143270632131155,1
267,579,33,0.106651350655157,1
268,578,33,0.124347638354305,1
268,579,33,0.1270955078972,1
268,580,33,0.109717435041971,1
269,579,33,0.111848166256649,1
269,580,33,0.129481536455422,1
269,581,33,0.119455606627555,1
270,580,33,0.108865728595144,1
270,581,33,0.124094388879541,1
270,582,33,0.119532423492626,1
271,582,33,0.106388417375367,1
271,583,33,0.106904425843216,1
271,603,33,0.104368107680998,1
271,604,33,0.104703718516624,1
272,602,33,0.102034463170441,1
272,603,33,0.121160914889122,1
273,592,33,0.103053615568752,1
234,601,34,0.105268625298044,1
235,598,34,0.103551432861804,1
235,600,34,0.105397564780721,1
235,601,34,0.106480244682875,1
235,603,34,0.10433335926926,1
235,604,34,0.127502968426815,1
235,605,34,0.158984855174684,1
235,606,34,0.189336786751766,1
235,607,34,0.167110035987566,1
236,602,34,0.116401166771195,1
236,603,34,0.142086931297823,1
236,604,34,0.163689049405507,1
236,605,34,0.184000356606937,1
236,606,34,0.219283447275961,1
236,607,34,0.206061970718489,1
236,608,34,0.129602426070929,1
237,602,34,0.115394563015617,1
237,603,34,0.162106504341522,1
237,604,34,0.187332141074977,1
237,605,34,0.198494550932136,1
237,606,34,0.194731090975456,1
237,607,34,0.166934137130907,1
237,608,34,0.130605043018137,1
238,603,34,0.128800304191572,1
238,604,34,0.183391082966267,1
238,605,34,0.252241455268794,1
238,606,34,0.238994489280768,1
238,607,34,0.163351815524944,1
238,608,34,0.13716191581222,1
238,609,34,0.118379440690988,1
239,604,34,0.13499658868667,1
239,605,34,0.233482454388093,1
239,606,34,0.239424280294414,1
239,607,34,0.161722006085244,1
239,608,34,0.126562136116402,1
239,609,34,0.117421484711843,1
240,605,34,0.141175433618385,1
240,606,34,0.152301330410922,1
240,607,34,0.136966115592474,1
240,608,34,0.116932675862838,1
240,609,34,0.108520216096111,1
241,607,34,0.120047059452676,1
241,608,34,0.108541718718296,1
251,572,34,0.101121102801847,1
251,573,34,0.12676006045536,1
252,572,34,0.110950742228611,1
252,573,34,0.128099551816803,1
253,572,34,0.101184869949908,1
253,573,34,0.100823475574914,1
254,572,34,0.109684810749446,1
254,573,34,0.100663360557943,1
255,572,34,0.110950927408234,1
255,573,34,0.100935171566751,1
256,572,34,0.117870272976296,1
256,573,34,0.10667117576781,1
257,572,34,0.125960759842035,1
257,573,34,0.111634980938115,1
258,571,34,0.105943321810469,1
258,572,34,0.12714680265296,1
258,573,34,0.114186886867479,1
259,570,34,0.100585704938107,1
259,571,34,0.114369267010967,1
259,572,34,0.131216473456777,1
259,573,34,0.127613477090476,1
260,571,34,0.111547489012385,1
260,572,34,0.129611761302546,1
260,573,34,0.136993347890074,1
260,574,34,0.101542843948323,1
261,572,34,0.119240863621598,1
261,573,34,0.135484754853453,1
261,574,34,0.112128397491875,1
262,572,34,0.105556361754488,1
262,573,34,0.127936321424987,1
262,574,34,0.126402740032088,1
262,575,34,0.10144981841972,1
263,573,34,0.117239692785983,1
263,574,34,0.133285561642608,1
263,575,34,0.131360292666864,1
264,574,34,0.123021185816953,1
264,575,34,0.133432311047916,1
264,576,34,0.11598111402717,1
265,575,34,0.112265735415132,1
265,576,34,0.104288436871139,1
266,576,34,0.104045742634925,1
266,577,34,0.124136457332874,1
266,578,34,0.117452573102784,1
267,577,34,0.156794583264533,1
267,578,34,0.150685191584618,1
267,579,34,0.112007529662206,1
268,578,34,0.126697959923913,1
268,579,34,0.121318568106389,1
268,580,34,0.111312779285828,1
269,579,34,0.104672858876983,1
269,580,34,0.129131002320711,1
269,581,34,0.132752821651113,1
269,582,34,0.106194490737696,1
270,580,34,0.107507926236795,1
270,581,34,0.132881946313415,1
270,582,34,0.139457184568999,1
270,583,34,0.111056185684919,1
271,582,34,0.113927297713834,1
271,583,34,0.119625220269928,1
271,584,34,0.106007600925725,1
271,602,34,0.10737452065731,1
271,603,34,0.109720702917683,1
272,583,34,0.101100994473299,1
272,584,34,0.105356923299783,1
272,585,34,0.109180141810318,1
272,601,34,0.10096594406304,1
272,602,34,0.115285960612788,1
273,592,34,0.109634093318395,1
273,593,34,0.100018859217097,1
274,593,34,0.126898073739598,1
235,604,35,0.10217541754282,1
235,605,35,0.131374627748321,1
235,606,35,0.164104864804025,1
235,607,35,0.152529057776374,1
236,602,35,0.101950598586751,1
236,603,35,0.115601114546456,1
236,604,35,0.121776549994511,1
236,605,35,0.159191297776332,1
236,606,35,0.225680553626483,1
236,607,35,0.221437413086952,1
236,608,35,0.132141053531983,1
237,602,35,0.122028328925204,1
237,603,35,0.160910853976004,1
237,604,35,0.15437940525496,1
237,605,35,0.181333573953376,1
237,606,35,0.209758264936368,1
237,607,35,0.190041493256147,1
237,608,35,0.127649499973742,1
238,603,35,0.146139685398371,1
238,604,35,0.182616934103005,1
238,605,35,0.255530223599545,1
238,606,35,0.220194247808581,1
238,607,35,0.149643556201407,1
238,608,35,0.115675023002143,1
239,604,35,0.158115066482251,1
239,605,35,0.264302530946762,1
239,606,35,0.214776022734679,1
239,607,35,0.136907359187172,1
239,608,35,0.10577978641692,1
240,605,35,0.154270388921207,1
240,606,35,0.148367494307535,1
240,607,35,0.140595396572419,1
240,608,35,0.112402561371195,1
241,607,35,0.136435031324674,1
241,608,35,0.11743185477077,1
250,573,35,0.101398469199365,1
251,572,35,0.100774119758743,1
251,573,35,0.148369858070967,1
251,574,35,0.102665217647458,1
252,572,35,0.1057527719777,1
252,573,35,0.139837510837284,1
253,573,35,0.11239479471992,1
254,572,35,0.105224476297174,1
254,573,35,0.113978472647485,1
255,572,35,0.110370628932211,1
255,573,35,0.117021725475991,1
256,572,35,0.126924979249627,1
256,573,35,0.132405697000062,1
257,572,35,0.131646482328805,1
257,573,35,0.13073403696541,1
258,572,35,0.12142783497728,1
258,573,35,0.119113830399753,1
259,572,35,0.11986793629198,1
259,573,35,0.12644561456143,1
259,574,35,0.104588623934046,1
260,573,35,0.127687679654978,1
260,574,35,0.108633981742566,1
261,573,35,0.112641279691959,1
261,574,35,0.104817298983455,1
262,574,35,0.106547345064162,1
263,574,35,0.116371189457996,1
263,575,35,0.119045564476128,1
264,574,35,0.126097302582203,1
264,575,35,0.129288415893759,1
264,576,35,0.11909298135271,1
265,575,35,0.120369990930539,1
265,576,35,0.107837872754519,1
266,577,35,0.118626296022274,1
266,578,35,0.120740513571688,1
267,578,35,0.156253793405868,1
267,579,35,0.120969362907801,1
268,579,35,0.119385663194398,1
268,580,35,0.105595935729361,1
269,580,35,0.116987129565119,1
269,581,35,0.127330174052081,1
269,582,35,0.108838746834682,1
270,581,35,0.127492162651127,1
270,582,35,0.137085665378939,1
270,583,35,0.111941692859527,1
271,583,35,0.12346674977737,1
271,584,35,0.113016540752891,1
271,585,35,0.103214264338756,1
271,602,35,0.119268880209369,1
272,584,35,0.120527872899106,1
272,585,35,0.118457510241748,1
272,586,35,0.109426670354033,1
235,605,36,0.103266920709396,1
235,606,36,0.132511881174865,1
236,603,36,0.0997462639181188,1
236,605,36,0.137020765367298,1
236,606,36,0.214112687536813,1
236,607,36,0.218598282668339,1
237,602,36,0.123019660808287,1
237,603,36,0.155054973200909,1
237,604,36,0.136041557303107,1
237,605,36,0.165419651025085,1
237,606,36,0.216546688510487,1
237,607,36,0.208867747019002,1
237,608,36,0.123949905201394,1
238,602,36,0.107688901193727,1
238,603,36,0.154984975303157,1
238,604,36,0.174790382665608,1
238,605,36,0.237800494638944,1
238,606,36,0.203232513211983,1
238,607,36,0.147295347858093,1
239,604,36,0.168366065803324,1
239,605,36,0.27933020598195,1
239,606,36,0.215923744256421,1
239,607,36,0.135356763054732,1
240,605,36,0.160071042596768,1
240,606,36,0.1565793391843,1
240,607,36,0.144086696946882,1
240,608,36,0.104784848977634,1
241,607,36,0.134331412585486,1
241,608,36,0.117366954759129,1
250,573,36,0.104610856381807,1
250,574,36,0.102791706223352,1
251,573,36,0.145467265506026,1
251,574,36,0.122370061581331,1
252,573,36,0.131123251855632,1
252,574,36,0.107298008793973,1
253,573,36,0.118377523537236,1
253,574,36,0.111974545903352,1
254,573,36,0.123035008931215,1
254,574,36,0.114088610951899,1
255,572,36,0.103703726762904,1
255,573,36,0.126209488755397,1
255,574,36,0.101513433066914,1
256,572,36,0.124476512479468,1
256,573,36,0.146778947245159,1
256,574,36,0.111019345832725,1
257,572,36,0.123792960023864,1
257,573,36,0.138844817339321,1
257,574,36,0.116232849386187,1
258,572,36,0.108069401748717,1
258,573,36,0.116881119677021,1
258,574,36,0.112916097146422,1
259,573,36,0.113975248343449,1
259,574,36,0.114212997194418,1
260,573,36,0.108990528768586,1
260,574,36,0.109521482321358,1
260,575,36,0.100129574846221,1
263,575,36,0.107332931492415,1
263,576,36,0.103131009758532,1
264,575,36,0.128659992501417,1
264,576,36,0.12101806514883,1
265,577,36,0.101269344537064,1
266,578,36,0.128211127986531,1
266,579,36,0.111366862628862,1
267,579,36,0.134696706625496,1
268,580,36,0.103130770114313,1
269,581,36,0.120914560632111,1
269,582,36,0.114744233963085,1
270,582,36,0.134670182367634,1
270,583,36,0.119546017855588,1
271,584,36,0.13186385052825,1
271,585,36,0.123965013680102,1
271,586,36,0.110986852255229,1
271,601,36,0.122017926187521,1
272,585,36,0.130236481102415,1
272,586,36,0.114307656660877,1
236,605,37,0.121178103915367,1
236,606,37,0.193292049226905,1
237,602,37,0.115500431295768,1
237,603,37,0.144842066417719,1
237,604,37,0.136396350569162,1
237,605,37,0.158330386812916,1
237,606,37,0.213577344137668,1
237,607,37,0.215644645884776,1
238,602,37,0.115319902948517,1
238,603,37,0.1637059225371,1
238,604,37,0.180081018978792,1
238,605,37,0.217185928571436,1
238,606,37,0.196958671133319,1
238,607,37,0.158250922968519,1
239,603,37,0.11815608138607,1
239,604,37,0.176019289112955,1
239,605,37,0.268797276130281,1
239,606,37,0.237500067931817,1
239,607,37,0.16315451208237,1
240,605,37,0.165254383657408,1
240,606,37,0.188476572935169,1
240,607,37,0.160679793377325,1
241,606,37,0.112936368868756,1
241,607,37,0.130971502600484,1
241,608,37,0.112227316089678,1
242,608,37,0.109000604718698,1
250,574,37,0.106071215572919,1
251,573,37,0.115662496145247,1
251,574,37,0.124923928236122,1
252,573,37,0.103855258159671,1
252,574,37,0.116593023754248,1
253,573,37,0.108083355578007,1
253,574,37,0.13819969510209,1
253,575,37,0.102541942482681,1
254,573,37,0.119313443141162,1
254,574,37,0.141165575526654,1
255,573,37,0.122257973444408,1
255,574,37,0.119156203854819,1
256,572,37,0.110967386608904,1
256,573,37,0.138990041735964,1
256,574,37,0.130728503362538,1
257,572,37,0.107166465903644,1
257,573,37,0.128902719416387,1
257,574,37,0.139543445594878,1
257,575,37,0.118535405505804,1
258,573,37,0.105609595449837,1
258,574,37,0.123086336365732,1
258,575,37,0.115080149800444,1
259,574,37,0.109421921041332,1
259,575,37,0.114511724606174,1
260,575,37,0.113531699573055,1
263,576,37,0.102458894867919,1
264,576,37,0.119912597260045,1
264,577,37,0.107036339092791,1
265,577,37,0.110015694058208,1
265,578,37,0.107356242339161,1
265,579,37,0.10084576248727,1
266,578,37,0.1360164382318,1
266,579,37,0.128224722349493,1
266,580,37,0.101133291978253,1
267,579,37,0.143366751248765,1
267,580,37,0.10504806547332,1
268,582,37,0.10175757606136,1
269,582,37,0.114176908953638,1
269,583,37,0.105291533106785,1
270,583,37,0.131461945387346,1
270,584,37,0.117626293375636,1
270,585,37,0.118397533829513,1
270,586,37,0.107674816649408,1
271,585,37,0.1440263501754,1
271,586,37,0.128062733750448,1
271,587,37,0.100885576106362,1
271,601,37,0.13029577126075,1
272,586,37,0.116188820207427,1
272,587,37,0.101264028792572,1
236,605,38,0.113981566236492,1
236,606,38,0.171750855215413,1
237,602,38,0.106793426998197,1
237,603,38,0.133260954538496,1
237,604,38,0.145927240798332,1
237,605,38,0.157792832151206,1
237,606,38,0.199166665822749,1
237,607,38,0.206148809069077,1
238,602,38,0.1269917855221,1
238,603,38,0.179806408489791,1
238,604,38,0.205783329849443,1
238,605,38,0.203659167064946,1
238,606,38,0.201084865294036,1
238,607,38,0.178254069490305,1
238,608,38,0.107436446902053,1
239,602,38,0.109351966715256,1
239,603,38,0.161877382682432,1
239,604,38,0.201897215624371,1
239,605,38,0.240217066942153,1
239,606,38,0.263904961187636,1
239,607,38,0.207614494897599,1
239,608,38,0.104461383746738,1
240,603,38,0.101482813071493,1
240,604,38,0.130330247349512,1
240,605,38,0.177803320500425,1
240,606,38,0.236479880706197,1
240,607,38,0.192581983406357,1
240,608,38,0.100616934936995,1
241,606,38,0.138684266605589,1
241,607,38,0.134620423513458,1
241,608,38,0.102427218259351,1
242,607,38,0.108557655058852,1
242,608,38,0.112685907981266,1
250,575,38,0.101226088755555,1
251,574,38,0.115865420334045,1
251,575,38,0.113432290793895,1
252,574,38,0.122461115491587,1
252,575,38,0.113143247187165,1
253,573,38,0.10145344576176,1
253,574,38,0.153693902966847,1
253,575,38,0.127161355592798,1
254,573,38,0.117028794980448,1
254,574,38,0.157528286719398,1
254,575,38,0.118994563829182,1
255,573,38,0.119664837816477,1
255,574,38,0.133254560395019,1
255,575,38,0.107442644972987,1
256,563,38,0.107678814350696,1
256,564,38,0.126529784146852,1
256,573,38,0.127921910093097,1
256,574,38,0.14355211605207,1
256,575,38,0.13046316274764,1
257,564,38,0.111018670471745,1
257,573,38,0.122268038501601,1
257,574,38,0.156929328673059,1
257,575,38,0.150613723142795,1
258,573,38,0.102250633148792,1
258,574,38,0.132207336944342,1
258,575,38,0.134911416952696,1
259,574,38,0.107477774636892,1
259,575,38,0.127422600470137,1
259,576,38,0.111331210104844,1
260,575,38,0.121476112394466,1
260,576,38,0.118759015347859,1
261,576,38,0.10220912023433,1
263,577,38,0.102936494903233,1
263,578,38,0.108309318290575,1
264,577,38,0.107620515447993,1
264,578,38,0.116862253141243,1
264,579,38,0.108937807040432,1
265,578,38,0.116444095765132,1
265,579,38,0.121880915051835,1
265,580,38,0.115157827206119,1
266,579,38,0.133385809176534,1
266,580,38,0.119956844297185,1
266,581,38,0.104397376954459,1
267,580,38,0.106272113678775,1
267,581,38,0.103704293194694,1
267,582,38,0.11542642480381,1
268,582,38,0.109730256007681,1
268,583,38,0.103949394766015,1
269,583,38,0.115425771228667,1
269,584,38,0.103599067596767,1
270,585,38,0.13614581343124,1
270,586,38,0.120833691601157,1
270,601,38,0.109137768355252,1
271,586,38,0.131622507013997,1
271,587,38,0.107413778737531,1
271,588,38,0.10271320095583,1
236,605,39,0.113471919233362,1
237,602,39,0.102303888629979,1
237,603,39,0.130774939876406,1
237,604,39,0.161290363275361,1
237,605,39,0.161990897791749,1
237,606,39,0.177068810969551,1
238,602,39,0.133715189262468,1
238,603,39,0.195606598450385,1
238,604,39,0.227635309734068,1
238,605,39,0.195847702320419,1
238,606,39,0.196041334849276,1
238,607,39,0.192726989944619,1
239,602,39,0.141754762624614,1
239,603,39,0.213115092225282,1
239,604,39,0.237353471027376,1
239,605,39,0.223922022562486,1
239,606,39,0.266066704542821,1
239,607,39,0.243272530732903,1
239,608,39,0.117733969880347,1
240,603,39,0.155786737716185,1
240,604,39,0.193580275864706,1
240,605,39,0.218560484239269,1
240,606,39,0.272254819348639,1
240,607,39,0.227664589900448,1
240,608,39,0.108625474372795,1
241,604,39,0.11476108530884,1
241,605,39,0.149386450633304,1
241,606,39,0.177138928689412,1
241,607,39,0.152962977206337,1
242,606,39,0.110833795849796,1
242,607,39,0.125290398711388,1
242,608,39,0.107855421247093,1
246,577,39,0.108189071357291,1
251,575,39,0.1231604626798,1
251,576,39,0.102197301417171,1
252,574,39,0.117739634198248,1
252,575,39,0.13827719822106,1
252,576,39,0.107613554872727,1
253,574,39,0.145039827362892,1
253,575,39,0.149341059839664,1
253,576,39,0.109448488870871,1
254,573,39,0.10888665389262,1
254,574,39,0.150004090035797,1
254,575,39,0.139322951127668,1
254,576,39,0.108402245782906,1
255,564,39,0.123192270003397,1
255,573,39,0.115027842003213,1
255,574,39,0.137217251840944,1
255,575,39,0.138934651242645,1
255,576,39,0.124727049617391,1
256,563,39,0.133542220601031,1
256,564,39,0.187037531186619,1
256,565,39,0.128582184380713,1
256,573,39,0.118507791956037,1
256,574,39,0.143376032015787,1
256,575,39,0.156863698835842,1
256,576,39,0.127767056356023,1
257,563,39,0.102390421978833,1
257,564,39,0.136381590663863,1
257,565,39,0.112879791047261,1
257,573,39,0.118058056007628,1
257,574,39,0.154584682314271,1
257,575,39,0.1667508310893,1
257,576,39,0.122568606816675,1
258,564,39,0.099827263664101,1
258,565,39,0.105026965889139,1
258,574,39,0.136900943257857,1
258,575,39,0.152833972366145,1
258,576,39,0.13033458273129,1
259,564,39,0.103838875209434,1
259,574,39,0.113128857641113,1
259,575,39,0.140570517145331,1
259,576,39,0.138395419071403,1
259,577,39,0.106174306158714,1
260,575,39,0.124050239878672,1
260,576,39,0.127806641223815,1
261,576,39,0.101663178024959,1
263,578,39,0.122268397967929,1
263,579,39,0.113286456393786,1
264,578,39,0.125349710655561,1
264,579,39,0.129435350478691,1
264,580,39,0.108910117240232,1
265,579,39,0.130465962227833,1
265,580,39,0.142272699139133,1
265,581,39,0.120839148953596,1
266,580,39,0.12399988191395,1
266,581,39,0.12547455440068,1
266,582,39,0.136082906823783,1
266,583,39,0.114458632518772,1
267,581,39,0.106475473584335,1
267,582,39,0.133792942918577,1
267,583,39,0.120683903071436,1
268,582,39,0.109558507353176,1
268,583,39,0.114437587399187,1
268,584,39,0.104333283018827,1
269,583,39,0.125744785936227,1
269,585,39,0.123204099713475,1
270,586,39,0.124298249859377,1
270,587,39,0.0998967495946579,1
270,601,39,0.10837235561306,1
271,587,39,0.110331436209505,1
237,603,40,0.130470471896316,1
237,604,40,0.169260200169812,1
237,605,40,0.158682304348345,1
238,601,40,0.101282960685864,1
238,602,40,0.135950775715827,1
238,603,40,0.201509471278219,1
238,604,40,0.229571351806743,1
238,605,40,0.182478942604605,1
238,606,40,0.177986593863275,1
238,607,40,0.190564048368339,1
239,602,40,0.162687162283874,1
239,603,40,0.255738278353211,1
239,604,40,0.270374004375498,1
239,605,40,0.219262402156376,1
239,606,40,0.234730870053441,1
239,607,40,0.235463571359755,1
239,608,40,0.122247363741263,1
240,602,40,0.124049793268991,1
240,603,40,0.210823527060977,1
240,604,40,0.265309472382829,1
240,605,40,0.26695515280557,1
240,606,40,0.268233959715041,1
240,607,40,0.226296199624792,1
240,608,40,0.111538524140015,1
241,603,40,0.105973342695343,1
241,604,40,0.166192492738061,1
241,605,40,0.209003799577813,1
241,606,40,0.200134392750272,1
241,607,40,0.157811687794065,1
242,605,40,0.113622143479845,1
242,606,40,0.125879847239405,1
242,607,40,0.121114663554877,1
246,577,40,0.105817465023879,1
246,578,40,0.105031791452274,1
251,575,40,0.123551442222906,1
251,576,40,0.126245141279415,1
252,574,40,0.105818957353788,1
252,575,40,0.157828038065544,1
252,576,40,0.154045428357191,1
252,577,40,0.104276127872623,1
253,574,40,0.123246222631403,1
253,575,40,0.160829200654879,1
253,576,40,0.147292112661139,1
254,574,40,0.130730104621637,1
254,575,40,0.148217618634462,1
254,576,40,0.142734112296753,1
254,577,40,0.100721201958046,1
255,564,40,0.14901699549822,1
255,565,40,0.107026677073603,1
255,573,40,0.113700430888986,1
255,574,40,0.136334195573119,1
255,575,40,0.16246671138834,1
255,576,40,0.17423464772202,1
255,577,40,0.12112813809573,1
256,563,40,0.136946170657712,1
256,564,40,0.230747460275503,1
256,565,40,0.168089745126034,1
256,566,40,0.10380919200505,1
256,573,40,0.118594641199544,1
256,574,40,0.141342345816837,1
256,575,40,0.168436455846161,1
256,576,40,0.161996954254735,1
256,577,40,0.105678928879527,1
257,564,40,0.151522464913716,1
257,565,40,0.141016375214562,1
257,566,40,0.120782908812592,1
257,574,40,0.152579818779101,1
257,575,40,0.170999450767108,1
257,576,40,0.14884212057595,1
257,577,40,0.105902887294992,1
258,564,40,0.105840002473373,1
258,565,40,0.134106048983466,1
258,574,40,0.155517551900866,1
258,575,40,0.176813382910979,1
258,576,40,0.172814134828756,1
258,577,40,0.144497664996428,1
259,575,40,0.15391867835124,1
259,576,40,0.161512099535341,1
259,577,40,0.146342369942951,1
260,575,40,0.122619912465354,1
260,576,40,0.12697953098818,1
260,577,40,0.120054542888056,1
261,577,40,0.0999103330647009,1
262,578,40,0.103782515246321,1
262,579,40,0.102815888503621,1
263,578,40,0.128996474770566,1
263,579,40,0.139482543284524,1
264,579,40,0.148481761028266,1
264,580,40,0.132097612570851,1
264,581,40,0.110885036140961,1
265,580,40,0.155393416195485,1
265,581,40,0.160929992834757,1
265,582,40,0.144190016283978,1
265,583,40,0.10921801648982,1
266,581,40,0.142899412343187,1
266,582,40,0.170840795401289,1
266,583,40,0.153146294140863,1
267,582,40,0.136142414840499,1
267,583,40,0.136481358909351,1
268,583,40,0.115971288614196,1
268,584,40,0.12127770876707,1
268,585,40,0.12077702663631,1
269,586,40,0.111575636315185,1
269,601,40,0.106376663915722,1
270,587,40,0.106701120402251,1
270,600,40,0.109713818592849,1
270,601,40,0.112115816170383,1
270,602,40,0.103938817741627,1
271,595,40,0.107984360729771,1
238,601,41,0.100177797798812,1
238,602,41,0.127184306973215,1
238,603,41,0.190422549350008,1
238,604,41,0.216303972488435,1
238,605,41,0.171971741827709,1
239,602,41,0.159363765363494,1
239,603,41,0.264547338409269,1
239,604,41,0.274056181370302,1
239,605,41,0.209087958270316,1
239,606,41,0.191193768018048,1
239,607,41,0.19832825963007,1
240,602,41,0.128595190526047,1
240,603,41,0.228189062166391,1
240,604,41,0.2853890436246,1
240,605,41,0.273220454835707,1
240,606,41,0.225556788280349,1
240,607,41,0.18699019056047,1
241,603,41,0.115908785044744,1
241,604,41,0.17883389957081,1
241,605,41,0.224443575526127,1
241,606,41,0.190216520679283,1
241,607,41,0.14463222522533,1
242,605,41,0.121071429559207,1
242,606,41,0.12148310564849,1
242,607,41,0.106454003640907,1
245,578,41,0.106127216069704,1
245,579,41,0.109863193191646,1
246,578,41,0.110804036394979,1
246,579,41,0.116835031736562,1
251,575,41,0.117293667199827,1
251,576,41,0.140256746612381,1
251,577,41,0.119197063194138,1
252,575,41,0.163192800692796,1
252,576,41,0.188171200842799,1
252,577,41,0.15239565219689,1
253,574,41,0.108574364796659,1
253,575,41,0.163222168002529,1
253,576,41,0.172256994698612,1
253,577,41,0.135559033668387,1
254,574,41,0.122256851473747,1
254,575,41,0.159737359807813,1
254,576,41,0.168888392164216,1
254,577,41,0.131930373584828,1
255,564,41,0.148280547027757,1
255,565,41,0.116666757923231,1
255,574,41,0.147333843433981,1
255,575,41,0.195194933254022,1
255,576,41,0.213824330183983,1
255,577,41,0.154206654451903,1
256,563,41,0.122436148921147,1
256,564,41,0.230451848238592,1
256,565,41,0.191705626283742,1
256,566,41,0.12200557361733,1
256,574,41,0.151194272155957,1
256,575,41,0.185977366948121,1
256,576,41,0.188173009067359,1
256,577,41,0.131681818958171,1
257,564,41,0.151243192255366,1
257,565,41,0.164776674692904,1
257,566,41,0.143041510472065,1
257,574,41,0.163056519382686,1
257,575,41,0.178128452347934,1
257,576,41,0.174853409095174,1
257,577,41,0.136734695527467,1
258,564,41,0.112675222027688,1
258,565,41,0.166773564611337,1
258,566,41,0.162331127225048,1
258,570,41,0.150119304440484,1
258,571,41,0.157235964344038,1
258,574,41,0.186912567619391,1
258,575,41,0.2000875531984,1
258,576,41,0.214846608850059,1
258,577,41,0.19151057767541,1
258,578,41,0.115001698997517,1
259,565,41,0.172990523866773,1
259,566,41,0.155135842231862,1
259,575,41,0.165830706217982,1
259,576,41,0.184737752761357,1
259,577,41,0.189634751659189,1
259,578,41,0.135876987082249,1
260,576,41,0.125799424818132,1
260,577,41,0.143379082033118,1
260,578,41,0.132305547502407,1
261,577,41,0.108615387529764,1
261,578,41,0.122628561443071,1
261,579,41,0.11448237908228,1
262,578,41,0.124106599841785,1
262,579,41,0.147812815977094,1
262,580,41,0.111078625098142,1
263,578,41,0.12690169018872,1
263,579,41,0.160702483327685,1
263,580,41,0.127156540922582,1
264,579,41,0.156062786070499,1
264,580,41,0.144464114805784,1
264,581,41,0.140559242974125,1
264,582,41,0.113774655239325,1
265,580,41,0.149221618982389,1
265,581,41,0.188780158588817,1
265,582,41,0.188794057953512,1
265,583,41,0.135142597373484,1
266,581,41,0.152286341754323,1
266,582,41,0.191373021893772,1
266,583,41,0.174214604750986,1
266,584,41,0.112846731037975,1
267,582,41,0.1293394710053,1
267,583,41,0.142880839916224,1
267,584,41,0.127884166128623,1
267,585,41,0.109055526816499,1
268,583,41,0.112748945303752,1
269,600,41,0.107055510630302,1
269,601,41,0.110043492787598,1
269,602,41,0.107849375677026,1
270,595,41,0.110302766046591,1
270,596,41,0.123117522792944,1
270,597,41,0.124710884525535,1
238,603,42,0.16505441144967,1
238,604,42,0.19114074128816,1
239,602,42,0.144071610254012,1
239,603,42,0.243665525466032,1
239,604,42,0.253192559601862,1
239,605,42,0.194158145219784,1
240,602,42,0.12271368960537,1
240,603,42,0.220050504848928,1
240,604,42,0.274153956211606,1
240,605,42,0.254037392616774,1
240,606,42,0.18142919199671,1
241,603,42,0.124128418358623,1
241,604,42,0.179716934052796,1
241,605,42,0.21128660683521,1
241,606,42,0.164851007972434,1
242,605,42,0.117102670757378,1
242,606,42,0.107768038250553,1
245,578,42,0.109624975945158,1
245,579,42,0.114030192227087,1
245,580,42,0.101753850683049,1
246,578,42,0.109531089875952,1
246,579,42,0.125269647700617,1
246,580,42,0.110095419332663,1
247,578,42,0.100341137119818,1
247,579,42,0.111771719750826,1
251,575,42,0.10544138699402,1
251,576,42,0.143402904847059,1
251,577,42,0.141167122321158,1
252,575,42,0.150380004671871,1
252,576,42,0.198214820771186,1
252,577,42,0.186902415418845,1
252,578,42,0.111357897756492,1
253,574,42,0.102286024242753,1
253,575,42,0.153486556252919,1
253,576,42,0.1786894376785,1
253,577,42,0.162219823378296,1
253,578,42,0.100038259505908,1
254,574,42,0.122155765185055,1
254,575,42,0.171312186472749,1
254,576,42,0.18398262293474,1
254,577,42,0.152392569500802,1
255,564,42,0.154933778583668,1
255,565,42,0.140139952734433,1
255,574,42,0.158849543334368,1
255,575,42,0.226657583106866,1
255,576,42,0.231070326395852,1
255,577,42,0.167968517830036,1
256,563,42,0.114266176425172,1
256,564,42,0.215675494631497,1
256,565,42,0.220565718133687,1
256,566,42,0.14481810199583,1
256,570,42,0.190605485032368,1
256,574,42,0.16310618020059,1
256,575,42,0.207113398835916,1
256,576,42,0.199112920160205,1
256,577,42,0.146895904516893,1
257,564,42,0.147750573837699,1
257,565,42,0.193168327452448,1
257,566,42,0.165208186787759,1
257,570,42,0.178665288076988,1
257,571,42,0.184859110772383,1
257,572,42,0.152414398910558,1
257,574,42,0.174435349755334,1
257,575,42,0.184724506971804,1
257,576,42,0.187128900991527,1
257,577,42,0.154689090943271,1
257,578,42,0.104165325100147,1
258,564,42,0.113961675766325,1
258,565,42,0.19252191985077,1
258,566,42,0.187021714668172,1
258,567,42,0.138976490944678,1
258,569,42,0.131578009439719,1
258,570,42,0.172308681599457,1
258,571,42,0.191556110076998,1
258,572,42,0.158068292287892,1
258,573,42,0.171279790931524,1
258,574,42,0.210897555338773,1
258,575,42,0.206984753462053,1
258,576,42,0.22958204865324,1
258,577,42,0.208480808748859,1
258,578,42,0.133798215091392,1
259,564,42,0.126652416629406,1
259,565,42,0.210670372619273,1
259,566,42,0.194067646848399,1
259,567,42,0.141768977883962,1
259,570,42,0.16423168016749,1
259,571,42,0.163988430392405,1
259,572,42,0.140513067890314,1
259,573,42,0.161328129025673,1
259,574,42,0.188484568337745,1
259,575,42,0.171183061810448,1
259,576,42,0.194577152243581,1
259,577,42,0.210371449134974,1
259,578,42,0.165478930290501,1
260,565,42,0.143223803472201,1
260,566,42,0.133863158674709,1
260,576,42,0.129485011296595,1
260,577,42,0.16464553484058,1
260,578,42,0.166719993235497,1
260,579,42,0.118869600261954,1
261,577,42,0.119485888942486,1
261,578,42,0.148932891270312,1
261,579,42,0.154282785063075,1
261,580,42,0.104903886796905,1
262,578,42,0.146083684901586,1
262,579,42,0.208800145563439,1
262,580,42,0.161448125421819,1
263,579,42,0.182779336632974,1
263,580,42,0.156721513563612,1
263,581,42,0.109480601196201,1
264,580,42,0.145158527501672,1
264,581,42,0.154794665114607,1
264,582,42,0.137213384854685,1
265,581,42,0.190596443909564,1
265,582,42,0.209624042387956,1
265,583,42,0.146646358634603,1
266,582,42,0.188969107162487,1
266,583,42,0.172845963938192,1
266,584,42,0.140395348114247,1
266,585,42,0.111809594430328,1
267,583,42,0.138521668003077,1
267,584,42,0.15231144993271,1
267,585,42,0.138717500901581,1
268,586,42,0.102560405980454,1
268,599,42,0.104979984729319,1
268,600,42,0.121287948110967,1
268,601,42,0.111600167168863,1
269,587,42,0.106745291188959,1
269,596,42,0.113575565358029,1
269,597,42,0.12190014105394,1
238,604,43,0.165006852965141,1
239,603,43,0.203131906211729,1
239,604,43,0.22670793017867,1
239,605,43,0.184246721756867,1
240,603,43,0.194341778048962,1
240,604,43,0.251689314988489,1
240,605,43,0.226418265675555,1
240,606,43,0.153405000968066,1
241,604,43,0.181230821048071,1
241,605,43,0.184477488246732,1
245,578,43,0.105944029850206,1
245,579,43,0.114029898118273,1
245,580,43,0.102895940565647,1
246,578,43,0.105421017235415,1
246,579,43,0.125062802060964,1
246,580,43,0.115033430070681,1
247,578,43,0.101552462395835,1
247,579,43,0.118287929278132,1
247,580,43,0.107113243101214,1
251,576,43,0.134813576753878,1
251,577,43,0.146378959258006,1
251,578,43,0.109174161597765,1
252,575,43,0.123548969530284,1
252,576,43,0.181648967531263,1
252,577,43,0.191695278010654,1
252,578,43,0.126569674016377,1
253,575,43,0.133183189989469,1
253,576,43,0.17131933222764,1
253,577,43,0.171519064791159,1
253,578,43,0.117001453753657,1
254,564,43,0.127655730723433,1
254,575,43,0.169576552324575,1
254,576,43,0.183941491272444,1
254,577,43,0.157946836240595,1
254,578,43,0.110953607066318,1
255,563,43,0.135394899164291,1
255,564,43,0.185553697754975,1
255,565,43,0.175757575840098,1
255,566,43,0.126695563481724,1
255,570,43,0.218527957983016,1
255,574,43,0.168593499059962,1
255,575,43,0.240878833559678,1
255,576,43,0.22290882859089,1
255,577,43,0.161810380337417,1
255,578,43,0.112042441467729,1
256,563,43,0.118349430699032,1
256,564,43,0.206675634205532,1
256,565,43,0.24728376102607,1
256,566,43,0.186491077010053,1
256,567,43,0.153486273037024,1
256,569,43,0.181627541159512,1
256,570,43,0.227024892336899,1
256,571,43,0.182122025219337,1
256,572,43,0.159154229172839,1
256,574,43,0.181717113632778,1
256,575,43,0.230928587733302,1
256,576,43,0.202637738046555,1
256,577,43,0.156044017570993,1
256,578,43,0.120357594788671,1
256,580,43,0.111703334005092,1
256,581,43,0.10960283064075,1
257,564,43,0.153233383028589,1
257,565,43,0.229651828692611,1
257,566,43,0.211567382716387,1
257,567,43,0.170026658632231,1
257,569,43,0.156733212558661,1
257,570,43,0.204408164178144,1
257,571,43,0.207016146854726,1
257,572,43,0.187351377970002,1
257,573,43,0.174557372234421,1
257,574,43,0.188239085514257,1
257,575,43,0.19733632863644,1
257,576,43,0.195687816054748,1
257,577,43,0.17095073763316,1
257,578,43,0.131563859537885,1
258,564,43,0.118785299961503,1
258,565,43,0.223342519269553,1
258,566,43,0.228706628321663,1
258,567,43,0.162802518296508,1
258,569,43,0.14676622431572,1
258,570,43,0.203224844596979,1
258,571,43,0.225732403921114,1
258,572,43,0.195585836546695,1
258,573,43,0.199098105790311,1
258,574,43,0.218652355118454,1
258,575,43,0.203289504964401,1
258,576,43,0.224187417641979,1
258,577,43,0.20762344887705,1
258,578,43,0.153555159857033,1
258,579,43,0.105211295865136,1
259,564,43,0.128284241259128,1
259,565,43,0.261576774029518,1
259,566,43,0.260621399672186,1
259,567,43,0.167820657346986,1
259,568,43,0.135215677967324,1
259,569,43,0.16209313872986,1
259,570,43,0.203147744516013,1
259,571,43,0.216104980643411,1
259,572,43,0.185740794532408,1
259,573,43,0.197660828694645,1
259,574,43,0.206947957181535,1
259,575,43,0.17340953089057,1
259,576,43,0.196642711123642,1
259,577,43,0.217207387621945,1
259,578,43,0.187419981574117,1
259,579,43,0.125406778658413,1
260,565,43,0.161204842967977,1
260,566,43,0.161421165447194,1
260,567,43,0.13171632772569,1
260,570,43,0.149670243853056,1
260,571,43,0.143794189391898,1
260,572,43,0.137508125458072,1
260,573,43,0.15518080820166,1
260,574,43,0.152456608971839,1
260,576,43,0.142207810020412,1
260,577,43,0.188955360298658,1
260,578,43,0.195403271223583,1
260,579,43,0.146253113364336,1
261,578,43,0.164196474253152,1
261,579,43,0.178071928991035,1
261,580,43,0.125446276382852,1
262,578,43,0.157472972476513,1
262,579,43,0.2417719004201,1
262,580,43,0.193335468402199,1
262,581,43,0.111442056448996,1
263,579,43,0.189660872879048,1
263,580,43,0.17061859074579,1
263,581,43,0.131711153589146,1
264,581,43,0.152956408776156,1
264,582,43,0.153814694546083,1
265,582,43,0.20198675541888,1
265,583,43,0.143207736416617,1
266,583,43,0.152143797015764,1
266,584,43,0.151238105262174,1
266,585,43,0.138545545281613,1
267,584,43,0.152753092442272,1
267,585,43,0.148866161248272,1
269,595,43,0.104340450559555,1
239,604,44,0.196216754417498,1
240,604,44,0.217085713716268,1
240,605,44,0.195544029523419,1
243,582,44,0.112704240764011,1
245,579,44,0.113307436155857,1
245,580,44,0.106383646276827,1
246,579,44,0.123441260346816,1
246,580,44,0.122982820956094,1
246,581,44,0.0999907990576502,1
247,579,44,0.116243698733551,1
247,580,44,0.114911276876565,1
251,576,44,0.122693886278555,1
251,577,44,0.141648916130302,1
251,578,44,0.115147413575517,1
252,575,44,0.104489269619481,1
252,576,44,0.159799438553422,1
252,577,44,0.175999398642788,1
252,578,44,0.128247739087425,1
253,576,44,0.163245707600574,1
253,577,44,0.169874669732865,1
253,578,44,0.126022413763802,1
254,564,44,0.19067899045005,1
254,565,44,0.164446139957551,1
254,570,44,0.144011633841777,1
254,575,44,0.155763710085334,1
254,576,44,0.177044269222953,1
254,577,44,0.160051271948711,1
254,578,44,0.122629923057951,1
255,563,44,0.163606154291611,1
255,564,44,0.228952481504398,1
255,565,44,0.215411450273965,1
255,566,44,0.173030326592945,1
255,567,44,0.143262266369332,1
255,569,44,0.186570377460665,1
255,570,44,0.218574623248184,1
255,571,44,0.165322322793461,1
255,572,44,0.141985845009131,1
255,574,44,0.162039752533644,1
255,575,44,0.225465113473708,1
255,576,44,0.199362389792062,1
255,577,44,0.15110266270683,1
255,578,44,0.118116485625359,1
255,580,44,0.112359534340987,1
255,581,44,0.10345853804823,1
256,563,44,0.121848661118557,1
256,564,44,0.196681337414558,1
256,565,44,0.25807552841997,1
256,566,44,0.243556138773031,1
256,567,44,0.196005867504881,1
256,568,44,0.184052533689139,1
256,569,44,0.228890239365003,1
256,570,44,0.251302158859965,1
256,571,44,0.200562506254386,1
256,572,44,0.193957475865227,1
256,573,44,0.172324269366604,1
256,574,44,0.187610999802404,1
256,575,44,0.238101553135374,1
256,576,44,0.19643938389684,1
256,577,44,0.159264214976387,1
256,578,44,0.133820915934672,1
256,579,44,0.117012401137292,1
256,580,44,0.15264804113105,1
256,581,44,0.141891882689491,1
257,564,44,0.158952960707735,1
257,565,44,0.260330297303758,1
257,566,44,0.274175567762981,1
257,567,44,0.213697013746243,1
257,568,44,0.173149157446754,1
257,569,44,0.199828868157035,1
257,570,44,0.236546610728237,1
257,571,44,0.224786593546699,1
257,572,44,0.222588446056082,1
257,573,44,0.19722885909719,1
257,574,44,0.188957865670037,1
257,575,44,0.201494046904858,1
257,576,44,0.191939889400619,1
257,577,44,0.179785613907344,1
257,578,44,0.152953783582667,1
257,579,44,0.115068886522156,1
257,580,44,0.109643134441198,1
258,564,44,0.126855645819937,1
258,565,44,0.24437230162503,1
258,566,44,0.271056750755094,1
258,567,44,0.190252140524545,1
258,568,44,0.145993034029334,1
258,569,44,0.177206279607837,1
258,570,44,0.250885504706681,1
258,571,44,0.259345010990743,1
258,572,44,0.233526723211072,1
258,573,44,0.21977029539954,1
258,574,44,0.208518498248738,1
258,575,44,0.190882056246796,1
258,576,44,0.202044378960603,1
258,577,44,0.1955024839302,1
258,578,44,0.164303388253531,1
258,579,44,0.124911041912897,1
259,564,44,0.128213252105744,1
259,565,44,0.281861981796928,1
259,566,44,0.311452269581807,1
259,567,44,0.194421557788012,1
259,568,44,0.141857221421106,1
259,569,44,0.175194477283239,1
259,570,44,0.255489854441582,1
259,571,44,0.268508875205775,1
259,572,44,0.239547413851244,1
259,573,44,0.233005235604946,1
259,574,44,0.211038073994391,1
259,575,44,0.17187674468076,1
259,576,44,0.19201465839691,1
259,577,44,0.216907549132448,1
259,578,44,0.193454397292279,1
259,579,44,0.143379321677337,1
259,580,44,0.101398338484337,1
260,565,44,0.165890236020536,1
260,566,44,0.186760023181153,1
260,567,44,0.1441786440765,1
260,569,44,0.14668157544186,1
260,570,44,0.172329334573957,1
260,571,44,0.169834365932416,1
260,572,44,0.163436758507619,1
260,573,44,0.169358301798687,1
260,574,44,0.154773696245455,1
260,577,44,0.215376614718875,1
260,578,44,0.209578793202264,1
260,579,44,0.163444536051813,1
260,580,44,0.110165874733014,1
261,579,44,0.185136542527415,1
261,580,44,0.138191231303996,1
262,578,44,0.15454349618738,1
262,579,44,0.234199818464398,1
262,580,44,0.194740371742478,1
262,581,44,0.126326380669616,1
263,579,44,0.178642728841656,1
263,581,44,0.146848879785397,1
264,582,44,0.154959823553093,1
264,583,44,0.103993173407638,1
265,583,44,0.12994285157677,1
265,584,44,0.103543481030905,1
265,585,44,0.105610096524113,1
266,584,44,0.143362012828982,1
266,585,44,0.153375535622062,1
266,586,44,0.104850315421065,1
267,585,44,0.140487262565108,1
245,579,45,0.111027657129953,1
245,580,45,0.107780543321611,1
246,579,45,0.117234714721982,1
246,580,45,0.124574287320772,1
247,579,45,0.107386513761174,1
247,580,45,0.111914362525656,1
251,576,45,0.107974557102635,1
251,577,45,0.125647675562985,1
251,578,45,0.105822399516205,1
252,576,45,0.133185575538738,1
252,577,45,0.145725427687276,1
252,578,45,0.114854884234694,1
253,577,45,0.157477209822019,1
253,578,45,0.125100306381219,1
254,564,45,0.251671842746349,1
254,565,45,0.225040049986925,1
254,566,45,0.171964094998543,1
254,569,45,0.171344712729003,1
254,570,45,0.155231939563634,1
254,577,45,0.155026804112271,1
254,578,45,0.124465946348,1
255,563,45,0.16978711244962,1
255,564,45,0.256835565659797,1
255,565,45,0.248427996813719,1
255,566,45,0.224259267335968,1
255,567,45,0.171598474170961,1
255,568,45,0.163735376990184,1
255,569,45,0.20248538968086,1
255,570,45,0.200243191225645,1
255,571,45,0.173391612038749,1
255,572,45,0.159423120879344,1
255,573,45,0.140692049443062,1
255,575,45,0.191853464980955,1
255,577,45,0.140105454859833,1
255,578,45,0.115664968837869,1
255,579,45,0.100567568227905,1
255,580,45,0.120840510568476,1
256,563,45,0.115294576911748,1
256,564,45,0.177053332131595,1
256,565,45,0.241386530730299,1
256,566,45,0.280114234722781,1
256,567,45,0.219865042009351,1
256,568,45,0.207777082607192,1
256,569,45,0.265824598524236,1
256,570,45,0.247482491441038,1
256,571,45,0.20839569147948,1
256,572,45,0.219364882738705,1
256,573,45,0.185677811674518,1
256,574,45,0.182136480122903,1
256,575,45,0.226355892821131,1
256,576,45,0.184187823743617,1
256,578,45,0.137693512047215,1
256,579,45,0.125806091284585,1
256,580,45,0.172695369332462,1
256,581,45,0.147615240211544,1
257,564,45,0.160161954899077,1
257,565,45,0.268274328873004,1
257,566,45,0.314002345500772,2
257,567,45,0.235639905933176,1
257,568,45,0.192935088269961,1
257,569,45,0.234661765375051,1
257,570,45,0.252518157198251,1
257,571,45,0.233779831077888,1
257,572,45,0.24240955011487,1
257,573,45,0.205313561822919,1
257,574,45,0.180059298498226,1
257,575,45,0.196140002909941,1
257,576,45,0.181269087872659,1
257,578,45,0.165918089214522,1
257,579,45,0.12908244168763,1
257,580,45,0.128775533693675,1
258,564,45,0.144357091876215,1
258,565,45,0.256721320724904,1
258,566,45,0.29596554515243,2
258,567,45,0.208861429125958,1
258,568,45,0.159918607087721,1
258,569,45,0.197687516346293,1
258,570,45,0.27991792253584,1
258,571,45,0.273137973652735,1
258,572,45,0.25695808921316,1
258,573,45,0.225593867776762,1
258,574,45,0.187085699674614,1
258,575,45,0.17255149565778,1
258,576,45,0.17464544148486,1
258,577,45,0.179214236732014,1
258,579,45,0.141181914905214,1
259,564,45,0.128695612346678,1
259,565,45,0.270711401649847,1
259,566,45,0.331049066651721,1
259,567,45,0.222848481819408,1
259,568,45,0.15625614627638,1
259,569,45,0.188752621289484,1
259,570,45,0.288001448826313,1
259,571,45,0.288687659154164,1
259,572,45,0.275570340688553,1
259,573,45,0.250827597949064,1
259,574,45,0.196283854798785,1
259,575,45,0.162331203475481,1
259,576,45,0.183580652436322,1
259,577,45,0.210184788074303,1
259,578,45,0.187404491843242,1
260,565,45,0.168616090974052,1
260,566,45,0.217206167615013,1
260,567,45,0.172282266270785,1
260,569,45,0.149561870201526,1
260,570,45,0.192675858582645,1
260,571,45,0.184200644709328,1
260,572,45,0.17966502929357,1
260,573,45,0.172542432749139,1
260,574,45,0.147995054512635,1
260,576,45,0.182143451591089,1
260,577,45,0.23255376768241,1
260,578,45,0.209096781534739,1
260,579,45,0.176193554031759,1
261,566,45,0.120824432619973,1
261,570,45,0.116330733156681,1
261,571,45,0.106401412627781,1
261,577,45,0.157541815724846,1
261,578,45,0.168022884388965,1
262,579,45,0.199184508424137,1
265,585,45,0.106518239184487,1
253,564,46,0.143951624750785,1
253,565,46,0.141507079431481,1
253,569,46,0.243557228064935,1
254,563,46,0.159033742595336,1
254,564,46,0.278435940900434,1
254,565,46,0.277757094185854,1
254,566,46,0.22130432340212,1
254,568,46,0.187658928646181,1
254,569,46,0.220210717902169,1
254,570,46,0.176117652171888,1
254,571,46,0.165344391847436,1
255,563,46,0.149424205490697,1
255,564,46,0.249292676727123,1
255,565,46,0.279617452257038,1
255,566,46,0.273931762449026,1
255,567,46,0.197879471365618,1
255,568,46,0.183420330453889,1
255,569,46,0.213717775649933,1
255,570,46,0.190423682213588,1
255,571,46,0.188134709564014,1
255,572,46,0.176756728839052,1
255,573,46,0.14820550570849,1
256,564,46,0.157118865464357,1
256,565,46,0.228408685200078,1
256,566,46,0.288910811493619,2
256,567,46,0.228428510312731,1
256,568,46,0.227589189114852,1
256,569,46,0.283576592611355,1
256,570,46,0.245424121887543,1
256,571,46,0.223404630693919,1
256,572,46,0.229818860713172,1
256,573,46,0.192455799832196,1
256,574,46,0.182530498790422,1
256,575,46,0.203927677519285,1
257,564,46,0.155594477695127,1
257,565,46,0.256676986544411,2
257,566,46,0.316486933190468,2
257,567,46,0.24047095909914,2
257,568,46,0.203237262524685,1
257,569,46,0.249947254018081,1
257,570,46,0.256724850030673,1
257,571,46,0.23823618961471,1
257,572,46,0.239082809068345,1
257,573,46,0.20223868685044,1
257,574,46,0.178743052626015,1
257,575,46,0.188436988067377,1
258,564,46,0.169836195942815,1
258,565,46,0.263879319256215,2
258,566,46,0.305591813780715,2
258,567,46,0.230123404943695,2
258,568,46,0.168652506002403,1
258,569,46,0.202704511640271,1
258,570,46,0.276801676256846,1
258,571,46,0.26465570116788,1
258,572,46,0.26001026334236,1
258,573,46,0.229306043870602,1
258,574,46,0.175186732417801,1
258,575,46,0.158666073898975,1
258,577,46,0.169003573890146,1
259,564,46,0.13492203754876,1
259,565,46,0.240552590634426,1
259,566,46,0.311139054587728,2
259,567,46,0.242687864196344,1
259,568,46,0.166502919144866,1
259,569,46,0.192710999139468,1
259,570,46,0.285149355834042,1
259,571,46,0.274139468629282,1
259,572,46,0.280597967471514,1
259,573,46,0.258718406715879,1
259,574,46,0.182998306091519,1
259,575,46,0.154865752304263,1
259,576,46,0.178953689001494,1
259,577,46,0.199395569623458,1
259,578,46,0.177630264695635,1
260,565,46,0.185366078117429,1
260,566,46,0.251402787646058,1
260,567,46,0.203434010428387,1
260,568,46,0.147286589951185,1
260,569,46,0.154197166719419,1
260,570,46,0.205327330472586,1
260,571,46,0.190790120010097,1
260,572,46,0.183410025752478,1
260,573,46,0.17160847387064,1
260,574,46,0.143333342666069,1
260,576,46,0.201852620013821,1
260,577,46,0.232748685575713,1
260,578,46,0.204609443536167,1
260,579,46,0.185955058249927,1
261,565,46,0.133857265605509,1
261,566,46,0.168181409039756,1
261,567,46,0.134615325627348,1
261,570,46,0.121275693577047,1
261,571,46,0.116649895684557,1
261,572,46,0.106737197750112,1
261,573,46,0.107840835628498,1
261,577,46,0.160418831715881,1
261,578,46,0.178911990907408,1
252,569,47,0.149456927819493,1
253,565,47,0.146172788979334,1
253,566,47,0.131220634551851,1
253,568,47,0.212685562641693,1
253,569,47,0.287945677080828,1
253,570,47,0.199872592334062,1
254,564,47,0.250840233735151,1
254,565,47,0.291617941519305,1
254,566,47,0.255176029444037,1
254,567,47,0.191870566863848,1
254,568,47,0.221313037737352,1
254,569,47,0.262796105601029,1
254,570,47,0.194656321979164,1
254,571,47,0.180137073940173,1
255,564,47,0.211008205610383,1
255,565,47,0.293641933020309,1
255,566,47,0.303743285419609,1
255,567,47,0.226105224968181,1
255,568,47,0.213944871226081,1
255,569,47,0.223216052479497,1
255,570,47,0.190313140871169,1
255,571,47,0.199722466123852,1
255,572,47,0.182482537267889,1
255,573,47,0.146700616264342,1
256,564,47,0.13650543226043,1
256,565,47,0.219381810334894,1
256,566,47,0.270263463033079,1
256,567,47,0.226275198076882,1
256,568,47,0.233942854504242,1
256,569,47,0.265326203906475,1
256,570,47,0.243226475471202,1
256,571,47,0.241577440029396,1
256,572,47,0.218880017126392,1
256,573,47,0.182574222967449,1
256,574,47,0.179785831765725,1
257,564,47,0.149274340710543,1
257,565,47,0.237296326774091,1
257,566,47,0.289931543365192,2
257,567,47,0.231378988149772,1
257,568,47,0.201320435561197,1
257,569,47,0.235775958491987,1
257,570,47,0.246766695945074,1
257,571,47,0.236322804813639,1
257,572,47,0.217671382401378,1
257,573,47,0.190927871864279,1
257,574,47,0.180164197308583,1
258,564,47,0.183043936529378,1
258,565,47,0.259257192277441,1
258,566,47,0.305213241272395,2
258,567,47,0.247359096454151,1
258,568,47,0.177445716861257,1
258,569,47,0.197050672727532,1
258,570,47,0.248394773410647,1
258,571,47,0.241309757436904,1
258,572,47,0.24542858798435,1
258,573,47,0.229477040913693,1
258,574,47,0.169235952532029,1
258,575,47,0.148636516729068,1
259,564,47,0.138647753540967,1
259,565,47,0.212186928379713,1
259,566,47,0.281196271942711,1
259,567,47,0.249710333028959,1
259,568,47,0.177464343752816,1
259,569,47,0.191695060152273,1
259,570,47,0.262724560908774,1
259,571,47,0.25338390461772,1
259,572,47,0.262774668336358,1
259,573,47,0.255678519799357,1
259,574,47,0.173403006032065,1
259,575,47,0.150493879247516,1
259,576,47,0.174929125775422,1
259,577,47,0.178535651447492,1
260,564,47,0.105840416404297,1
260,565,47,0.198779400765035,1
260,566,47,0.268687475506357,1
260,567,47,0.220229083363671,1
260,568,47,0.154481450120528,1
260,569,47,0.159877170423693,1
260,570,47,0.216051387481733,1
260,571,47,0.20661801066381,1
260,572,47,0.182314437741262,1
260,573,47,0.169823952301814,1
260,574,47,0.147224282454276,1
260,575,47,0.173256082340052,1
260,576,47,0.21814241400651,1
260,577,47,0.208646119688212,1
260,578,47,0.192343275978512,1
261,565,47,0.166341017689173,1
261,566,47,0.213503032643976,1
261,567,47,0.15962889901293,1
261,570,47,0.138128019694806,1
261,571,47,0.140489746150649,1
261,572,47,0.123596898374061,1
261,573,47,0.118074907353383,1
261,576,47,0.150886263977179,1
261,577,47,0.15769406605427,1
252,569,48,0.139190308052516,1
253,565,48,0.134262950589319,1
253,566,48,0.12893287101629,1
253,568,48,0.202240407931648,1
253,569,48,0.280201116645045,1
253,570,48,0.218606343428428,1
254,564,48,0.192371227208769,1
254,565,48,0.261158856297625,1
254,566,48,0.252826818952171,1
254,567,48,0.215881828303955,1
254,568,48,0.263039388054871,1
254,569,48,0.293212664866776,1
254,570,48,0.214076348758895,1
254,571,48,0.190335100995954,1
254,572,48,0.175871352379472,1
255,564,48,0.165573437256093,1
255,565,48,0.274274366538675,1
255,566,48,0.293673326412982,1
255,567,48,0.251213904429903,1
255,568,48,0.259523262717915,1
255,569,48,0.241280390127172,1
255,570,48,0.198974928661805,1
255,571,48,0.208248223141515,1
255,572,48,0.181967236839777,1
255,573,48,0.145244494418736,1
256,564,48,0.123045063095489,1
256,565,48,0.209313354551094,1
256,566,48,0.239186662158473,1
256,567,48,0.219270855061551,1
256,568,48,0.229114568139715,1
256,569,48,0.231777516485773,1
256,570,48,0.236450949113227,1
256,571,48,0.255365130518573,1
256,572,48,0.206479147731887,1
256,573,48,0.172449897401893,1
256,574,48,0.176045214260271,1
257,564,48,0.140024030290008,1
257,565,48,0.210630613464776,1
257,566,48,0.246548423633349,1
257,567,48,0.213394604527851,1
257,568,48,0.192046945008945,1
257,569,48,0.207082462945842,1
257,570,48,0.228037389161677,1
257,571,48,0.235814432282037,1
257,572,48,0.205355739205443,1
257,573,48,0.188461671421922,1
257,574,48,0.187299026601095,1
257,575,48,0.166675441196623,1
258,564,48,0.172200787236365,1
258,565,48,0.230076238604251,1
258,566,48,0.277586293215305,1
258,567,48,0.244625540206875,1
258,568,48,0.185577792891892,1
258,569,48,0.185359215578433,1
258,570,48,0.215774685552276,1
258,571,48,0.220752335622682,1
258,572,48,0.228756844678438,1
258,573,48,0.223284089651821,1
258,574,48,0.17142395871502,1
258,575,48,0.141723772269945,1
259,564,48,0.134795570758704,1
259,565,48,0.186827711780068,1
259,566,48,0.241862398791485,1
259,567,48,0.233467204301437,1
259,568,48,0.18046836028694,1
259,569,48,0.182909877374751,1
259,570,48,0.233945686663192,1
259,571,48,0.235109246489219,1
259,572,48,0.23636489505281,1
259,573,48,0.235523308127771,1
259,574,48,0.168638377886408,1
259,575,48,0.152147326321533,1
259,576,48,0.169507055501099,1
259,577,48,0.157914952666565,1
260,565,48,0.200218900016185,1
260,566,48,0.252447396796166,1
260,567,48,0.215168516393533,1
260,568,48,0.158277730442277,1
260,569,48,0.161740458690098,1
260,570,48,0.219287259797625,1
260,571,48,0.220217667584517,1
260,572,48,0.182916794378341,1
260,573,48,0.168720009421694,1
260,574,48,0.158427246649021,1
260,575,48,0.199662685784159,1
260,576,48,0.227523156239631,1
260,577,48,0.182046406575361,1
260,578,48,0.174790644095665,1
261,565,48,0.189691002693113,1
261,566,48,0.236142178430116,1
261,567,48,0.187941621681109,1
261,570,48,0.158677053961368,1
261,571,48,0.165169636747276,1
261,572,48,0.143101345276352,1
261,573,48,0.131503338479699,1
261,574,48,0.136234961080664,1
261,575,48,0.156854374497144,1
261,576,48,0.165004685274252,1
261,577,48,0.162638765044579,1
262,566,48,0.127605764903796,1
262,573,48,0.164376991707485,1
262,576,48,0.125250138482616,1
263,573,48,0.220769241433032,1
253,568,49,0.17066159599016,1
253,569,49,0.224355713241149,1
253,570,49,0.220505828864804,1
253,571,49,0.202179015439938,1
254,565,49,0.207949277871378,1
254,566,49,0.226166203528967,1
254,567,49,0.228282675912622,1
254,568,49,0.28485047592142,1
254,569,49,0.285331659727097,1
254,570,49,0.224133475906893,1
254,571,49,0.201275774593133,1
254,572,49,0.170684667192687,1
255,565,49,0.229503445349446,1
255,566,49,0.257507724122086,1
255,567,49,0.256383531305471,1
255,568,49,0.285375231403258,1
255,569,49,0.249759460093829,1
255,570,49,0.208707207178189,1
255,571,49,0.217270261550645,1
255,572,49,0.173421077384752,1
256,565,49,0.197061282430677,1
256,566,49,0.212346618572841,1
256,567,49,0.200077270282826,1
256,568,49,0.202631006222589,1
256,569,49,0.194228883836031,1
256,570,49,0.218795618789669,1
256,571,49,0.25860934681045,1
256,572,49,0.194066557556495,1
256,573,49,0.166023162311583,1
256,574,49,0.161494714436553,1
257,565,49,0.187070122800387,1
257,566,49,0.201978389657058,1
257,567,49,0.185774257579699,1
257,568,49,0.168382851791565,1
257,569,49,0.169030348685147,1
257,570,49,0.19769548996303,1
257,571,49,0.236312020823789,1
257,572,49,0.203934213270709,1
257,573,49,0.202780718501876,1
257,574,49,0.192534032776742,1
257,575,49,0.150186143391714,1
258,564,49,0.142189008842148,1
258,565,49,0.195374775347374,1
258,566,49,0.229178487788642,1
258,567,49,0.222367210870378,1
258,568,49,0.182436525577863,1
258,569,49,0.16495737732686,1
258,570,49,0.17914562223498,1
258,571,49,0.207112570974069,1
258,572,49,0.214721231351908,1
258,573,49,0.223120216577782,1
258,574,49,0.179847627295439,1
258,575,49,0.138183203222663,1
259,565,49,0.17056207828181,1
259,566,49,0.204345747752044,1
259,567,49,0.205438786820205,1
259,568,49,0.168776968495355,1
259,569,49,0.160422666023383,1
259,570,49,0.195182863899725,1
259,571,49,0.218761872526483,1
259,572,49,0.217799352414261,1
259,573,49,0.216797269220085,1
259,574,49,0.16622915830355,1
259,575,49,0.156887957366545,1
259,576,49,0.158752062601878,1
259,577,49,0.142322283706604,1
260,565,49,0.187432965933613,1
260,566,49,0.213635163751933,1
260,567,49,0.194464410531516,1
260,568,49,0.149833005849353,1
260,569,49,0.153358106951598,1
260,570,49,0.209825844606093,1
260,571,49,0.228546894556859,1
260,572,49,0.196414744113971,1
260,573,49,0.183102943471818,1
260,574,49,0.171299071398225,1
260,575,49,0.216016726213348,1
260,576,49,0.213963323830935,1
260,577,49,0.158703741613016,1
260,578,49,0.155913160934564,1
261,565,49,0.191081614523611,1
261,566,49,0.224285628200045,1
261,567,49,0.210871455904753,1
261,568,49,0.151920611997551,1
261,570,49,0.176990076950729,1
261,571,49,0.192863892151115,1
261,572,49,0.177520169962897,1
261,573,49,0.170408891161348,1
261,574,49,0.152804735771441,1
261,575,49,0.167676435098895,1
261,576,49,0.17092656624581,1
261,577,49,0.172320304344073,1
261,578,49,0.196542060551712,1
262,566,49,0.135957104501789,1
262,567,49,0.14298653390967,1
262,572,49,0.174061417630525,1
262,573,49,0.204712381621096,1
262,574,49,0.164828143735369,1
262,575,49,0.132975440237536,1
262,576,49,0.149244112860207,1
262,577,49,0.178463137285442,1
263,572,49,0.162781767285737,1
263,573,49,0.245169837585471,1
263,574,49,0.209194229588472,1
264,573,49,0.162677195262952,1
253,567,50,0.120930507865585,1
253,568,50,0.147588792204115,1
253,569,50,0.17108090801569,1
253,570,50,0.209430192000719,1
253,571,50,0.218339270839403,1
254,566,50,0.191503584421386,1
254,567,50,0.236237687544259,1
254,568,50,0.291711555265535,1
254,569,50,0.25786854117237,1
254,570,50,0.224980291433071,1
254,571,50,0.213633573385753,1
254,572,50,0.162480414680493,1
255,565,50,0.177588239813978,1
255,566,50,0.222007548469511,1
255,567,50,0.262014233658168,1
255,568,50,0.301857045772786,1
255,569,50,0.251194820035744,1
255,570,50,0.213638213769264,1
255,571,50,0.213981340719027,1
255,572,50,0.162331257940076,1
256,566,50,0.20079646436953,1
256,567,50,0.192378372963659,1
256,568,50,0.188827390285775,1
256,569,50,0.173135628441306,1
256,570,50,0.192958224830002,1
256,571,50,0.227990222822233,1
256,572,50,0.179339570658489,1
256,573,50,0.158164999623131,1
257,565,50,0.171456386935002,1
257,566,50,0.17772507666296,1
257,567,50,0.168246352623073,1
257,568,50,0.157417375017732,1
257,569,50,0.144760478454108,1
257,570,50,0.167400288708309,1
257,571,50,0.214253227978269,1
257,572,50,0.200565273055823,1
257,573,50,0.211739817624792,1
257,574,50,0.18517756526052,1
258,565,50,0.164542073895537,1
258,566,50,0.181942597056909,1
258,567,50,0.196399406883962,1
258,568,50,0.184844710333412,1
258,569,50,0.150499804995474,1
258,570,50,0.151960970262595,1
258,571,50,0.190290243955347,1
258,572,50,0.204973463104649,1
258,573,50,0.222744432656736,1
258,574,50,0.185724564083038,1
258,575,50,0.139958465810306,1
259,565,50,0.15618352318514,1
259,566,50,0.170538113859921,1
259,567,50,0.175374918487138,1
259,568,50,0.158399633099254,1
259,569,50,0.141852613716352,1
259,570,50,0.164523686648198,1
259,571,50,0.200230337581177,1
259,572,50,0.207728391259083,1
259,573,50,0.201593368540666,1
259,574,50,0.168889688421582,1
259,575,50,0.172046608860271,1
259,576,50,0.153477634952225,1
260,566,50,0.174977806230612,1
260,567,50,0.173284120713661,1
260,568,50,0.143347340067035,1
260,570,50,0.199120980920295,1
260,571,50,0.228802747439273,1
260,572,50,0.215411515631479,1
260,573,50,0.199865664437553,1
260,574,50,0.180910198869044,1
260,575,50,0.22268175480058,1
260,576,50,0.190145585990494,1
260,577,50,0.143471976846692,1
261,565,50,0.174653774567926,1
261,566,50,0.194968077322092,1
261,567,50,0.219710362558981,1
261,568,50,0.170969484346829,1
261,570,50,0.193895059439128,1
261,571,50,0.216252884698137,1
261,572,50,0.211739926553983,1
261,573,50,0.220073183906369,1
261,574,50,0.173572608781519,1
261,575,50,0.17497737051385,1
261,576,50,0.172788144323927,1
261,577,50,0.184453502039006,1
261,578,50,0.177618936059833,1
262,566,50,0.143667210634648,1
262,567,50,0.162971783365473,1
262,571,50,0.173180986556189,1
262,572,50,0.199832070675233,1
262,573,50,0.248652173087564,1
262,574,50,0.192664290302624,1
262,575,50,0.146478531430952,1
262,576,50,0.170721615974071,1
262,577,50,0.21354248679674,1
262,578,50,0.175069154249682,1
263,572,50,0.153617401996429,1
263,573,50,0.237223779933284,1
263,574,50,0.236806515776534,1
263,575,50,0.16301471235941,1
263,577,50,0.1380189162177,1
264,573,50,0.15828585655988,1
264,574,50,0.212140960261363,1
253,568,51,0.133073051685054,1
253,569,51,0.138621414462728,1
253,570,51,0.186763661416112,1
253,571,51,0.211204278153105,1
254,567,51,0.240432006020653,1
254,568,51,0.272512545813128,1
254,569,51,0.229641022916923,1
254,570,51,0.233108021189008,1
254,571,51,0.23279343368713,1
254,572,51,0.163802455585633,1
255,566,51,0.207320473226869,1
255,567,51,0.276653467200387,1
255,568,51,0.300399311775163,1
255,569,51,0.251124451778745,1
255,570,51,0.233175470143705,1
255,571,51,0.225000595834161,1
255,572,51,0.168880146224503,1
256,566,51,0.199137407442207,1
256,567,51,0.196920785560898,1
256,568,51,0.188153772172335,1
256,569,51,0.17225009948086,1
256,570,51,0.184696915207876,1
256,571,51,0.209155124009118,1
256,572,51,0.183089893754808,1
256,573,51,0.161939450535123,1
257,566,51,0.172388265265964,1
257,567,51,0.162224235010507,1
257,568,51,0.160850833992093,1
257,569,51,0.140301462045041,1
257,570,51,0.153475227617117,1
257,571,51,0.198698727806624,1
257,572,51,0.202809366878951,1
257,573,51,0.217095691630108,1
257,574,51,0.168272964024288,1
258,566,51,0.155620163198224,1
258,567,51,0.178262533288399,1
258,568,51,0.193612497119227,1
258,569,51,0.14902244195774,1
258,570,51,0.142165327636155,1
258,571,51,0.182573340641007,1
258,572,51,0.200977744328195,1
258,573,51,0.221601939736134,1
258,574,51,0.18197162668615,1
258,575,51,0.152036708728681,1
259,566,51,0.14907964067562,1
259,567,51,0.155543651334886,1
259,568,51,0.158881187264179,1
259,569,51,0.138926002264927,1
259,570,51,0.150328089019726,1
259,571,51,0.185153535481118,1
259,572,51,0.199800829783426,1
259,573,51,0.192516887322173,1
259,574,51,0.172422545282184,1
259,575,51,0.195414730574413,1
259,576,51,0.16403512833633,1
260,566,51,0.152063592452872,1
260,567,51,0.160382089899959,1
260,568,51,0.146852605163708,1
260,569,51,0.146806408294059,1
260,570,51,0.186836513258653,1
260,571,51,0.21629484422228,1
260,572,51,0.219170030202916,1
260,573,51,0.203546425352881,1
260,574,51,0.180396368985003,1
260,575,51,0.217723908056989,1
260,576,51,0.176758286526474,1
260,577,51,0.137346332931569,1
261,566,51,0.166533920392454,1
261,567,51,0.212472235715211,1
261,568,51,0.184891342919823,1
261,569,51,0.158586991306744,1
261,570,51,0.202337921342895,1
261,571,51,0.227309350024712,1
261,572,51,0.226147293421513,1
261,573,51,0.246022862075502,1
261,574,51,0.18818072125404,1
261,575,51,0.179753828369585,1
261,576,51,0.173886357528631,1
261,577,51,0.183508258096381,1
261,578,51,0.155718515364237,1
262,567,51,0.171913116137435,1
262,568,51,0.152818526206946,1
262,571,51,0.202781023503609,1
262,572,51,0.210284697927739,1
262,573,51,0.263730892341375,1
262,574,51,0.206623086764083,1
262,575,51,0.161908057142449,1
262,576,51,0.180059461892012,1
262,577,51,0.218140649353626,1
262,578,51,0.168955841118912,1
263,572,51,0.139508588253949,1
263,573,51,0.201975012852155,1
263,574,51,0.227728487763537,1
263,575,51,0.17505442702314,1
263,576,51,0.138780385723199,1
263,577,51,0.139280403385897,1
264,573,51,0.138059982522482,1
264,574,51,0.220404481146055,1
253,570,52,0.15830185825795,1
253,571,52,0.180961330231019,1
254,567,52,0.237940512220285,1
254,568,52,0.232984342986227,1
254,569,52,0.205048253886779,1
254,570,52,0.241227123753066,1
254,571,52,0.240326105061745,1
254,572,52,0.162888093068488,1
255,566,52,0.218751959970156,1
255,567,52,0.297915225159743,1
255,568,52,0.276512665328874,1
255,569,52,0.237396824845155,1
255,570,52,0.250707710482109,1
255,571,52,0.233858586882548,1
255,572,52,0.176016620347791,1
256,566,52,0.200090864645788,1
256,567,52,0.209890243543458,1
256,568,52,0.186406700459168,1
256,569,52,0.168430486526527,1
256,570,52,0.180715379012012,1
256,571,52,0.193953576200211,1
256,572,52,0.193566899360125,1
256,573,52,0.1650931030981,1
257,566,52,0.162772573662067,1
257,567,52,0.158664668712419,1
257,568,52,0.157753345319686,1
257,569,52,0.132359184235761,1
257,570,52,0.137340211111068,1
257,571,52,0.173670133085685,1
257,572,52,0.201451433805573,1
257,573,52,0.201531714618899,1
257,574,52,0.148708834818576,1
258,566,52,0.131615285008674,1
258,567,52,0.151937408878711,1
258,568,52,0.17728737739009,1
258,569,52,0.137282903463998,1
258,570,52,0.12787705305249,1
258,571,52,0.163264639493866,1
258,572,52,0.192766313382354,1
258,573,52,0.198207152156182,1
258,574,52,0.168177356873873,1
258,575,52,0.164317113331521,1
259,567,52,0.1305548484472,1
259,568,52,0.147658495993053,1
259,569,52,0.13295020134412,1
259,571,52,0.163684409021996,1
259,572,52,0.185995165977833,1
259,573,52,0.173626604981201,1
259,574,52,0.170559289694535,1
259,575,52,0.211032496819842,1
259,576,52,0.170323697641536,1
260,567,52,0.14370474763366,1
260,568,52,0.14668838351626,1
260,570,52,0.165979176704499,1
260,571,52,0.191580205213914,1
260,572,52,0.205677908178973,1
260,573,52,0.187918790122801,1
260,574,52,0.1679380612284,1
260,575,52,0.194604101325286,1
260,576,52,0.164213107740526,1
260,577,52,0.137542721368943,1
261,566,52,0.145702726843997,1
261,567,52,0.183382804347796,1
261,568,52,0.181675513574964,1
261,569,52,0.160017819794338,1
261,570,52,0.195922297030006,1
261,571,52,0.220906187211204,1
261,572,52,0.22459106564993,1
261,573,52,0.235465575656859,1
261,574,52,0.185185647806448,1
261,575,52,0.170374861682267,1
261,576,52,0.170131241547935,1
261,577,52,0.179679179195403,1
261,578,52,0.14231654313827,1
262,567,52,0.161278010705169,1
262,568,52,0.160135016710291,1
262,570,52,0.189992823693876,1
262,571,52,0.213852499272621,1
262,572,52,0.208664005861275,1
262,573,52,0.240775568687177,1
262,574,52,0.199624408066652,1
262,575,52,0.168473764093874,1
262,576,52,0.171791267945052,1
262,577,52,0.195313840358263,1
262,578,52,0.155975991291588,1
263,571,52,0.141315832451893,1
263,572,52,0.131585503768018,1
263,573,52,0.167157714294205,1
263,574,52,0.199355309394686,1
263,575,52,0.174053313298759,1
263,576,52,0.135297505575153,1
263,577,52,0.13508193470735,1
264,574,52,0.188915797216704,1
254,570,53,0.242624685265912,1
254,571,53,0.235755196588297,1
255,567,53,0.291580360948616,1
255,568,53,0.236252806915887,1
255,569,53,0.215772354467602,1
255,570,53,0.255177075164265,1
255,571,53,0.237886200125951,1
256,567,53,0.220929846631359,1
256,568,53,0.188453479946804,1
256,571,53,0.187951795667493,1
256,572,53,0.191874727958921,1
257,567,53,0.171101408489323,1
257,568,53,0.169422526449348,1
257,571,53,0.161895976895234,1
257,572,53,0.189425062967667,1
257,573,53,0.177814834315851,1
258,567,53,0.148068930289565,1
258,568,53,0.167743535480182,1
258,569,53,0.139623127297656,1
258,571,53,0.152206986839116,1
258,572,53,0.178364523689371,1
258,573,53,0.168481247529254,1
258,574,53,0.156047503305086,1
259,568,53,0.151518772214162,1
259,572,53,0.175006345678497,1
259,573,53,0.159378078659113,1
259,574,53,0.166831711013173,1
259,575,53,0.214214209542267,1
260,571,53,0.174032017642036,1
260,572,53,0.189000870914408,1
260,573,53,0.171162365264272,1
260,574,53,0.157571945538911,1
260,575,53,0.172540973097988,1
260,576,53,0.157649731873776,1
261,567,53,0.166436690197102,1
261,568,53,0.174735667533269,1
261,571,53,0.207777060821354,1
261,572,53,0.213903151346158,1
261,573,53,0.204006629396487,1
261,574,53,0.174393608089572,1
261,575,53,0.15930423556094,1
261,576,53,0.164931659145007,1
261,577,53,0.184475843415957,1
262,571,53,0.206693890737844,1
262,572,53,0.195256521818274,1
262,573,53,0.19455469104452,1
262,574,53,0.18622681479414,1
262,575,53,0.172937540708562,1
262,576,53,0.155332143525884,1
262,577,53,0.166135925809486,1
263,574,53,0.172127042174464,1
