x,y,z,fucci_ch00,fucci_ch02,cellCycle
154,371,11,0.00196841382467384,0.00749217975127794,1
155,371,11,0.00183108262760357,0.0129091325246052,1
156,371,11,0.00268558785381857,0.00816357671473259,1
157,371,11,0.00247196154726482,0.0133363851377127,1
152,372,11,0.0309452964065003,0.00817883573662928,1
153,372,11,0.00241092545967803,0.00823987182421607,1
154,372,11,0.00166323338673991,0.0112916762035554,1
155,372,11,0.002563515678645,0.00788891432059205,1
156,372,11,0.0129091325246052,0.00914015411612116,1
157,372,11,0.0166170748455024,0.00831616693369955,1
158,372,11,0.00149538414587625,0.00752269779507134,1
151,373,11,0.00582894636453803,0.00750743877317464,1
152,373,11,0.051621271076524,0.00735484855420768,1
153,373,11,0.00207522697795071,0.00823987182421607,1
154,373,11,0.00225833524071107,0.00869764248111696,1
155,373,11,0.034531166552224,0.00714122224765393,1
156,373,11,0.00375371938658732,0.00762951094834821,1
157,373,11,0.0336461432822156,0.0134431982909895,1
158,373,11,0.00227359426260777,0.00741588464179446,1
159,373,11,0.00247196154726482,0.0120088502327001,1
151,374,11,0.00143434805828946,0.00978103303578241,1
152,374,11,0.0021515220874342,0.0198367284657053,1
153,374,11,0.016388189517052,0.0103150988021668,1
154,374,11,0.00201419089036393,0.0127412832837415,1
155,374,11,0.00178530556191348,0.00892652780956741,1
156,374,11,0.00178530556191348,0.00798046845197223,1
157,374,11,0.00192263675898375,0.00799572747386892,1
158,374,11,0.00701915007248035,0.0268863965819791,1
159,374,11,0.00398260471503777,0.00877393759060044,1
160,374,11,0.00198367284657053,0.00747692072938125,1
152,375,11,0.00192263675898375,0.0085145342183566,1
153,375,11,0.00196841382467384,0.0202639810788128,1
154,375,11,0.00177004654001678,0.00785839627679866,1
155,375,11,0.00236514839398795,0.00784313725490196,1
156,375,11,0.00204470893415732,0.017792019531548,1
157,375,11,0.00370794232089723,0.0128480964370184,1
158,375,11,0.00335698481727321,0.0105134660868238,1
159,375,11,0.00236514839398795,0.00872816052491035,1
160,375,11,0.00195315480277714,0.00865186541542687,1
161,375,11,0.00216678110933089,0.00798046845197223,1
152,376,11,0.00804150453955901,0.00836194399938964,1
153,376,11,0.0097962920576791,0.0089723048752575,1
154,376,11,0.00961318379491875,0.00814831769283589,1
155,376,11,0.00253299763485161,0.00975051499198901,1
156,376,11,0.00241092545967803,0.00889600976577401,1
157,376,11,0.00238040741588464,0.00776684214541848,1
158,376,11,0.0139009689478904,0.00796520943007553,1
159,376,11,0.0216220340276188,0.015030136568246,1
160,376,11,0.0525215533684291,0.00990310521095598,1
161,376,11,0.00231937132829786,0.00886549172198062,1
162,376,11,0.00227359426260777,0.00975051499198901,1
153,377,11,0.00228885328450446,0.0238651102464332,1
154,377,11,0.00227359426260777,0.00752269779507134,1
155,377,11,0.00221255817502098,0.00816357671473259,1
156,377,11,0.00161745632104982,0.0081025406271458,1
157,377,11,0.00186160067139696,0.00816357671473259,1
158,377,11,0.00204470893415732,0.0122835126268406,1
159,377,11,0.0021362630655375,0.00778210116731518,1
160,377,11,0.00173952849622339,0.00828564888990616,1
161,377,11,0.00193789578088045,0.00781261921110857,1
162,377,11,0.0021515220874342,0.00721751735713741,1
153,378,11,0.0532692454413672,0.00752269779507134,1
154,378,11,0.00411993591210803,0.00740062561989776,1
155,378,11,0.0118715190356298,0.0116578927290761,1
156,378,11,0.0186007476920729,0.00790417334248875,1
157,378,11,0.00231937132829786,0.00782787823300526,1
158,378,11,0.00209048599984741,0.0072632944228275,1
159,378,11,0.00419623102159152,0.0430914778362707,1
160,378,11,0.012115663385977,0.01538109407187,1
161,378,11,0.0102998397802701,0.018448157473106,1
162,378,11,0.00222781719691768,0.00750743877317464,1
163,378,11,0.00164797436484321,0.0167086289768826,1
154,379,11,0.00189211871519036,0.0180666819256886,1
155,379,11,0.00192263675898375,0.00813305867093919,1
156,379,11,0.00227359426260777,0.00721751735713741,1
157,379,11,0.00196841382467384,0.00856031128404669,1
158,379,11,0.00154116121156634,0.0150148775463493,1
159,379,11,0.00218204013122759,0.00900282291905089,1
160,379,11,0.00247196154726482,0.00790417334248875,1
161,379,11,0.0021515220874342,0.00845349813076982,1
162,379,11,0.0017242694743267,0.0108796826123445,1
163,379,11,0.00195315480277714,0.0127412832837415,1
154,380,11,0.00202944991226062,0.00740062561989776,1
155,380,11,0.0376440070191501,0.027191577019913,1
156,380,11,0.00154116121156634,0.0158541237506676,1
157,380,11,0.00228885328450446,0.00820935378042268,1
158,380,11,0.00222781719691768,0.00785839627679866,1
159,380,11,0.00151064316777295,0.00790417334248875,1
160,380,11,0.00196841382467384,0.00845349813076982,1
161,380,11,0.00224307621881437,0.00999465934233616,1
162,380,11,0.00193789578088045,0.00787365529869535,1
163,380,11,0.00177004654001678,0.0135500114442664,1
155,381,11,0.028702220187686,0.00796520943007553,1
156,381,11,0.00224307621881437,0.00961318379491875,1
157,381,11,0.00296025024795911,0.00798046845197223,1
158,381,11,0.00675974670023652,0.00788891432059205,1
159,381,11,0.00369268329900053,0.0134737163347829,1
160,381,11,0.011108567940795,0.00735484855420768,1
161,381,11,0.00791943236438544,0.0081177996490425,1
162,381,11,0.00170901045243,0.00779736018921187,1
163,381,11,0.00218204013122759,0.0122224765392538,1
156,382,11,0.00148012512397955,0.00827038986800946,1
157,382,11,0.00207522697795071,0.00782787823300526,1
158,382,11,0.00891126878767071,0.00749217975127794,1
159,382,11,0.00202944991226062,0.00828564888990616,1
160,382,11,0.00701915007248035,0.00807202258335241,1
161,382,11,0.00205996795605402,0.00753795681696803,1
162,382,11,0.00222781719691768,0.0178530556191348,1
163,382,11,0.0204318303196765,0.00799572747386892,1
156,383,11,0.00216678110933089,0.0168764782177462,1
157,383,11,0.00222781719691768,0.00843823910887312,1
158,383,11,0.0262302586404211,0.0167086289768826,1
159,383,11,0.00389105058365759,0.0135805294880598,1
160,383,11,0.00231937132829786,0.013519493400473,1
161,383,11,0.00221255817502098,0.00772106507972839,1
162,383,11,0.00294499122606241,0.0121309224078737,1
163,383,11,0.00250247959105821,0.00796520943007553,1
157,384,11,0.0216983291371023,0.00775158312352178,1
158,384,11,0.00854505226215,0.00730907148851759,1
159,384,11,0.00192263675898375,0.00752269779507134,1
160,384,11,0.00178530556191348,0.00839246204318303,1
161,384,11,0.00198367284657053,0.00759899290455482,1
162,384,11,0.00198367284657053,0.00755321583886473,1
163,384,11,0.0443427176317998,0.00816357671473259,1
158,385,11,0.00192263675898375,0.0127107652399481,1
159,385,11,0.00178530556191348,0.0108186465247578,1
160,385,11,0.0237582970931563,0.00816357671473259,1
161,385,11,0.00207522697795071,0.00793469138628214,1
162,385,11,0.0246128023193713,0.0241550316624704,1
159,386,11,0.00132753490501259,0.00822461280231937,1
160,386,11,0.00999465934233616,0.00756847486076143,1
161,386,11,0.00541695277332723,0.00779736018921187,1
162,386,11,0.0688944838635843,0.00819409475852598,1
159,387,11,0.00225833524071107,0.00932326237888151,1
160,387,11,0.00218204013122759,0.0108186465247578,1
161,387,11,0.00183108262760357,0.0192263675898375,1
156,369,12,0.00773632410162509,0.00959792477302205,1
157,369,12,0.00846875715266651,0.00823987182421607,1
154,370,12,0.00190737773708705,0.0144960708018616,1
155,370,12,0.00238040741588464,0.00845349813076982,1
156,370,12,0.00242618448157473,0.0147554741741054,1
157,370,12,0.00201419089036393,0.0134431982909895,1
158,370,12,0.00227359426260777,0.00830090791180285,1
159,370,12,0.00234988937209125,0.00752269779507134,1
152,371,12,0.00205996795605402,0.0072327763790341,1
153,371,12,0.00189211871519036,0.0072327763790341,1
154,371,12,0.00195315480277714,0.0208438239108873,1
155,371,12,0.0197756923781186,0.00733958953231098,1
156,371,12,0.00201419089036393,0.00753795681696803,1
157,371,12,0.00181582360570687,0.00729381246662089,1
158,371,12,0.00253299763485161,0.0076752880140383,1
159,371,12,0.012817578393225,0.00772106507972839,1
160,371,12,0.0191042954146639,0.00747692072938125,1
151,372,12,0.00187685969329366,0.00712596322575723,1
152,372,12,0.00242618448157473,0.00791943236438544,1
153,372,12,0.0025787747005417,0.007690547035935,1
154,372,12,0.00210574502174411,0.0214236667429618,1
155,372,12,0.00199893186846723,0.0163424124513619,1
156,372,12,0.00234988937209125,0.00781261921110857,1
157,372,12,0.0309758144502937,0.00755321583886473,1
158,372,12,0.00160219729915312,0.00756847486076143,1
159,372,12,0.00198367284657053,0.00854505226215,1
160,372,12,0.018997482261387,0.00814831769283589,1
161,372,12,0.00242618448157473,0.0149691004806592,1
150,373,12,0.0282597085526818,0.00889600976577401,1
151,373,12,0.00378423743038071,0.00863660639353018,1
152,373,12,0.00205996795605402,0.0111238269626917,1
153,373,12,0.00163271534294652,0.00801098649576562,1
154,373,12,0.00193789578088045,0.00775158312352178,1
155,373,12,0.00263981078812848,0.00796520943007553,1
156,373,12,0.0202944991226062,0.0108949416342412,1
157,373,12,0.00219729915312428,0.00781261921110857,1
158,373,12,0.00207522697795071,0.00971999694819562,1
159,373,12,0.0450293736171511,0.00889600976577401,1
160,373,12,0.00463874265659571,0.00691233691920348,1
161,373,12,0.00398260471503777,0.0154879072251469,1
151,374,12,0.00151064316777295,0.0197299153124285,1
152,374,12,0.00221255817502098,0.00787365529869535,1
153,374,12,0.00244144350347143,0.0145876249332418,1
154,374,12,0.00209048599984741,0.0081177996490425,1
155,374,12,0.00160219729915312,0.00708018616006714,1
156,374,12,0.00192263675898375,0.0185702296482795,1
157,374,12,0.00216678110933089,0.0102693217364767,1
158,374,12,0.00236514839398795,0.00752269779507134,1
159,374,12,0.00241092545967803,0.0113527122911421,1
160,374,12,0.00198367284657053,0.00802624551766232,1
161,374,12,0.00224307621881437,0.0126344701304646,1
162,374,12,0.00202944991226062,0.0085297932402533,1
151,375,12,0.0251010910200656,0.00790417334248875,1
152,375,12,0.00418097199969482,0.00788891432059205,1
153,375,12,0.0025787747005417,0.00704966811627375,1
154,375,12,0.00230411230640116,0.00918593118181125,1
155,375,12,0.00286869611657893,0.0114290074006256,1
156,375,12,0.00447089341573205,0.0125276569771878,1
157,375,12,0.00196841382467384,0.00720225833524071,1
158,375,12,0.0021515220874342,0.01196307316701,1
159,375,12,0.00222781719691768,0.0157015335317006,1
160,375,12,0.00183108262760357,0.0149233234149691,1
161,375,12,0.00231937132829786,0.00714122224765393,1
162,375,12,0.00268558785381857,0.00773632410162509,1
152,376,12,0.002563515678645,0.00782787823300526,1
153,376,12,0.00227359426260777,0.016739147020676,1
154,376,12,0.00190737773708705,0.00816357671473259,1
155,376,12,0.00201419089036393,0.0115815976195926,1
156,376,12,0.00279240100709545,0.0121309224078737,1
157,376,12,0.00262455176623178,0.0315251392385748,1
158,376,12,0.00453192950331884,0.0089417868314641,1
159,376,12,0.00198367284657053,0.0072327763790341,1
160,376,12,0.0154268711375601,0.0115815976195926,1
161,376,12,0.0111390859845884,0.00889600976577401,1
162,376,12,0.00282291905088884,0.00874341954680705,1
163,376,12,0.00479133287556268,0.00732433051041428,1
152,377,12,0.00222781719691768,0.00721751735713741,1
153,377,12,0.00190737773708705,0.00776684214541848,1
154,377,12,0.00216678110933089,0.0169680323491264,1
155,377,12,0.00202944991226062,0.00782787823300526,1
156,377,12,0.00143434805828946,0.00761425192645151,1
157,377,12,0.00222781719691768,0.00758373388265812,1
158,377,12,0.00216678110933089,0.0119020370794232,1
159,377,12,0.00205996795605402,0.0177767605096513,1
160,377,12,0.00239566643778134,0.00807202258335241,1
161,377,12,0.0034027618829633,0.00840772106507973,1
162,377,12,0.0167696650644694,0.0177615014877546,1
163,377,12,0.0753032730601968,0.007690547035935,1
153,378,12,0.0290226596475166,0.00753795681696803,1
154,378,12,0.0227817196917678,0.00720225833524071,1
155,378,12,0.00341802090486,0.00773632410162509,1
156,378,12,0.0559700923170825,0.00747692072938125,1
157,378,12,0.00251773861295491,0.0119020370794232,1
158,378,12,0.00204470893415732,0.00836194399938964,1
159,378,12,0.00184634164950027,0.014724956130312,1
160,378,12,0.00602731364919509,0.00953688868543526,1
161,378,12,0.00651560234988937,0.0150911726558328,1
162,378,12,0.00225833524071107,0.0098115510795758,1
163,378,12,0.00193789578088045,0.00959792477302205,1
153,379,12,0.0324406805523766,0.00727855344472419,1
154,379,12,0.0017242694743267,0.00779736018921187,1
155,379,12,0.00242618448157473,0.00785839627679866,1
156,379,12,0.00199893186846723,0.00758373388265812,1
157,379,12,0.00184634164950027,0.0162050812542916,1
158,379,12,0.0119325551232166,0.0148470283054856,1
159,379,12,0.0029907682917525,0.00798046845197223,1
160,379,12,0.00230411230640116,0.00753795681696803,1
161,379,12,0.00195315480277714,0.00866712443732357,1
162,379,12,0.002563515678645,0.00918593118181125,1
163,379,12,0.00375371938658732,0.0115815976195926,1
164,379,12,0.0220187685969329,0.00740062561989776,1
154,380,12,0.0312962539101244,0.00749217975127794,1
155,380,12,0.00251773861295491,0.00929274433508812,1
156,380,12,0.0309910734721904,0.0110017547875181,1
157,380,12,0.0110475318532082,0.00788891432059205,1
158,380,12,0.0203250171663996,0.00762951094834821,1
159,380,12,0.00242618448157473,0.00997940032043946,1
160,380,12,0.00209048599984741,0.00770580605783169,1
161,380,12,0.0238040741588464,0.0081025406271458,1
162,380,12,0.00216678110933089,0.0131380178530556,1
163,380,12,0.00193789578088045,0.0188601510643168,1
164,380,12,0.00253299763485161,0.0106813153276875,1
155,381,12,0.0021362630655375,0.00791943236438544,1
156,381,12,0.00283817807278553,0.0169680323491264,1
157,381,12,0.0159304188601511,0.0100709544518196,1
158,381,12,0.0021515220874342,0.0100556954299229,1
159,381,12,0.00180056458381018,0.00799572747386892,1
160,381,12,0.00196841382467384,0.016235599298085,1
161,381,12,0.00289921416037232,0.0244754711223011,1
162,381,12,0.002563515678645,0.007690547035935,1
163,381,12,0.00154116121156634,0.0109102006561379,1
164,381,12,0.00189211871519036,0.00906385900663768,1
156,382,12,0.0184786755168994,0.0100556954299229,1
157,382,12,0.00209048599984741,0.0187838559548333,1
158,382,12,0.0136263065537499,0.0196231021591516,1
159,382,12,0.00267032883192187,0.0153200579842832,1
160,382,12,0.00184634164950027,0.00836194399938964,1
161,382,12,0.0199588006408789,0.00805676356145571,1
162,382,12,0.00273136491950866,0.00802624551766232,1
163,382,12,0.00239566643778134,0.00891126878767071,1
164,382,12,0.00202944991226062,0.0129091325246052,1
156,383,12,0.0136110475318532,0.00793469138628214,1
157,383,12,0.00221255817502098,0.0080872816052491,1
158,383,12,0.00195315480277714,0.00929274433508812,1
159,383,12,0.00193789578088045,0.0111696040283818,1
160,383,12,0.00184634164950027,0.0128328374151217,1
161,383,12,0.00216678110933089,0.00872816052491035,1
162,383,12,0.00775158312352178,0.0203402761882963,1
163,383,12,0.00227359426260777,0.0164797436484321,1
164,383,12,0.00575265125505455,0.00830090791180285,1
157,384,12,0.00247196154726482,0.00764476997024491,1
158,384,12,0.00244144350347143,0.0111848630502785,1
159,384,12,0.00248722056916152,0.00737010757610437,1
160,384,12,0.0278629739833677,0.0280155642023346,1
161,384,12,0.00239566643778134,0.00775158312352178,1
162,384,12,0.00234988937209125,0.0127412832837415,1
163,384,12,0.00253299763485161,0.00790417334248875,1
158,385,12,0.00140383001449607,0.0157167925535973,1
159,385,12,0.00161745632104982,0.00714122224765393,1
160,385,12,0.00239566643778134,0.00715648126955062,1
161,385,12,0.00267032883192187,0.00819409475852598,1
162,385,12,0.00141908903639277,0.0173952849622339,1
163,385,12,0.00218204013122759,0.00973525597009232,1
159,386,12,0.0806591897459373,0.00929274433508812,1
160,386,12,0.00137331197070268,0.00773632410162509,1
161,386,12,0.0195162890058747,0.0152742809185931,1
162,386,12,0.0237430380712596,0.0313572899977111,1
159,387,12,0.00205996795605402,0.0117494468604562,1
160,387,12,0.00241092545967803,0.0214999618524453,1
161,387,12,0.00234988937209125,0.009399557488365,1
162,387,12,0.00422674906538491,0.00749217975127794,1
156,369,13,0.00228885328450446,0.00791943236438544,1
157,369,13,0.00369268329900053,0.00772106507972839,1
154,370,13,0.0021515220874342,0.00860608834973678,1
155,370,13,0.00163271534294652,0.00883497367818723,1
156,370,13,0.00233463035019455,0.00782787823300526,1
157,370,13,0.00265506981002518,0.0131837949187457,1
158,370,13,0.0021362630655375,0.0200350957503624,1
159,370,13,0.00204470893415732,0.0144655527580682,1
152,371,13,0.00903334096284428,0.00827038986800946,1
153,371,13,0.00759899290455482,0.0190432593270771,1
154,371,13,0.0107728694590677,0.00794995040817884,1
155,371,13,0.00233463035019455,0.00755321583886473,1
156,371,13,0.00204470893415732,0.00840772106507973,1
157,371,13,0.00402838178072786,0.00790417334248875,1
158,371,13,0.00381475547417411,0.00831616693369955,1
159,371,13,0.00201419089036393,0.00779736018921187,1
160,371,13,0.00283817807278553,0.0080872816052491,1
151,372,13,0.00196841382467384,0.0117189288166629,1
152,372,13,0.00204470893415732,0.0160219729915312,1
153,372,13,0.00221255817502098,0.00775158312352178,1
154,372,13,0.00199893186846723,0.00866712443732357,1
155,372,13,0.00180056458381018,0.0186160067139696,1
156,372,13,0.00241092545967803,0.0116578927290761,1
157,372,13,0.00201419089036393,0.00807202258335241,1
158,372,13,0.00189211871519036,0.00756847486076143,1
159,372,13,0.00193789578088045,0.0200656137941558,1
160,372,13,0.00260929274433509,0.0162966353856718,1
161,372,13,0.00195315480277714,0.00920119020370794,1
151,373,13,0.00733958953231098,0.00822461280231937,1
152,373,13,0.0125123979552911,0.0085297932402533,1
153,373,13,0.0016937514305333,0.0160982681010147,1
154,373,13,0.0131532768749523,0.00781261921110857,1
155,373,13,0.0116273746852827,0.00784313725490196,1
156,373,13,0.00173952849622339,0.00770580605783169,1
157,373,13,0.00230411230640116,0.0104676890211337,1
158,373,13,0.0451819638361181,0.0153353170061799,1
159,373,13,0.0029907682917525,0.0136568245975433,1
160,373,13,0.00845349813076982,0.007690547035935,1
161,373,13,0.00613412680247196,0.0149691004806592,1
162,373,13,0.00344853894865339,0.00802624551766232,1
151,374,13,0.00685130083161669,0.00796520943007553,1
152,374,13,0.00312809948882277,0.0154573891813535,1
153,374,13,0.0025787747005417,0.0156710154879072,1
154,374,13,0.00175478751812009,0.0100709544518196,1
155,374,13,0.00204470893415732,0.0103303578240635,1
156,374,13,0.0167544060425727,0.0164034485389487,1
157,374,13,0.0404821850919356,0.0109712367437247,1
158,374,13,0.00230411230640116,0.0111390859845884,1
159,374,13,0.00196841382467384,0.00773632410162509,1
160,374,13,0.00222781719691768,0.0229648279545281,1
161,374,13,0.00270084687571527,0.00773632410162509,1
162,374,13,0.00199893186846723,0.0081177996490425,1
151,375,13,0.00250247959105821,0.00932326237888151,1
152,375,13,0.00187685969329366,0.00756847486076143,1
153,375,13,0.00192263675898375,0.00762951094834821,1
154,375,13,0.00224307621881437,0.00718699931334401,1
155,375,13,0.0193484397650111,0.00914015411612116,1
156,375,13,0.0619211108567941,0.0116426337071794,1
157,375,13,0.00187685969329366,0.00959792477302205,1
158,375,13,0.0021362630655375,0.0138399328603037,1
159,375,13,0.0300755321583886,0.0102845807583734,1
160,375,13,0.0104982070649271,0.0230258640421149,1
161,375,13,0.00187685969329366,0.00802624551766232,1
162,375,13,0.0178072785534447,0.00781261921110857,1
152,376,13,0.00170901045243,0.00793469138628214,1
153,376,13,0.00225833524071107,0.0174258030060273,1
154,376,13,0.00218204013122759,0.00741588464179446,1
155,376,13,0.00186160067139696,0.0123903257801175,1
156,376,13,0.0098115510795758,0.00837720302128634,1
157,376,13,0.0223239490348669,0.00753795681696803,1
158,376,13,0.0303044174868391,0.0119935912108034,1
159,376,13,0.00625619897764553,0.00761425192645151,1
160,376,13,0.00233463035019455,0.00840772106507973,1
161,376,13,0.00198367284657053,0.00740062561989776,1
162,376,13,0.00195315480277714,0.0161440451667048,1
163,376,13,0.00216678110933089,0.00770580605783169,1
152,377,13,0.00524910353246357,0.00772106507972839,1
153,377,13,0.00189211871519036,0.00741588464179446,1
154,377,13,0.00228885328450446,0.007690547035935,1
155,377,13,0.0021515220874342,0.0076600289921416,1
156,377,13,0.0021515220874342,0.0158999008163577,1
157,377,13,0.00205996795605402,0.00773632410162509,1
158,377,13,0.00209048599984741,0.00820935378042268,1
159,377,13,0.00198367284657053,0.0207827878233005,1
160,377,13,0.00170901045243,0.0141298542763409,1
161,377,13,0.0021210040436408,0.00817883573662928,1
162,377,13,0.00210574502174411,0.00805676356145571,1
163,377,13,0.00218204013122759,0.0247196154726482,1
153,378,13,0.00222781719691768,0.00775158312352178,1
154,378,13,0.00228885328450446,0.00720225833524071,1
155,378,13,0.00158693827725643,0.00741588464179446,1
156,378,13,0.00268558785381857,0.0291142137788968,1
157,378,13,0.00718699931334401,0.0081025406271458,1
158,378,13,0.0236972610055695,0.0117189288166629,1
159,378,13,0.00379949645227741,0.0142671854734112,1
160,378,13,0.0117799649042496,0.0179903868162051,1
161,378,13,0.00267032883192187,0.007690547035935,1
162,378,13,0.0021362630655375,0.00796520943007553,1
163,378,13,0.0121766994735637,0.007690547035935,1
154,379,13,0.00184634164950027,0.0113832303349355,1
155,379,13,0.00221255817502098,0.00814831769283589,1
156,379,13,0.00233463035019455,0.00753795681696803,1
157,379,13,0.0456702525368124,0.025833524071107,1
158,379,13,0.031265735866331,0.00827038986800946,1
159,379,13,0.00205996795605402,0.0108796826123445,1
160,379,13,0.00201419089036393,0.00872816052491035,1
161,379,13,0.00164797436484321,0.00973525597009232,1
162,379,13,0.00236514839398795,0.0283665217059586,1
163,379,13,0.0146028839551385,0.016083009079118,1
154,380,13,0.00280766002899214,0.00775158312352178,1
155,380,13,0.00173952849622339,0.00762951094834821,1
156,380,13,0.00161745632104982,0.0229037918669413,1
157,380,13,0.00196841382467384,0.00965896086060884,1
158,380,13,0.00263981078812848,0.0107423514152743,1
159,380,13,0.00202944991226062,0.00794995040817884,1
160,380,13,0.00189211871519036,0.00778210116731518,1
161,380,13,0.0021362630655375,0.0076752880140383,1
162,380,13,0.0337071793698024,0.0105745021744106,1
163,380,13,0.0256198977645533,0.0278934920271611,1
164,380,13,0.00590524147402152,0.00813305867093919,1
155,381,13,0.00253299763485161,0.00866712443732357,1
156,381,13,0.00289921416037232,0.00819409475852598,1
157,381,13,0.00444037537193866,0.00798046845197223,1
158,381,13,0.0257572289616236,0.0140383001449607,1
159,381,13,0.00227359426260777,0.00836194399938964,1
160,381,13,0.00189211871519036,0.0115815976195926,1
161,381,13,0.0228580148012512,0.00787365529869535,1
162,381,13,0.0574044403753719,0.00848401617456321,1
163,381,13,0.00225833524071107,0.0195620660715648,1
164,381,13,0.00146486610208286,0.0180819409475853,1
156,382,13,0.00204470893415732,0.0111696040283818,1
157,382,13,0.00228885328450446,0.00788891432059205,1
158,382,13,0.00224307621881437,0.0331273365377279,1
159,382,13,0.00177004654001678,0.00759899290455482,1
160,382,13,0.00227359426260777,0.00836194399938964,1
161,382,13,0.00195315480277714,0.00746166170748455,1
162,382,13,0.0276188296330205,0.00799572747386892,1
163,382,13,0.0123598077363241,0.00903334096284428,1
164,382,13,0.0210421911955444,0.0106355382619974,1
156,383,13,0.00517280842298009,0.0115510795757992,1
157,383,13,0.00167849240863661,0.0190890363927672,1
158,383,13,0.002563515678645,0.0203097581445029,1
159,383,13,0.00914015411612116,0.0359960326543069,1
160,383,13,0.00231937132829786,0.0102845807583734,1
161,383,13,0.00856031128404669,0.0127107652399481,1
162,383,13,0.00265506981002518,0.0081177996490425,1
163,383,13,0.0204776073853666,0.00740062561989776,1
164,383,13,0.00625619897764553,0.0072327763790341,1
157,384,13,0.0171206225680934,0.0229648279545281,1
158,384,13,0.00718699931334401,0.00744640268558785,1
159,384,13,0.00836194399938964,0.0125886930647745,1
160,384,13,0.0212405584802014,0.00869764248111696,1
161,384,13,0.00823987182421607,0.00964370183871214,1
162,384,13,0.00225833524071107,0.00753795681696803,1
163,384,13,0.00143434805828946,0.00784313725490196,1
158,385,13,0.0121004043640803,0.0080872816052491,1
159,385,13,0.00915541313801785,0.0186312657358663,1
160,385,13,0.00575265125505455,0.0119935912108034,1
161,385,13,0.0538948653391318,0.021515220874342,1
162,385,13,0.00177004654001678,0.0197756923781186,1
163,385,13,0.00181582360570687,0.019501029983978,1
159,386,13,0.0021515220874342,0.0112458991378653,1
160,386,13,0.0243533989471275,0.00747692072938125,1
161,386,13,0.0051117723353933,0.0081177996490425,1
162,386,13,0.0103761348897536,0.00943007553215839,1
159,387,13,0.0406500343327993,0.0139772640573739,1
160,387,13,0.0227817196917678,0.00752269779507134,1
161,387,13,0.00202944991226062,0.00952162966353857,1
162,387,13,0.00164797436484321,0.00827038986800946,1
154,370,14,0.00241092545967803,0.010605020218204,1
155,370,14,0.00234988937209125,0.00749217975127794,1
156,370,14,0.00170901045243,0.00799572747386892,1
157,370,14,0.00218204013122759,0.00807202258335241,1
158,370,14,0.00239566643778134,0.0183566033417258,1
159,370,14,0.00262455176623178,0.00778210116731518,1
153,371,14,0.0487983520256352,0.0089417868314641,1
154,371,14,0.0021515220874342,0.00743114366369116,1
155,371,14,0.00247196154726482,0.0114137483787289,1
156,371,14,0.00236514839398795,0.00793469138628214,1
157,371,14,0.00265506981002518,0.00752269779507134,1
158,371,14,0.00216678110933089,0.0125581750209812,1
159,371,14,0.0021515220874342,0.0243381399252308,1
160,371,14,0.00207522697795071,0.00733958953231098,1
152,372,14,0.00247196154726482,0.00927748531319142,1
153,372,14,0.0128480964370184,0.0122835126268406,1
154,372,14,0.00784313725490196,0.00991836423285267,1
155,372,14,0.0174563210498207,0.0107270923933776,1
156,372,14,0.00482185091935607,0.00807202258335241,1
157,372,14,0.00216678110933089,0.00741588464179446,1
158,372,14,0.00971999694819562,0.0100251773861295,1
159,372,14,0.0110475318532082,0.0170595864805066,1
160,372,14,0.00196841382467384,0.00801098649576562,1
161,372,14,0.00173952849622339,0.00764476997024491,1
151,373,14,0.00231937132829786,0.00790417334248875,1
152,373,14,0.00190737773708705,0.00761425192645151,1
153,373,14,0.0021210040436408,0.00788891432059205,1
154,373,14,0.00231937132829786,0.00817883573662928,1
155,373,14,0.00244144350347143,0.00820935378042268,1
156,373,14,0.00199893186846723,0.0126955062180514,1
157,373,14,0.00193789578088045,0.018997482261387,1
158,373,14,0.00222781719691768,0.0102082856488899,1
159,373,14,0.0100251773861295,0.00956740672922866,1
160,373,14,0.00195315480277714,0.00715648126955062,1
161,373,14,0.00196841382467384,0.0107881284809644,1
162,373,14,0.00274662394140536,0.00926222629129473,1
152,374,14,0.00241092545967803,0.0267185473411154,1
153,374,14,0.00230411230640116,0.00929274433508812,1
154,374,14,0.0175631342030976,0.00753795681696803,1
155,374,14,0.00184634164950027,0.0130769817654688,1
156,374,14,0.00228885328450446,0.0111238269626917,1
157,374,14,0.00334172579537652,0.00779736018921187,1
158,374,14,0.0331578545815213,0.00692759594110018,1
159,374,14,0.00201419089036393,0.00877393759060044,1
160,374,14,0.00189211871519036,0.00854505226215,1
161,374,14,0.00265506981002518,0.00799572747386892,1
162,374,14,0.00550850690470741,0.00735484855420768,1
152,375,14,0.00189211871519036,0.0189211871519036,1
153,375,14,0.00173952849622339,0.00712596322575723,1
154,375,14,0.011810482948043,0.00735484855420768,1
155,375,14,0.0468604562447547,0.00836194399938964,1
156,375,14,0.00393682764934768,0.00773632410162509,1
157,375,14,0.00193789578088045,0.00733958953231098,1
158,375,14,0.00231937132829786,0.00790417334248875,1
159,375,14,0.0180209048599985,0.00788891432059205,1
160,375,14,0.00155642023346304,0.00868238345922026,1
161,375,14,0.00138857099259937,0.0130312046997787,1
162,375,14,0.0201113908598459,0.0103913939116503,1
152,376,14,0.00202944991226062,0.0145876249332418,1
153,376,14,0.00236514839398795,0.0169832913710231,1
154,376,14,0.00242618448157473,0.0142671854734112,1
155,376,14,0.00178530556191348,0.0137788967727169,1
156,376,14,0.0021515220874342,0.0128328374151217,1
157,376,14,0.00239566643778134,0.0297703517204547,1
158,376,14,0.00219729915312428,0.00813305867093919,1
159,376,14,0.00646982528419928,0.0199893186846723,1
160,376,14,0.00186160067139696,0.00785839627679866,1
161,376,14,0.00267032883192187,0.0119172961013199,1
162,376,14,0.0151369497215229,0.0170138094148165,1
163,376,14,0.00396734569314107,0.0177309834439612,1
153,377,14,0.00177004654001678,0.0133669031815061,1
154,377,14,0.00173952849622339,0.00975051499198901,1
155,377,14,0.00251773861295491,0.0202792401007095,1
156,377,14,0.00227359426260777,0.00759899290455482,1
157,377,14,0.00177004654001678,0.0115663385976959,1
158,377,14,0.00184634164950027,0.0131380178530556,1
159,377,14,0.00248722056916152,0.00755321583886473,1
160,377,14,0.00227359426260777,0.00758373388265812,1
161,377,14,0.00170901045243,0.00880445563439384,1
162,377,14,0.00198367284657053,0.0227664606698711,1
163,377,14,0.00433356221866178,0.00756847486076143,1
153,378,14,0.00221255817502098,0.0114290074006256,1
154,378,14,0.00210574502174411,0.0143282215609979,1
155,378,14,0.00173952849622339,0.0218356603341726,1
156,378,14,0.00193789578088045,0.012161440451667,1
157,378,14,0.00239566643778134,0.0127412832837415,1
158,378,14,0.00233463035019455,0.00892652780956741,1
159,378,14,0.00180056458381018,0.00807202258335241,1
160,378,14,0.00202944991226062,0.00880445563439384,1
161,378,14,0.0287327382314794,0.00848401617456321,1
162,378,14,0.00244144350347143,0.00796520943007553,1
163,378,14,0.00134279392690929,0.0214541847867552,1
154,379,14,0.00238040741588464,0.0160524910353246,1
155,379,14,0.00636301213092241,0.00781261921110857,1
156,379,14,0.00474555580987259,0.0221408407721065,1
157,379,14,0.00167849240863661,0.00738536659800107,1
158,379,14,0.00218204013122759,0.0104982070649271,1
159,379,14,0.00236514839398795,0.0114900434882124,1
160,379,14,0.0158541237506676,0.011261158159762,1
161,379,14,0.00219729915312428,0.0157930876630808,1
162,379,14,0.0201113908598459,0.0100862134737163,1
163,379,14,0.00251773861295491,0.00781261921110857,1
155,380,14,0.00201419089036393,0.0104829480430304,1
156,380,14,0.0316777294575418,0.0207217517357137,1
157,380,14,0.00222781719691768,0.0132448310063325,1
158,380,14,0.00222781719691768,0.013168535896849,1
159,380,14,0.00152590218966964,0.00898756389715419,1
160,380,14,0.00180056458381018,0.00753795681696803,1
161,380,14,0.00222781719691768,0.00976577401388571,1
162,380,14,0.00848401617456321,0.0106355382619974,1
163,380,14,0.00201419089036393,0.010757610437171,1
155,381,14,0.00251773861295491,0.00798046845197223,1
156,381,14,0.00225833524071107,0.00827038986800946,1
157,381,14,0.00161745632104982,0.00749217975127794,1
158,381,14,0.00219729915312428,0.00733958953231098,1
159,381,14,0.002563515678645,0.0080872816052491,1
160,381,14,0.00207522697795071,0.00798046845197223,1
161,381,14,0.0206759746700237,0.00762951094834821,1
162,381,14,0.00238040741588464,0.0115205615320058,1
163,381,14,0.0693064774547952,0.00779736018921187,1
164,381,14,0.00242618448157473,0.0118410009918364,1
156,382,14,0.0021515220874342,0.0198825055313954,1
157,382,14,0.0243228809033341,0.00761425192645151,1
158,382,14,0.00270084687571527,0.00743114366369116,1
159,382,14,0.00209048599984741,0.00814831769283589,1
160,382,14,0.00190737773708705,0.0076600289921416,1
161,382,14,0.00929274433508812,0.00976577401388571,1
162,382,14,0.052323186083772,0.00778210116731518,1
163,382,14,0.00192263675898375,0.0209353780422675,1
157,383,14,0.0541237506675822,0.0154116121156634,1
158,383,14,0.011261158159762,0.00746166170748455,1
159,383,14,0.00315861753261616,0.017944609750515,1
160,383,14,0.00259403372243839,0.00776684214541848,1
161,383,14,0.0289158464942397,0.00880445563439384,1
162,383,14,0.00671396963454643,0.00750743877317464,1
163,383,14,0.00695811398489357,0.00701915007248035,1
157,384,14,0.00189211871519036,0.0212863355458915,1
158,384,14,0.0358281834134432,0.00787365529869535,1
159,384,14,0.00228885328450446,0.00823987182421607,1
160,384,14,0.00222781719691768,0.0140688181887541,1
161,384,14,0.00216678110933089,0.00785839627679866,1
162,384,14,0.00239566643778134,0.00758373388265812,1
163,384,14,0.00209048599984741,0.0178683146410315,1
158,385,14,0.0176394293125811,0.0115205615320058,1
159,385,14,0.00891126878767071,0.0144045166704814,1
160,385,14,0.00218204013122759,0.0475623712520027,1
161,385,14,0.00177004654001678,0.00747692072938125,1
162,385,14,0.00190737773708705,0.00862134737163348,1
163,385,14,0.00236514839398795,0.00827038986800946,1
159,386,14,0.0025482566567483,0.00883497367818723,1
160,386,14,0.0021210040436408,0.00773632410162509,1
161,386,14,0.00201419089036393,0.00782787823300526,1
162,386,14,0.00729381246662089,0.0103303578240635,1
163,386,14,0.0132448310063325,0.00799572747386892,1
160,387,14,0.00277714198519875,0.00802624551766232,1
161,387,14,0.00209048599984741,0.0089417868314641,1
162,387,14,0.00183108262760357,0.0097962920576791,1
160,388,14,0.00209048599984741,0.0101319905394064,1
152,369,23,0.00434882124055848,0.00798046845197223,1
153,369,23,0.00218204013122759,0.00862134737163348,1
154,369,23,0.00228885328450446,0.0103761348897536,1
155,369,23,0.0021210040436408,0.00814831769283589,1
156,369,23,0.0021210040436408,0.00845349813076982,1
151,370,23,0.00782787823300526,0.00738536659800107,1
152,370,23,0.0320592050049592,0.00740062561989776,1
153,370,23,0.0025482566567483,0.00781261921110857,1
154,370,23,0.00259403372243839,0.00794995040817884,1
155,370,23,0.00205996795605402,0.0143129625391012,1
156,370,23,0.0017242694743267,0.007690547035935,1
157,370,23,0.00253299763485161,0.00997940032043946,1
150,371,23,0.0076752880140383,0.00952162966353857,1
151,371,23,0.00205996795605402,0.0243991760128176,1
152,371,23,0.00189211871519036,0.0144502937361715,1
153,371,23,0.00231937132829786,0.0148012512397955,1
154,371,23,0.0021210040436408,0.00762951094834821,1
155,371,23,0.00358587014572366,0.0116578927290761,1
156,371,23,0.00248722056916152,0.00906385900663768,1
157,371,23,0.0116273746852827,0.00901808194094758,1
158,371,23,0.00138857099259937,0.00807202258335241,1
150,372,23,0.00205996795605402,0.00802624551766232,1
151,372,23,0.0376287479972534,0.018646524757763,1
152,372,23,0.00209048599984741,0.00799572747386892,1
153,372,23,0.0314335851071946,0.00791943236438544,1
154,372,23,0.00247196154726482,0.00804150453955901,1
155,372,23,0.00328068970778973,0.00749217975127794,1
156,372,23,0.0147707331960021,0.0128328374151217,1
157,372,23,0.0337071793698024,0.0102845807583734,1
158,372,23,0.00317387655451286,0.015030136568246,1
159,372,23,0.0012664988174258,0.00787365529869535,1
150,373,23,0.00608834973678187,0.00816357671473259,1
151,373,23,0.00202944991226062,0.00833142595559625,1
152,373,23,0.0146639200427253,0.00804150453955901,1
153,373,23,0.00712596322575723,0.00756847486076143,1
154,373,23,0.00204470893415732,0.00776684214541848,1
155,373,23,0.00227359426260777,0.00802624551766232,1
156,373,23,0.00265506981002518,0.0161287861448081,1
157,373,23,0.00599679560540169,0.0076600289921416,1
158,373,23,0.00196841382467384,0.00788891432059205,1
159,373,23,0.00190737773708705,0.0113527122911421,1
160,373,23,0.019150072480354,0.0111848630502785,1
150,374,23,0.00262455176623178,0.010406652933547,1
151,374,23,0.00183108262760357,0.0145113298237583,1
152,374,23,0.00152590218966964,0.00796520943007553,1
153,374,23,0.0166323338673991,0.00801098649576562,1
154,374,23,0.00286869611657893,0.00929274433508812,1
155,374,23,0.00183108262760357,0.0152590218966964,1
156,374,23,0.00146486610208286,0.0156252384222171,1
157,374,23,0.0324101625085832,0.00830090791180285,1
158,374,23,0.0127718013275349,0.0151064316777295,1
159,374,23,0.0233920805676356,0.00781261921110857,1
160,374,23,0.00183108262760357,0.00968947890440223,1
161,374,23,0.00224307621881437,0.0101319905394064,1
151,375,23,0.00218204013122759,0.00790417334248875,1
152,375,23,0.00233463035019455,0.00782787823300526,1
153,375,23,0.00205996795605402,0.00802624551766232,1
154,375,23,0.00192263675898375,0.00885023270008392,1
155,375,23,0.00224307621881437,0.0120241092545968,1
156,375,23,0.00250247959105821,0.00753795681696803,1
157,375,23,0.0234683756771191,0.00827038986800946,1
158,375,23,0.00186160067139696,0.0253757534142061,1
159,375,23,0.00253299763485161,0.0136568245975433,1
160,375,23,0.0025482566567483,0.0101319905394064,1
161,375,23,0.00190737773708705,0.00817883573662928,1
152,376,23,0.0154421301594568,0.0147707331960021,1
153,376,23,0.00247196154726482,0.00950637064164187,1
154,376,23,0.00228885328450446,0.00741588464179446,1
155,376,23,0.00170901045243,0.0076752880140383,1
156,376,23,0.00233463035019455,0.0202029449912261,1
157,376,23,0.0021362630655375,0.00889600976577401,1
158,376,23,0.00216678110933089,0.0171663996337835,1
159,376,23,0.00164797436484321,0.00804150453955901,1
160,376,23,0.0149843595025559,0.00881971465629053,1
161,376,23,0.00544747081712062,0.0076600289921416,1
152,377,23,0.00209048599984741,0.0107270923933776,1
153,377,23,0.00224307621881437,0.00991836423285267,1
154,377,23,0.00151064316777295,0.00802624551766232,1
155,377,23,0.00219729915312428,0.0136568245975433,1
156,377,23,0.00189211871519036,0.00929274433508812,1
157,377,23,0.00164797436484321,0.0089723048752575,1
158,377,23,0.00205996795605402,0.0165407797360189,1
159,377,23,0.00924696726939803,0.00782787823300526,1
160,377,23,0.00239566643778134,0.00901808194094758,1
161,377,23,0.00131227588311589,0.00776684214541848,1
153,378,23,0.00267032883192187,0.00927748531319142,1
154,378,23,0.00227359426260777,0.00793469138628214,1
155,378,23,0.0273289082169833,0.00805676356145571,1
156,378,23,0.00183108262760357,0.0171053635461967,1
157,378,23,0.00588998245212482,0.0144960708018616,1
158,378,23,0.00230411230640116,0.00772106507972839,1
159,378,23,0.0150453955901427,0.00988784618905928,1
160,378,23,0.00204470893415732,0.00782787823300526,1
161,378,23,0.00271610589761196,0.00753795681696803,1
162,378,23,0.00207522697795071,0.0102845807583734,1
154,379,23,0.00218204013122759,0.00839246204318303,1
155,379,23,0.0157015335317006,0.0167238879987793,1
156,379,23,0.0195925841153582,0.0210421911955444,1
157,379,23,0.0109407186999313,0.00778210116731518,1
158,379,23,0.015884641794461,0.00817883573662928,1
159,379,23,0.0068055237659266,0.00747692072938125,1
160,379,23,0.0203402761882963,0.00857557030594339,1
161,379,23,0.00138857099259937,0.00914015411612116,1
162,379,23,0.00186160067139696,0.0138399328603037,1
154,380,23,0.00251773861295491,0.01025406271458,1
155,380,23,0.00463874265659571,0.007690547035935,1
156,380,23,0.00199893186846723,0.0081025406271458,1
157,380,23,0.0423590447852293,0.00781261921110857,1
158,380,23,0.00279240100709545,0.0233768215457389,1
159,380,23,0.00178530556191348,0.0129243915465019,1
160,380,23,0.00221255817502098,0.00779736018921187,1
161,380,23,0.00193789578088045,0.00799572747386892,1
162,380,23,0.0220492866407263,0.0196841382467384,1
155,381,23,0.0021515220874342,0.00973525597009232,1
156,381,23,0.024780651560235,0.0102845807583734,1
157,381,23,0.0111238269626917,0.0150759136339361,1
158,381,23,0.00195315480277714,0.00737010757610437,1
159,381,23,0.0021362630655375,0.00900282291905089,1
160,381,23,0.00227359426260777,0.0112153810940719,1
161,381,23,0.00578316929884794,0.00799572747386892,1
162,381,23,0.00225833524071107,0.00761425192645151,1
156,382,23,0.00201419089036393,0.00762951094834821,1
157,382,23,0.0272220950637064,0.00830090791180285,1
158,382,23,0.0100404364080262,0.0193636987869078,1
159,382,23,0.00166323338673991,0.00764476997024491,1
160,382,23,0.00196841382467384,0.00755321583886473,1
161,382,23,0.00241092545967803,0.00790417334248875,1
157,383,23,0.0120088502327001,0.00790417334248875,1
158,383,23,0.01538109407187,0.00737010757610437,1
159,383,23,0.00709544518196384,0.00827038986800946,1
160,383,23,0.00143434805828946,0.0110780498970016,1
161,383,23,0.0332188906691081,0.00915541313801785,1
158,384,23,0.00346379797055009,0.00799572747386892,1
159,384,23,0.002563515678645,0.00801098649576562,1
160,384,23,0.00158693827725643,0.0160067139696345,1
161,384,23,0.00456244754711223,0.0318760967421988,1
159,385,23,0.00222781719691768,0.00784313725490196,1
160,385,23,0.0021362630655375,0.0116884107728695,1
161,385,23,0.0455176623178454,0.0146334019989319,1
160,386,23,0.0089417868314641,0.0182345311665522,1
152,369,24,0.00953688868543526,0.00831616693369955,1
153,369,24,0.00195315480277714,0.0106813153276875,1
154,369,24,0.00180056458381018,0.0106660563057908,1
155,369,24,0.00195315480277714,0.0072327763790341,1
156,369,24,0.00434882124055848,0.00773632410162509,1
151,370,24,0.00163271534294652,0.00762951094834821,1
152,370,24,0.00227359426260777,0.00749217975127794,1
153,370,24,0.00202944991226062,0.0106507972838941,1
154,370,24,0.0196841382467384,0.00784313725490196,1
155,370,24,0.0342717631799802,0.00788891432059205,1
156,370,24,0.0205539024948501,0.0113374532692454,1
157,370,24,0.0195315480277714,0.00776684214541848,1
158,370,24,0.00163271534294652,0.00781261921110857,1
150,371,24,0.00320439459830625,0.0211642633707179,1
151,371,24,0.00222781719691768,0.00950637064164187,1
152,371,24,0.00135805294880598,0.0102845807583734,1
153,371,24,0.0021515220874342,0.00823987182421607,1
154,371,24,0.00218204013122759,0.0134126802471962,1
155,371,24,0.00227359426260777,0.0129396505683986,1
156,371,24,0.00198367284657053,0.00845349813076982,1
157,371,24,0.00209048599984741,0.00935378042267491,1
158,371,24,0.00389105058365759,0.00744640268558785,1
159,371,24,0.00187685969329366,0.00772106507972839,1
150,372,24,0.00247196154726482,0.0127107652399481,1
151,372,24,0.00199893186846723,0.0133516441596094,1
152,372,24,0.00196841382467384,0.00814831769283589,1
153,372,24,0.00259403372243839,0.00753795681696803,1
154,372,24,0.00189211871519036,0.00933852140077821,1
155,372,24,0.00207522697795071,0.0113221942473487,1
156,372,24,0.0029755092698558,0.0139772640573739,1
157,372,24,0.00224307621881437,0.00782787823300526,1
158,372,24,0.00219729915312428,0.00848401617456321,1
159,372,24,0.00221255817502098,0.00788891432059205,1
160,372,24,0.00242618448157473,0.0145571068894484,1
149,373,24,0.00653086137178607,0.0115358205539025,1
150,373,24,0.00170901045243,0.00904859998474098,1
151,373,24,0.00959792477302205,0.00790417334248875,1
152,373,24,0.00228885328450446,0.00804150453955901,1
153,373,24,0.00163271534294652,0.00790417334248875,1
154,373,24,0.00228885328450446,0.0123903257801175,1
155,373,24,0.0347447928587778,0.00898756389715419,1
156,373,24,0.00231937132829786,0.00805676356145571,1
157,373,24,0.00180056458381018,0.0131074998092622,1
158,373,24,0.0021362630655375,0.00743114366369116,1
159,373,24,0.00221255817502098,0.0203860532539864,1
160,373,24,0.00315861753261616,0.00787365529869535,1
150,374,24,0.00189211871519036,0.018448157473106,1
151,374,24,0.0256198977645533,0.00822461280231937,1
152,374,24,0.00178530556191348,0.012970168612192,1
153,374,24,0.00236514839398795,0.00798046845197223,1
154,374,24,0.00202944991226062,0.012466620889601,1
155,374,24,0.00178530556191348,0.0118410009918364,1
156,374,24,0.00773632410162509,0.00871290150301366,1
157,374,24,0.00192263675898375,0.0137636377508202,1
158,374,24,0.0156099794003204,0.00840772106507973,1
159,374,24,0.0305485618371862,0.00752269779507134,1
160,374,24,0.00976577401388571,0.00793469138628214,1
161,374,24,0.00234988937209125,0.00733958953231098,1
150,375,24,0.0211184863050278,0.00849927519645991,1
151,375,24,0.00186160067139696,0.00813305867093919,1
152,375,24,0.00170901045243,0.00782787823300526,1
153,375,24,0.0255436026550698,0.00798046845197223,1
154,375,24,0.00184634164950027,0.0102082856488899,1
155,375,24,0.00192263675898375,0.0156557564660105,1
156,375,24,0.00546272983901732,0.0166628519111925,1
157,375,24,0.00335698481727321,0.0149843595025559,1
158,375,24,0.00244144350347143,0.0103303578240635,1
159,375,24,0.0133363851377127,0.00799572747386892,1
160,375,24,0.0128633554589151,0.019501029983978,1
161,375,24,0.00503547722590982,0.00791943236438544,1
151,376,24,0.0017242694743267,0.00836194399938964,1
152,376,24,0.00231937132829786,0.00888075074387732,1
153,376,24,0.00193789578088045,0.00836194399938964,1
154,376,24,0.00183108262760357,0.0165407797360189,1
155,376,24,0.00801098649576562,0.0201876859693294,1
156,376,24,0.00187685969329366,0.00790417334248875,1
157,376,24,0.0529335469596399,0.0176699473563745,1
158,376,24,0.00193789578088045,0.00773632410162509,1
159,376,24,0.00190737773708705,0.00776684214541848,1
160,376,24,0.0347142748149844,0.00802624551766232,1
161,376,24,0.00245670252536812,0.0101472495613031,1
162,376,24,0.00149538414587625,0.0249027237354086,1
152,377,24,0.00859082932784009,0.00816357671473259,1
153,377,24,0.00173952849622339,0.00732433051041428,1
154,377,24,0.0021515220874342,0.00788891432059205,1
155,377,24,0.00180056458381018,0.011612115663386,1
156,377,24,0.00622568093385214,0.00840772106507973,1
157,377,24,0.00230411230640116,0.00733958953231098,1
158,377,24,0.0017242694743267,0.0081025406271458,1
159,377,24,0.00714122224765393,0.0140993362325475,1
160,377,24,0.00204470893415732,0.00770580605783169,1
161,377,24,0.0108491645685512,0.00990310521095598,1
162,377,24,0.0287327382314794,0.0111390859845884,1
152,378,24,0.0179903868162051,0.014023041123064,1
153,378,24,0.00160219729915312,0.00817883573662928,1
154,378,24,0.00674448767833982,0.0171358815899901,1
155,378,24,0.00184634164950027,0.00727855344472419,1
156,378,24,0.00227359426260777,0.0169222552834363,1
157,378,24,0.00189211871519036,0.0119783321889067,1
158,378,24,0.00193789578088045,0.00756847486076143,1
159,378,24,0.00198367284657053,0.0157930876630808,1
160,378,24,0.00154116121156634,0.0176546883344778,1
161,378,24,0.00125123979552911,0.00833142595559625,1
162,378,24,0.00204470893415732,0.00802624551766232,1
153,379,24,0.00216678110933089,0.00801098649576562,1
154,379,24,0.00201419089036393,0.00764476997024491,1
155,379,24,0.0021210040436408,0.00827038986800946,1
156,379,24,0.00225833524071107,0.0185702296482795,1
157,379,24,0.00189211871519036,0.02392614633402,1
158,379,24,0.0318455786984054,0.00888075074387732,1
159,379,24,0.00181582360570687,0.0081177996490425,1
160,379,24,0.0021210040436408,0.00732433051041428,1
161,379,24,0.00221255817502098,0.0181277180132754,1
162,379,24,0.00175478751812009,0.00822461280231937,1
154,380,24,0.00479133287556268,0.00827038986800946,1
155,380,24,0.00244144350347143,0.0101472495613031,1
156,380,24,0.00442511635004196,0.0200350957503624,1
157,380,24,0.0063935301747158,0.0111390859845884,1
158,380,24,0.00279240100709545,0.00813305867093919,1
159,380,24,0.00198367284657053,0.0267338063630121,1
160,380,24,0.0364538033112078,0.00791943236438544,1
161,380,24,0.0110170138094148,0.00807202258335241,1
162,380,24,0.00216678110933089,0.0111238269626917,1
154,381,24,0.00187685969329366,0.0111543450064851,1
155,381,24,0.00701915007248035,0.0107728694590677,1
156,381,24,0.00239566643778134,0.00991836423285267,1
157,381,24,0.0137788967727169,0.0142214084077211,1
158,381,24,0.00498970016021973,0.00796520943007553,1
159,381,24,0.025833524071107,0.0122682536049439,1
160,381,24,0.00538643472953384,0.0143129625391012,1
161,381,24,0.00161745632104982,0.0140840772106508,1
162,381,24,0.00173952849622339,0.0221255817502098,1
155,382,24,0.00187685969329366,0.0115510795757992,1
156,382,24,0.00181582360570687,0.0137331197070268,1
157,382,24,0.00210574502174411,0.0129396505683986,1
158,382,24,0.00909437705043107,0.0156252384222171,1
159,382,24,0.0186617837796597,0.00746166170748455,1
160,382,24,0.0209048599984741,0.00868238345922026,1
161,382,24,0.0109712367437247,0.00798046845197223,1
162,382,24,0.0105134660868238,0.0149233234149691,1
156,383,24,0.00250247959105821,0.0119783321889067,1
157,383,24,0.00201419089036393,0.0219119554436561,1
158,383,24,0.0127260242618448,0.00750743877317464,1
159,383,24,0.0228885328450446,0.00796520943007553,1
160,383,24,0.00242618448157473,0.00788891432059205,1
161,383,24,0.00177004654001678,0.0220950637064164,1
162,383,24,0.00177004654001678,0.00746166170748455,1
157,384,24,0.00239566643778134,0.00802624551766232,1
158,384,24,0.0196231021591516,0.00830090791180285,1
159,384,24,0.00228885328450446,0.00848401617456321,1
160,384,24,0.00163271534294652,0.00862134737163348,1
161,384,24,0.00204470893415732,0.0123292896925307,1
162,384,24,0.00225833524071107,0.00759899290455482,1
157,385,24,0.00201419089036393,0.0100404364080262,1
158,385,24,0.00187685969329366,0.010757610437171,1
159,385,24,0.00236514839398795,0.0081177996490425,1
160,385,24,0.002563515678645,0.00762951094834821,1
161,385,24,0.00196841382467384,0.00799572747386892,1
158,386,24,0.0487678339818418,0.00764476997024491,1
159,386,24,0.0021362630655375,0.00978103303578241,1
160,386,24,0.00279240100709545,0.0178377965972381,1
161,386,24,0.0055542839703975,0.00828564888990616,1
159,387,24,0.00570687418936446,0.00889600976577401,1
160,387,24,0.0021362630655375,0.0106965743495842,1
153,369,25,0.0247348744945449,0.00804150453955901,1
154,369,25,0.0055237659266041,0.0209506370641642,1
155,369,25,0.0021210040436408,0.00752269779507134,1
156,369,25,0.0124971389333944,0.00796520943007553,1
151,370,25,0.00222781719691768,0.00798046845197223,1
152,370,25,0.0316777294575418,0.00730907148851759,1
153,370,25,0.0113221942473487,0.00701915007248035,1
154,370,25,0.0021515220874342,0.0161440451667048,1
155,370,25,0.0218051422903792,0.00904859998474098,1
156,370,25,0.0108033875028611,0.0098268101014725,1
157,370,25,0.0113374532692454,0.00953688868543526,1
158,370,25,0.0021362630655375,0.00918593118181125,1
151,371,25,0.0227054245822843,0.0105134660868238,1
152,371,25,0.00262455176623178,0.0249637598229953,1
153,371,25,0.00199893186846723,0.0102693217364767,1
154,371,25,0.0141451132982376,0.0289921416037232,1
155,371,25,0.00183108262760357,0.0102388036926833,1
156,371,25,0.00219729915312428,0.00735484855420768,1
157,371,25,0.00170901045243,0.00788891432059205,1
158,371,25,0.00177004654001678,0.0141451132982376,1
159,371,25,0.00148012512397955,0.00825513084611276,1
150,372,25,0.00190737773708705,0.0132295719844358,1
151,372,25,0.0025787747005417,0.014023041123064,1
152,372,25,0.00227359426260777,0.00772106507972839,1
153,372,25,0.0016937514305333,0.0076752880140383,1
154,372,25,0.00230411230640116,0.0124818799114977,1
155,372,25,0.0021210040436408,0.00799572747386892,1
156,372,25,0.00186160067139696,0.0202792401007095,1
157,372,25,0.00457770656900893,0.00909437705043107,1
158,372,25,0.00444037537193866,0.00959792477302205,1
159,372,25,0.00245670252536812,0.00790417334248875,1
160,372,25,0.00161745632104982,0.010452429999237,1
150,373,25,0.00167849240863661,0.0276646066987106,1
151,373,25,0.0147096971084154,0.0214541847867552,1
152,373,25,0.00209048599984741,0.00775158312352178,1
153,373,25,0.00199893186846723,0.0242923628595407,1
154,373,25,0.00395208667124437,0.00779736018921187,1
155,373,25,0.00170901045243,0.0103303578240635,1
156,373,25,0.00201419089036393,0.00755321583886473,1
157,373,25,0.00242618448157473,0.00712596322575723,1
158,373,25,0.00399786373693446,0.00753795681696803,1
159,373,25,0.00259403372243839,0.00944533455405508,1
160,373,25,0.00224307621881437,0.00793469138628214,1
161,373,25,0.00180056458381018,0.0100251773861295,1
150,374,25,0.0493781948577096,0.00735484855420768,1
151,374,25,0.0104982070649271,0.0113221942473487,1
152,374,25,0.00216678110933089,0.0262455176623178,1
153,374,25,0.00151064316777295,0.00791943236438544,1
154,374,25,0.00192263675898375,0.00776684214541848,1
155,374,25,0.0021210040436408,0.00762951094834821,1
156,374,25,0.0126039520866712,0.0106355382619974,1
157,374,25,0.00408941786831464,0.0157473105973907,1
158,374,25,0.00160219729915312,0.0198977645532921,1
159,374,25,0.00263981078812848,0.00914015411612116,1
160,374,25,0.00364690623331044,0.0115968566414893,1
161,374,25,0.00236514839398795,0.00743114366369116,1
150,375,25,0.00579842832074464,0.0121766994735637,1
151,375,25,0.00181582360570687,0.00782787823300526,1
152,375,25,0.00204470893415732,0.00758373388265812,1
153,375,25,0.00241092545967803,0.00772106507972839,1
154,375,25,0.00187685969329366,0.00772106507972839,1
155,375,25,0.00178530556191348,0.00770580605783169,1
156,375,25,0.00230411230640116,0.0117799649042496,1
157,375,25,0.00268558785381857,0.0134584573128862,1
158,375,25,0.00151064316777295,0.00827038986800946,1
159,375,25,0.00857557030594339,0.00930800335698482,1
160,375,25,0.00154116121156634,0.00932326237888151,1
161,375,25,0.03930724040589,0.00798046845197223,1
151,376,25,0.0125429159990845,0.007690547035935,1
152,376,25,0.00456244754711223,0.00819409475852598,1
153,376,25,0.00221255817502098,0.00856031128404669,1
154,376,25,0.00222781719691768,0.00793469138628214,1
155,376,25,0.00207522697795071,0.0125276569771878,1
156,376,25,0.00163271534294652,0.0182803082322423,1
157,376,25,0.00195315480277714,0.00743114366369116,1
158,376,25,0.00514229037918669,0.00830090791180285,1
159,376,25,0.00454718852521553,0.00971999694819562,1
160,376,25,0.0016937514305333,0.00827038986800946,1
161,376,25,0.00209048599984741,0.0118410009918364,1
162,376,25,0.0021210040436408,0.0128023193713283,1
151,377,25,0.00201419089036393,0.00970473792629892,1
152,377,25,0.0025482566567483,0.0199435416189822,1
153,377,25,0.0021362630655375,0.0140840772106508,1
154,377,25,0.020859082932784,0.016388189517052,1
155,377,25,0.00238040741588464,0.00836194399938964,1
156,377,25,0.00231937132829786,0.014526588845655,1
157,377,25,0.00177004654001678,0.0131532768749523,1
158,377,25,0.00151064316777295,0.0131532768749523,1
159,377,25,0.00205996795605402,0.00955214770733196,1
160,377,25,0.00282291905088884,0.00730907148851759,1
161,377,25,0.00236514839398795,0.018097199969482,1
162,377,25,0.0017242694743267,0.00837720302128634,1
152,378,25,0.00881971465629053,0.00781261921110857,1
153,378,25,0.0139162279697871,0.00753795681696803,1
154,378,25,0.00279240100709545,0.017242694743267,1
155,378,25,0.00567635614557107,0.00798046845197223,1
156,378,25,0.0289311055161364,0.00770580605783169,1
157,378,25,0.0030060273136492,0.00746166170748455,1
158,378,25,0.0192263675898375,0.00733958953231098,1
159,378,25,0.0400854505226215,0.0119783321889067,1
160,378,25,0.00186160067139696,0.00997940032043946,1
161,378,25,0.00657663843747616,0.00758373388265812,1
162,378,25,0.0187228198672465,0.00720225833524071,1
153,379,25,0.00228885328450446,0.0117952239261463,1
154,379,25,0.0130312046997787,0.0133669031815061,1
155,379,25,0.00166323338673991,0.0131074998092622,1
156,379,25,0.00489814602883955,0.0189059281300069,1
157,379,25,0.00204470893415732,0.00976577401388571,1
158,379,25,0.00175478751812009,0.0241550316624704,1
159,379,25,0.00239566643778134,0.0151674677653162,1
160,379,25,0.00187685969329366,0.00749217975127794,1
161,379,25,0.0606546120393683,0.00740062561989776,1
162,379,25,0.00177004654001678,0.00790417334248875,1
153,380,25,0.0112001220721752,0.0122682536049439,1
154,380,25,0.00187685969329366,0.0076752880140383,1
155,380,25,0.00199893186846723,0.0123750667582208,1
156,380,25,0.00195315480277714,0.0167849240863661,1
157,380,25,0.00219729915312428,0.016586556801709,1
158,380,25,0.0296787975890745,0.0113527122911421,1
159,380,25,0.00199893186846723,0.0115815976195926,1
160,380,25,0.0290226596475166,0.0140688181887541,1
161,380,25,0.00177004654001678,0.00732433051041428,1
162,380,25,0.0171511406118868,0.00962844281681544,1
154,381,25,0.00231937132829786,0.00965896086060884,1
155,381,25,0.00198367284657053,0.00918593118181125,1
156,381,25,0.00227359426260777,0.00849927519645991,1
157,381,25,0.00527962157625696,0.00854505226215,1
158,381,25,0.00671396963454643,0.00741588464179446,1
159,381,25,0.00224307621881437,0.0072327763790341,1
160,381,25,0.00158693827725643,0.0098115510795758,1
161,381,25,0.00192263675898375,0.00817883573662928,1
162,381,25,0.0179598687724117,0.00775158312352178,1
155,382,25,0.0402990768291753,0.0125429159990845,1
156,382,25,0.00350957503624018,0.00904859998474098,1
157,382,25,0.00204470893415732,0.00820935378042268,1
158,382,25,0.0476386663614862,0.00793469138628214,1
159,382,25,0.00222781719691768,0.00814831769283589,1
160,382,25,0.00195315480277714,0.00968947890440223,1
161,382,25,0.00308232242313268,0.00712596322575723,1
162,382,25,0.00964370183871214,0.015228503852903,1
156,383,25,0.00218204013122759,0.00743114366369116,1
157,383,25,0.00184634164950027,0.00801098649576562,1
158,383,25,0.00817883573662928,0.00779736018921187,1
159,383,25,0.0272526131074998,0.0210421911955444,1
160,383,25,0.0123292896925307,0.00805676356145571,1
161,383,25,0.00666819256885634,0.0115663385976959,1
162,383,25,0.0017242694743267,0.00798046845197223,1
156,384,25,0.018142977035172,0.0072480354009308,1
157,384,25,0.00160219729915312,0.0137941557946136,1
158,384,25,0.00904859998474098,0.0155947203784237,1
159,384,25,0.00225833524071107,0.0151064316777295,1
160,384,25,0.00166323338673991,0.015533684290837,1
161,384,25,0.00247196154726482,0.0185397116044862,1
162,384,25,0.0138857099259937,0.00787365529869535,1
157,385,25,0.0178683146410315,0.00756847486076143,1
158,385,25,0.00451667048142214,0.00836194399938964,1
159,385,25,0.00201419089036393,0.00949111161974517,1
160,385,25,0.00177004654001678,0.00804150453955901,1
161,385,25,0.00233463035019455,0.00744640268558785,1
162,385,25,0.00148012512397955,0.00958266575112535,1
158,386,25,0.0246585793850614,0.00729381246662089,1
159,386,25,0.00184634164950027,0.00778210116731518,1
160,386,25,0.00183108262760357,0.0076752880140383,1
161,386,25,0.0789806973373007,0.0098115510795758,1
159,387,25,0.00277714198519875,0.00738536659800107,1
160,387,25,0.0361943999389639,0.00775158312352178,1
154,369,26,0.00161745632104982,0.0205996795605402,1
155,369,26,0.00180056458381018,0.00788891432059205,1
156,369,26,0.00189211871519036,0.00781261921110857,1
152,370,26,0.00177004654001678,0.0159456778820478,1
153,370,26,0.0198672465094987,0.0081025406271458,1
154,370,26,0.00303654535744259,0.00770580605783169,1
155,370,26,0.00177004654001678,0.00804150453955901,1
156,370,26,0.00177004654001678,0.00970473792629892,1
157,370,26,0.0025787747005417,0.0138857099259937,1
158,370,26,0.00173952849622339,0.0112764171816587,1
151,371,26,0.00228885328450446,0.0076600289921416,1
152,371,26,0.0137178606851301,0.0144197756923781,1
153,371,26,0.00195315480277714,0.0216830701152056,1
154,371,26,0.00175478751812009,0.00791943236438544,1
155,371,26,0.00222781719691768,0.00753795681696803,1
156,371,26,0.00239566643778134,0.00975051499198901,1
157,371,26,0.00190737773708705,0.00778210116731518,1
158,371,26,0.00170901045243,0.0152895399404898,1
159,371,26,0.00248722056916152,0.0111696040283818,1
151,372,26,0.012817578393225,0.00796520943007553,1
152,372,26,0.0140840772106508,0.00796520943007553,1
153,372,26,0.00189211871519036,0.0116884107728695,1
154,372,26,0.00263981078812848,0.0234531166552224,1
155,372,26,0.00151064316777295,0.0100862134737163,1
156,372,26,0.00164797436484321,0.0142977035172045,1
157,372,26,0.00395208667124437,0.00729381246662089,1
158,372,26,0.0161287861448081,0.00790417334248875,1
159,372,26,0.00730907148851759,0.0150606546120394,1
160,372,26,0.00178530556191348,0.00790417334248875,1
151,373,26,0.00196841382467384,0.00730907148851759,1
152,373,26,0.00227359426260777,0.00846875715266651,1
153,373,26,0.00236514839398795,0.0173342488746471,1
154,373,26,0.00158693827725643,0.00820935378042268,1
155,373,26,0.00170901045243,0.0121766994735637,1
156,373,26,0.00233463035019455,0.0109407186999313,1
157,373,26,0.00228885328450446,0.00935378042267491,1
158,373,26,0.00137331197070268,0.00860608834973678,1
159,373,26,0.00178530556191348,0.00984206912336919,1
160,373,26,0.028351262684062,0.0139314869916838,1
161,373,26,0.00196841382467384,0.0102998397802701,1
151,374,26,0.0510566872663462,0.0100099183642329,1
152,374,26,0.00144960708018616,0.00825513084611276,1
153,374,26,0.00117494468604562,0.00776684214541848,1
154,374,26,0.00187685969329366,0.00762951094834821,1
155,374,26,0.0021362630655375,0.00926222629129473,1
156,374,26,0.00360112916762036,0.0171663996337835,1
157,374,26,0.00199893186846723,0.0097962920576791,1
158,374,26,0.00225833524071107,0.00759899290455482,1
159,374,26,0.0021210040436408,0.00802624551766232,1
160,374,26,0.00157167925535973,0.00788891432059205,1
161,374,26,0.00228885328450446,0.0247348744945449,1
151,375,26,0.0278019378957809,0.0072327763790341,1
152,375,26,0.0337224383916991,0.00729381246662089,1
153,375,26,0.00238040741588464,0.0085145342183566,1
154,375,26,0.0179751277943084,0.00819409475852598,1
155,375,26,0.00199893186846723,0.00747692072938125,1
156,375,26,0.0137178606851301,0.0076752880140383,1
157,375,26,0.0184786755168994,0.0198367284657053,1
158,375,26,0.0055542839703975,0.0120241092545968,1
159,375,26,0.00224307621881437,0.0161440451667048,1
160,375,26,0.00222781719691768,0.0115053025101091,1
161,375,26,0.0165712977798123,0.00825513084611276,1
162,375,26,0.0262607766842145,0.0143129625391012,1
151,376,26,0.00238040741588464,0.00802624551766232,1
152,376,26,0.00218204013122759,0.00784313725490196,1
153,376,26,0.00143434805828946,0.00813305867093919,1
154,376,26,0.00132753490501259,0.00779736018921187,1
155,376,26,0.00190737773708705,0.00831616693369955,1
156,376,26,0.00271610589761196,0.019150072480354,1
157,376,26,0.00888075074387732,0.00764476997024491,1
158,376,26,0.00729381246662089,0.00785839627679866,1
159,376,26,0.0169832913710231,0.00947585259784848,1
160,376,26,0.0112001220721752,0.0153505760280766,1
161,376,26,0.00163271534294652,0.0183871213855192,1
162,376,26,0.00376897840848402,0.0129549095902953,1
151,377,26,0.00181582360570687,0.00787365529869535,1
152,377,26,0.00195315480277714,0.00790417334248875,1
153,377,26,0.025482566567483,0.00816357671473259,1
154,377,26,0.00196841382467384,0.0176089112687877,1
155,377,26,0.00572213321126116,0.00784313725490196,1
156,377,26,0.0125276569771878,0.00759899290455482,1
157,377,26,0.0173952849622339,0.0179293507286183,1
158,377,26,0.00230411230640116,0.00889600976577401,1
159,377,26,0.00195315480277714,0.00721751735713741,1
160,377,26,0.0021362630655375,0.0157015335317006,1
161,377,26,0.0021362630655375,0.0081177996490425,1
162,377,26,0.00308232242313268,0.0125276569771878,1
152,378,26,0.00233463035019455,0.0229648279545281,1
153,378,26,0.00651560234988937,0.00798046845197223,1
154,378,26,0.00207522697795071,0.00750743877317464,1
155,378,26,0.0202182040131228,0.0172579537651637,1
156,378,26,0.0262302586404211,0.0080872816052491,1
157,378,26,0.0167238879987793,0.00784313725490196,1
158,378,26,0.00177004654001678,0.0207370107576104,1
159,378,26,0.00184634164950027,0.0115968566414893,1
160,378,26,0.00192263675898375,0.0158236057068742,1
161,378,26,0.00234988937209125,0.007690547035935,1
162,378,26,0.00262455176623178,0.00762951094834821,1
153,379,26,0.00195315480277714,0.0151064316777295,1
154,379,26,0.00225833524071107,0.00843823910887312,1
155,379,26,0.0219272144655528,0.00772106507972839,1
156,379,26,0.00488288700694285,0.00770580605783169,1
157,379,26,0.0196231021591516,0.00827038986800946,1
158,379,26,0.00207522697795071,0.0189211871519036,1
159,379,26,0.0199282825970855,0.00946059357595178,1
160,379,26,0.002563515678645,0.00775158312352178,1
161,379,26,0.00170901045243,0.0125886930647745,1
162,379,26,0.00225833524071107,0.00828564888990616,1
153,380,26,0.00196841382467384,0.00805676356145571,1
154,380,26,0.00192263675898375,0.0133058670939193,1
155,380,26,0.00219729915312428,0.00779736018921187,1
156,380,26,0.00184634164950027,0.0111543450064851,1
157,380,26,0.00202944991226062,0.00779736018921187,1
158,380,26,0.0135042343785763,0.00779736018921187,1
159,380,26,0.00250247959105821,0.00834668497749294,1
160,380,26,0.00221255817502098,0.013168535896849,1
161,380,26,0.00410467689021134,0.0122987716487373,1
162,380,26,0.00238040741588464,0.00933852140077821,1
154,381,26,0.00233463035019455,0.00798046845197223,1
155,381,26,0.00218204013122759,0.0081177996490425,1
156,381,26,0.00234988937209125,0.0122377355611505,1
157,381,26,0.00233463035019455,0.00869764248111696,1
158,381,26,0.00193789578088045,0.0109864957656214,1
159,381,26,0.00236514839398795,0.00846875715266651,1
160,381,26,0.00248722056916152,0.00820935378042268,1
161,381,26,0.00204470893415732,0.00801098649576562,1
162,381,26,0.0021515220874342,0.00813305867093919,1
155,382,26,0.00209048599984741,0.00813305867093919,1
156,382,26,0.00180056458381018,0.00871290150301366,1
157,382,26,0.00234988937209125,0.00772106507972839,1
158,382,26,0.00163271534294652,0.0081025406271458,1
159,382,26,0.0315861753261616,0.0111238269626917,1
160,382,26,0.0312352178225376,0.00746166170748455,1
161,382,26,0.00332646677347982,0.00804150453955901,1
162,382,26,0.00218204013122759,0.00907911802853437,1
155,383,26,0.00605783169298848,0.00834668497749294,1
156,383,26,0.0133058670939193,0.0145723659113451,1
157,383,26,0.00228885328450446,0.0466620889600977,1
158,383,26,0.0021362630655375,0.00987258716716258,1
159,383,26,0.00262455176623178,0.0147707331960021,1
160,383,26,0.00955214770733196,0.0100404364080262,1
161,383,26,0.00238040741588464,0.00927748531319142,1
162,383,26,0.00248722056916152,0.00782787823300526,1
156,384,26,0.0182497901884489,0.007690547035935,1
157,384,26,0.00274662394140536,0.00892652780956741,1
158,384,26,0.0181277180132754,0.0182040131227588,1
159,384,26,0.0396124208438239,0.00961318379491875,1
160,384,26,0.011612115663386,0.00802624551766232,1
161,384,26,0.00869764248111696,0.00816357671473259,1
162,384,26,0.0303807125963226,0.0081177996490425,1
157,385,26,0.00230411230640116,0.00756847486076143,1
158,385,26,0.00233463035019455,0.0109864957656214,1
159,385,26,0.00869764248111696,0.0143587396047913,1
160,385,26,0.0021210040436408,0.00772106507972839,1
161,385,26,0.00189211871519036,0.0121004043640803,1
162,385,26,0.00201419089036393,0.0117647058823529,1
157,386,26,0.0177615014877546,0.00778210116731518,1
158,386,26,0.0025787747005417,0.00973525597009232,1
159,386,26,0.00389105058365759,0.00764476997024491,1
160,386,26,0.0300907911802853,0.00704966811627375,1
161,386,26,0.00204470893415732,0.00807202258335241,1
158,387,26,0.00587472343022812,0.0103150988021668,1
159,387,26,0.0110017547875181,0.00790417334248875,1
160,387,26,0.00274662394140536,0.00791943236438544,1
159,388,26,0.00419623102159152,0.0130617227435721,1
155,369,27,0.00181582360570687,0.00819409475852598,1
152,370,27,0.00294499122606241,0.0124971389333944,1
153,370,27,0.00326543068589303,0.00886549172198062,1
154,370,27,0.00717174029144732,0.00787365529869535,1
155,370,27,0.0505683985656519,0.0120393682764935,1
156,370,27,0.00244144350347143,0.010452429999237,1
157,370,27,0.00209048599984741,0.014877546349279,1
158,370,27,0.0021515220874342,0.00827038986800946,1
152,371,27,0.00205996795605402,0.00946059357595178,1
153,371,27,0.00161745632104982,0.00741588464179446,1
154,371,27,0.0320439459830625,0.00758373388265812,1
155,371,27,0.00224307621881437,0.0229648279545281,1
156,371,27,0.00181582360570687,0.00807202258335241,1
157,371,27,0.0123750667582208,0.0276035706111238,1
158,371,27,0.00201419089036393,0.00823987182421607,1
159,371,27,0.002563515678645,0.0140840772106508,1
151,372,27,0.0227817196917678,0.0206912336919203,1
152,372,27,0.00177004654001678,0.007690547035935,1
153,372,27,0.00247196154726482,0.0135042343785763,1
154,372,27,0.00204470893415732,0.0171053635461967,1
155,372,27,0.00170901045243,0.00727855344472419,1
156,372,27,0.0017242694743267,0.00816357671473259,1
157,372,27,0.00233463035019455,0.00798046845197223,1
158,372,27,0.00433356221866178,0.00750743877317464,1
159,372,27,0.00175478751812009,0.0118715190356298,1
160,372,27,0.00521858548867018,0.0127260242618448,1
151,373,27,0.00250247959105821,0.010452429999237,1
152,373,27,0.00311284046692607,0.00906385900663768,1
153,373,27,0.00218204013122759,0.0160524910353246,1
154,373,27,0.0168917372396429,0.00773632410162509,1
155,373,27,0.00325017166399634,0.00827038986800946,1
156,373,27,0.00199893186846723,0.00788891432059205,1
157,373,27,0.026688029297322,0.0104219119554437,1
158,373,27,0.00177004654001678,0.00762951094834821,1
159,373,27,0.00222781719691768,0.0113832303349355,1
160,373,27,0.00244144350347143,0.0125581750209812,1
161,373,27,0.00196841382467384,0.0102845807583734,1
151,374,27,0.00209048599984741,0.0168001831082628,1
152,374,27,0.00103761348897536,0.00796520943007553,1
153,374,27,0.0215304798962387,0.0122987716487373,1
154,374,27,0.0144960708018616,0.00807202258335241,1
155,374,27,0.00230411230640116,0.0118257419699397,1
156,374,27,0.00154116121156634,0.00785839627679866,1
157,374,27,0.0093842984664683,0.00984206912336919,1
158,374,27,0.0254978255893797,0.0124055848020142,1
159,374,27,0.00891126878767071,0.011261158159762,1
160,374,27,0.0302128633554589,0.00932326237888151,1
161,374,27,0.00265506981002518,0.00778210116731518,1
151,375,27,0.0208896009765774,0.0105592431525139,1
152,375,27,0.00418097199969482,0.00779736018921187,1
153,375,27,0.00331120775158312,0.00965896086060884,1
154,375,27,0.00195315480277714,0.0149080643930724,1
155,375,27,0.00189211871519036,0.015228503852903,1
156,375,27,0.0128786144808118,0.00773632410162509,1
157,375,27,0.00199893186846723,0.0238956282902266,1
158,375,27,0.00198367284657053,0.0178072785534447,1
159,375,27,0.00753795681696803,0.0123292896925307,1
160,375,27,0.00259403372243839,0.027191577019913,1
161,375,27,0.00183108262760357,0.0125429159990845,1
162,375,27,0.00148012512397955,0.00804150453955901,1
151,376,27,0.00222781719691768,0.0109102006561379,1
152,376,27,0.0345616845960174,0.0111696040283818,1
153,376,27,0.0308384832532235,0.00874341954680705,1
154,376,27,0.00166323338673991,0.014373998626688,1
155,376,27,0.0021362630655375,0.012314030670634,1
156,376,27,0.002563515678645,0.0108796826123445,1
157,376,27,0.0121004043640803,0.0118867780575265,1
158,376,27,0.0154726482032502,0.00761425192645151,1
159,376,27,0.00227359426260777,0.00735484855420768,1
160,376,27,0.00247196154726482,0.0109407186999313,1
161,376,27,0.00230411230640116,0.00816357671473259,1
162,376,27,0.0296940566109712,0.00820935378042268,1
151,377,27,0.00187685969329366,0.0122072175173571,1
152,377,27,0.0479743648432136,0.0138094148165103,1
153,377,27,0.01538109407187,0.00694285496299687,1
154,377,27,0.00187685969329366,0.00953688868543526,1
155,377,27,0.0021210040436408,0.00932326237888151,1
156,377,27,0.04614328221561,0.0113832303349355,1
157,377,27,0.00137331197070268,0.010406652933547,1
158,377,27,0.00221255817502098,0.014877546349279,1
159,377,27,0.00199893186846723,0.00799572747386892,1
160,377,27,0.0305027847714961,0.00917067215991455,1
161,377,27,0.00178530556191348,0.00869764248111696,1
162,377,27,0.0128023193713283,0.00764476997024491,1
152,378,27,0.00148012512397955,0.00782787823300526,1
153,378,27,0.007690547035935,0.0169069962615396,1
154,378,27,0.0217288471808957,0.0134737163347829,1
155,378,27,0.00181582360570687,0.00753795681696803,1
156,378,27,0.00177004654001678,0.00781261921110857,1
157,378,27,0.00381475547417411,0.00761425192645151,1
158,378,27,0.0413824673838407,0.00793469138628214,1
159,378,27,0.00163271534294652,0.00901808194094758,1
160,378,27,0.0229953459983215,0.00770580605783169,1
161,378,27,0.00195315480277714,0.0124208438239109,1
162,378,27,0.00216678110933089,0.010955977721828,1
152,379,27,0.00196841382467384,0.0132753490501259,1
153,379,27,0.00228885328450446,0.00743114366369116,1
154,379,27,0.00187685969329366,0.0118867780575265,1
155,379,27,0.00199893186846723,0.00874341954680705,1
156,379,27,0.00189211871519036,0.00770580605783169,1
157,379,27,0.00288395513847562,0.00926222629129473,1
158,379,27,0.00349431601434348,0.00837720302128634,1
159,379,27,0.00154116121156634,0.00820935378042268,1
160,379,27,0.00627145799954223,0.00737010757610437,1
161,379,27,0.0593575951781491,0.0080872816052491,1
162,379,27,0.00532539864194705,0.00799572747386892,1
153,380,27,0.00154116121156634,0.0169527733272297,1
154,380,27,0.00164797436484321,0.0108644235904479,1
155,380,27,0.0025482566567483,0.00735484855420768,1
156,380,27,0.00152590218966964,0.00801098649576562,1
157,380,27,0.00205996795605402,0.00776684214541848,1
158,380,27,0.00184634164950027,0.00770580605783169,1
159,380,27,0.0021362630655375,0.00756847486076143,1
160,380,27,0.00344853894865339,0.007690547035935,1
161,380,27,0.0038300144960708,0.00787365529869535,1
162,380,27,0.00201419089036393,0.00756847486076143,1
153,381,27,0.00248722056916152,0.00714122224765393,1
154,381,27,0.0021515220874342,0.00782787823300526,1
155,381,27,0.00195315480277714,0.00831616693369955,1
156,381,27,0.0017242694743267,0.00743114366369116,1
157,381,27,0.00245670252536812,0.0125734340428779,1
158,381,27,0.00167849240863661,0.00839246204318303,1
159,381,27,0.00161745632104982,0.0126955062180514,1
160,381,27,0.00175478751812009,0.00816357671473259,1
161,381,27,0.00216678110933089,0.021210040436408,1
162,381,27,0.00193789578088045,0.00827038986800946,1
154,382,27,0.00599679560540169,0.00788891432059205,1
155,382,27,0.00187685969329366,0.00740062561989776,1
156,382,27,0.00192263675898375,0.00750743877317464,1
157,382,27,0.00431830319676509,0.0165560387579156,1
158,382,27,0.00448615243762875,0.00781261921110857,1
159,382,27,0.00173952849622339,0.00747692072938125,1
160,382,27,0.00231937132829786,0.0154573891813535,1
161,382,27,0.00178530556191348,0.00796520943007553,1
162,382,27,0.00178530556191348,0.007690547035935,1
155,383,27,0.00221255817502098,0.00738536659800107,1
156,383,27,0.00151064316777295,0.00802624551766232,1
157,383,27,0.00199893186846723,0.00848401617456321,1
158,383,27,0.00242618448157473,0.00755321583886473,1
159,383,27,0.00225833524071107,0.0103608758678569,1
160,383,27,0.00151064316777295,0.0204165712977798,1
161,383,27,0.00236514839398795,0.00750743877317464,1
162,383,27,0.00187685969329366,0.018097199969482,1
155,384,27,0.038101777676051,0.00764476997024491,1
156,384,27,0.00146486610208286,0.00822461280231937,1
157,384,27,0.0017242694743267,0.00784313725490196,1
158,384,27,0.00225833524071107,0.0158236057068742,1
159,384,27,0.0153353170061799,0.00761425192645151,1
160,384,27,0.00137331197070268,0.00869764248111696,1
161,384,27,0.00198367284657053,0.0109407186999313,1
162,384,27,0.012817578393225,0.0131074998092622,1
156,385,27,0.00198367284657053,0.00706492713817044,1
157,385,27,0.00794995040817884,0.0379644464789807,1
158,385,27,0.00250247959105821,0.0154421301594568,1
159,385,27,0.00167849240863661,0.0140535591668574,1
160,385,27,0.0021515220874342,0.00733958953231098,1
161,385,27,0.00205996795605402,0.00747692072938125,1
162,385,27,0.00173952849622339,0.0113679713130388,1
157,386,27,0.00219729915312428,0.00997940032043946,1
158,386,27,0.0294651712825208,0.00845349813076982,1
159,386,27,0.00186160067139696,0.0076752880140383,1
160,386,27,0.00184634164950027,0.00776684214541848,1
161,386,27,0.00228885328450446,0.0119020370794232,1
157,387,27,0.00193789578088045,0.00773632410162509,1
158,387,27,0.00224307621881437,0.00721751735713741,1
159,387,27,0.00207522697795071,0.00793469138628214,1
160,387,27,0.00794995040817884,0.017242694743267,1
158,388,27,0.00175478751812009,0.00785839627679866,1
159,388,27,0.0021515220874342,0.007690547035935,1
154,370,28,0.0388799877927825,0.00752269779507134,1
155,370,28,0.00608834973678187,0.0122987716487373,1
156,370,28,0.00218204013122759,0.00823987182421607,1
153,371,28,0.0021210040436408,0.00820935378042268,1
154,371,28,0.00381475547417411,0.00820935378042268,1
155,371,28,0.00817883573662928,0.00798046845197223,1
156,371,28,0.00152590218966964,0.00753795681696803,1
157,371,28,0.0021210040436408,0.00785839627679866,1
158,371,28,0.00230411230640116,0.00854505226215,1
152,372,28,0.00186160067139696,0.00833142595559625,1
153,372,28,0.00175478751812009,0.00825513084611276,1
154,372,28,0.00230411230640116,0.007690547035935,1
155,372,28,0.00672922865644312,0.00790417334248875,1
156,372,28,0.0514534218356603,0.014175631342031,1
157,372,28,0.00216678110933089,0.00805676356145571,1
158,372,28,0.00248722056916152,0.00749217975127794,1
159,372,28,0.00497444113832303,0.0081177996490425,1
152,373,28,0.00248722056916152,0.0076752880140383,1
153,373,28,0.00201419089036393,0.00984206912336919,1
154,373,28,0.00202944991226062,0.00791943236438544,1
155,373,28,0.00224307621881437,0.00831616693369955,1
156,373,28,0.00173952849622339,0.00772106507972839,1
157,373,28,0.00181582360570687,0.0076752880140383,1
158,373,28,0.00187685969329366,0.0192416266117342,1
159,373,28,0.00230411230640116,0.00782787823300526,1
160,373,28,0.00195315480277714,0.0118715190356298,1
152,374,28,0.00279240100709545,0.00825513084611276,1
153,374,28,0.0163118944075685,0.00820935378042268,1
154,374,28,0.00746166170748455,0.00781261921110857,1
155,374,28,0.00177004654001678,0.00781261921110857,1
156,374,28,0.002563515678645,0.00869764248111696,1
157,374,28,0.00164797436484321,0.00788891432059205,1
158,374,28,0.0016937514305333,0.0139620050354772,1
159,374,28,0.00155642023346304,0.0163118944075685,1
160,374,28,0.00303654535744259,0.00962844281681544,1
161,374,28,0.00326543068589303,0.0102388036926833,1
152,375,28,0.00964370183871214,0.00799572747386892,1
153,375,28,0.00210574502174411,0.00793469138628214,1
154,375,28,0.00575265125505455,0.00778210116731518,1
155,375,28,0.010757610437171,0.00804150453955901,1
156,375,28,0.002563515678645,0.00798046845197223,1
157,375,28,0.00224307621881437,0.00759899290455482,1
158,375,28,0.0272983901731899,0.00743114366369116,1
159,375,28,0.00247196154726482,0.0085145342183566,1
160,375,28,0.00219729915312428,0.0134126802471962,1
161,375,28,0.00180056458381018,0.00827038986800946,1
152,376,28,0.00196841382467384,0.0208438239108873,1
153,376,28,0.00178530556191348,0.00770580605783169,1
154,376,28,0.00234988937209125,0.00779736018921187,1
155,376,28,0.00119020370794232,0.00798046845197223,1
156,376,28,0.0196841382467384,0.0120698863202869,1
157,376,28,0.00241092545967803,0.00863660639353018,1
158,376,28,0.00326543068589303,0.0081025406271458,1
159,376,28,0.0017242694743267,0.007690547035935,1
160,376,28,0.0168459601739528,0.00781261921110857,1
161,376,28,0.00209048599984741,0.00802624551766232,1
152,377,28,0.00199893186846723,0.0076600289921416,1
153,377,28,0.00157167925535973,0.00988784618905928,1
154,377,28,0.00918593118181125,0.00846875715266651,1
155,377,28,0.0214694438086519,0.0133974212252995,1
156,377,28,0.00181582360570687,0.00798046845197223,1
157,377,28,0.00167849240863661,0.00770580605783169,1
158,377,28,0.00224307621881437,0.0081025406271458,1
159,377,28,0.0173647669184405,0.0089570458533608,1
160,377,28,0.0498207064927138,0.0162813763637751,1
161,377,28,0.00221255817502098,0.00874341954680705,1
162,377,28,0.00225833524071107,0.0190890363927672,1
152,378,28,0.00195315480277714,0.0212405584802014,1
153,378,28,0.0322880903334096,0.00834668497749294,1
154,378,28,0.0166323338673991,0.0158388647287709,1
155,378,28,0.00218204013122759,0.015533684290837,1
156,378,28,0.00236514839398795,0.0120393682764935,1
157,378,28,0.00230411230640116,0.0116731517509728,1
158,378,28,0.0561989776455329,0.00802624551766232,1
159,378,28,0.0212558175020981,0.00759899290455482,1
160,378,28,0.0350499732967117,0.00762951094834821,1
161,378,28,0.00190737773708705,0.00830090791180285,1
162,378,28,0.0117799649042496,0.00975051499198901,1
152,379,28,0.00202944991226062,0.00828564888990616,1
153,379,28,0.00158693827725643,0.00796520943007553,1
154,379,28,0.0187228198672465,0.00750743877317464,1
155,379,28,0.00352483405813687,0.00798046845197223,1
156,379,28,0.00192263675898375,0.00819409475852598,1
157,379,28,0.00164797436484321,0.00785839627679866,1
158,379,28,0.00216678110933089,0.0107270923933776,1
159,379,28,0.0017242694743267,0.00877393759060044,1
160,379,28,0.00198367284657053,0.00857557030594339,1
161,379,28,0.00209048599984741,0.0181124589913787,1
162,379,28,0.00201419089036393,0.025482566567483,1
153,380,28,0.0307164110780499,0.00770580605783169,1
154,380,28,0.00228885328450446,0.00863660639353018,1
155,380,28,0.0145876249332418,0.00822461280231937,1
156,380,28,0.00314335851071946,0.00802624551766232,1
157,380,28,0.00181582360570687,0.00883497367818723,1
158,380,28,0.00949111161974517,0.0110170138094148,1
159,380,28,0.0140840772106508,0.00805676356145571,1
160,380,28,0.00192263675898375,0.015228503852903,1
161,380,28,0.00195315480277714,0.00883497367818723,1
162,380,28,0.00192263675898375,0.00788891432059205,1
153,381,28,0.00222781719691768,0.0109712367437247,1
154,381,28,0.00234988937209125,0.00814831769283589,1
155,381,28,0.00457770656900893,0.0107270923933776,1
156,381,28,0.00274662394140536,0.00733958953231098,1
157,381,28,0.00219729915312428,0.0100556954299229,1
158,381,28,0.00204470893415732,0.0209506370641642,1
159,381,28,0.00177004654001678,0.00807202258335241,1
160,381,28,0.00184634164950027,0.00752269779507134,1
161,381,28,0.00164797436484321,0.0173037308308537,1
162,381,28,0.0021210040436408,0.00932326237888151,1
154,382,28,0.00190737773708705,0.0136415655756466,1
155,382,28,0.00202944991226062,0.0233463035019455,1
156,382,28,0.00234988937209125,0.0243839169909209,1
157,382,28,0.0179903868162051,0.00776684214541848,1
158,382,28,0.00175478751812009,0.00794995040817884,1
159,382,28,0.00177004654001678,0.00770580605783169,1
160,382,28,0.0021362630655375,0.0081025406271458,1
161,382,28,0.00831616693369955,0.00781261921110857,1
162,382,28,0.00196841382467384,0.013321126115816,1
155,383,28,0.00402838178072786,0.0125734340428779,1
156,383,28,0.00323491264209964,0.0192111085679408,1
157,383,28,0.00158693827725643,0.00900282291905089,1
158,383,28,0.00189211871519036,0.0224460212100404,1
159,383,28,0.00199893186846723,0.00793469138628214,1
160,383,28,0.00241092545967803,0.00807202258335241,1
161,383,28,0.00193789578088045,0.0187685969329366,1
162,383,28,0.00199893186846723,0.00840772106507973,1
155,384,28,0.0120088502327001,0.015533684290837,1
156,384,28,0.033829251544976,0.0216983291371023,1
157,384,28,0.010406652933547,0.0167849240863661,1
158,384,28,0.00175478751812009,0.00735484855420768,1
159,384,28,0.0149385824368658,0.0156710154879072,1
160,384,28,0.00224307621881437,0.00761425192645151,1
161,384,28,0.0016937514305333,0.00752269779507134,1
162,384,28,0.00155642023346304,0.0156557564660105,1
156,385,28,0.00193789578088045,0.00776684214541848,1
157,385,28,0.00222781719691768,0.00909437705043107,1
158,385,28,0.00234988937209125,0.00836194399938964,1
159,385,28,0.00181582360570687,0.0076600289921416,1
160,385,28,0.00192263675898375,0.00820935378042268,1
161,385,28,0.00885023270008392,0.0117036697947662,1
162,385,28,0.00743114366369116,0.00848401617456321,1
157,386,28,0.0442664225223163,0.0111390859845884,1
158,386,28,0.00218204013122759,0.0104676890211337,1
159,386,28,0.00123598077363241,0.00880445563439384,1
160,386,28,0.00404364080262455,0.00843823910887312,1
161,386,28,0.00498970016021973,0.00814831769283589,1
157,387,28,0.00164797436484321,0.00805676356145571,1
158,387,28,0.00163271534294652,0.0103913939116503,1
159,387,28,0.00242618448157473,0.0170138094148165,1
160,387,28,0.00242618448157473,0.00746166170748455,1
158,388,28,0.00453192950331884,0.00733958953231098,1
159,388,28,0.00178530556191348,0.00915541313801785,1
