x,y,z,fucci_ch00,fucci_ch02,cellCycle
505,576,28,0.0269626916914626,0.0120393682764935,3
506,576,28,0.0197909514000153,0.00761425192645151,3
503,577,28,0.00233463035019455,0.0122682536049439,3
504,577,28,0.0404211490043488,0.00744640268558785,3
505,577,28,0.0680247196154726,0.00698863202868696,3
506,577,28,0.0120851453421836,0.00778210116731518,3
507,577,28,0.0303196765087358,0.0104982070649271,3
501,578,28,0.00968947890440223,0.0120393682764935,3
502,578,28,0.00260929274433509,0.00968947890440223,3
503,578,28,0.00204470893415732,0.0126955062180514,3
504,578,28,0.00201419089036393,0.00775158312352178,3
505,578,28,0.00163271534294652,0.0107881284809644,3
506,578,28,0.00231937132829786,0.0221255817502098,3
507,578,28,0.00227359426260777,0.0151522087434195,3
499,579,28,0.00650034332799268,0.00813305867093919,3
500,579,28,0.00198367284657053,0.00753795681696803,3
501,579,28,0.00224307621881437,0.00804150453955901,3
502,579,28,0.00227359426260777,0.0115510795757992,3
503,579,28,0.00218204013122759,0.00859082932784009,3
504,579,28,0.0168154421301595,0.00801098649576562,3
505,579,28,0.0109407186999313,0.0233615625238422,3
506,579,28,0.00436408026245518,0.0110780498970016,3
507,579,28,0.0315098802166781,0.00755321583886473,3
498,580,28,0.00207522697795071,0.00874341954680705,3
499,580,28,0.00209048599984741,0.0080872816052491,3
500,580,28,0.00180056458381018,0.00820935378042268,3
501,580,28,0.00201419089036393,0.00782787823300526,3
502,580,28,0.00218204013122759,0.00720225833524071,3
503,580,28,0.00218204013122759,0.00788891432059205,3
504,580,28,0.00183108262760357,0.00825513084611276,3
505,580,28,0.00227359426260777,0.0173647669184405,3
506,580,28,0.00222781719691768,0.0141145952544442,3
507,580,28,0.0938277256427863,0.00993362325474937,3
498,581,28,0.00187685969329366,0.00802624551766232,3
499,581,28,0.00210574502174411,0.00761425192645151,3
500,581,28,0.00238040741588464,0.00759899290455482,3
501,581,28,0.00160219729915312,0.00816357671473259,3
502,581,28,0.00202944991226062,0.0081177996490425,3
503,581,28,0.00209048599984741,0.0102235446707866,3
504,581,28,0.00236514839398795,0.0140993362325475,3
505,581,28,0.00242618448157473,0.0223239490348669,3
506,581,28,0.0021515220874342,0.00828564888990616,3
507,581,28,0.0184786755168994,0.00830090791180285,3
499,582,28,0.00222781719691768,0.00798046845197223,3
500,582,28,0.0110322728313115,0.0168459601739528,3
501,582,28,0.00675974670023652,0.00959792477302205,3
502,582,28,0.00222781719691768,0.00727855344472419,3
503,582,28,0.00187685969329366,0.00749217975127794,3
504,582,28,0.00218204013122759,0.0080872816052491,3
505,582,28,0.0120241092545968,0.00920119020370794,3
506,582,28,0.00225833524071107,0.00820935378042268,3
507,582,28,0.00183108262760357,0.00788891432059205,3
499,583,28,0.00242618448157473,0.00770580605783169,3
500,583,28,0.00572213321126116,0.00753795681696803,3
501,583,28,0.00834668497749294,0.00820935378042268,3
502,583,28,0.00219729915312428,0.00837720302128634,3
503,583,28,0.00395208667124437,0.0117189288166629,3
504,583,28,0.0232547493705653,0.00816357671473259,3
505,583,28,0.00207522697795071,0.00764476997024491,3
506,583,28,0.00523384451056687,0.00788891432059205,3
500,584,28,0.0347295338368811,0.00804150453955901,3
501,584,28,0.00505073624780652,0.0126344701304646,3
502,584,28,0.0025482566567483,0.00802624551766232,3
503,584,28,0.0397650110627909,0.00802624551766232,3
504,584,28,0.00163271534294652,0.0143282215609979,3
505,584,28,0.00175478751812009,0.00805676356145571,3
506,575,29,0.00241092545967803,0.0081177996490425,3
504,576,29,0.0107423514152743,0.0182650492103456,3
505,576,29,0.00198367284657053,0.00778210116731518,3
506,576,29,0.0021515220874342,0.020355535210193,3
507,576,29,0.00210574502174411,0.00836194399938964,3
501,577,29,0.00582894636453803,0.00793469138628214,3
502,577,29,0.0042572671091783,0.0136415655756466,3
503,577,29,0.0100556954299229,0.00788891432059205,3
504,577,29,0.0130312046997787,0.0123598077363241,3
505,577,29,0.00202944991226062,0.0120546272983902,3
506,577,29,0.0101625085831998,0.0433813992523079,3
507,577,29,0.00584420538643473,0.0076600289921416,3
499,578,29,0.0274357213702602,0.00776684214541848,3
500,578,29,0.014526588845655,0.0081025406271458,3
501,578,29,0.00364690623331044,0.00787365529869535,3
502,578,29,0.00228885328450446,0.00837720302128634,3
503,578,29,0.0176089112687877,0.00978103303578241,3
504,578,29,0.00189211871519036,0.00819409475852598,3
505,578,29,0.00238040741588464,0.00872816052491035,3
506,578,29,0.0025787747005417,0.00820935378042268,3
507,578,29,0.00224307621881437,0.0089417868314641,3
508,578,29,0.00170901045243,0.0120393682764935,3
498,579,29,0.00241092545967803,0.0192263675898375,3
499,579,29,0.0025482566567483,0.00755321583886473,3
500,579,29,0.00204470893415732,0.00796520943007553,3
501,579,29,0.00199893186846723,0.00816357671473259,3
502,579,29,0.00187685969329366,0.0076600289921416,3
503,579,29,0.00244144350347143,0.00740062561989776,3
504,579,29,0.00251773861295491,0.0076752880140383,3
505,579,29,0.00402838178072786,0.00846875715266651,3
506,579,29,0.00448615243762875,0.0081177996490425,3
507,579,29,0.00183108262760357,0.00779736018921187,3
508,579,29,0.00222781719691768,0.00730907148851759,3
497,580,29,0.0114442664225223,0.00877393759060044,3
498,580,29,0.0299229419394217,0.0219577325093461,3
499,580,29,0.024979018844892,0.00878919661249714,3
500,580,29,0.0126192111085679,0.00793469138628214,3
501,580,29,0.00294499122606241,0.00770580605783169,3
502,580,29,0.034882124055848,0.0076600289921416,3
503,580,29,0.0884107728694591,0.0085145342183566,3
504,580,29,0.0021210040436408,0.00834668497749294,3
505,580,29,0.00224307621881437,0.016388189517052,3
506,580,29,0.00523384451056687,0.00874341954680705,3
507,580,29,0.0168307011520562,0.00831616693369955,3
508,580,29,0.00167849240863661,0.0133974212252995,3
498,581,29,0.00230411230640116,0.0150148775463493,3
499,581,29,0.00251773861295491,0.0109712367437247,3
500,581,29,0.00878919661249714,0.00791943236438544,3
501,581,29,0.00373846036469062,0.00793469138628214,3
502,581,29,0.00390630960555428,0.00805676356145571,3
503,581,29,0.00761425192645151,0.00735484855420768,3
504,581,29,0.0063782711528191,0.00744640268558785,3
505,581,29,0.0185244525825895,0.00816357671473259,3
506,581,29,0.0486915388723583,0.00820935378042268,3
507,581,29,0.00196841382467384,0.0117189288166629,3
508,581,29,0.0118410009918364,0.00798046845197223,3
498,582,29,0.00238040741588464,0.00816357671473259,3
499,582,29,0.00184634164950027,0.00798046845197223,3
500,582,29,0.00221255817502098,0.00799572747386892,3
501,582,29,0.0231174181734951,0.00784313725490196,3
502,582,29,0.0157930876630808,0.0168154421301595,3
503,582,29,0.00166323338673991,0.0144960708018616,3
504,582,29,0.0563210498207065,0.0134889753566796,3
505,582,29,0.00749217975127794,0.00823987182421607,3
506,582,29,0.0249485008010987,0.00791943236438544,3
507,582,29,0.00825513084611276,0.00823987182421607,3
499,583,29,0.00820935378042268,0.00801098649576562,3
500,583,29,0.0275577935454337,0.00801098649576562,3
501,583,29,0.00164797436484321,0.00830090791180285,3
502,583,29,0.00196841382467384,0.00794995040817884,3
503,583,29,0.00207522697795071,0.00772106507972839,3
504,583,29,0.00201419089036393,0.00796520943007553,3
505,583,29,0.00228885328450446,0.00846875715266651,3
506,583,29,0.0286259250782025,0.00836194399938964,3
507,583,29,0.0030060273136492,0.00735484855420768,3
500,584,29,0.00198367284657053,0.0199435416189822,3
501,584,29,0.0146639200427253,0.00881971465629053,3
502,584,29,0.00204470893415732,0.0169069962615396,3
503,584,29,0.00193789578088045,0.0115053025101091,3
504,584,29,0.00209048599984741,0.00787365529869535,3
505,584,29,0.00205996795605402,0.0076752880140383,3
506,584,29,0.00259403372243839,0.00816357671473259,3
506,575,30,0.0125123979552911,0.00790417334248875,3
504,576,30,0.00207522697795071,0.00772106507972839,3
505,576,30,0.00189211871519036,0.00775158312352178,3
506,576,30,0.00308232242313268,0.00796520943007553,3
507,576,30,0.0237277790493629,0.0152590218966964,3
501,577,30,0.00764476997024491,0.0114290074006256,3
502,577,30,0.024277103837644,0.0163729304951553,3
503,577,30,0.0179293507286183,0.00778210116731518,3
504,577,30,0.00199893186846723,0.00761425192645151,3
505,577,30,0.00186160067139696,0.00759899290455482,3
506,577,30,0.00801098649576562,0.0072632944228275,3
507,577,30,0.0260929274433509,0.00761425192645151,3
499,578,30,0.00170901045243,0.00773632410162509,3
500,578,30,0.00218204013122759,0.0072632944228275,3
501,578,30,0.00205996795605402,0.00758373388265812,3
502,578,30,0.00170901045243,0.0220950637064164,3
503,578,30,0.00186160067139696,0.00740062561989776,3
504,578,30,0.00202944991226062,0.00775158312352178,3
505,578,30,0.00181582360570687,0.00881971465629053,3
506,578,30,0.00354009308003357,0.00779736018921187,3
507,578,30,0.029251544975967,0.0076752880140383,3
498,579,30,0.0393987945372702,0.0276493476768139,3
499,579,30,0.0266117341878386,0.0076752880140383,3
500,579,30,0.00323491264209964,0.0109254596780346,3
501,579,30,0.00157167925535973,0.0143434805828946,3
502,579,30,0.00225833524071107,0.00738536659800107,3
503,579,30,0.0237582970931563,0.00868238345922026,3
504,579,30,0.0141298542763409,0.011612115663386,3
505,579,30,0.0464789806973373,0.007690547035935,3
506,579,30,0.00160219729915312,0.00773632410162509,3
507,579,30,0.0025787747005417,0.00746166170748455,3
508,579,30,0.00375371938658732,0.0072480354009308,3
497,580,30,0.00503547722590982,0.0194705119401846,3
498,580,30,0.00218204013122759,0.0172579537651637,3
499,580,30,0.00157167925535973,0.0189211871519036,3
500,580,30,0.00192263675898375,0.00750743877317464,3
501,580,30,0.00248722056916152,0.00727855344472419,3
502,580,30,0.00241092545967803,0.00753795681696803,3
503,580,30,0.0021362630655375,0.0076752880140383,3
504,580,30,0.0125429159990845,0.00759899290455482,3
505,580,30,0.0142366674296178,0.00718699931334401,3
506,580,30,0.00204470893415732,0.0072480354009308,3
507,580,30,0.00250247959105821,0.00743114366369116,3
508,580,30,0.0021515220874342,0.0142519264515145,3
498,581,30,0.00181582360570687,0.00756847486076143,3
499,581,30,0.00177004654001678,0.00737010757610437,3
500,581,30,0.00199893186846723,0.00761425192645151,3
501,581,30,0.0141298542763409,0.00799572747386892,3
502,581,30,0.0249179827573053,0.00727855344472419,3
503,581,30,0.00352483405813687,0.00749217975127794,3
504,581,30,0.00390630960555428,0.00733958953231098,3
505,581,30,0.00175478751812009,0.00758373388265812,3
506,581,30,0.00184634164950027,0.00785839627679866,3
507,581,30,0.00195315480277714,0.00758373388265812,3
508,581,30,0.0021515220874342,0.00833142595559625,3
498,582,30,0.00186160067139696,0.00753795681696803,3
499,582,30,0.0355992980849928,0.0076752880140383,3
500,582,30,0.00801098649576562,0.00834668497749294,3
501,582,30,0.0248416876478218,0.00740062561989776,3
502,582,30,0.00196841382467384,0.00755321583886473,3
503,582,30,0.00184634164950027,0.0168917372396429,3
504,582,30,0.00253299763485161,0.0149385824368658,3
505,582,30,0.00225833524071107,0.0193942168307012,3
506,582,30,0.00152590218966964,0.00796520943007553,3
507,582,30,0.00154116121156634,0.00753795681696803,3
499,583,30,0.00184634164950027,0.00875867856870375,3
500,583,30,0.00199893186846723,0.00802624551766232,3
501,583,30,0.00205996795605402,0.00743114366369116,3
502,583,30,0.00233463035019455,0.00712596322575723,3
503,583,30,0.0505073624780652,0.00772106507972839,3
504,583,30,0.0132753490501259,0.00798046845197223,3
505,583,30,0.0021515220874342,0.00773632410162509,3
506,583,30,0.00187685969329366,0.00743114366369116,3
507,583,30,0.00195315480277714,0.00790417334248875,3
500,584,30,0.00186160067139696,0.00735484855420768,3
501,584,30,0.00187685969329366,0.00813305867093919,3
502,584,30,0.00173952849622339,0.00778210116731518,3
503,584,30,0.00189211871519036,0.0130464637216754,3
504,584,30,0.00363164721141375,0.0136263065537499,3
505,584,30,0.00259403372243839,0.0159914549477378,3
506,584,30,0.0241550316624704,0.0360418097199969,3
503,585,30,0.00271610589761196,0.00727855344472419,3
503,573,35,0.00625619897764553,0.00785839627679866,3
504,573,35,0.0385442893110552,0.0126039520866712,3
505,573,35,0.00662241550316625,0.0102845807583734,3
506,573,35,0.0021362630655375,0.00816357671473259,3
500,574,35,0.00715648126955062,0.00753795681696803,3
501,574,35,0.00178530556191348,0.00820935378042268,3
502,574,35,0.00204470893415732,0.0116731517509728,3
503,574,35,0.00244144350347143,0.0122987716487373,3
504,574,35,0.00416571297779812,0.0139009689478904,3
505,574,35,0.0111543450064851,0.00759899290455482,3
506,574,35,0.00234988937209125,0.0080872816052491,3
498,575,35,0.0364843213550011,0.0318303196765087,3
499,575,35,0.0253910124361028,0.00737010757610437,3
500,575,35,0.0247501335164416,0.00746166170748455,3
501,575,35,0.00331120775158312,0.00791943236438544,3
502,575,35,0.00225833524071107,0.0125886930647745,3
503,575,35,0.00183108262760357,0.0161745632104982,3
504,575,35,0.0214541847867552,0.0126039520866712,3
505,575,35,0.0236362249179828,0.0148317692835889,3
506,575,35,0.0245670252536812,0.0102235446707866,3
497,576,35,0.00201419089036393,0.00834668497749294,3
498,576,35,0.00209048599984741,0.00865186541542687,3
499,576,35,0.00296025024795911,0.0102082856488899,3
500,576,35,0.0190585183489738,0.00729381246662089,3
501,576,35,0.00190737773708705,0.00752269779507134,3
502,576,35,0.00236514839398795,0.00805676356145571,3
503,576,35,0.016235599298085,0.00845349813076982,3
504,576,35,0.0236362249179828,0.00822461280231937,3
505,576,35,0.00236514839398795,0.00756847486076143,3
506,576,35,0.0144655527580682,0.00991836423285267,3
496,577,35,0.00990310521095598,0.00807202258335241,3
497,577,35,0.00228885328450446,0.0137483787289235,3
498,577,35,0.00222781719691768,0.00778210116731518,3
499,577,35,0.00221255817502098,0.00782787823300526,3
500,577,35,0.00241092545967803,0.00804150453955901,3
501,577,35,0.0267032883192187,0.00787365529869535,3
502,577,35,0.0157167925535973,0.00781261921110857,3
503,577,35,0.0021515220874342,0.007690547035935,3
504,577,35,0.00262455176623178,0.0102998397802701,3
505,577,35,0.00253299763485161,0.00927748531319142,3
506,577,35,0.0493171587701228,0.00790417334248875,3
495,578,35,0.00242618448157473,0.00764476997024491,3
496,578,35,0.00190737773708705,0.00770580605783169,3
497,578,35,0.00205996795605402,0.00762951094834821,3
498,578,35,0.00205996795605402,0.00813305867093919,3
499,578,35,0.00202944991226062,0.00823987182421607,3
500,578,35,0.00282291905088884,0.00845349813076982,3
501,578,35,0.00137331197070268,0.00802624551766232,3
502,578,35,0.00222781719691768,0.00758373388265812,3
503,578,35,0.00270084687571527,0.0137636377508202,3
504,578,35,0.00250247959105821,0.00798046845197223,3
505,578,35,0.0021210040436408,0.00770580605783169,3
506,578,35,0.00151064316777295,0.00823987182421607,3
495,579,35,0.00247196154726482,0.0178072785534447,3
496,579,35,0.00233463035019455,0.0207370107576104,3
497,579,35,0.00196841382467384,0.00727855344472419,3
498,579,35,0.0324254215304799,0.00773632410162509,3
499,579,35,0.0021362630655375,0.00830090791180285,3
500,579,35,0.00372320134279393,0.00840772106507973,3
501,579,35,0.00247196154726482,0.00843823910887312,3
502,579,35,0.00233463035019455,0.0126497291523613,3
503,579,35,0.00157167925535973,0.00775158312352178,3
504,579,35,0.00175478751812009,0.00831616693369955,3
505,579,35,0.00210574502174411,0.00773632410162509,3
506,579,35,0.00247196154726482,0.00761425192645151,3
496,580,35,0.0089417868314641,0.00778210116731518,3
497,580,35,0.00529488059815366,0.0112153810940719,3
498,580,35,0.00694285496299687,0.00834668497749294,3
499,580,35,0.00239566643778134,0.00807202258335241,3
500,580,35,0.00245670252536812,0.007690547035935,3
501,580,35,0.0244144350347143,0.00822461280231937,3
502,580,35,0.0127565423056382,0.00790417334248875,3
503,580,35,0.00271610589761196,0.00993362325474937,3
504,580,35,0.00250247959105821,0.0127565423056382,3
505,580,35,0.011108567940795,0.00775158312352178,3
506,580,35,0.00192263675898375,0.00790417334248875,3
497,581,35,0.00242618448157473,0.00787365529869535,3
498,581,35,0.00547798886091402,0.00790417334248875,3
499,581,35,0.0243076218814374,0.0222476539253834,3
500,581,35,0.01196307316701,0.00823987182421607,3
501,581,35,0.025131609063859,0.00848401617456321,3
502,581,35,0.00228885328450446,0.00865186541542687,3
503,581,35,0.0175478751812009,0.00762951094834821,3
504,581,35,0.00183108262760357,0.00785839627679866,3
505,581,35,0.0281071183337148,0.00987258716716258,3
506,581,35,0.00608834973678187,0.0134431982909895,3
497,582,35,0.00198367284657053,0.00764476997024491,3
498,582,35,0.00871290150301366,0.00775158312352178,3
499,582,35,0.0183871213855192,0.00796520943007553,3
500,582,35,0.00219729915312428,0.0135347524223697,3
501,582,35,0.00219729915312428,0.00920119020370794,3
502,582,35,0.00227359426260777,0.00741588464179446,3
503,582,35,0.0021515220874342,0.0120241092545968,3
504,582,35,0.00207522697795071,0.0081025406271458,3
505,582,35,0.00192263675898375,0.00891126878767071,3
498,583,35,0.0181734950789654,0.00827038986800946,3
499,583,35,0.00248722056916152,0.0080872816052491,3
500,583,35,0.00236514839398795,0.00791943236438544,3
501,583,35,0.00431830319676509,0.00761425192645151,3
502,583,35,0.0258640421149004,0.0115053025101091,3
503,583,35,0.00218204013122759,0.012161440451667,3
504,583,35,0.00567635614557107,0.0076752880140383,3
505,583,35,0.00352483405813687,0.00790417334248875,3
500,584,35,0.00209048599984741,0.00836194399938964,3
501,584,35,0.00186160067139696,0.0199282825970855,3
502,584,35,0.00201419089036393,0.0081177996490425,3
503,584,35,0.00234988937209125,0.0129396505683986,3
502,573,36,0.0063782711528191,0.00892652780956741,3
503,573,36,0.00677500572213321,0.00970473792629892,3
504,573,36,0.0423285267414359,0.0139314869916838,3
505,573,36,0.0021210040436408,0.00802624551766232,3
506,573,36,0.00216678110933089,0.00785839627679866,3
499,574,36,0.00238040741588464,0.00753795681696803,3
500,574,36,0.00285343709468223,0.0166475928892958,3
501,574,36,0.0021210040436408,0.0106202792401007,3
502,574,36,0.00181582360570687,0.00764476997024491,3
503,574,36,0.00608834973678187,0.0076752880140383,3
504,574,36,0.0563515678644999,0.0117189288166629,3
505,574,36,0.0277409018081941,0.0114900434882124,3
506,574,36,0.0112916762035554,0.0081177996490425,3
498,575,36,0.00259403372243839,0.00978103303578241,3
499,575,36,0.00714122224765393,0.0108644235904479,3
500,575,36,0.0192568856336309,0.00752269779507134,3
501,575,36,0.00280766002899214,0.00758373388265812,3
502,575,36,0.00227359426260777,0.00791943236438544,3
503,575,36,0.00225833524071107,0.00761425192645151,3
504,575,36,0.00727855344472419,0.0131532768749523,3
505,575,36,0.00178530556191348,0.00971999694819562,3
506,575,36,0.00244144350347143,0.0076600289921416,3
496,576,36,0.00273136491950866,0.00971999694819562,3
497,576,36,0.0101777676050965,0.0139925230792706,3
498,576,36,0.00239566643778134,0.00886549172198062,3
499,576,36,0.00184634164950027,0.007690547035935,3
500,576,36,0.00222781719691768,0.0110780498970016,3
501,576,36,0.00189211871519036,0.0122072175173571,3
502,576,36,0.00205996795605402,0.00778210116731518,3
503,576,36,0.00192263675898375,0.00737010757610437,3
504,576,36,0.00163271534294652,0.00770580605783169,3
505,576,36,0.00218204013122759,0.00798046845197223,3
506,576,36,0.00221255817502098,0.00814831769283589,3
495,577,36,0.00181582360570687,0.00762951094834821,3
496,577,36,0.00209048599984741,0.00842298008697642,3
497,577,36,0.0626077668421454,0.00825513084611276,3
498,577,36,0.014877546349279,0.00781261921110857,3
499,577,36,0.00234988937209125,0.00747692072938125,3
500,577,36,0.00691233691920348,0.0117799649042496,3
501,577,36,0.0325322346837568,0.00871290150301366,3
502,577,36,0.0106660563057908,0.0165102616922255,3
503,577,36,0.002563515678645,0.00747692072938125,3
504,577,36,0.00328068970778973,0.00743114366369116,3
505,577,36,0.00581368734264134,0.00756847486076143,3
506,577,36,0.00280766002899214,0.00785839627679866,3
495,578,36,0.00245670252536812,0.0168459601739528,3
496,578,36,0.00228885328450446,0.00820935378042268,3
497,578,36,0.00244144350347143,0.00775158312352178,3
498,578,36,0.00274662394140536,0.00773632410162509,3
499,578,36,0.00224307621881437,0.0080872816052491,3
500,578,36,0.00193789578088045,0.00813305867093919,3
501,578,36,0.00279240100709545,0.00753795681696803,3
502,578,36,0.00242618448157473,0.00779736018921187,3
503,578,36,0.00279240100709545,0.00807202258335241,3
504,578,36,0.00250247959105821,0.00854505226215,3
505,578,36,0.00250247959105821,0.00823987182421607,3
506,578,36,0.00242618448157473,0.00787365529869535,3
495,579,36,0.00201419089036393,0.0111543450064851,3
496,579,36,0.00216678110933089,0.00817883573662928,3
497,579,36,0.00216678110933089,0.00819409475852598,3
498,579,36,0.00280766002899214,0.00825513084611276,3
499,579,36,0.00280766002899214,0.00737010757610437,3
500,579,36,0.0410925459678035,0.00854505226215,3
501,579,36,0.00231937132829786,0.00822461280231937,3
502,579,36,0.00241092545967803,0.00843823910887312,3
503,579,36,0.0491950865949493,0.00784313725490196,3
504,579,36,0.00393682764934768,0.00708018616006714,3
505,579,36,0.00283817807278553,0.0107728694590677,3
506,579,36,0.00263981078812848,0.00961318379491875,3
496,580,36,0.00205996795605402,0.00909437705043107,3
497,580,36,0.00227359426260777,0.00711070420386053,3
498,580,36,0.00225833524071107,0.00712596322575723,3
499,580,36,0.0252689402609293,0.00834668497749294,3
500,580,36,0.0153353170061799,0.00854505226215,3
501,580,36,0.0197756923781186,0.00813305867093919,3
502,580,36,0.0242923628595407,0.0072480354009308,3
503,580,36,0.00251773861295491,0.00744640268558785,3
504,580,36,0.00225833524071107,0.0194399938963912,3
505,580,36,0.00219729915312428,0.00891126878767071,3
506,580,36,0.0202487220569162,0.00718699931334401,3
496,581,36,0.00263981078812848,0.00779736018921187,3
497,581,36,0.00227359426260777,0.00822461280231937,3
498,581,36,0.00248722056916152,0.00814831769283589,3
499,581,36,0.00260929274433509,0.0121309224078737,3
500,581,36,0.00248722056916152,0.00794995040817884,3
501,581,36,0.00247196154726482,0.00794995040817884,3
502,581,36,0.00218204013122759,0.00798046845197223,3
503,581,36,0.00210574502174411,0.00773632410162509,3
504,581,36,0.00242618448157473,0.00785839627679866,3
505,581,36,0.00209048599984741,0.00802624551766232,3
506,581,36,0.00178530556191348,0.0116273746852827,3
497,582,36,0.00183108262760357,0.00781261921110857,3
498,582,36,0.00241092545967803,0.0247959105821317,3
499,582,36,0.00239566643778134,0.00787365529869535,3
500,582,36,0.00277714198519875,0.00782787823300526,3
501,582,36,0.00251773861295491,0.00793469138628214,3
502,582,36,0.0021210040436408,0.00799572747386892,3
503,582,36,0.00222781719691768,0.00776684214541848,3
504,582,36,0.00224307621881437,0.00791943236438544,3
505,582,36,0.00277714198519875,0.00788891432059205,3
506,582,36,0.0242923628595407,0.00778210116731518,3
498,583,36,0.00619516289005875,0.007690547035935,3
499,583,36,0.00244144350347143,0.0110322728313115,3
500,583,36,0.00292973220416571,0.0174868390936141,3
501,583,36,0.00279240100709545,0.00881971465629053,3
502,583,36,0.00520332646677348,0.00877393759060044,3
503,583,36,0.00253299763485161,0.00721751735713741,3
504,583,36,0.00260929274433509,0.00749217975127794,3
505,583,36,0.00273136491950866,0.00856031128404669,3
499,584,36,0.00241092545967803,0.00814831769283589,3
500,584,36,0.00227359426260777,0.00752269779507134,3
501,584,36,0.00224307621881437,0.0076752880140383,3
502,584,36,0.00198367284657053,0.00782787823300526,3
503,584,36,0.00224307621881437,0.00845349813076982,3
504,584,36,0.00189211871519036,0.0081025406271458,3
500,573,37,0.00405889982452125,0.00820935378042268,3
501,573,37,0.0225375753414206,0.00865186541542687,3
502,573,37,0.00245670252536812,0.0274662394140536,3
503,573,37,0.00207522697795071,0.007690547035935,3
504,573,37,0.0514229037918669,0.013015945677882,3
505,573,37,0.0130464637216754,0.0101777676050965,3
506,573,37,0.0115815976195926,0.0154573891813535,3
498,574,37,0.00251773861295491,0.0117799649042496,3
499,574,37,0.00946059357595178,0.0165407797360189,3
500,574,37,0.0110322728313115,0.0259555962462806,3
501,574,37,0.00199893186846723,0.0175326161593042,3
502,574,37,0.0213321126115816,0.0270389868009461,3
503,574,37,0.00547798886091402,0.00836194399938964,3
504,574,37,0.0197451743343252,0.00892652780956741,3
505,574,37,0.0021515220874342,0.00846875715266651,3
506,574,37,0.00183108262760357,0.00997940032043946,3
497,575,37,0.0030060273136492,0.00759899290455482,3
498,575,37,0.00199893186846723,0.00805676356145571,3
499,575,37,0.00205996795605402,0.0152437628747997,3
500,575,37,0.00869764248111696,0.0127412832837415,3
501,575,37,0.00659189745937285,0.00791943236438544,3
502,575,37,0.0320439459830625,0.00764476997024491,3
503,575,37,0.0439154650186923,0.0147859922178988,3
504,575,37,0.00975051499198901,0.0106202792401007,3
505,575,37,0.00181582360570687,0.0173189898527504,3
506,575,37,0.00276188296330205,0.0107881284809644,3
496,576,37,0.00196841382467384,0.012664988174258,3
497,576,37,0.00819409475852598,0.0154421301594568,3
498,576,37,0.0144655527580682,0.00878919661249714,3
499,576,37,0.0391393911650263,0.0100251773861295,3
500,576,37,0.0021515220874342,0.00988784618905928,3
501,576,37,0.0138551918822004,0.00889600976577401,3
502,576,37,0.0213015945677882,0.0142519264515145,3
503,576,37,0.0103761348897536,0.00816357671473259,3
504,576,37,0.00230411230640116,0.0106507972838941,3
505,576,37,0.00228885328450446,0.00935378042267491,3
506,576,37,0.00239566643778134,0.00805676356145571,3
494,577,37,0.00195315480277714,0.0108796826123445,3
495,577,37,0.0021362630655375,0.00904859998474098,3
496,577,37,0.00218204013122759,0.007690547035935,3
497,577,37,0.00218204013122759,0.0110780498970016,3
498,577,37,0.0446631570916304,0.00776684214541848,3
499,577,37,0.0367589837491417,0.0076752880140383,3
500,577,37,0.00770580605783169,0.00776684214541848,3
501,577,37,0.00218204013122759,0.0123750667582208,3
502,577,37,0.00190737773708705,0.00996414129854276,3
503,577,37,0.0523537041275654,0.00819409475852598,3
504,577,37,0.0113679713130388,0.00784313725490196,3
505,577,37,0.0422369726100557,0.0081025406271458,3
506,577,37,0.00198367284657053,0.00756847486076143,3
507,577,37,0.028046082246128,0.00804150453955901,3
495,578,37,0.0021210040436408,0.0101625085831998,3
496,578,37,0.012817578393225,0.00782787823300526,3
497,578,37,0.0102845807583734,0.00885023270008392,3
498,578,37,0.00289921416037232,0.0143587396047913,3
499,578,37,0.00196841382467384,0.0134889753566796,3
500,578,37,0.00205996795605402,0.00787365529869535,3
501,578,37,0.0133821622034028,0.00965896086060884,3
502,578,37,0.00370794232089723,0.00775158312352178,3
503,578,37,0.0312352178225376,0.0085145342183566,3
504,578,37,0.00178530556191348,0.00770580605783169,3
505,578,37,0.00506599526970321,0.00798046845197223,3
506,578,37,0.0138094148165103,0.010452429999237,3
507,578,37,0.018646524757763,0.0152895399404898,3
495,579,37,0.00309758144502937,0.00814831769283589,3
496,579,37,0.00263981078812848,0.00796520943007553,3
497,579,37,0.00210574502174411,0.0164492256046387,3
498,579,37,0.00317387655451286,0.0178530556191348,3
499,579,37,0.00540169375143053,0.0118410009918364,3
500,579,37,0.00241092545967803,0.00814831769283589,3
501,579,37,0.00234988937209125,0.00735484855420768,3
502,579,37,0.00242618448157473,0.00735484855420768,3
503,579,37,0.00225833524071107,0.00752269779507134,3
504,579,37,0.0507057297627222,0.00822461280231937,3
505,579,37,0.00253299763485161,0.0174868390936141,3
506,579,37,0.00189211871519036,0.00984206912336919,3
507,579,37,0.00221255817502098,0.00733958953231098,3
496,580,37,0.00221255817502098,0.00833142595559625,3
497,580,37,0.00273136491950866,0.00839246204318303,3
498,580,37,0.00227359426260777,0.00785839627679866,3
499,580,37,0.00187685969329366,0.00772106507972839,3
500,580,37,0.00238040741588464,0.00770580605783169,3
501,580,37,0.00270084687571527,0.00827038986800946,3
502,580,37,0.00250247959105821,0.00842298008697642,3
503,580,37,0.00202944991226062,0.00794995040817884,3
504,580,37,0.00192263675898375,0.00924696726939803,3
505,580,37,0.021713588158999,0.00799572747386892,3
506,580,37,0.00685130083161669,0.0081177996490425,3
507,580,37,0.0161440451667048,0.00834668497749294,3
496,581,37,0.00178530556191348,0.00794995040817884,3
497,581,37,0.00190737773708705,0.00773632410162509,3
498,581,37,0.00285343709468223,0.00761425192645151,3
499,581,37,0.00314335851071946,0.00862134737163348,3
500,581,37,0.00227359426260777,0.0113221942473487,3
501,581,37,0.00167849240863661,0.00758373388265812,3
502,581,37,0.00227359426260777,0.00819409475852598,3
503,581,37,0.00251773861295491,0.00804150453955901,3
504,581,37,0.00692759594110018,0.0080872816052491,3
505,581,37,0.00645456626230259,0.00778210116731518,3
506,581,37,0.0195315480277714,0.0076600289921416,3
497,582,37,0.00706492713817044,0.00878919661249714,3
498,582,37,0.020660715648127,0.00834668497749294,3
499,582,37,0.00993362325474937,0.00752269779507134,3
500,582,37,0.00590524147402152,0.00836194399938964,3
501,582,37,0.0168307011520562,0.00770580605783169,3
502,582,37,0.00239566643778134,0.0100556954299229,3
503,582,37,0.00247196154726482,0.00804150453955901,3
504,582,37,0.00228885328450446,0.00807202258335241,3
505,582,37,0.00202944991226062,0.00898756389715419,3
506,582,37,0.0021210040436408,0.00834668497749294,3
498,583,37,0.00624093995574884,0.0168459601739528,3
499,583,37,0.0204776073853666,0.00791943236438544,3
500,583,37,0.00236514839398795,0.007690547035935,3
501,583,37,0.00222781719691768,0.00730907148851759,3
502,583,37,0.00231937132829786,0.007690547035935,3
503,583,37,0.017242694743267,0.00788891432059205,3
504,583,37,0.00247196154726482,0.00791943236438544,3
505,583,37,0.00248722056916152,0.00738536659800107,3
499,584,37,0.00303654535744259,0.00779736018921187,3
500,584,37,0.00289921416037232,0.00941481651026169,3
501,584,37,0.00234988937209125,0.0114747844663157,3
502,584,37,0.0021515220874342,0.00872816052491035,3
503,584,37,0.0274357213702602,0.00762951094834821,3
504,584,37,0.0131227588311589,0.0081177996490425,3
502,572,38,0.00234988937209125,0.0278629739833677,3
503,572,38,0.00238040741588464,0.00805676356145571,3
504,572,38,0.0151522087434195,0.0124055848020142,3
505,572,38,0.0246585793850614,0.00804150453955901,3
506,572,38,0.00234988937209125,0.00791943236438544,3
499,573,38,0.0162661173418784,0.0131227588311589,3
500,573,38,0.016083009079118,0.00869764248111696,3
501,573,38,0.0219424734874495,0.00753795681696803,3
502,573,38,0.00759899290455482,0.0081177996490425,3
503,573,38,0.0295719844357977,0.00793469138628214,3
504,573,38,0.00219729915312428,0.0110017547875181,3
505,573,38,0.00181582360570687,0.00738536659800107,3
506,573,38,0.00160219729915312,0.00741588464179446,3
497,574,38,0.00296025024795911,0.0155184252689403,3
498,574,38,0.00186160067139696,0.00820935378042268,3
499,574,38,0.00209048599984741,0.00746166170748455,3
500,574,38,0.00250247959105821,0.00799572747386892,3
501,574,38,0.00253299763485161,0.00856031128404669,3
502,574,38,0.00241092545967803,0.00833142595559625,3
503,574,38,0.00144960708018616,0.0118257419699397,3
504,574,38,0.00198367284657053,0.0188601510643168,3
505,574,38,0.00253299763485161,0.014175631342031,3
506,574,38,0.0354161898222324,0.00984206912336919,3
507,574,38,0.0502174410620279,0.00871290150301366,3
496,575,38,0.00181582360570687,0.00740062561989776,3
497,575,38,0.0021515220874342,0.00740062561989776,3
498,575,38,0.00218204013122759,0.00773632410162509,3
499,575,38,0.00221255817502098,0.00787365529869535,3
500,575,38,0.007690547035935,0.00747692072938125,3
501,575,38,0.00242618448157473,0.010452429999237,3
502,575,38,0.0120088502327001,0.00869764248111696,3
503,575,38,0.00485236896314946,0.0081177996490425,3
504,575,38,0.0553444724193179,0.00759899290455482,3
505,575,38,0.00817883573662928,0.00744640268558785,3
506,575,38,0.00241092545967803,0.0103303578240635,3
507,575,38,0.00448615243762875,0.00975051499198901,3
494,576,38,0.00202944991226062,0.00791943236438544,3
495,576,38,0.00239566643778134,0.00755321583886473,3
496,576,38,0.00247196154726482,0.0135805294880598,3
497,576,38,0.00161745632104982,0.00746166170748455,3
498,576,38,0.00189211871519036,0.00816357671473259,3
499,576,38,0.00210574502174411,0.00843823910887312,3
500,576,38,0.00230411230640116,0.00770580605783169,3
501,576,38,0.00231937132829786,0.00796520943007553,3
502,576,38,0.0021362630655375,0.0076752880140383,3
503,576,38,0.00234988937209125,0.0108949416342412,3
504,576,38,0.0281528953994049,0.0173952849622339,3
505,576,38,0.0334477759975586,0.0182345311665522,3
506,576,38,0.00222781719691768,0.015579461356527,3
507,576,38,0.0570534828717479,0.0113527122911421,3
495,577,38,0.00321965362020294,0.00773632410162509,3
496,577,38,0.013015945677882,0.00830090791180285,3
497,577,38,0.0025787747005417,0.0253147173266194,3
498,577,38,0.0021362630655375,0.00805676356145571,3
499,577,38,0.00201419089036393,0.00770580605783169,3
500,577,38,0.00193789578088045,0.00773632410162509,3
501,577,38,0.00204470893415732,0.00750743877317464,3
502,577,38,0.035385671778439,0.00956740672922866,3
503,577,38,0.027695124742504,0.0237582970931563,3
504,577,38,0.00436408026245518,0.00706492713817044,3
505,577,38,0.00164797436484321,0.00703440909437705,3
506,577,38,0.0021515220874342,0.00804150453955901,3
507,577,38,0.00273136491950866,0.0143129625391012,3
495,578,38,0.0140840772106508,0.00825513084611276,3
496,578,38,0.00578316929884794,0.0135042343785763,3
497,578,38,0.00744640268558785,0.00776684214541848,3
498,578,38,0.00250247959105821,0.00933852140077821,3
499,578,38,0.0205386434729534,0.0081177996490425,3
500,578,38,0.00872816052491035,0.00791943236438544,3
501,578,38,0.00209048599984741,0.028351262684062,3
502,578,38,0.00230411230640116,0.0159304188601511,3
503,578,38,0.00207522697795071,0.00782787823300526,3
504,578,38,0.0115815976195926,0.0180819409475853,3
505,578,38,0.0379186694132906,0.0081177996490425,3
506,578,38,0.00202944991226062,0.0120546272983902,3
507,578,38,0.0021515220874342,0.0085145342183566,3
495,579,38,0.0021362630655375,0.00755321583886473,3
496,579,38,0.00222781719691768,0.0107881284809644,3
497,579,38,0.00233463035019455,0.0125886930647745,3
498,579,38,0.00209048599984741,0.0081025406271458,3
499,579,38,0.002563515678645,0.0135652704661631,3
500,579,38,0.00236514839398795,0.00791943236438544,3
501,579,38,0.00657663843747616,0.0089417868314641,3
502,579,38,0.00250247959105821,0.00784313725490196,3
503,579,38,0.00202944991226062,0.00817883573662928,3
504,579,38,0.00244144350347143,0.00798046845197223,3
505,579,38,0.0021362630655375,0.00814831769283589,3
506,579,38,0.00271610589761196,0.00856031128404669,3
507,579,38,0.019150072480354,0.0080872816052491,3
496,580,38,0.00175478751812009,0.00762951094834821,3
497,580,38,0.00230411230640116,0.00764476997024491,3
498,580,38,0.00273136491950866,0.00840772106507973,3
499,580,38,0.0025482566567483,0.0208438239108873,3
500,580,38,0.00175478751812009,0.0137941557946136,3
501,580,38,0.00180056458381018,0.016433966582742,3
502,580,38,0.0207980468451972,0.00775158312352178,3
503,580,38,0.0113221942473487,0.00773632410162509,3
504,580,38,0.00173952849622339,0.00738536659800107,3
505,580,38,0.00175478751812009,0.00798046845197223,3
506,580,38,0.00192263675898375,0.00770580605783169,3
507,580,38,0.00358587014572366,0.00782787823300526,3
496,581,38,0.0211337453269245,0.00790417334248875,3
497,581,38,0.0169985503929198,0.00762951094834821,3
498,581,38,0.0103608758678569,0.00779736018921187,3
499,581,38,0.0115815976195926,0.00790417334248875,3
500,581,38,0.00755321583886473,0.00814831769283589,3
501,581,38,0.0153200579842832,0.00744640268558785,3
502,581,38,0.00187685969329366,0.00737010757610437,3
503,581,38,0.024628061341268,0.00779736018921187,3
504,581,38,0.00231937132829786,0.00799572747386892,3
505,581,38,0.00216678110933089,0.0153505760280766,3
506,581,38,0.00717174029144732,0.00778210116731518,3
507,581,38,0.0128938735027085,0.00950637064164187,3
497,582,38,0.00245670252536812,0.00738536659800107,3
498,582,38,0.00238040741588464,0.0080872816052491,3
499,582,38,0.0409704737926299,0.0108796826123445,3
500,582,38,0.00207522697795071,0.0118257419699397,3
501,582,38,0.00117494468604562,0.00737010757610437,3
502,582,38,0.00193789578088045,0.00776684214541848,3
503,582,38,0.00183108262760357,0.00813305867093919,3
504,582,38,0.00170901045243,0.0146334019989319,3
505,582,38,0.00195315480277714,0.0157625696192874,3
506,582,38,0.0110780498970016,0.00727855344472419,3
497,583,38,0.0708476386663615,0.00773632410162509,3
498,583,38,0.0183718623636225,0.0105439841306172,3
499,583,38,0.0137636377508202,0.0076752880140383,3
500,583,38,0.00900282291905089,0.00791943236438544,3
501,583,38,0.00178530556191348,0.00779736018921187,3
502,583,38,0.0021515220874342,0.0169069962615396,3
503,583,38,0.00183108262760357,0.017944609750515,3
504,583,38,0.0021515220874342,0.0133516441596094,3
505,583,38,0.00224307621881437,0.0103608758678569,3
499,584,38,0.00181582360570687,0.00822461280231937,3
500,584,38,0.0021210040436408,0.0197909514000153,3
501,584,38,0.00221255817502098,0.00888075074387732,3
502,584,38,0.00245670252536812,0.00791943236438544,3
503,584,38,0.00209048599984741,0.00772106507972839,3
504,584,38,0.00225833524071107,0.00755321583886473,3
501,572,39,0.0251468680857557,0.0122835126268406,3
502,572,39,0.00221255817502098,0.00823987182421607,3
503,572,39,0.0111848630502785,0.00805676356145571,3
504,572,39,0.0315861753261616,0.0194705119401846,3
505,572,39,0.00276188296330205,0.00920119020370794,3
506,572,39,0.0046845197222858,0.00755321583886473,3
507,572,39,0.0794384679942016,0.00823987182421607,3
498,573,39,0.0287327382314794,0.00755321583886473,3
499,573,39,0.00204470893415732,0.0130769817654688,3
500,573,39,0.00222781719691768,0.00863660639353018,3
501,573,39,0.00204470893415732,0.01025406271458,3
502,573,39,0.00259403372243839,0.0135347524223697,3
503,573,39,0.00233463035019455,0.00761425192645151,3
504,573,39,0.00247196154726482,0.00741588464179446,3
505,573,39,0.0365453574425879,0.00775158312352178,3
506,573,39,0.00224307621881437,0.00822461280231937,3
507,573,39,0.00242618448157473,0.0112458991378653,3
496,574,39,0.00250247959105821,0.0125123979552911,3
497,574,39,0.00233463035019455,0.00775158312352178,3
498,574,39,0.00201419089036393,0.00750743877317464,3
499,574,39,0.00241092545967803,0.0123445487144274,3
500,574,39,0.00305180437933928,0.0136873426413367,3
501,574,39,0.0373540856031128,0.0117799649042496,3
502,574,39,0.0245670252536812,0.00833142595559625,3
503,574,39,0.00711070420386053,0.00788891432059205,3
504,574,39,0.00205996795605402,0.0110475318532082,3
505,574,39,0.00222781719691768,0.0130312046997787,3
506,574,39,0.00222781719691768,0.00842298008697642,3
507,574,39,0.03930724040589,0.00756847486076143,3
495,575,39,0.00218204013122759,0.00744640268558785,3
496,575,39,0.00186160067139696,0.00779736018921187,3
497,575,39,0.00199893186846723,0.0170901045243,3
498,575,39,0.00270084687571527,0.00778210116731518,3
499,575,39,0.00286869611657893,0.00801098649576562,3
500,575,39,0.00239566643778134,0.00891126878767071,3
501,575,39,0.00531013962005035,0.00805676356145571,3
502,575,39,0.00871290150301366,0.00796520943007553,3
503,575,39,0.00375371938658732,0.00886549172198062,3
504,575,39,0.00234988937209125,0.0171053635461967,3
505,575,39,0.0243381399252308,0.00999465934233616,3
506,575,39,0.0178683146410315,0.00950637064164187,3
507,575,39,0.00231937132829786,0.00770580605783169,3
508,575,39,0.00605783169298848,0.0172274357213703,3
494,576,39,0.00186160067139696,0.00817883573662928,3
495,576,39,0.00222781719691768,0.00759899290455482,3
496,576,39,0.00202944991226062,0.00804150453955901,3
497,576,39,0.00238040741588464,0.00776684214541848,3
498,576,39,0.0112764171816587,0.0130922407873655,3
499,576,39,0.0330968184939345,0.00798046845197223,3
500,576,39,0.0175783932249943,0.00799572747386892,3
501,576,39,0.0409246967269398,0.0120241092545968,3
502,576,39,0.00517280842298009,0.0193636987869078,3
503,576,39,0.00321965362020294,0.00898756389715419,3
504,576,39,0.0171511406118868,0.0249485008010987,3
505,576,39,0.0349584191653315,0.00976577401388571,3
506,576,39,0.00234988937209125,0.0103150988021668,3
507,576,39,0.00180056458381018,0.00891126878767071,3
508,576,39,0.00181582360570687,0.00776684214541848,3
495,577,39,0.0222323949034867,0.00762951094834821,3
496,577,39,0.00262455176623178,0.0103456168459602,3
497,577,39,0.00250247959105821,0.00958266575112535,3
498,577,39,0.00202944991226062,0.015228503852903,3
499,577,39,0.00207522697795071,0.00741588464179446,3
500,577,39,0.00183108262760357,0.00730907148851759,3
501,577,39,0.0171206225680934,0.00798046845197223,3
502,577,39,0.0438696879530022,0.00834668497749294,3
503,577,39,0.0843366140230411,0.00805676356145571,3
504,577,39,0.00163271534294652,0.0124208438239109,3
505,577,39,0.00231937132829786,0.007690547035935,3
506,577,39,0.00270084687571527,0.0189059281300069,3
507,577,39,0.00209048599984741,0.00842298008697642,3
508,577,39,0.00207522697795071,0.00775158312352178,3
495,578,39,0.0012664988174258,0.0158693827725643,3
496,578,39,0.00196841382467384,0.00947585259784848,3
497,578,39,0.00224307621881437,0.00737010757610437,3
498,578,39,0.00262455176623178,0.007690547035935,3
499,578,39,0.00199893186846723,0.0127565423056382,3
500,578,39,0.00404364080262455,0.00790417334248875,3
501,578,39,0.00315861753261616,0.0175631342030976,3
502,578,39,0.00204470893415732,0.0150911726558328,3
503,578,39,0.002563515678645,0.00970473792629892,3
504,578,39,0.00180056458381018,0.0154268711375601,3
505,578,39,0.00137331197070268,0.0122529945830472,3
506,578,39,0.00654612039368277,0.0081025406271458,3
507,578,39,0.00444037537193866,0.00709544518196384,3
508,578,39,0.00234988937209125,0.00720225833524071,3
495,579,39,0.0021515220874342,0.00708018616006714,3
496,579,39,0.0025482566567483,0.00749217975127794,3
497,579,39,0.00207522697795071,0.0146486610208286,3
498,579,39,0.00199893186846723,0.00843823910887312,3
499,579,39,0.00181582360570687,0.00819409475852598,3
500,579,39,0.00219729915312428,0.00737010757610437,3
501,579,39,0.00186160067139696,0.00778210116731518,3
502,579,39,0.00163271534294652,0.00814831769283589,3
503,579,39,0.00219729915312428,0.00848401617456321,3
504,579,39,0.00274662394140536,0.00740062561989776,3
505,579,39,0.00273136491950866,0.0200808728160525,3
506,579,39,0.0217898832684825,0.00791943236438544,3
507,579,39,0.0021515220874342,0.00846875715266651,3
508,579,39,0.00250247959105821,0.0152132448310063,3
495,580,39,0.00181582360570687,0.00782787823300526,3
496,580,39,0.0021362630655375,0.00793469138628214,3
497,580,39,0.00228885328450446,0.00718699931334401,3
498,580,39,0.00248722056916152,0.00720225833524071,3
499,580,39,0.00236514839398795,0.00788891432059205,3
500,580,39,0.00303654535744259,0.00862134737163348,3
501,580,39,0.00263981078812848,0.0142366674296178,3
502,580,39,0.00201419089036393,0.0167544060425727,3
503,580,39,0.00204470893415732,0.00744640268558785,3
504,580,39,0.00190737773708705,0.0121919584954604,3
505,580,39,0.0021362630655375,0.00804150453955901,3
506,580,39,0.00274662394140536,0.00750743877317464,3
507,580,39,0.00234988937209125,0.0168459601739528,3
496,581,39,0.0021210040436408,0.00758373388265812,3
497,581,39,0.00157167925535973,0.00794995040817884,3
498,581,39,0.00202944991226062,0.00801098649576562,3
499,581,39,0.00267032883192187,0.00772106507972839,3
500,581,39,0.00253299763485161,0.00740062561989776,3
501,581,39,0.00370794232089723,0.010452429999237,3
502,581,39,0.0186160067139696,0.00877393759060044,3
503,581,39,0.0487678339818418,0.007690547035935,3
504,581,39,0.0098268101014725,0.0169832913710231,3
505,581,39,0.0126802471961547,0.00776684214541848,3
506,581,39,0.00137331197070268,0.010101472495613,3
507,581,39,0.00218204013122759,0.0134737163347829,3
496,582,39,0.00315861753261616,0.00755321583886473,3
497,582,39,0.0296330205233844,0.00738536659800107,3
498,582,39,0.00241092545967803,0.00773632410162509,3
499,582,39,0.00190737773708705,0.00793469138628214,3
500,582,39,0.00218204013122759,0.0170443274586099,3
501,582,39,0.00221255817502098,0.00846875715266651,3
502,582,39,0.00279240100709545,0.0089417868314641,3
503,582,39,0.00273136491950866,0.00917067215991455,3
504,582,39,0.0583810177767605,0.00976577401388571,3
505,582,39,0.0309758144502937,0.00775158312352178,3
506,582,39,0.0156710154879072,0.00730907148851759,3
497,583,39,0.0102845807583734,0.0162050812542916,3
498,583,39,0.0709391927977417,0.012161440451667,3
499,583,39,0.00273136491950866,0.0123750667582208,3
500,583,39,0.0029755092698558,0.00770580605783169,3
501,583,39,0.00207522697795071,0.00743114366369116,3
502,583,39,0.00207522697795071,0.00825513084611276,3
503,583,39,0.00242618448157473,0.0154116121156634,3
504,583,39,0.00265506981002518,0.00796520943007553,3
505,583,39,0.00244144350347143,0.00776684214541848,3
506,583,39,0.00186160067139696,0.00743114366369116,3
498,584,39,0.00987258716716258,0.00750743877317464,3
499,584,39,0.00605783169298848,0.0213473716334783,3
500,584,39,0.0357976653696498,0.00798046845197223,3
501,584,39,0.0021515220874342,0.00807202258335241,3
502,584,39,0.00881971465629053,0.00779736018921187,3
503,584,39,0.0146334019989319,0.00758373388265812,3
504,584,39,0.00250247959105821,0.00737010757610437,3
507,571,40,0.00181582360570687,0.00776684214541848,3
502,572,40,0.00244144350347143,0.0241092545967803,3
503,572,40,0.00965896086060884,0.00744640268558785,3
504,572,40,0.0525368123903258,0.00975051499198901,3
505,572,40,0.00236514839398795,0.00749217975127794,3
506,572,40,0.0390173189898528,0.00790417334248875,3
507,572,40,0.00192263675898375,0.00785839627679866,3
498,573,40,0.00221255817502098,0.00755321583886473,3
499,573,40,0.00218204013122759,0.00762951094834821,3
500,573,40,0.0209658960860609,0.0103150988021668,3
501,573,40,0.00619516289005875,0.0101167315175097,3
502,573,40,0.00155642023346304,0.00782787823300526,3
503,573,40,0.00234988937209125,0.00770580605783169,3
504,573,40,0.0021515220874342,0.00888075074387732,3
505,573,40,0.00180056458381018,0.0176089112687877,3
506,573,40,0.00157167925535973,0.00753795681696803,3
507,573,40,0.0118562600137331,0.00730907148851759,3
496,574,40,0.00187685969329366,0.00923170824750134,3
497,574,40,0.00233463035019455,0.00804150453955901,3
498,574,40,0.00210574502174411,0.00914015411612116,3
499,574,40,0.00177004654001678,0.010955977721828,3
500,574,40,0.00186160067139696,0.00697337300679027,3
501,574,40,0.00152590218966964,0.00773632410162509,3
502,574,40,0.00234988937209125,0.00784313725490196,3
503,574,40,0.00180056458381018,0.00825513084611276,3
504,574,40,0.00933852140077821,0.00788891432059205,3
505,574,40,0.0166628519111925,0.00698863202868696,3
506,574,40,0.00187685969329366,0.00917067215991455,3
507,574,40,0.0188754100862135,0.0112153810940719,3
508,574,40,0.00180056458381018,0.00813305867093919,3
495,575,40,0.0325627527275502,0.0076600289921416,3
496,575,40,0.00294499122606241,0.0297703517204547,3
497,575,40,0.0155642023346304,0.0173647669184405,3
498,575,40,0.00564583810177768,0.00906385900663768,3
499,575,40,0.00216678110933089,0.00750743877317464,3
500,575,40,0.017944609750515,0.00759899290455482,3
501,575,40,0.0222323949034867,0.00845349813076982,3
502,575,40,0.0557717250324254,0.0167696650644694,3
503,575,40,0.0186617837796597,0.012817578393225,3
504,575,40,0.00190737773708705,0.00788891432059205,3
505,575,40,0.00225833524071107,0.00807202258335241,3
506,575,40,0.0109407186999313,0.0190127412832837,3
507,575,40,0.0325017166399634,0.0326390478370336,3
508,575,40,0.0183871213855192,0.00762951094834821,3
494,576,40,0.0181277180132754,0.00773632410162509,3
495,576,40,0.0137026016632334,0.0167544060425727,3
496,576,40,0.00286869611657893,0.0117952239261463,3
497,576,40,0.00202944991226062,0.00804150453955901,3
498,576,40,0.00167849240863661,0.00758373388265812,3
499,576,40,0.00236514839398795,0.00820935378042268,3
500,576,40,0.0601968413824674,0.00776684214541848,3
501,576,40,0.0242313267719539,0.00802624551766232,3
502,576,40,0.00393682764934768,0.00814831769283589,3
503,576,40,0.0262149996185245,0.00833142595559625,3
504,576,40,0.042069123369192,0.0101625085831998,3
505,576,40,0.0161745632104982,0.00755321583886473,3
506,576,40,0.00157167925535973,0.00798046845197223,3
507,576,40,0.00186160067139696,0.00889600976577401,3
508,576,40,0.0488746471351186,0.010101472495613,3
495,577,40,0.00184634164950027,0.0101777676050965,3
496,577,40,0.00234988937209125,0.011810482948043,3
497,577,40,0.00241092545967803,0.013870450904097,3
498,577,40,0.00177004654001678,0.013015945677882,3
499,577,40,0.00158693827725643,0.0076752880140383,3
500,577,40,0.00177004654001678,0.00801098649576562,3
501,577,40,0.00202944991226062,0.00752269779507134,3
502,577,40,0.00207522697795071,0.00758373388265812,3
503,577,40,0.0228732738231479,0.0161898222323949,3
504,577,40,0.0126192111085679,0.0107881284809644,3
505,577,40,0.0021210040436408,0.00823987182421607,3
506,577,40,0.0276493476768139,0.00801098649576562,3
507,577,40,0.0165102616922255,0.0113221942473487,3
508,577,40,0.0172732127870604,0.00776684214541848,3
495,578,40,0.0418249790188449,0.00854505226215,3
496,578,40,0.00227359426260777,0.00947585259784848,3
497,578,40,0.00244144350347143,0.00755321583886473,3
498,578,40,0.00178530556191348,0.0127107652399481,3
499,578,40,0.00177004654001678,0.022064545662623,3
500,578,40,0.0150606546120394,0.00714122224765393,3
501,578,40,0.0168764782177462,0.00753795681696803,3
502,578,40,0.00205996795605402,0.0152437628747997,3
503,578,40,0.015579461356527,0.00866712443732357,3
504,578,40,0.0108796826123445,0.0130464637216754,3
505,578,40,0.00177004654001678,0.00762951094834821,3
506,578,40,0.00373846036469062,0.00799572747386892,3
507,578,40,0.00654612039368277,0.00817883573662928,3
508,578,40,0.016586556801709,0.00799572747386892,3
495,579,40,0.00486762798504616,0.00770580605783169,3
496,579,40,0.00251773861295491,0.00770580605783169,3
497,579,40,0.00248722056916152,0.0138857099259937,3
498,579,40,0.0143587396047913,0.009399557488365,3
499,579,40,0.0108491645685512,0.00752269779507134,3
500,579,40,0.00218204013122759,0.00801098649576562,3
501,579,40,0.0511787594415198,0.00813305867093919,3
502,579,40,0.00222781719691768,0.0081025406271458,3
503,579,40,0.0021515220874342,0.0134889753566796,3
504,579,40,0.00170901045243,0.0113527122911421,3
505,579,40,0.00181582360570687,0.0130006866559854,3
506,579,40,0.00218204013122759,0.00755321583886473,3
507,579,40,0.0114442664225223,0.00772106507972839,3
508,579,40,0.00762951094834821,0.00778210116731518,3
495,580,40,0.00248722056916152,0.00773632410162509,3
496,580,40,0.00210574502174411,0.00773632410162509,3
497,580,40,0.00141908903639277,0.00782787823300526,3
498,580,40,0.00177004654001678,0.00799572747386892,3
499,580,40,0.00205996795605402,0.0181582360570687,3
500,580,40,0.00242618448157473,0.0136263065537499,3
501,580,40,0.0552529182879377,0.00791943236438544,3
502,580,40,0.00228885328450446,0.00775158312352178,3
503,580,40,0.0021362630655375,0.00712596322575723,3
504,580,40,0.0328374151216907,0.0209811551079576,3
505,580,40,0.00907911802853437,0.0101625085831998,3
506,580,40,0.00143434805828946,0.0114290074006256,3
507,580,40,0.0017242694743267,0.0135805294880598,3
508,580,40,0.00744640268558785,0.00804150453955901,3
496,581,40,0.00167849240863661,0.019150072480354,3
497,581,40,0.00231937132829786,0.00749217975127794,3
498,581,40,0.0025482566567483,0.00814831769283589,3
499,581,40,0.00177004654001678,0.00946059357595178,3
500,581,40,0.00181582360570687,0.0130006866559854,3
501,581,40,0.0122835126268406,0.00776684214541848,3
502,581,40,0.00846875715266651,0.00737010757610437,3
503,581,40,0.00155642023346304,0.0076752880140383,3
504,581,40,0.00173952849622339,0.0072327763790341,3
505,581,40,0.0303196765087358,0.00782787823300526,3
506,581,40,0.0029907682917525,0.0121004043640803,3
507,581,40,0.0186770428015564,0.0145723659113451,3
496,582,40,0.0176546883344778,0.0080872816052491,3
497,582,40,0.0021210040436408,0.00862134737163348,3
498,582,40,0.00236514839398795,0.00799572747386892,3
499,582,40,0.0252689402609293,0.00804150453955901,3
500,582,40,0.00881971465629053,0.00798046845197223,3
501,582,40,0.0126039520866712,0.0161287861448081,3
502,582,40,0.00218204013122759,0.00807202258335241,3
503,582,40,0.00241092545967803,0.00730907148851759,3
504,582,40,0.0490882734416724,0.00709544518196384,3
505,582,40,0.0021210040436408,0.0076752880140383,3
506,582,40,0.00157167925535973,0.0081177996490425,3
507,582,40,0.00231937132829786,0.00791943236438544,3
497,583,40,0.0311894407568475,0.0150911726558328,3
498,583,40,0.00195315480277714,0.00776684214541848,3
499,583,40,0.00221255817502098,0.00787365529869535,3
500,583,40,0.0189059281300069,0.00819409475852598,3
501,583,40,0.0270847638666361,0.0072632944228275,3
502,583,40,0.00898756389715419,0.00804150453955901,3
503,583,40,0.0426947432669566,0.00793469138628214,3
504,583,40,0.00241092545967803,0.0072632944228275,3
505,583,40,0.00218204013122759,0.0072327763790341,3
506,583,40,0.00230411230640116,0.00924696726939803,3
498,584,40,0.00224307621881437,0.00730907148851759,3
499,584,40,0.00222781719691768,0.0072480354009308,3
500,584,40,0.00210574502174411,0.00793469138628214,3
501,584,40,0.0113984893568322,0.0081177996490425,3
502,584,40,0.0374608987563897,0.010101472495613,3
503,584,40,0.00241092545967803,0.00679026474402991,3
504,584,40,0.00228885328450446,0.00712596322575723,3
505,584,40,0.0187228198672465,0.00772106507972839,3
507,571,41,0.0190737773708705,0.00798046845197223,3
502,572,41,0.0483710994125277,0.0177767605096513,3
503,572,41,0.0290836957351034,0.0076752880140383,3
504,572,41,0.0177157244220645,0.00801098649576562,3
505,572,41,0.0168154421301595,0.0076600289921416,3
506,572,41,0.0690318150606546,0.00711070420386053,3
507,572,41,0.0236667429617761,0.00891126878767071,3
499,573,41,0.00903334096284428,0.00805676356145571,3
500,573,41,0.00198367284657053,0.00798046845197223,3
501,573,41,0.00245670252536812,0.014373998626688,3
502,573,41,0.00228885328450446,0.0114442664225223,3
503,573,41,0.00866712443732357,0.0124055848020142,3
504,573,41,0.0274509803921569,0.0203860532539864,3
505,573,41,0.0241855497062638,0.00830090791180285,3
506,573,41,0.00531013962005035,0.0117799649042496,3
507,573,41,0.00218204013122759,0.0085145342183566,3
496,574,41,0.00209048599984741,0.007690547035935,3
497,574,41,0.00218204013122759,0.00788891432059205,3
498,574,41,0.00653086137178607,0.00820935378042268,3
499,574,41,0.00575265125505455,0.007690547035935,3
500,574,41,0.0021515220874342,0.0176089112687877,3
501,574,41,0.0139162279697871,0.0106813153276875,3
502,574,41,0.0202639810788128,0.0153353170061799,3
503,574,41,0.00279240100709545,0.00798046845197223,3
504,574,41,0.0179598687724117,0.0102082856488899,3
505,574,41,0.00885023270008392,0.00709544518196384,3
506,574,41,0.00163271534294652,0.00758373388265812,3
507,574,41,0.00221255817502098,0.00814831769283589,3
495,575,41,0.00234988937209125,0.0124055848020142,3
496,575,41,0.00265506981002518,0.0159456778820478,3
497,575,41,0.00210574502174411,0.00825513084611276,3
498,575,41,0.00184634164950027,0.00752269779507134,3
499,575,41,0.0042420080872816,0.00720225833524071,3
500,575,41,0.00752269779507134,0.00820935378042268,3
501,575,41,0.00967421988250553,0.00805676356145571,3
502,575,41,0.00332646677347982,0.0076600289921416,3
503,575,41,0.012115663385977,0.00779736018921187,3
504,575,41,0.00219729915312428,0.00848401617456321,3
505,575,41,0.0017242694743267,0.00999465934233616,3
506,575,41,0.0202944991226062,0.00796520943007553,3
507,575,41,0.0206454566262303,0.015732051575494,3
508,575,41,0.00192263675898375,0.00749217975127794,3
495,576,41,0.00183108262760357,0.00764476997024491,3
496,576,41,0.00988784618905928,0.00761425192645151,3
497,576,41,0.00485236896314946,0.00804150453955901,3
498,576,41,0.0251468680857557,0.00784313725490196,3
499,576,41,0.0188754100862135,0.00784313725490196,3
500,576,41,0.00196841382467384,0.00755321583886473,3
501,576,41,0.0254520485236896,0.00776684214541848,3
502,576,41,0.0188296330205234,0.014724956130312,3
503,576,41,0.0244754711223011,0.00889600976577401,3
504,576,41,0.00523384451056687,0.0251621271076524,3
505,576,41,0.0170290684367132,0.00985732814526589,3
506,576,41,0.0072632944228275,0.00817883573662928,3
507,576,41,0.00184634164950027,0.0103608758678569,3
508,576,41,0.00199893186846723,0.00854505226215,3
495,577,41,0.00199893186846723,0.00857557030594339,3
496,577,41,0.0157015335317006,0.0101777676050965,3
497,577,41,0.0413366903181506,0.00784313725490196,3
498,577,41,0.00204470893415732,0.0106813153276875,3
499,577,41,0.00547798886091402,0.0153658350499733,3
500,577,41,0.0199435416189822,0.00781261921110857,3
501,577,41,0.0017242694743267,0.00799572747386892,3
502,577,41,0.00177004654001678,0.00752269779507134,3
503,577,41,0.0252536812390326,0.00762951094834821,3
504,577,41,0.00207522697795071,0.00805676356145571,3
505,577,41,0.0413977264057374,0.00959792477302205,3
506,577,41,0.00184634164950027,0.0165407797360189,3
507,577,41,0.00173952849622339,0.00709544518196384,3
508,577,41,0.00209048599984741,0.0120698863202869,3
495,578,41,0.00193789578088045,0.00770580605783169,3
496,578,41,0.00238040741588464,0.00737010757610437,3
497,578,41,0.00245670252536812,0.00749217975127794,3
498,578,41,0.00230411230640116,0.00831616693369955,3
499,578,41,0.00196841382467384,0.00830090791180285,3
500,578,41,0.00181582360570687,0.00755321583886473,3
501,578,41,0.00192263675898375,0.00793469138628214,3
502,578,41,0.00202944991226062,0.0104829480430304,3
503,578,41,0.00250247959105821,0.00813305867093919,3
504,578,41,0.00175478751812009,0.007690547035935,3
505,578,41,0.0180361638818952,0.0147707331960021,3
506,578,41,0.00221255817502098,0.0115358205539025,3
507,578,41,0.00253299763485161,0.00805676356145571,3
508,578,41,0.00195315480277714,0.00881971465629053,3
495,579,41,0.0250400549324788,0.00793469138628214,3
496,579,41,0.0389105058365759,0.00828564888990616,3
497,579,41,0.00184634164950027,0.0100404364080262,3
498,579,41,0.00233463035019455,0.00929274433508812,3
499,579,41,0.00239566643778134,0.0072632944228275,3
500,579,41,0.00279240100709545,0.00846875715266651,3
501,579,41,0.00218204013122759,0.00877393759060044,3
502,579,41,0.00135805294880598,0.0109254596780346,3
503,579,41,0.0275272755016403,0.0153963530937667,3
504,579,41,0.00451667048142214,0.00875867856870375,3
505,579,41,0.00450141145952544,0.012817578393225,3
506,579,41,0.0557106889448386,0.00833142595559625,3
507,579,41,0.0102388036926833,0.0076600289921416,3
508,579,41,0.00218204013122759,0.00720225833524071,3
495,580,41,0.00151064316777295,0.00798046845197223,3
496,580,41,0.00234988937209125,0.0076600289921416,3
497,580,41,0.0034027618829633,0.007690547035935,3
498,580,41,0.0148165102616922,0.0162050812542916,3
499,580,41,0.00160219729915312,0.0109254596780346,3
500,580,41,0.00822461280231937,0.00823987182421607,3
501,580,41,0.00744640268558785,0.00759899290455482,3
502,580,41,0.00209048599984741,0.00782787823300526,3
503,580,41,0.00167849240863661,0.00761425192645151,3
504,580,41,0.0243839169909209,0.00782787823300526,3
505,580,41,0.00695811398489357,0.00804150453955901,3
506,580,41,0.00219729915312428,0.00743114366369116,3
507,580,41,0.00236514839398795,0.0116731517509728,3
496,581,41,0.012664988174258,0.00987258716716258,3
497,581,41,0.00263981078812848,0.00813305867093919,3
498,581,41,0.0128480964370184,0.00753795681696803,3
499,581,41,0.00610360875867857,0.00753795681696803,3
500,581,41,0.0562600137331197,0.00761425192645151,3
501,581,41,0.00166323338673991,0.00798046845197223,3
502,581,41,0.0193331807431144,0.00782787823300526,3
503,581,41,0.0398260471503777,0.00775158312352178,3
504,581,41,0.00219729915312428,0.00779736018921187,3
505,581,41,0.00216678110933089,0.00772106507972839,3
506,581,41,0.00114442664225223,0.00785839627679866,3
507,581,41,0.00209048599984741,0.00790417334248875,3
496,582,41,0.00209048599984741,0.00750743877317464,3
497,582,41,0.00286869611657893,0.00782787823300526,3
498,582,41,0.00216678110933089,0.00752269779507134,3
499,582,41,0.00151064316777295,0.00738536659800107,3
500,582,41,0.00231937132829786,0.00776684214541848,3
501,582,41,0.00251773861295491,0.0231021591515984,3
502,582,41,0.00289921416037232,0.00782787823300526,3
503,582,41,0.00187685969329366,0.0076752880140383,3
504,582,41,0.00199893186846723,0.0125886930647745,3
505,582,41,0.0021515220874342,0.00781261921110857,3
506,582,41,0.0025482566567483,0.00741588464179446,3
497,583,41,0.00984206912336919,0.00889600976577401,3
498,583,41,0.0127870603494316,0.00747692072938125,3
499,583,41,0.00267032883192187,0.0118867780575265,3
500,583,41,0.0462348363469902,0.00836194399938964,3
501,583,41,0.00227359426260777,0.00781261921110857,3
502,583,41,0.00234988937209125,0.00738536659800107,3
503,583,41,0.00245670252536812,0.00752269779507134,3
504,583,41,0.00230411230640116,0.010757610437171,3
505,583,41,0.0374608987563897,0.011108567940795,3
506,583,41,0.00201419089036393,0.0080872816052491,3
499,584,41,0.01879911497673,0.0081177996490425,3
500,584,41,0.00250247959105821,0.0081025406271458,3
501,584,41,0.00221255817502098,0.00709544518196384,3
502,584,41,0.0112001220721752,0.00706492713817044,3
503,584,41,0.0120698863202869,0.00787365529869535,3
504,584,41,0.00250247959105821,0.00758373388265812,3
507,571,42,0.00228885328450446,0.00747692072938125,3
503,572,42,0.0165712977798123,0.0116273746852827,3
504,572,42,0.00221255817502098,0.00781261921110857,3
505,572,42,0.00209048599984741,0.007690547035935,3
506,572,42,0.0169985503929198,0.0191195544365606,3
507,572,42,0.00712596322575723,0.00787365529869535,3
500,573,42,0.0224612802319371,0.00978103303578241,3
501,573,42,0.00550850690470741,0.0089417868314641,3
502,573,42,0.0139620050354772,0.0076600289921416,3
503,573,42,0.00207522697795071,0.00779736018921187,3
504,573,42,0.0236209658960861,0.00840772106507973,3
505,573,42,0.0374151216906996,0.00823987182421607,3
506,573,42,0.0021210040436408,0.0076752880140383,3
507,573,42,0.00225833524071107,0.00750743877317464,3
497,574,42,0.00344853894865339,0.00827038986800946,3
498,574,42,0.00750743877317464,0.00801098649576562,3
499,574,42,0.0265659571221485,0.0089723048752575,3
500,574,42,0.0127565423056382,0.00813305867093919,3
501,574,42,0.0394903486686503,0.00813305867093919,3
502,574,42,0.0260471503776608,0.00830090791180285,3
503,574,42,0.00816357671473259,0.00759899290455482,3
504,574,42,0.00173952849622339,0.00958266575112535,3
505,574,42,0.00209048599984741,0.00848401617456321,3
506,574,42,0.00230411230640116,0.0231937132829786,3
507,574,42,0.00199893186846723,0.0212558175020981,3
495,575,42,0.015579461356527,0.014023041123064,3
497,575,42,0.00138857099259937,0.00782787823300526,3
498,575,42,0.00189211871519036,0.00805676356145571,3
499,575,42,0.0021515220874342,0.00990310521095598,3
500,575,42,0.00698863202868696,0.00785839627679866,3
501,575,42,0.00326543068589303,0.00776684214541848,3
502,575,42,0.00230411230640116,0.00775158312352178,3
503,575,42,0.00216678110933089,0.0121766994735637,3
504,575,42,0.00230411230640116,0.00839246204318303,3
505,575,42,0.00178530556191348,0.0141908903639277,3
506,575,42,0.00190737773708705,0.00900282291905089,3
507,575,42,0.00193789578088045,0.00996414129854276,3
508,575,42,0.00222781719691768,0.00787365529869535,3
495,576,42,0.00141908903639277,0.00799572747386892,3
496,576,42,0.00242618448157473,0.00796520943007553,3
497,576,42,0.00653086137178607,0.00790417334248875,3
498,576,42,0.0117494468604562,0.0127718013275349,3
499,576,42,0.0430914778362707,0.0167086289768826,3
500,576,42,0.00245670252536812,0.0213778896772717,3
501,576,42,0.00209048599984741,0.0139314869916838,3
502,576,42,0.00225833524071107,0.0128328374151217,3
503,576,42,0.0433508812085145,0.0242465857938506,3
504,576,42,0.00189211871519036,0.00827038986800946,3
505,576,42,0.0286717021438926,0.00799572747386892,3
506,576,42,0.0191195544365606,0.0103456168459602,3
507,576,42,0.00218204013122759,0.00990310521095598,3
508,576,42,0.0186617837796597,0.00949111161974517,3
495,577,42,0.00205996795605402,0.00755321583886473,3
496,577,42,0.0021362630655375,0.0188143739986267,3
497,577,42,0.00193789578088045,0.0076600289921416,3
498,577,42,0.00224307621881437,0.00791943236438544,3
499,577,42,0.00216678110933089,0.00749217975127794,3
500,577,42,0.00192263675898375,0.00784313725490196,3
501,577,42,0.00167849240863661,0.00750743877317464,3
502,577,42,0.00949111161974517,0.00798046845197223,3
503,577,42,0.00228885328450446,0.0081025406271458,3
504,577,42,0.00563057907988098,0.00898756389715419,3
505,577,42,0.00245670252536812,0.0112306401159686,3
506,577,42,0.00184634164950027,0.00776684214541848,3
507,577,42,0.00950637064164187,0.0104371709773404,3
508,577,42,0.00398260471503777,0.0152437628747997,3
495,578,42,0.0136568245975433,0.00793469138628214,3
496,578,42,0.00450141145952544,0.0168764782177462,3
497,578,42,0.0176241702906844,0.00878919661249714,3
498,578,42,0.0693064774547952,0.0104982070649271,3
499,578,42,0.031113145647364,0.0108339055466545,3
500,578,42,0.00224307621881437,0.0140688181887541,3
501,578,42,0.00183108262760357,0.011612115663386,3
502,578,42,0.0181124589913787,0.00796520943007553,3
503,578,42,0.015228503852903,0.00776684214541848,3
504,578,42,0.00326543068589303,0.0187380788891432,3
505,578,42,0.0016937514305333,0.0106660563057908,3
506,578,42,0.00189211871519036,0.0081025406271458,3
507,578,42,0.00192263675898375,0.00758373388265812,3
508,578,42,0.0171206225680934,0.00733958953231098,3
495,579,42,0.0122529945830472,0.0173800259403372,3
496,579,42,0.00192263675898375,0.0154726482032502,3
497,579,42,0.00224307621881437,0.0139925230792706,3
498,579,42,0.0021515220874342,0.00796520943007553,3
499,579,42,0.00231937132829786,0.00730907148851759,3
500,579,42,0.00161745632104982,0.00914015411612116,3
501,579,42,0.00196841382467384,0.0135805294880598,3
502,579,42,0.00209048599984741,0.00717174029144732,3
503,579,42,0.00199893186846723,0.0101777676050965,3
504,579,42,0.00170901045243,0.0111696040283818,3
505,579,42,0.00187685969329366,0.00885023270008392,3
506,579,42,0.0383764400701915,0.00909437705043107,3
507,579,42,0.0318913557640955,0.0163271534294652,3
508,579,42,0.00222781719691768,0.00761425192645151,3
495,580,42,0.0224765392538338,0.00714122224765393,3
496,580,42,0.00224307621881437,0.00744640268558785,3
497,580,42,0.00170901045243,0.00924696726939803,3
498,580,42,0.00390630960555428,0.0148317692835889,3
499,580,42,0.00543221179522393,0.00856031128404669,3
500,580,42,0.0202182040131228,0.0135347524223697,3
501,580,42,0.0135957885099565,0.00796520943007553,3
502,580,42,0.00204470893415732,0.00973525597009232,3
503,580,42,0.00978103303578241,0.00807202258335241,3
504,580,42,0.013015945677882,0.00929274433508812,3
505,580,42,0.00231937132829786,0.00756847486076143,3
506,580,42,0.00244144350347143,0.00906385900663768,3
507,580,42,0.00180056458381018,0.014724956130312,3
496,581,42,0.0228580148012512,0.0154116121156634,3
497,581,42,0.0016937514305333,0.00914015411612116,3
498,581,42,0.0405889982452125,0.00920119020370794,3
499,581,42,0.00241092545967803,0.010452429999237,3
500,581,42,0.00205996795605402,0.00828564888990616,3
501,581,42,0.00181582360570687,0.00761425192645151,3
502,581,42,0.00198367284657053,0.0089723048752575,3
503,581,42,0.021560997940032,0.0134889753566796,3
504,581,42,0.00234988937209125,0.0111696040283818,3
505,581,42,0.00205996795605402,0.00816357671473259,3
506,581,42,0.0021210040436408,0.00807202258335241,3
507,581,42,0.00173952849622339,0.00773632410162509,3
497,582,42,0.00868238345922026,0.00825513084611276,3
498,582,42,0.00202944991226062,0.00802624551766232,3
499,582,42,0.00183108262760357,0.00804150453955901,3
500,582,42,0.00964370183871214,0.00794995040817884,3
501,582,42,0.0224460212100404,0.00805676356145571,3
502,582,42,0.00209048599984741,0.0081177996490425,3
503,582,42,0.00155642023346304,0.00770580605783169,3
504,582,42,0.00239566643778134,0.00787365529869535,3
505,582,42,0.0930342565041581,0.00816357671473259,3
506,582,42,0.00390630960555428,0.0116731517509728,3
498,583,42,0.00184634164950027,0.00813305867093919,3
499,583,42,0.00221255817502098,0.00816357671473259,3
500,583,42,0.00209048599984741,0.00781261921110857,3
501,583,42,0.00204470893415732,0.00756847486076143,3
502,583,42,0.00195315480277714,0.00761425192645151,3
503,583,42,0.00210574502174411,0.00820935378042268,3
504,583,42,0.00227359426260777,0.00791943236438544,3
505,583,42,0.00822461280231937,0.00843823910887312,3
499,584,42,0.00205996795605402,0.0089417868314641,3
500,584,42,0.0063782711528191,0.00796520943007553,3
501,584,42,0.0120698863202869,0.0112458991378653,3
502,584,42,0.00242618448157473,0.00971999694819562,3
503,584,42,0.00219729915312428,0.00730907148851759,3
