x,y,z,signal,cytoplasm.p
668,753,15,0.0924087161490768,1
669,752,15,0.0931199787097404,1
669,753,15,0.104708374773078,1
667,753,16,0.0902314056131455,1
668,752,16,0.0935899435055143,1
668,753,16,0.103105043162214,1
668,754,16,0.110876545412362,1
669,751,16,0.1011221986603,1
669,752,16,0.106927546773061,1
669,753,16,0.116016274002148,1
669,754,16,0.119602039981021,1
670,752,16,0.12260534629983,1
670,753,16,0.124856091659116,1
666,753,17,0.0907304412562566,1
667,750,17,0.0889876641175153,1
667,752,17,0.0963542529801581,1
667,753,17,0.103721543936436,1
667,754,17,0.109271316063257,1
668,744,17,0.0973642598581732,1
668,745,17,0.10552402683983,1
668,751,17,0.0978306655258178,1
668,752,17,0.108974010690286,1
668,753,17,0.118529004558576,1
668,754,17,0.119247100367191,1
669,743,17,0.0883674304296112,1
669,744,17,0.0994160207590597,1
669,745,17,0.114447678647656,1
669,751,17,0.106330224972489,1
669,752,17,0.12389411215658,1
669,753,17,0.133795578806549,1
669,754,17,0.125491618475701,1
670,745,17,0.116322477195443,1
670,750,17,0.112214867957459,1
670,751,17,0.111818303227929,1
670,752,17,0.138773561706273,1
670,753,17,0.147374361664809,1
671,752,17,0.140155824190638,1
671,753,17,0.148538947316673,1
672,753,17,0.127684958991058,1
666,748,18,0.0902203319976964,1
666,749,18,0.0810212370394905,1
666,750,18,0.078452943765998,1
667,745,18,0.092913431104066,1
667,746,18,0.107921537574494,1
667,749,18,0.10437788331087,1
667,750,18,0.0885908560882112,1
667,751,18,0.089373113523063,1
667,753,18,0.108584355674351,1
668,743,18,0.0881214682604739,1
668,744,18,0.0898048733028242,1
668,745,18,0.0981151941849185,1
668,750,18,0.100904069985361,1
668,751,18,0.0966141318963947,1
668,752,18,0.111082752398352,1
668,753,18,0.121774025727603,1
669,739,18,0.0778594382961742,1
669,740,18,0.0802606541388323,1
669,741,18,0.0773157953772709,1
669,742,18,0.0763029523190278,1
669,743,18,0.0805242729201734,1
669,744,18,0.089151648165503,1
669,745,18,0.102858337190909,1
669,746,18,0.134892638343866,1
669,750,18,0.10921607311161,1
669,751,18,0.104501180685146,1
669,752,18,0.124105004401084,1
669,753,18,0.135533642881088,1
670,743,18,0.0724525943597162,1
670,744,18,0.0835414125690165,1
670,745,18,0.0980738471261041,1
670,746,18,0.119317420953433,1
670,749,18,0.123785086051933,1
670,750,18,0.0987520695773958,1
670,751,18,0.103519354872435,1
670,752,18,0.131527566114698,1
670,753,18,0.146087764651763,1
671,735,18,0.070653336916189,1
671,744,18,0.075428936112093,1
671,745,18,0.0865560497058937,1
671,746,18,0.0965180423883262,1
671,747,18,0.10309490103733,1
671,748,18,0.0999860304220926,1
671,749,18,0.0893358052405047,1
671,750,18,0.0835142742170307,1
671,751,18,0.0964010012939655,1
671,752,18,0.132766810040211,1
671,753,18,0.153010380085966,1
671,754,18,0.125953568281762,1
672,745,18,0.0721980680385178,1
672,746,18,0.0730879056822148,1
672,747,18,0.0709616811474985,1
672,751,18,0.0788040879033465,1
672,752,18,0.108642747620222,1
672,753,18,0.12922273869126,1
672,754,18,0.113160045872713,1
673,752,18,0.0770452529794907,1
673,753,18,0.092617870538049,1
673,754,18,0.0917755806217041,1
674,754,18,0.0755230166591665,1
676,730,18,0.0697980756461541,1
677,754,18,0.069996580456427,1
678,754,18,0.0758155185994475,1
679,754,18,0.0787363671489804,1
680,731,18,0.0703082613703578,1
680,732,18,0.0712749956456292,1
680,733,18,0.0703864926749806,1
680,734,18,0.0704907292497825,1
680,739,18,0.0704076389010925,1
680,740,18,0.0792198316065259,1
680,754,18,0.0742308863141068,1
681,730,18,0.0708827825063514,1
681,731,18,0.0716448947198777,1
681,732,18,0.0705744174207755,1
681,739,18,0.0881524298946298,1
681,740,18,0.110312145546986,1
681,741,18,0.0911767920710633,1
682,739,18,0.0785393360401986,1
682,740,18,0.0964756456647706,1
682,741,18,0.0821999479811179,1
685,748,18,0.0843255329849985,1
685,749,18,0.0818776870027092,1
685,750,18,0.0748329976445245,1
685,751,18,0.0737285695997516,1
685,752,18,0.0748086954727668,1
665,749,19,0.0742948393976798,1
665,750,19,0.0748496115434092,1
666,745,19,0.082608531719506,1
666,746,19,0.0848493365451499,1
666,747,19,0.0896256656403772,1
666,748,19,0.0864534536667139,1
666,749,19,0.07893283519257,1
666,750,19,0.0779138262228997,1
666,751,19,0.0831663972480821,1
667,743,19,0.0923330429677968,1
667,744,19,0.0820705889667473,1
667,745,19,0.084134354973648,1
667,746,19,0.0983049610575771,1
667,747,19,0.118073380546651,1
667,748,19,0.117683002582815,1
667,749,19,0.0968138740598063,1
667,750,19,0.0846187926302913,1
667,751,19,0.0859271267403302,1
667,752,19,0.100714914837849,1
668,740,19,0.0905800819956387,1
668,742,19,0.0847013268652111,1
668,743,19,0.0800854991554856,1
668,744,19,0.0791065442801141,1
668,745,19,0.0852527136683644,1
668,746,19,0.108930223682305,1
668,749,19,0.115686505487842,1
668,750,19,0.0907910993657411,1
668,751,19,0.089883591206996,1
668,752,19,0.108687911009785,1
668,753,19,0.122936094964657,1
669,738,19,0.0729991290702245,1
669,739,19,0.0747669869400018,1
669,740,19,0.0737743725201497,1
669,743,19,0.071088141418842,1
669,744,19,0.0760643725601899,1
669,745,19,0.0858589749977922,1
669,746,19,0.111388329963655,1
669,747,19,0.143514139637498,1
669,749,19,0.120111301166082,1
669,750,19,0.0938576010631116,1
669,751,19,0.0951105740473271,1
669,752,19,0.116843395915411,1
669,753,19,0.13025602588198,1
669,754,19,0.118162803640899,1
670,736,19,0.0705957513352848,1
670,745,19,0.078811525925023,1
670,746,19,0.0961739122359044,1
670,747,19,0.111170027503163,1
670,748,19,0.113889757507703,1
670,749,19,0.0949779687188229,1
670,750,19,0.0822879599366742,1
670,751,19,0.0896947627763246,1
670,752,19,0.115928762548985,1
670,753,19,0.132737614067276,1
670,754,19,0.112372908539527,1
671,746,19,0.07606558210764,1
671,747,19,0.0782642960723019,1
671,748,19,0.0761866272211462,1
671,749,19,0.0707208977878462,1
671,751,19,0.0823750056445548,1
671,752,19,0.116620957358753,1
671,753,19,0.140721920203013,1
671,754,19,0.116793971304085,1
671,755,19,0.098966840715447,1
672,752,19,0.0907602141972286,1
672,753,19,0.114182537504869,1
672,754,19,0.102540247065777,1
673,753,19,0.0810401101505667,1
673,754,19,0.0845206315984289,1
673,755,19,0.0898496891212802,1
674,754,19,0.0705460625699174,1
674,755,19,0.0778288172817025,1
678,755,19,0.0721095208234577,1
679,755,19,0.0731939704810362,1
681,725,19,0.0758610295601162,1
681,726,19,0.0755070770482282,1
681,740,19,0.075286202561549,1
682,726,19,0.0832963540847557,1
682,727,19,0.0700517469424309,1
682,740,19,0.0712385771451032,1
685,748,19,0.0732746973462028,1
685,749,19,0.0711040671269361,1
685,752,19,0.070473858148279,1
685,753,19,0.0754779227838255,1
686,748,19,0.0816739199658858,1
686,749,19,0.0799234406514272,1
686,750,19,0.0725564347034568,1
686,751,19,0.0711445800150951,1
686,752,19,0.0748150004126364,1
665,745,20,0.0758962454646142,1
665,746,20,0.0743165764946725,1
665,747,20,0.073724287523721,1
665,748,20,0.0709851352457567,1
666,744,20,0.0800325432217183,1
666,745,20,0.0725629064774575,1
666,746,20,0.0735617146144252,1
666,747,20,0.0768038857003797,1
666,748,20,0.0747383470808365,1
666,749,20,0.0701395503553233,1
667,743,20,0.0831042445828402,1
667,744,20,0.0712296028591366,1
667,745,20,0.071308571014505,1
667,746,20,0.0813418157737444,1
667,747,20,0.0941974908480357,1
667,748,20,0.0928593837970247,1
667,749,20,0.0794189898504788,1
667,750,20,0.0717911456900182,1
667,751,20,0.0744590736968642,1
668,739,20,0.0872220724113516,1
668,740,20,0.0871629158090465,1
668,741,20,0.0842331972448789,1
668,742,20,0.0737951155637781,1
668,746,20,0.0847585162150541,1
668,747,20,0.10370038380748,1
668,748,20,0.10510269419326,1
668,749,20,0.0858692283454303,1
668,750,20,0.0726947541009498,1
668,751,20,0.0750154029611501,1
668,752,20,0.0949096501421538,1
669,738,20,0.0706125876796776,1
669,739,20,0.0699532105337736,1
669,746,20,0.0799731989310159,1
669,747,20,0.096164187196348,1
669,748,20,0.0987924920970672,1
669,749,20,0.0818277688404116,1
669,750,20,0.0708702282379891,1
669,751,20,0.0758138433067148,1
669,752,20,0.0959625611975398,1
669,753,20,0.110867334778043,1
670,747,20,0.072117660938769,1
670,748,20,0.0721940292622617,1
670,752,20,0.0910409751855362,1
670,753,20,0.106237986552279,1
671,752,20,0.0888276910400951,1
671,753,20,0.108467258968614,1
671,754,20,0.0974014082580226,1
672,753,20,0.0850055210975105,1
673,754,20,0.0705739655783372,1
681,726,20,0.085327274622104,1
665,743,21,0.0905651364380646,1
665,744,21,0.0759301266960636,1
666,743,21,0.0890911221330389,1
667,740,21,0.0960003977881798,1
667,741,21,0.100889207844852,1
667,742,21,0.0876944493506037,1
667,743,21,0.0697440422419571,1
667,747,21,0.0707396040647913,1
667,748,21,0.0697687545476204,1
668,739,21,0.0840280329722079,1
668,740,21,0.0781516482767258,1
668,741,21,0.0707665477769574,1
668,747,21,0.0719981034295981,1
669,752,21,0.0730849652306549,1
660,746,25,0.083784385626639,1
662,752,25,0.0775669502587375,1
662,753,25,0.0821041295785125,1
663,753,25,0.0703653394974467,1
663,754,25,0.0798285328851205,1
664,754,25,0.0773516091040718,1
664,755,25,0.0935402269344584,1
665,755,25,0.0928469616056829,1
666,756,25,0.102968127951991,1
667,757,25,0.0964181365495098,1
668,757,25,0.0828930464757625,1
669,758,25,0.0826868464411944,1
656,747,26,0.075228901988952,1
657,747,26,0.0752428743474283,1
657,748,26,0.0825185108029549,1
658,747,26,0.0816346444308654,1
659,746,26,0.0792388020375119,1
659,747,26,0.0879878549757612,1
660,746,26,0.0732934244774143,1
660,747,26,0.0821106847695787,1
660,748,26,0.086291367356967,1
661,750,26,0.0790016056116773,1
661,751,26,0.0873388563030936,1
661,752,26,0.0857231233551545,1
662,752,26,0.0714686622661013,1
664,754,26,0.0728912986101827,1
664,755,26,0.0888728961381903,1
665,755,26,0.0873281233073287,1
665,756,26,0.101602395949445,1
666,755,26,0.07877439837944,1
666,756,26,0.0945842123638328,1
667,756,26,0.080023749672727,1
667,757,26,0.0877865278881046,1
668,757,26,0.0786057429757826,1
668,758,26,0.0841723166898863,1
669,757,26,0.0731824797802594,1
669,758,26,0.0805995290161257,1
669,759,26,0.0813920676043041,1
670,758,26,0.0757241977669585,1
670,759,26,0.0805833808625236,1
671,758,26,0.07041426360638,1
671,759,26,0.081095081996751,1
671,760,26,0.0877845258785318,1
672,759,26,0.0840758379021787,1
672,760,26,0.0978061895685069,1
673,759,26,0.0857219972247698,1
673,760,26,0.106483302239159,1
674,759,26,0.0788799279187576,1
674,760,26,0.103302873684541,1
675,760,26,0.0939843532941844,1
676,760,26,0.0845313020313946,1
680,759,26,0.076069940649314,1
681,759,26,0.0845805876142786,1
685,756,26,0.0713331651459921,1
685,757,26,0.0763458008850217,1
686,755,26,0.0833973234911577,1
686,756,26,0.104478804057317,1
687,755,26,0.0990111768857762,1
655,745,27,0.0766516426043653,1
656,746,27,0.0782809169226088,1
656,747,27,0.07679856091103,1
656,748,27,0.0762192641480348,1
657,746,27,0.0716043331717637,1
657,747,27,0.073569667041339,1
657,748,27,0.079437536244715,1
657,749,27,0.085693385171293,1
658,746,27,0.0737099814969826,1
658,747,27,0.0769964748504221,1
658,748,27,0.0836263589474145,1
659,746,27,0.0721982001155382,1
659,747,27,0.0773811874052243,1
659,748,27,0.0830361901602119,1
660,748,27,0.071032912370039,1
660,749,27,0.077159214593849,1
660,750,27,0.087258240660681,1
660,751,27,0.0897602173670771,1
660,752,27,0.0830060140367564,1
661,751,27,0.0731156627107699,1
661,752,27,0.07560226287142,1
664,755,27,0.0835115284052904,1
665,755,27,0.0802928322718604,1
665,756,27,0.0925315964380246,1
666,756,27,0.0836977291983976,1
666,757,27,0.0900722806092249,1
667,756,27,0.0700483129398999,1
667,757,27,0.079912304473179,1
668,757,27,0.0728712854658776,1
668,758,27,0.0799961733811473,1
669,758,27,0.0776089368483876,1
669,759,27,0.081540299729751,1
669,760,27,0.0828913572801855,1
670,758,27,0.0717346862394986,1
670,759,27,0.0809517019639491,1
670,760,27,0.0869733366247854,1
671,759,27,0.0826406403383129,1
671,760,27,0.0934781646377041,1
671,761,27,0.0992999667666411,1
672,759,27,0.0868290111985742,1
672,760,27,0.103347772920062,1
672,761,27,0.114079197663521,1
673,759,27,0.0864578122083878,1
673,760,27,0.110264410131236,1
673,761,27,0.127656068880696,1
674,759,27,0.0787135317272916,1
674,760,27,0.110014304914511,1
675,760,27,0.104074224338074,1
676,760,27,0.0956100337271879,1
677,760,27,0.0874850447104349,1
678,760,27,0.0856758536846875,1
679,760,27,0.0883027265924485,1
680,759,27,0.0722211120028704,1
680,760,27,0.0926506603962244,1
681,759,27,0.0779403598011604,1
681,760,27,0.0935082225869834,1
682,759,27,0.0817825081309394,1
684,758,27,0.0739006868116285,1
685,757,27,0.0706270744433913,1
685,758,27,0.0765521468994544,1
686,755,27,0.089101000103882,1
686,756,27,0.11752268888571,1
686,757,27,0.0967890018714341,1
687,755,27,0.113649064516538,1
687,756,27,0.148092526987645,1
688,755,27,0.0883049093389965,1
656,747,28,0.0745367975476717,1
656,748,28,0.073896627181106,1
657,747,28,0.0714000725839693,1
657,748,28,0.0757781268998237,1
657,749,28,0.0805797035602181,1
658,747,28,0.071611381913801,1
658,748,28,0.0766308230950934,1
658,749,28,0.0813165960142659,1
658,750,28,0.0814730864292002,1
659,748,28,0.0703255982171437,1
659,749,28,0.0768785995854061,1
659,750,28,0.078936220535146,1
659,751,28,0.0768209722959691,1
659,752,28,0.0756514858915049,1
660,751,28,0.0698777458951574,1
660,752,28,0.0703070448714854,1
664,755,28,0.0759041700858395,1
664,756,28,0.0838959420489411,1
665,756,28,0.0799815197833025,1
665,757,28,0.0853435061927717,1
666,757,28,0.0770253441065176,1
668,758,28,0.0725888978447922,1
669,758,28,0.0707014199030449,1
669,759,28,0.0794802666365327,1
669,760,28,0.0870592144937485,1
670,759,28,0.0792913895459064,1
670,760,28,0.0903551548298592,1
670,761,28,0.0930653405318183,1
671,759,28,0.0815476543343618,1
671,760,28,0.0980973220786287,1
671,761,28,0.10381771686157,1
672,759,28,0.0853061492502585,1
672,760,28,0.108413587038367,1
672,761,28,0.115161415914597,1
673,759,28,0.0827006936740724,1
673,760,28,0.113791214147623,1
674,759,28,0.0735914667011309,1
676,760,28,0.0989423647581361,1
677,760,28,0.0907338057445663,1
677,761,28,0.119546595438132,1
678,760,28,0.0876302877243669,1
679,760,28,0.0896592410092531,1
680,760,28,0.089958451071887,1
681,760,28,0.0868416141268914,1
682,759,28,0.0732631093255163,1
682,760,28,0.0865504607625032,1
683,759,28,0.0760012258415837,1
685,758,28,0.0716685921179104,1
686,755,28,0.0805328440236566,1
686,756,28,0.110457075746922,1
686,757,28,0.0875282060904245,1
686,758,28,0.0762606181582713,1
687,755,28,0.105630752023754,1
687,756,28,0.14303563154393,1
687,757,28,0.107125815234981,1
688,756,28,0.100092102172336,1
655,745,29,0.0784544313703333,1
656,746,29,0.0703316807115053,1
656,747,29,0.069826089877328,1
656,748,29,0.0709738252819552,1
657,748,29,0.0713258105413812,1
657,749,29,0.0743342261554543,1
658,749,29,0.0719134698651958,1
658,750,29,0.0723721316485904,1
658,751,29,0.0728990007859,1
664,756,29,0.0755071257081831,1
665,757,29,0.0751636559408633,1
668,759,29,0.0768897496664986,1
669,759,29,0.0785437849503602,1
669,760,29,0.0900778834554596,1
670,759,29,0.0788316711463485,1
670,760,29,0.0938970573351073,1
671,759,29,0.0800655694282461,1
671,760,29,0.103481316690554,1
672,759,29,0.0799686596523666,1
672,760,29,0.112484193856366,1
673,759,29,0.0748993489687315,1
676,760,29,0.0982903700225315,1
677,760,29,0.0913733713374069,1
677,761,29,0.113440918083774,1
678,760,29,0.086857512029297,1
678,761,29,0.0968388644223546,1
679,760,29,0.0874565855882449,1
679,761,29,0.0922616935710801,1
680,760,29,0.0851751357974215,1
680,761,29,0.089162930323616,1
681,760,29,0.0814418467381592,1
682,760,29,0.082205022519271,1
683,759,29,0.0707871587435655,1
683,760,29,0.0847261851507391,1
684,759,29,0.0769236448007923,1
686,756,29,0.0831876199398374,1
686,757,29,0.0720416749434933,1
686,758,29,0.071935617096094,1
687,755,29,0.07864376725482,1
687,756,29,0.10666690320039,1
687,757,29,0.0866507628323809,1
688,756,29,0.0760174782665178,1
656,749,30,0.0736820159257637,1
657,750,30,0.0720303093683148,1
660,756,30,0.0700601442603609,1
663,756,30,0.0718236922484191,1
664,757,30,0.0741862303783598,1
668,759,30,0.0746151470264708,1
669,759,30,0.0772532464809677,1
670,759,30,0.0760298587493268,1
671,759,30,0.0739664820220653,1
676,760,30,0.0885407224318277,1
677,760,30,0.0832286611360781,1
677,761,30,0.101308468967628,1
677,762,30,0.10695933562645,1
678,760,30,0.0790603312258104,1
678,761,30,0.0898684927181351,1
679,760,30,0.0786907936255125,1
679,761,30,0.085840094935294,1
680,760,30,0.07766893457277,1
680,761,30,0.083578352426202,1
681,760,30,0.0770337344730255,1
681,761,30,0.0830878183723529,1
682,760,30,0.0799580170250894,1
683,760,30,0.0834118311091378,1
683,761,30,0.0926204564670804,1
684,759,30,0.0729095878018002,1
684,760,30,0.0870477446472381,1
685,759,30,0.0779784814001076,1
655,748,31,0.0775409310857143,1
668,759,31,0.0707167338859918,1
669,759,31,0.0715543593980891,1
675,760,31,0.0845568346048689,1
676,760,31,0.0771735136691653,1
676,761,31,0.102577569251179,1
676,762,31,0.11554312545504,1
677,760,31,0.072548593499297,1
677,761,31,0.0905408620719954,1
678,761,31,0.0837757658632009,1
679,761,31,0.0813666045450511,1
680,760,31,0.0705253612348217,1
680,761,31,0.0819417791147247,1
680,762,31,0.0827955041204694,1
681,760,31,0.0743076995286157,1
681,761,31,0.0842129616550658,1
681,762,31,0.0841901053791105,1
682,760,31,0.0800166661735791,1
682,761,31,0.0894470140917005,1
683,760,31,0.0847899783516032,1
684,759,31,0.0717649874885524,1
684,760,31,0.0884266009347605,1
684,761,31,0.0972738496619829,1
685,759,31,0.0784862480294109,1
685,760,31,0.0904359234035586,1
686,759,31,0.0810705782337515,1
651,743,32,0.0700716210582934,1
655,748,32,0.0730487413699485,1
655,749,32,0.0713324004895581,1
664,759,32,0.0730723275452271,1
675,760,32,0.0700174555770759,1
676,761,32,0.0857659232611935,1
676,762,32,0.0946104678852083,1
677,761,32,0.0781833189559387,1
677,762,32,0.0855726806774711,1
678,761,32,0.0752140259455992,1
679,761,32,0.0751659429587433,1
680,761,32,0.0780308603658383,1
680,762,32,0.0845084457554394,1
681,761,32,0.082318859008031,1
681,762,32,0.0865224673855957,1
682,760,32,0.0749247077566526,1
682,761,32,0.0884823860973337,1
682,762,32,0.0910615444436115,1
683,760,32,0.0822323485596542,1
683,761,32,0.0942617289399159,1
684,760,32,0.0875963369786962,1
685,759,32,0.0764458388008585,1
685,760,32,0.0905958617238682,1
686,759,32,0.079900417541341,1
651,745,33,0.0705808335833992,1
653,748,33,0.0755905775308237,1
653,749,33,0.0697911172726045,1
654,748,33,0.0718608197940021,1
655,750,33,0.0697970051271465,1
662,757,33,0.0700446217347502,1
663,758,33,0.0699745027397501,1
663,759,33,0.0737340195146995,1
666,760,33,0.0729650601503776,1
667,760,33,0.0739100086687015,1
675,761,33,0.0799134653606743,1
675,762,33,0.0887874770630876,1
676,761,33,0.0697703950832424,1
676,762,33,0.0814054768975881,1
677,762,33,0.0790768617076296,1
678,762,33,0.0797368505786809,1
679,762,33,0.0820793616614722,1
680,761,33,0.072025902166686,1
681,761,33,0.078005814391913,1
681,762,33,0.0872581850493039,1
682,761,33,0.085713446975553,1
682,762,33,0.091966126053641,1
683,760,33,0.075415144490592,1
683,761,33,0.0919513681844643,1
684,760,33,0.082823838117061,1
685,759,33,0.0706615882542543,1
685,760,33,0.0872652337913412,1
686,759,33,0.0766094196663629,1
650,739,34,0.0711997673553654,1
653,750,34,0.071341937840717,1
655,751,34,0.0698230729601246,1
660,757,34,0.0711246572392777,1
661,757,34,0.0746775986028643,1
662,757,34,0.0723903304717202,1
662,758,34,0.0744809081137666,1
662,759,34,0.0723529040149857,1
664,760,34,0.0706021466436421,1
666,761,34,0.0793824948843094,1
667,761,34,0.0844134545720671,1
671,761,34,0.0856802817405827,1
672,761,34,0.08164580146338,1
673,761,34,0.0783337129736671,1
674,761,34,0.0729930882843957,1
674,762,34,0.0872140852273271,1
675,762,34,0.0775109217963898,1
675,763,34,0.0855129888156623,1
676,762,34,0.0742571696411709,1
677,762,34,0.0745802925959235,1
678,762,34,0.0761437160923532,1
679,762,34,0.0785725290808574,1
679,763,34,0.0833929162895288,1
680,762,34,0.0813867011064217,1
681,761,34,0.071905899766499,1
681,762,34,0.0845501959967372,1
682,761,34,0.0807873286363223,1
682,762,34,0.0896913287737936,1
683,761,34,0.0872525683002249,1
683,762,34,0.0931907441869984,1
684,760,34,0.0772507370175796,1
684,761,34,0.0911118449341261,1
685,760,34,0.0827149927493887,1
649,738,35,0.084168215350831,1
649,739,35,0.0889216603644147,1
649,740,35,0.0853542322371145,1
650,738,35,0.0715488955802969,1
650,739,35,0.0744409374365335,1
650,740,35,0.0730242306555269,1
651,735,35,0.0720076060236464,1
654,718,35,0.0727484955454175,1
654,751,35,0.0752214709186977,1
655,752,35,0.0722263672779988,1
655,753,35,0.0751556131454618,1
660,756,35,0.0702217300677146,1
660,757,35,0.0753072375649068,1
661,756,35,0.0749844343755721,1
661,757,35,0.0831157144293505,1
661,758,35,0.0788335271760565,1
662,756,35,0.0702446906150018,1
662,757,35,0.080484448222805,1
662,758,35,0.0767517708886898,1
667,761,35,0.0820688997711703,1
668,761,35,0.0834911259813462,1
668,762,35,0.093393378142015,1
669,761,35,0.0841312198822685,1
670,761,35,0.0800254110626155,1
671,761,35,0.0748991960374447,1
671,762,35,0.0903813964483905,1
672,761,35,0.0709485916196324,1
674,762,35,0.0794793838059225,1
675,762,35,0.0719459469093755,1
676,762,35,0.070919673703582,1
677,762,35,0.0726248227943471,1
678,762,35,0.0742064034053738,1
679,762,35,0.0764804429802092,1
679,763,35,0.0824606471651656,1
680,762,35,0.0801629588522524,1
681,761,35,0.070043794515517,1
681,762,35,0.083818461497908,1
682,761,35,0.0774639579884965,1
682,762,35,0.0875318694898857,1
683,761,35,0.0820324326106894,1
684,760,35,0.0724226059246582,1
649,736,36,0.0713973476264953,1
649,737,36,0.0812142293720163,1
649,738,36,0.0984807347174931,1
649,739,36,0.101236181128924,1
649,740,36,0.0942102745133282,1
649,741,36,0.0799425223051672,1
650,734,36,0.0744648711829185,1
650,735,36,0.0768936007543572,1
650,736,36,0.0724620830509202,1
650,737,36,0.0733860104687305,1
650,738,36,0.0790081886084321,1
650,739,36,0.0790072640692891,1
650,740,36,0.080671455380879,1
650,741,36,0.0802181461925226,1
650,742,36,0.0767421918289981,1
650,743,36,0.0702661635579536,1
651,734,36,0.0715262687012719,1
651,735,36,0.0766745058317427,1
651,736,36,0.0711953949108472,1
651,740,36,0.0711906123324235,1
651,741,36,0.0735220984597206,1
651,742,36,0.0704679355366264,1
653,718,36,0.0860233552768412,1
654,717,36,0.0727202171602028,1
654,718,36,0.0723502416203109,1
654,751,36,0.0719598428022084,1
660,756,36,0.0748573137191265,1
660,757,36,0.0795417450138283,1
661,756,36,0.080984026076842,1
661,757,36,0.0899565324793799,1
661,758,36,0.0819991909100757,1
662,756,36,0.0736767328449468,1
662,757,36,0.0849693250424926,1
662,758,36,0.0795339107610906,1
667,761,36,0.0807422973237803,1
668,761,36,0.0793586237007236,1
668,762,36,0.0882562771897925,1
669,761,36,0.076546453684732,1
669,762,36,0.0871831444474376,1
670,761,36,0.0722629665155001,1
670,762,36,0.0845804138287254,1
674,762,36,0.0761438759750621,1
677,762,36,0.0707962581551304,1
679,762,36,0.0764301981010717,1
681,761,36,0.0717425969578797,1
681,762,36,0.0856868369316489,1
682,761,36,0.0764134034652116,1
682,762,36,0.0875657924298679,1
683,761,36,0.078784269398861,1
684,760,36,0.0702051092174078,1
649,734,37,0.0730200528508283,1
649,736,37,0.0739548244871574,1
649,737,37,0.0843055198406934,1
649,738,37,0.10122525349334,1
649,739,37,0.102681284469322,1
649,740,37,0.0934638794652321,1
649,741,37,0.0868647832168423,1
650,734,37,0.0803485896287451,1
650,735,37,0.0805868218164767,1
650,736,37,0.0780991858939295,1
650,737,37,0.0810952071223493,1
650,738,37,0.0836336162321157,1
650,739,37,0.0812253725016867,1
650,740,37,0.086786364223822,1
650,741,37,0.0946529480258295,1
650,742,37,0.0942804213140168,1
650,743,37,0.0843758612812016,1
651,734,37,0.0713978272746221,1
651,735,37,0.0744058814147445,1
651,736,37,0.0730119057840948,1
651,737,37,0.0731722472868877,1
651,738,37,0.0721347058258256,1
651,739,37,0.0708582439862413,1
651,740,37,0.0789337944888236,1
651,741,37,0.0862367083247784,1
651,742,37,0.0821524767194092,1
651,743,37,0.072456348127665,1
653,716,37,0.0799442462578548,1
653,717,37,0.0879580055691457,1
653,718,37,0.0846947369170343,1
653,719,37,0.0783545533372054,1
654,717,37,0.0721095069206134,1
654,718,37,0.0722125548022315,1
660,756,37,0.0778200028784449,1
660,757,37,0.0814063944853089,1
661,756,37,0.0832074592985893,1
661,757,37,0.0906299584494036,1
661,758,37,0.0817149055507495,1
662,756,37,0.0730945999017236,1
662,757,37,0.0826210859878683,1
662,758,37,0.0770233768540555,1
668,761,37,0.0789353168502695,1
669,761,37,0.0744305172547644,1
669,762,37,0.0823652945078426,1
670,761,37,0.0705558640751172,1
670,762,37,0.0801485624570263,1
680,761,37,0.074077690873261,1
680,762,37,0.0862741625872014,1
681,704,37,0.0920091066966553,1
681,761,37,0.0767006084218314,1
681,762,37,0.0878758397595987,1
682,761,37,0.0770069854006789,1
686,759,37,0.072545979764577,1
687,758,37,0.0721175427645928,1
649,734,38,0.0742327284409706,1
649,735,38,0.0738032626305116,1
649,736,38,0.0762998867418696,1
649,737,38,0.086702022619149,1
649,738,38,0.0969089069517113,1
649,739,38,0.0964676306750576,1
649,740,38,0.088383064177976,1
649,742,38,0.100113644629509,1
650,733,38,0.0697567702958725,1
650,734,38,0.0820619344461986,1
650,735,38,0.0819207163056784,1
650,736,38,0.082993397205595,1
650,737,38,0.0883999769880122,1
650,738,38,0.0868501365704197,1
650,739,38,0.082989963203064,1
650,740,38,0.0909915575256318,1
650,741,38,0.105368210712842,1
650,742,38,0.106326478155962,1
650,743,38,0.0961679409642968,1
651,734,38,0.0701339614119328,1
651,735,38,0.0723419277194464,1
651,736,38,0.0744943104556285,1
651,737,38,0.0776358736091317,1
651,738,38,0.0760526385596386,1
651,739,38,0.0753087807806191,1
651,740,38,0.0870302618205875,1
651,741,38,0.0974563175414077,1
651,742,38,0.0919961979057645,1
651,743,38,0.0793154136607791,1
652,719,38,0.087082578223519,1
652,720,38,0.0741666273679602,1
652,740,38,0.0718640383024471,1
652,741,38,0.0742481327924052,1
652,747,38,0.0699127741112579,1
653,716,38,0.0774960109959264,1
653,717,38,0.0828467291501269,1
653,718,38,0.0839957297135814,1
653,719,38,0.080731265416864,1
653,720,38,0.0738798533995123,1
654,716,38,0.0709392558597152,1
654,717,38,0.0733318727932015,1
654,718,38,0.07626054864405,1
654,719,38,0.0814186985024746,1
654,720,38,0.0828607918770908,1
654,721,38,0.0759390801277638,1
655,717,38,0.0698845999973751,1
655,718,38,0.0744458103834449,1
655,719,38,0.0823426120174406,1
655,720,38,0.0855452642686003,1
655,721,38,0.075862489358763,1
656,719,38,0.0711872408926916,1
656,720,38,0.0717123443687808,1
660,756,38,0.0775421128274759,1
660,757,38,0.079631251525142,1
661,756,38,0.0810284526156589,1
661,757,38,0.0854735881550436,1
661,758,38,0.0775534923054987,1
662,756,38,0.0701753571307021,1
662,757,38,0.0766351885881895,1
662,758,38,0.0724481245952882,1
666,760,38,0.0718855042939769,1
667,760,38,0.0718823274940646,1
669,761,38,0.0749348429301145,1
670,761,38,0.0712210456584977,1
670,762,38,0.0772954207590152,1
671,761,38,0.0708103834448935,1
679,761,38,0.07553083700906,1
680,761,38,0.0834941011900167,1
680,762,38,0.089640263626845,1
681,761,38,0.0809192179683473,1
682,704,38,0.095730418455592,1
682,705,38,0.0747859365167213,1
683,704,38,0.0851051210737534,1
683,760,38,0.0720942763547321,1
649,734,39,0.0709888820622834,1
649,735,39,0.0718779063895915,1
649,736,39,0.0751048886181974,1
649,737,39,0.0829956147092537,1
649,738,39,0.0857020953032188,1
649,739,39,0.0840179325558566,1
649,740,39,0.0815119726845814,1
650,734,39,0.0769270231919462,1
650,735,39,0.0782327574701094,1
650,736,39,0.0806407579007639,1
650,737,39,0.0858135961141439,1
650,738,39,0.0825742751112617,1
650,739,39,0.0810088982652142,1
650,740,39,0.0888382224446183,1
650,741,39,0.102779508063983,1
650,742,39,0.103585163985716,1
650,743,39,0.095621267225346,1
651,718,39,0.0882654322127344,1
651,719,39,0.0794855497173496,1
651,720,39,0.070891374464101,1
651,736,39,0.0717184824745194,1
651,737,39,0.0747081987630695,1
651,738,39,0.0735447670472783,1
651,739,39,0.0766926698977618,1
651,740,39,0.0873209007797382,1
651,741,39,0.0967440331216913,1
651,742,39,0.0911962212959097,1
651,743,39,0.0795633361309563,1
652,715,39,0.0796452516893068,1
652,716,39,0.0829454045872268,1
652,717,39,0.0872055488809545,1
652,718,39,0.0889633063343805,1
652,719,39,0.0810850371917767,1
652,720,39,0.0713863087681568,1
652,740,39,0.0731615351453893,1
652,741,39,0.0745756142888317,1
652,747,39,0.0720548895969577,1
652,748,39,0.0701607104842794,1
653,716,39,0.0756102013954897,1
653,717,39,0.0789759201069162,1
653,718,39,0.0828777602985041,1
653,719,39,0.0842485042764037,1
653,720,39,0.083884701599361,1
653,721,39,0.0771247424915187,1
653,722,39,0.0703009762799681,1
654,716,39,0.0740148569686505,1
654,717,39,0.0766590875774639,1
654,718,39,0.0843057770433121,1
654,719,39,0.101891144121777,1
654,720,39,0.113284323397508,1
654,721,39,0.0974402736591374,1
654,722,39,0.0746871498568674,1
655,716,39,0.0720384911921589,1
655,717,39,0.076702763362691,1
655,718,39,0.0877147336003718,1
655,719,39,0.1108826835181,1
655,720,39,0.123774005485061,1
655,721,39,0.102146226556746,1
655,722,39,0.0717924108488454,1
656,717,39,0.0703058909354123,1
656,718,39,0.077392566883247,1
656,719,39,0.0900648147818599,1
656,720,39,0.0954940214433021,1
656,721,39,0.0806472644318753,1
660,756,39,0.0710091454577851,1
660,757,39,0.0711730252344409,1
661,756,39,0.0723611136445183,1
661,757,39,0.0729776630786948,1
666,760,39,0.0777580657072889,1
667,760,39,0.0795885767447013,1
667,761,39,0.095049290309851,1
668,760,39,0.0748188723547614,1
670,761,39,0.0753838769938625,1
671,761,39,0.0774050863944987,1
671,762,39,0.0831371734694581,1
672,761,39,0.076969920417895,1
672,762,39,0.083533863324586,1
673,761,39,0.0710705543208594,1
680,761,39,0.0851162850576901,1
682,705,39,0.0734183206787791,1
682,760,39,0.0707282315381907,1
683,704,39,0.079422924355403,1
683,760,39,0.0755401519147108,1
684,704,39,0.0710784441849741,1
649,736,40,0.0723541622223908,1
649,737,40,0.0756442703153365,1
649,738,40,0.0740680631536144,1
649,739,40,0.0726315170138559,1
649,740,40,0.074197964378911,1
649,741,40,0.0814768610514154,1
650,718,40,0.0740167686097356,1
650,728,40,0.0711580866282889,1
650,729,40,0.0722525602365753,1
650,734,40,0.0698000637528826,1
650,735,40,0.0734222829893918,1
650,736,40,0.0750335253186365,1
650,737,40,0.0767696290921354,1
650,738,40,0.0739543795961413,1
650,739,40,0.0757087169498806,1
650,740,40,0.081696505136378,1
650,741,40,0.0904517726460093,1
650,742,40,0.091807035806831,1
650,743,40,0.0849086669330081,1
651,715,40,0.0829212414439116,1
651,716,40,0.0829173764532087,1
651,717,40,0.0799496197071594,1
651,718,40,0.0778244865457171,1
651,719,40,0.0728028209093439,1
651,728,40,0.0769378743618873,1
651,729,40,0.0771928316712576,1
651,739,40,0.074033799593948,1
651,740,40,0.0814882127237496,1
651,741,40,0.0868755301154514,1
651,742,40,0.0832211049402256,1
651,743,40,0.0738191674843393,1
652,716,40,0.07731007435686,1
652,717,40,0.078886497012668,1
652,718,40,0.0809967193736468,1
652,719,40,0.079204024072608,1
652,720,40,0.0774322386493287,1
652,721,40,0.0738854353914807,1
652,722,40,0.0698700993308172,1
652,728,40,0.07367886693154,1
652,729,40,0.0738722833008155,1
652,741,40,0.0700895418245381,1
653,716,40,0.0746145353013236,1
653,717,40,0.0785196357098892,1
653,718,40,0.0864135594551242,1
653,719,40,0.097014387831074,1
653,720,40,0.104535729253119,1
653,721,40,0.0921902468544537,1
653,722,40,0.0759149725958256,1
654,716,40,0.0761592872779187,1
654,717,40,0.0837914482715205,1
654,718,40,0.100988084873194,1
654,719,40,0.130554033348586,1
654,720,40,0.147399345075935,1
654,721,40,0.119594087554107,1
654,722,40,0.082314882794574,1
655,715,40,0.0718736451678273,1
655,716,40,0.0756240625312119,1
655,717,40,0.0867126165864713,1
655,718,40,0.10841856425661,1
655,719,40,0.142393347945037,1
655,720,40,0.157658768256937,1
655,721,40,0.123347660863138,1
655,722,40,0.0798240631206925,1
656,716,40,0.0697532598276982,1
656,717,40,0.0780065373398142,1
656,718,40,0.0922006878904892,1
656,719,40,0.111704063556686,1
656,720,40,0.118019910207646,1
656,721,40,0.0957770207895347,1
657,718,40,0.071703794119564,1
657,719,40,0.0775437811687865,1
657,720,40,0.0784359266846299,1
657,721,40,0.0699011235277722,1
666,760,40,0.0788739496957279,1
667,760,40,0.0813022760846832,1
667,761,40,0.0978934924790062,1
668,760,40,0.0770931691322156,1
669,760,40,0.0707064457812431,1
670,760,40,0.0718939294175954,1
671,760,40,0.0807377441422868,1
671,761,40,0.0818345186712974,1
672,760,40,0.0835545299025711,1
672,761,40,0.0825426461405816,1
673,760,40,0.0733043382101545,1
673,761,40,0.075608039503208,1
680,760,40,0.0717083333982133,1
681,705,40,0.070178241970885,1
681,760,40,0.0723877862512215,1
682,704,40,0.0807035639996859,1
682,705,40,0.0706267894350841,1
682,760,40,0.0741856117017904,1
683,704,40,0.0755247058547435,1
684,703,40,0.0758636780519468,1
689,718,40,0.0719751845908437,1
690,719,40,0.0812131032416317,1
650,714,41,0.09524147627741,1
650,715,41,0.0815483008166197,1
650,717,41,0.0722193046331173,1
650,728,41,0.0791256050795877,1
650,729,41,0.0833069897606108,1
650,730,41,0.0728651334572948,1
650,740,41,0.0713368911082524,1
650,741,41,0.0736709214560482,1
650,742,41,0.0746152165406921,1
651,715,41,0.0790486458852141,1
651,716,41,0.0752376816350991,1
651,717,41,0.0714572410795458,1
651,718,41,0.0701945569586182,1
651,727,41,0.0701958151660233,1
651,728,41,0.0855959679415983,1
651,729,41,0.0892429759494141,1
651,730,41,0.0743736059618065,1
651,740,41,0.0701082202957947,1
651,741,41,0.0708192951680609,1
652,716,41,0.0740424958230295,1
652,717,41,0.0725772125041959,1
652,718,41,0.0761271786591118,1
652,719,41,0.0824911708597274,1
652,720,41,0.0888303117262372,1
652,721,41,0.0835897736127575,1
652,722,41,0.0729696828460924,1
652,728,41,0.0775773773919287,1
652,729,41,0.0785578754830126,1
653,716,41,0.0749818553979628,1
653,717,41,0.0782908366019847,1
653,718,41,0.0919620108117415,1
653,719,41,0.110482615271818,1
653,720,41,0.12393387429115,1
653,721,41,0.108181402587887,1
653,722,41,0.0827284993625824,1
654,715,41,0.0801100932869727,1
654,716,41,0.078144133789406,1
654,717,41,0.0889612695676972,1
654,718,41,0.114350066778142,1
654,719,41,0.14581479620766,1
654,720,41,0.161825103109054,1
654,721,41,0.131762524182607,1
654,722,41,0.0895035013479086,1
655,715,41,0.0735071042421915,1
655,716,41,0.0785177727287591,1
655,717,41,0.093241482617107,1
655,718,41,0.120900551731594,1
655,719,41,0.152857059519522,1
655,720,41,0.164769516979599,1
655,721,41,0.130884726402035,1
655,722,41,0.0866657500984877,1
656,716,41,0.0749164147100545,1
656,717,41,0.085453818310513,1
656,718,41,0.102764979591737,1
656,719,41,0.121758093068086,1
656,720,41,0.126543479866346,1
656,721,41,0.104072062445793,1
656,722,41,0.0740835509221145,1
657,717,41,0.0737136727021323,1
657,718,41,0.079571552711911,1
657,719,41,0.0866947722858701,1
657,720,41,0.0882312868272441,1
657,721,41,0.0786327770564364,1
667,760,41,0.0783755605348747,1
669,760,41,0.0709714478955876,1
670,760,41,0.0752027090303756,1
671,759,41,0.0770137491344089,1
671,760,41,0.0874095731203966,1
671,761,41,0.0848062863879143,1
672,759,41,0.079938532188866,1
672,760,41,0.0908874947363832,1
673,760,41,0.0798990898197146,1
680,760,41,0.0724438981306347,1
681,703,41,0.0833624204006555,1
681,704,41,0.0724870803648907,1
681,760,41,0.0730312585432978,1
682,704,41,0.0741717297118018,1
683,704,41,0.0710914433443525,1
684,703,41,0.0734678148043269,1
649,729,42,0.0700174416742317,1
650,714,42,0.0854070699967056,1
650,715,42,0.074896484982815,1
650,728,42,0.0846985741020487,1
650,729,42,0.0922347429074918,1
650,730,42,0.0755203264588032,1
651,715,42,0.0753632590758323,1
651,720,42,0.0697540105812879,1
651,727,42,0.0698072028634076,1
651,728,42,0.0897608360436465,1
651,729,42,0.0971587758200843,1
651,730,42,0.0762251728568432,1
652,716,42,0.0707709549785863,1
652,718,42,0.0772165638264009,1
652,719,42,0.0902667953031966,1
652,720,42,0.100420695896303,1
652,721,42,0.0931202150580928,1
652,722,42,0.0748869406802339,1
652,728,42,0.0748366193354529,1
652,729,42,0.0768145839390339,1
653,716,42,0.0749550159571285,1
653,717,42,0.080957471644315,1
653,718,42,0.100598332537349,1
653,719,42,0.123237758879302,1
653,720,42,0.137058479033287,1
653,721,42,0.121967330874124,1
653,722,42,0.0890725826902248,1
654,715,42,0.0784200287822243,1
654,716,42,0.078136779184795,1
654,717,42,0.0932420039737666,1
654,718,42,0.122544980150075,1
654,719,42,0.14898203096308,1
654,720,42,0.158839495110981,1
654,721,42,0.135930471764658,1
654,722,42,0.0954841851809917,1
655,715,42,0.0712670918786702,1
655,716,42,0.0795855459246537,1
655,717,42,0.0969989209168403,1
655,718,42,0.125578163681188,1
655,719,42,0.149560667340973,1
655,720,42,0.154782756380126,1
655,721,42,0.130464401711674,1
655,722,42,0.0923372833352946,1
656,716,42,0.0806248739012026,1
656,717,42,0.0927354051833807,1
656,718,42,0.110896370868269,1
656,719,42,0.126530313872836,1
656,720,42,0.127943037488964,1
656,721,42,0.108597577279238,1
656,722,42,0.0794067553475344,1
657,716,42,0.07596439025573,1
657,717,42,0.0814302448146284,1
657,718,42,0.0885485983930981,1
657,719,42,0.0963929445957197,1
657,720,42,0.0974947936628834,1
657,721,42,0.0864627963780533,1
658,717,42,0.0710434646288285,1
658,718,42,0.0705692872712454,1
658,719,42,0.0714315208176741,1
658,720,42,0.0712327935618931,1
670,759,42,0.0704663436609592,1
670,760,42,0.0776998405955489,1
671,759,42,0.084356091436671,1
671,760,42,0.0907579341307708,1
672,759,42,0.0856770562807155,1
672,760,42,0.092609695665627,1
673,759,42,0.0715584329314559,1
673,760,42,0.0805239948632883,1
681,703,42,0.0764733247239507,1
683,703,42,0.0772225420494305,1
650,728,43,0.0813840943231239,1
650,729,43,0.0896744924294008,1
650,730,43,0.0709199309062007,1
651,715,43,0.0723832191668837,1
651,720,43,0.07219513453838,1
651,728,43,0.0838465174376146,1
651,729,43,0.0918361136055903,1
651,730,43,0.0702072989153779,1
652,716,43,0.0700435929242753,1
652,717,43,0.071641147903351,1
652,718,43,0.083875219859579,1
652,719,43,0.0980292468017341,1
652,720,43,0.108205204257251,1
652,721,43,0.100211221741913,1
652,722,43,0.0789758227870064,1
653,716,43,0.0768419516879499,1
653,717,43,0.0885328256162908,1
653,718,43,0.11076054703132,1
653,719,43,0.128994398377216,1
653,720,43,0.139587086637854,1
653,721,43,0.127910755084604,1
653,722,43,0.0961437361124489,1
653,723,43,0.0698514278109827,1
654,715,43,0.0736423719653706,1
654,716,43,0.0793133143312965,1
654,717,43,0.0979663920428572,1
654,718,43,0.124609024213861,1
654,719,43,0.140781688530465,1
654,720,43,0.145008792714821,1
654,721,43,0.131792846285927,1
654,722,43,0.100373579157123,1
654,723,43,0.070796181689487,1
655,716,43,0.0804091087097871,1
655,717,43,0.0973262286277136,1
655,718,43,0.121810687527903,1
655,719,43,0.137232403614917,1
655,720,43,0.138485550384686,1
655,721,43,0.123919470944501,1
655,722,43,0.0954262589804032,1
656,715,43,0.0712527510948212,1
656,716,43,0.084693360535453,1
656,717,43,0.094851105264996,1
656,718,43,0.111018458695095,1
656,719,43,0.124314242207122,1
656,720,43,0.124672365572287,1
656,721,43,0.108616672835822,1
656,722,43,0.0827124693831564,1
657,715,43,0.0713375375905103,1
657,716,43,0.0814530524306287,1
657,717,43,0.0844312085041807,1
657,718,43,0.0910878972848969,1
657,719,43,0.0999005557356128,1
657,720,43,0.100846943198317,1
657,721,43,0.0890668199612811,1
657,722,43,0.0704751858699054,1
658,715,43,0.0706994665534271,1
658,716,43,0.0737788978959547,1
658,717,43,0.0709628767921044,1
658,718,43,0.0719801757119313,1
658,719,43,0.074831009537796,1
658,720,43,0.0743225199605916,1
659,715,43,0.0716960849924246,1
670,759,43,0.0745141359115361,1
671,759,43,0.0810431340191922,1
672,759,43,0.0795448244938308,1
672,760,43,0.08701197262897,1
681,702,43,0.0813268215562154,1
682,703,43,0.0738679039048752,1
683,702,43,0.087954529858082,1
683,703,43,0.0701737652550349,1
684,702,43,0.0768877059483931,1
650,728,44,0.0717310714999923,1
650,729,44,0.0766264158934646,1
651,728,44,0.0704300155289209,1
651,729,44,0.0742632938440653,1
652,717,44,0.0752316686549588,1
652,719,44,0.102960891521556,1
652,720,44,0.109359668638498,1
652,721,44,0.10073958543498,1
652,722,44,0.0823539011269757,1
653,716,44,0.0786055552873851,1
653,717,44,0.0950511602424033,1
653,718,44,0.116887801599962,1
653,719,44,0.1277552795773,1
653,720,44,0.133195212283085,1
653,721,44,0.12410946721409,1
653,722,44,0.100763199415947,1
653,723,44,0.0751620362595076,1
654,716,44,0.0801553261907564,1
654,717,44,0.100403803940533,1
654,718,44,0.122605499231117,1
654,719,44,0.131884688475076,1
654,720,44,0.133937777097589,1
654,721,44,0.125533146271491,1
654,722,44,0.104225146663885,1
654,723,44,0.0769123487398351,1
655,716,44,0.0796259197843702,1
655,717,44,0.0949052707462135,1
655,718,44,0.11483043785284,1
655,719,44,0.12758834812633,1
655,720,44,0.129974215228931,1
655,721,44,0.120337806304684,1
655,722,44,0.0995332982017728,1
655,723,44,0.0733726984953563,1
656,716,44,0.0848763914800701,1
656,717,44,0.09244476622423,1
656,718,44,0.106429310543494,1
656,719,44,0.121035506640777,1
656,720,44,0.124965451432026,1
656,721,44,0.11278817259458,1
656,722,44,0.0901828916381176,1
657,716,44,0.084432369391676,1
657,717,44,0.0848253610902321,1
657,718,44,0.0898270830965216,1
657,719,44,0.0993352035254054,1
657,720,44,0.10214153434681,1
657,721,44,0.0927004881900343,1
657,722,44,0.0749898217277209,1
658,715,44,0.0762035608854488,1
658,716,44,0.074510479463497,1
658,718,44,0.0701645963292487,1
658,719,44,0.0746815539620548,1
658,720,44,0.0752190379209531,1
658,721,44,0.0701073930765615,1
659,715,44,0.0858635351307079,1
659,716,44,0.0702156892818858,1
660,714,44,0.0737211315780752,1
660,715,44,0.0811755864164095,1
669,759,44,0.076023435635281,1
670,759,44,0.0796295901352535,1
681,701,44,0.0746712867115725,1
681,702,44,0.0704192338732012,1
682,702,44,0.0761898040210585,1
683,701,44,0.0836193449624879,1
683,702,44,0.0728831306891829,1
653,717,45,0.0945192235183628,1
653,719,45,0.118160231614712,1
653,720,45,0.118955891391426,1
653,721,45,0.110726596285649,1
653,722,45,0.0974316538956993,1
653,723,45,0.0789743004255605,1
654,717,45,0.0952994511379534,1
654,718,45,0.11220915388847,1
654,719,45,0.119926532365933,1
654,720,45,0.122007023494472,1
654,721,45,0.114381132683629,1
654,722,45,0.100907483133625,1
654,723,45,0.0799302669479564,1
655,718,45,0.103911289954828,1
655,719,45,0.117068719312252,1
655,720,45,0.123413379607931,1
655,721,45,0.117947212235037,1
655,722,45,0.104372468153033,1
655,723,45,0.0807177031922932,1
656,716,45,0.0788392829535781,1
656,717,45,0.0841735679458692,1
656,718,45,0.0959070471404296,1
656,719,45,0.111340691867815,1
656,720,45,0.121534952417794,1
656,721,45,0.117968302849772,1
656,722,45,0.102973890680935,1
656,723,45,0.0760875694558293,1
657,715,45,0.0733276810856587,1
657,716,45,0.0804397505785251,1
657,717,45,0.0792921820080289,1
657,718,45,0.0831970043597095,1
657,719,45,0.0922101418245826,1
657,720,45,0.0992161117615171,1
657,721,45,0.0966928358977222,1
657,722,45,0.0828852122230248,1
658,715,45,0.0761564789033792,1
658,716,45,0.0703082335646693,1
658,720,45,0.0711133264212099,1
659,715,45,0.0910032428662282,1
660,714,45,0.0825949694949352,1
660,715,45,0.0880494376243887,1
653,721,46,0.0940279248080796,1
653,722,46,0.0883018993732153,1
653,723,46,0.0788517607562969,1
654,719,46,0.104494701959723,1
654,720,46,0.105928363259298,1
654,721,46,0.0998923043975475,1
654,722,46,0.0929342784190264,1
654,723,46,0.07918112608812,1
655,718,46,0.0929716075558511,1
655,719,46,0.103559805197795,1
655,720,46,0.111999346065818,1
655,721,46,0.113816684158298,1
655,722,46,0.108495794556447,1
655,723,46,0.0864431933676537,1
656,716,46,0.0742126944423992,1
656,717,46,0.0793239917156844,1
656,718,46,0.0887826180190204,1
656,719,46,0.100911389832861,1
656,720,46,0.115688437983193,1
656,721,46,0.125109610024106,1
656,722,46,0.119284707560901,1
656,723,46,0.0870672850948385,1
657,716,46,0.0738042427810315,1
657,717,46,0.0740065083106754,1
657,718,46,0.0792599830207344,1
657,719,46,0.0874119227010757,1
657,720,46,0.0990508973118128,1
657,721,46,0.105167210342026,1
657,722,46,0.0938637391688502,1
657,751,46,0.0862316824465803,1
658,715,46,0.0700230723261549,1
658,751,46,0.0940159822648645,1
658,752,46,0.106744779982485,1
659,714,46,0.083164374384243,1
659,715,46,0.0808979118595266,1
659,751,46,0.0779600462286255,1
659,752,46,0.0794076659838331,1
660,714,46,0.0833324389170196,1
660,715,46,0.0796601902954588,1
650,736,47,0.0700674363021726,1
653,721,47,0.0808266111227648,1
653,722,47,0.0780031102887054,1
653,723,47,0.0736380481808073,1
654,719,47,0.0890661248190684,1
654,720,47,0.0906077278014398,1
654,721,47,0.0866779011843666,1
654,722,47,0.0845962144112212,1
654,723,47,0.0757312117518852,1
655,718,47,0.0822484132961909,1
655,719,47,0.0897592024594465,1
655,720,47,0.097886395077014,1
655,721,47,0.104347797555902,1
655,722,47,0.10535284806994,1
655,723,47,0.0856448642448431,1
656,717,47,0.07313245734663,1
656,718,47,0.0813057378929027,1
656,719,47,0.0903019555963175,1
656,720,47,0.10457579029884,1
656,721,47,0.121602770492069,1
656,722,47,0.122053917788144,1
656,723,47,0.0891708757991077,1
657,718,47,0.073718344057802,1
657,719,47,0.081354224062242,1
657,720,47,0.0929351612496366,1
657,721,47,0.104121361931521,1
657,722,47,0.0950934735488934,1
657,750,47,0.0778331132605773,1
657,751,47,0.132884066628658,1
658,750,47,0.0862521543847458,1
658,751,47,0.128052147010677,1
658,752,47,0.143790236221558,1
659,715,47,0.0721194335514115,1
659,749,47,0.0995594007918615,1
659,750,47,0.0997155644899558,1
659,751,47,0.0887577666849146,1
659,752,47,0.0887476662685634,1
660,714,47,0.0737115177612728,1
660,748,47,0.0742206329664688,1
660,749,47,0.113076809544158,1
660,750,47,0.104758772583502,1
661,749,47,0.0767604601663492,1
661,750,47,0.0731125693279232,1
677,753,47,0.0809732583239665,1
677,754,47,0.0941492201727823,1
678,753,47,0.0900412425094256,1
678,754,47,0.100689069450379,1
653,722,48,0.0732906925685182,1
653,723,48,0.0700258667978502,1
654,720,48,0.0764907241335358,1
654,721,48,0.0771017749928094,1
654,722,48,0.0803261365352733,1
654,723,48,0.0747544674287502,1
655,718,48,0.076347782040328,1
655,719,48,0.0772678166617469,1
655,720,48,0.082306979027615,1
655,721,48,0.0917034943742419,1
655,722,48,0.0973205632186797,1
655,723,48,0.0816684213909829,1
656,717,48,0.0721062745093241,1
656,718,48,0.0780899265996557,1
656,719,48,0.0811653469716157,1
656,720,48,0.0904645285056133,1
656,721,48,0.108096212909714,1
656,722,48,0.11043024325751,1
656,723,48,0.081665098611206,1
656,750,48,0.0725485726450306,1
656,751,48,0.124154470720944,1
657,718,48,0.0706780700761186,1
657,719,48,0.075512026460783,1
657,720,48,0.0835958561071191,1
657,721,48,0.0940526093080543,1
657,722,48,0.0862684207125241,1
657,750,48,0.0911312602561282,1
657,751,48,0.171693522698228,1
657,752,48,0.183849140904326,1
658,715,48,0.0721602244964557,1
658,749,48,0.0870648381942496,1
658,750,48,0.101931524932916,1
658,751,48,0.143906088622735,1
658,752,48,0.155345098624553,1
658,753,48,0.0982783440622509,1
659,748,48,0.0961902550293261,1
659,749,48,0.163903717353619,1
659,750,48,0.13744770306105,1
659,751,48,0.0945331472168841,1
659,752,48,0.0857585617051605,1
660,748,48,0.104542263589919,1
660,749,48,0.182994505262282,1
660,750,48,0.146719899174349,1
660,751,48,0.072204678840961,1
661,749,48,0.100390644898446,1
661,750,48,0.0820300274186333,1
676,754,48,0.0833124674812473,1
677,753,48,0.127176907353448,1
677,754,48,0.149788131775829,1
677,755,48,0.0889582735047602,1
678,753,48,0.130030827610737,1
678,754,48,0.149110451535463,1
679,753,48,0.0766839875715246,1
679,754,48,0.0858740039724319,1
686,702,48,0.071854869376661,1
687,702,48,0.0979350341776401,1
653,741,49,0.0703677446895028,1
653,742,49,0.0710608570869915,1
654,722,49,0.0776083876860395,1
654,723,49,0.0745789370686086,1
654,738,49,0.083705493936914,1
654,739,49,0.0801918559140364,1
654,740,49,0.0732799734755976,1
654,741,49,0.0778895657596748,1
654,742,49,0.0772498750412358,1
654,743,49,0.0706287010761691,1
655,720,49,0.0712563032715283,1
655,721,49,0.0788691532144599,1
655,722,49,0.0838551858610076,1
655,723,49,0.0739409703028573,1
655,738,49,0.0778184457598883,1
655,739,49,0.0744053670095071,1
655,742,49,0.0697538298443126,1
655,743,49,0.069974822505168,1
656,718,49,0.0747244789936921,1
656,719,49,0.0736404672757076,1
656,720,49,0.0771237970981094,1
656,721,49,0.0877274894599757,1
656,722,49,0.0879059880773657,1
656,750,49,0.079703330821182,1
657,720,49,0.0705993452205247,1
657,721,49,0.0756032638762064,1
657,750,49,0.0963853188856459,1
657,751,49,0.174921137506248,1
658,715,49,0.0778892877027897,1
658,716,49,0.0744986342401918,1
658,749,49,0.109218700749174,1
658,750,49,0.110532039883145,1
658,751,49,0.136638960707893,1
658,752,49,0.140815319510718,1
659,748,49,0.115640848547308,1
659,749,49,0.209580080160463,1
659,750,49,0.16413054225764,1
659,751,49,0.10131938965179,1
659,752,49,0.0832348339989274,1
660,748,49,0.120078365328042,1
660,749,49,0.221923178221339,1
660,750,49,0.168053507821073,1
660,751,49,0.0815199390143395,1
661,749,49,0.106749972694814,1
661,750,49,0.081003163341959,1
676,753,49,0.0868613561657335,1
676,754,49,0.102334206913918,1
677,753,49,0.152113855174183,1
677,754,49,0.17842815777526,1
678,753,49,0.140490145886438,1
678,754,49,0.163466306067668,1
679,753,49,0.0756026173939486,1
684,701,49,0.0703933745828869,1
685,701,49,0.0978259385587711,1
685,702,49,0.0778036878907116,1
686,701,49,0.140806296564796,1
686,702,49,0.110513354460466,1
687,702,49,0.133328387628204,1
652,741,50,0.0711266244917398,1
652,742,50,0.0738339323049381,1
653,738,50,0.0723192452290444,1
653,739,50,0.0750510776595084,1
653,740,50,0.0766687083456883,1
653,741,50,0.0821062011023065,1
653,742,50,0.0897948354492721,1
653,743,50,0.0863611179265943,1
653,744,50,0.0741666621250709,1
654,738,50,0.0966692566738657,1
654,739,50,0.100813618080638,1
654,740,50,0.0929012035525437,1
654,741,50,0.0915573963353882,1
654,742,50,0.101601818981409,1
654,743,50,0.109560307535364,1
654,744,50,0.100344042564503,1
654,745,50,0.0724953873143331,1
655,722,50,0.0728871555625947,1
655,738,50,0.0897032504627423,1
655,739,50,0.0932536128487195,1
655,740,50,0.0851285126092124,1
655,741,50,0.0820313134317269,1
655,742,50,0.0890061549003744,1
655,743,50,0.103637223186029,1
655,744,50,0.103949585339328,1
655,745,50,0.07818175488596,1
656,721,50,0.0714100687289886,1
656,743,50,0.0697402815225861,1
656,744,50,0.0712546835901726,1
657,750,50,0.0872745278427257,1
658,715,50,0.0759533096888588,1
658,716,50,0.071639076379557,1
658,748,50,0.0723813631371757,1
658,749,50,0.113362019442627,1
658,750,50,0.106251423651252,1
658,751,50,0.111079102901735,1
659,748,50,0.116603300746549,1
659,749,50,0.206318723149437,1
659,750,50,0.162355997119776,1
659,751,50,0.0978243049745711,1
659,752,50,0.0792814490122641,1
660,748,50,0.111664537770469,1
660,749,50,0.202786816789208,1
660,750,50,0.155950484074792,1
660,751,50,0.0829551504810495,1
661,749,50,0.0924680604397792,1
661,750,50,0.0727902735924038,1
676,753,50,0.088643895439044,1
677,701,50,0.0706314955478644,1
677,702,50,0.0766115676558003,1
677,752,50,0.0703454375758956,1
677,753,50,0.140530797803039,1
678,701,50,0.0742745481964897,1
678,702,50,0.0824699481679722,1
678,703,50,0.075035242319902,1
678,753,50,0.11977253056012,1
679,702,50,0.0732052526391491,1
683,701,50,0.0766556257692444,1
684,701,50,0.116804287214522,1
684,702,50,0.0908658688621445,1
685,701,50,0.174512157536799,1
685,702,50,0.132779072348844,1
686,702,50,0.158118729956269,1
687,702,50,0.143503503961643,1
651,742,51,0.0713088907799229,1
651,743,51,0.0712648674235894,1
652,741,51,0.0776157353392283,1
652,742,51,0.0816471708935391,1
652,743,51,0.0785564156843658,1
652,744,51,0.0731070151416433,1
653,738,51,0.0711924475078651,1
653,739,51,0.079755827961089,1
653,740,51,0.0877987693424711,1
653,741,51,0.0938342442847632,1
653,742,51,0.10283876893762,1
653,743,51,0.109512989204942,1
653,744,51,0.0978460073144532,1
653,745,51,0.0719894211033609,1
654,738,51,0.0937967483138074,1
654,739,51,0.109470856635427,1
654,740,51,0.112835477022158,1
654,741,51,0.10948746358289,1
654,742,51,0.121873945469263,1
654,743,51,0.143711059523526,1
654,744,51,0.133676014345956,1
654,745,51,0.089478879410733,1
655,738,51,0.0858755749938327,1
655,739,51,0.0998212539119823,1
655,740,51,0.104091922658811,1
655,741,51,0.100544285230308,1
655,742,51,0.109161977144614,1
655,743,51,0.13167476942967,1
655,744,51,0.127896546377775,1
655,745,51,0.0894744235491492,1
656,740,51,0.0713533520758504,1
656,741,51,0.0741189128064771,1
656,742,51,0.0760927065567815,1
656,743,51,0.0841986208712167,1
656,744,51,0.0818815380905678,1
658,748,51,0.0727480645572456,1
658,749,51,0.102379384206324,1
658,750,51,0.0948817679880004,1
659,748,51,0.100390255618807,1
659,749,51,0.158272968110434,1
659,750,51,0.130487730684334,1
659,751,51,0.0860909370027648,1
660,748,51,0.0876563068973901,1
660,749,51,0.142122659567392,1
660,750,51,0.116705952397106,1
660,751,51,0.0759206032477489,1
675,703,51,0.0721255855599943,1
676,701,51,0.0757367450838987,1
676,702,51,0.095199878967399,1
676,703,51,0.0944617352573683,1
677,701,51,0.0816002696484449,1
677,702,51,0.110196550348428,1
677,703,51,0.11084177439888,1
677,704,51,0.0721009427685523,1
678,700,51,0.0738446861549693,1
678,701,51,0.0826678273502536,1
678,702,51,0.103713153569928,1
678,703,51,0.102003110677985,1
679,700,51,0.0748517108728917,1
679,701,51,0.0723582009986469,1
679,702,51,0.0780239019922887,1
679,703,51,0.0736043685405995,1
683,701,51,0.0970566594290313,1
683,702,51,0.077600615996101,1
684,701,51,0.177135346190832,1
684,702,51,0.140060103107942,1
684,703,51,0.071843802712634,1
685,701,51,0.25156401436731,1
685,702,51,0.192683925731673,1
685,703,51,0.08748303574944,1
686,701,51,0.251337537034397,1
686,702,51,0.186320135122299,1
686,703,51,0.0824911917139938,1
687,702,51,0.127978225587773,1
651,742,52,0.0748307106266446,1
651,743,52,0.0761040095691609,1
651,744,52,0.0745234786228754,1
652,741,52,0.0791738896576853,1
652,742,52,0.0840803076666067,1
652,743,52,0.0879679739084766,1
652,744,52,0.0840017913536766,1
652,745,52,0.0740670551974059,1
653,739,52,0.0755658860794268,1
653,740,52,0.0906301113806904,1
653,741,52,0.0991561765999338,1
653,742,52,0.10531278702422,1
653,743,52,0.122804643572226,1
653,744,52,0.117756201057817,1
653,745,52,0.086645973302535,1
654,738,52,0.0786966745286324,1
654,739,52,0.099552504981111,1
654,740,52,0.117527763423863,1
654,741,52,0.119167590000896,1
654,742,52,0.12759422902945,1
654,743,52,0.157055787998753,1
654,744,52,0.148497058046933,1
654,745,52,0.0993771275522563,1
655,738,52,0.0732238129362295,1
655,739,52,0.0908739047061239,1
655,740,52,0.106864413957299,1
655,741,52,0.108124435683552,1
655,742,52,0.116407993590455,1
655,743,52,0.141132846570658,1
655,744,52,0.131824350131009,1
655,745,52,0.0910455005613412,1
656,740,52,0.069832853611058,1
656,741,52,0.074062154444806,1
656,742,52,0.0798088673119218,1
656,743,52,0.0899107851703588,1
656,744,52,0.0828160108157455,1
658,748,52,0.0711771960877174,1
658,749,52,0.0889334777820314,1
659,748,52,0.0798024789549866,1
659,749,52,0.105519292921361,1
660,749,52,0.0865324843848815,1
660,750,52,0.0778295263267595,1
674,703,52,0.0767164298585936,1
675,702,52,0.110564259724706,1
675,703,52,0.122956142866072,1
675,704,52,0.0919419490074815,1
676,701,52,0.0938991983731225,1
676,702,52,0.152326471371374,1
676,703,52,0.177582239216565,1
676,704,52,0.120060013573625,1
677,700,52,0.0760118893231272,1
677,701,52,0.100773028726835,1
677,702,52,0.165557571900505,1
677,703,52,0.191250625906048,1
677,704,52,0.123782778179786,1
678,700,52,0.0863168165133758,1
678,701,52,0.0917547750152764,1
678,702,52,0.126171634393902,1
678,703,52,0.139277998604377,1
678,704,52,0.0905679656668705,1
679,700,52,0.0849148954072343,1
679,701,52,0.0756594939297957,1
679,702,52,0.0793601113050589,1
679,703,52,0.079308705538426,1
683,700,52,0.100631344841033,1
683,701,52,0.107270703726385,1
683,702,52,0.0880663712886913,1
684,701,52,0.212827534327235,1
684,702,52,0.172542583299726,1
684,703,52,0.0868897179680137,1
685,700,52,0.192587370478322,1
685,701,52,0.282319942039598,1
685,702,52,0.221278044539374,1
685,703,52,0.102786897425705,1
686,701,52,0.241686349386707,1
686,702,52,0.180879548982835,1
686,703,52,0.0848095396534699,1
687,702,52,0.102948469330214,1
651,742,53,0.0766249421919736,1
651,743,53,0.0781763744852333,1
651,744,53,0.0738053341543056,1
652,741,53,0.0786583582898656,1
652,742,53,0.0850793243462382,1
652,743,53,0.0913308355854087,1
652,744,53,0.0913893665597223,1
652,745,53,0.0802676403180704,1
653,740,53,0.0857354412751644,1
653,741,53,0.0976084633175123,1
653,742,53,0.103031378941929,1
653,743,53,0.121736321213983,1
653,744,53,0.126504496291055,1
653,745,53,0.0992635830232258,1
654,739,53,0.080949129937762,1
654,740,53,0.103582098408558,1
654,741,53,0.112869253982275,1
654,742,53,0.11806070115269,1
654,743,53,0.142307984481312,1
654,744,53,0.140538847549863,1
654,745,53,0.102418764012677,1
655,727,53,0.0837489264223666,1
655,728,53,0.0767990614134232,1
655,739,53,0.0759026963843485,1
655,740,53,0.0919476005136712,1
655,741,53,0.098359745215364,1
655,742,53,0.105870673407062,1
655,743,53,0.126067279644924,1
655,744,53,0.118904812341633,1
655,745,53,0.0887209241476389,1
656,726,53,0.0705057651758443,1
656,727,53,0.0856332623213123,1
656,728,53,0.0765402113076615,1
656,742,53,0.0741586193296694,1
656,743,53,0.0838737392066659,1
656,744,53,0.0773647264376264,1
674,702,53,0.0893678165394019,1
674,703,53,0.101491360883803,1
674,704,53,0.0875413790353562,1
675,700,53,0.0734437559323436,1
675,701,53,0.0901307281664729,1
675,702,53,0.149493864174328,1
675,703,53,0.192848577116185,1
675,704,53,0.151804669820796,1
675,705,53,0.0814002563795703,1
676,700,53,0.0853645203418631,1
676,701,53,0.108347652799488,1
676,702,53,0.201771784032995,1
676,703,53,0.26676571794399,1
676,704,53,0.196392676270826,1
676,705,53,0.0896136952914737,1
677,701,53,0.115545266493055,1
677,702,53,0.196807606657616,1
677,703,53,0.25017336846786,1
677,704,53,0.177204637966599,1
677,705,53,0.0768703273930743,1
678,701,53,0.100858413044827,1
678,702,53,0.130184412331222,1
678,703,53,0.152052766076526,1
678,704,53,0.106234170221531,1
679,700,53,0.0985915959975825,1
679,701,53,0.082638353320433,1
679,702,53,0.0803761937260134,1
679,703,53,0.0801777931870725,1
680,700,53,0.0834528931596449,1
680,701,53,0.0707315126094348,1
683,700,53,0.104157314686764,1
683,701,53,0.112610111916784,1
683,702,53,0.0951240737090987,1
684,701,53,0.209910773213913,1
684,702,53,0.173380660654261,1
684,703,53,0.0933634800754446,1
685,701,53,0.258229093514534,1
685,702,53,0.207361867456734,1
685,703,53,0.106486791853067,1
686,702,53,0.1565892224484,1
686,703,53,0.0858239467816918,1
651,742,54,0.0773201539189449,1
651,743,54,0.0792658083124772,1
651,744,54,0.074408196238313,1
652,741,54,0.0757670115758418,1
652,742,54,0.0852107479329807,1
652,743,54,0.0910931039000704,1
652,744,54,0.0910862984578075,1
652,745,54,0.0802059881552216,1
653,740,54,0.0757546658501434,1
653,741,54,0.0877824960632706,1
653,742,54,0.0966896521463878,1
653,743,54,0.111426931210729,1
653,744,54,0.118071587079742,1
653,745,54,0.0992509522892201,1
653,746,54,0.0747527643303289,1
654,727,54,0.0810300236370597,1
654,728,54,0.0835379229551085,1
654,740,54,0.0829109811448514,1
654,741,54,0.093779877212304,1
654,742,54,0.100495951992255,1
654,743,54,0.116907223873386,1
654,744,54,0.120146099985252,1
654,745,54,0.0985456331944754,1
654,746,54,0.075341431610352,1
655,726,54,0.0758858113800008,1
655,727,54,0.1106617395172,1
655,728,54,0.107935447370171,1
655,729,54,0.0720646563450468,1
655,732,54,0.0702928570189232,1
655,740,54,0.0750024941702594,1
655,741,54,0.0815616544985266,1
655,742,54,0.088615763033694,1
655,743,54,0.102713643339325,1
655,744,54,0.10154608247879,1
655,745,54,0.0858883099991703,1
656,726,54,0.0758086505943855,1
656,727,54,0.105038178044495,1
656,728,54,0.0974275873137547,1
656,743,54,0.0745924506332245,1
656,744,54,0.0717135608676532,1
656,750,54,0.0870896061112899,1
658,747,54,0.0752958719897284,1
674,701,54,0.0761856679248926,1
674,702,54,0.098394968071284,1
674,703,54,0.118461144775767,1
674,704,54,0.103936502762884,1
674,705,54,0.0735181778576407,1
675,701,54,0.094097515494998,1
675,702,54,0.172433167915439,1
675,703,54,0.237852695694767,1
675,704,54,0.195843360991466,1
675,705,54,0.103185137447967,1
676,701,54,0.114740229247892,1
676,702,54,0.220675481366518,1
676,703,54,0.311394431921998,1
676,704,54,0.246733137462649,1
676,705,54,0.116310061955523,1
677,701,54,0.120090641539519,1
677,702,54,0.188676681126366,1
677,703,54,0.252369183689495,1
677,704,54,0.194960391352831,1
677,705,54,0.0907393112708912,1
678,701,54,0.107510924020845,1
678,702,54,0.117893755798876,1
678,703,54,0.136802346933578,1
678,704,54,0.103592747987257,1
679,700,54,0.109315930290472,1
679,701,54,0.0890925819316856,1
679,702,54,0.0799845088948173,1
679,703,54,0.0754234792457229,1
680,700,54,0.0888573110497804,1
680,701,54,0.0778281221394898,1
681,700,54,0.0821188387877343,1
681,701,54,0.07011581820018,1
682,701,54,0.0723646658212254,1
683,701,54,0.104533734194969,1
683,702,54,0.08799324232791,1
684,702,54,0.13672625666697,1
684,703,54,0.0842519104732461,1
685,701,54,0.188603885833847,1
685,702,54,0.155804907392598,1
685,703,54,0.0936319161923202,1
686,702,54,0.120676090311097,1
686,703,54,0.0808513929426493,1
687,703,54,0.0749000024024115,1
689,704,54,0.0878790930251544,1
689,705,54,0.0732069557375704,1
690,705,54,0.0990589540100585,1
690,706,54,0.0877283722905859,1
691,706,54,0.105428305757134,1
691,707,54,0.0762100952222486,1
692,707,54,0.0773020941242576,1
651,742,55,0.078778214710188,1
651,743,55,0.0841763971746751,1
651,744,55,0.0774593422442038,1
652,741,55,0.071359219076126,1
652,742,55,0.083529935771084,1
652,743,55,0.0901845599794282,1
652,744,55,0.0858512867249192,1
652,745,55,0.0756199681435788,1
653,741,55,0.074382135356757,1
653,742,55,0.0851206227450977,1
653,743,55,0.0944099263082521,1
653,744,55,0.0971921913062512,1
653,745,55,0.0878295224339632,1
653,746,55,0.0750801624096899,1
654,742,55,0.0803036000247359,1
654,743,55,0.0895351372700108,1
654,744,55,0.0954824264711934,1
654,745,55,0.0889770284416602,1
654,746,55,0.0787543226723358,1
655,726,55,0.0778762398834563,1
655,727,55,0.119341834347944,1
655,728,55,0.120033667683762,1
655,729,55,0.0778470369590987,1
655,743,55,0.0780350659762255,1
655,744,55,0.083023163195145,1
655,745,55,0.0798850201413285,1
655,749,55,0.0919821629844891,1
655,750,55,0.0898050609912216,1
656,726,55,0.0722761047033211,1
656,727,55,0.101033234359912,1
656,728,55,0.0967892799283192,1
656,748,55,0.0858486104274001,1
656,749,55,0.0987094086997993,1
656,750,55,0.101353389057416,1
656,751,55,0.0853972684915058,1
657,750,55,0.0929743533675914,1
662,716,55,0.0744132846793103,1
662,717,55,0.0803697219520127,1
674,702,55,0.103275700575444,1
674,703,55,0.122558021017986,1
674,704,55,0.110266342626588,1
674,705,55,0.0802979763242348,1
675,701,55,0.0965517498342225,1
675,702,55,0.166009386533104,1
675,703,55,0.227503766002452,1
675,704,55,0.196358961873507,1
675,705,55,0.111455730952603,1
676,701,55,0.114335058657768,1
676,702,55,0.19367416971658,1
676,703,55,0.275270921945428,1
676,704,55,0.233316559088312,1
676,705,55,0.121586059273275,1
677,702,55,0.15203814028437,1
677,703,55,0.20195232636849,1
677,704,55,0.169577773956658,1
677,705,55,0.0906368473087319,1
678,701,55,0.108440641973287,1
678,702,55,0.101375035785921,1
678,703,55,0.111345849823033,1
678,704,55,0.092595028164938,1
679,701,55,0.0901422675272045,1
679,702,55,0.0802080735818598,1
679,703,55,0.0738896549047121,1
680,701,55,0.080405118593486,1
680,702,55,0.074817760127221,1
681,701,55,0.0739649457577751,1
683,702,55,0.0757149454241068,1
684,702,55,0.0933486874491573,1
684,703,55,0.0697868073908855,1
685,702,55,0.100391791883097,1
685,703,55,0.0742670893205469,1
686,703,55,0.072898402963597,1
686,738,55,0.0728437022228757,1
687,703,55,0.0843233571898726,1
688,703,55,0.115261989089938,1
688,704,55,0.0914952992815233,1
688,705,55,0.0774205672115766,1
689,704,55,0.123556398166782,1
689,705,55,0.119517413368041,1
689,706,55,0.102328937735945,1
690,704,55,0.136901529824493,1
690,705,55,0.159361129827429,1
690,706,55,0.149946693714557,1
690,707,55,0.100544709267058,1
691,705,55,0.156327348474013,1
691,706,55,0.160735509399101,1
691,707,55,0.114892951992033,1
692,706,55,0.124437351893,1
692,707,55,0.097373957092041,1
652,742,56,0.0777636546506794,1
652,743,56,0.0855657709638764,1
652,744,56,0.0787660288671985,1
653,743,56,0.0796424224605009,1
653,744,56,0.0790756521601794,1
653,745,56,0.0761906938030908,1
653,746,56,0.0740165253099611,1
654,743,56,0.0724891727429511,1
654,744,56,0.0782212876235991,1
654,745,56,0.0801057208424545,1
654,746,56,0.0807501663336287,1
654,747,56,0.0794476297096441,1
654,749,56,0.083710561523645,1
654,750,56,0.080820570336936,1
655,728,56,0.106039815410268,1
655,745,56,0.0751316446419662,1
655,746,56,0.0781165783520925,1
655,748,56,0.0996264542097034,1
655,749,56,0.109914190533031,1
655,750,56,0.109694337905404,1
655,751,56,0.0951118322547321,1
656,727,56,0.0821777451388427,1
656,728,56,0.0808521158905506,1
656,747,56,0.0822114595361611,1
656,748,56,0.0999533448352491,1
656,749,56,0.112763939937043,1
656,750,56,0.117743660692299,1
656,751,56,0.108532637093723,1
656,752,56,0.0957316141001979,1
657,748,56,0.0837430802763574,1
657,749,56,0.0918478545575637,1
657,750,56,0.098804691842901,1
657,751,56,0.0958704965628832,1
661,716,56,0.0939945649332897,1
661,717,56,0.106477004250711,1
662,715,56,0.0731406322190519,1
662,716,56,0.132743828638658,1
662,717,56,0.149701739501629,1
662,718,56,0.0864587854074857,1
663,716,56,0.0979451554482577,1
663,717,56,0.108160715155635,1
674,702,56,0.0967535287643174,1
674,703,56,0.108246620830287,1
674,704,56,0.0992795087313199,1
674,705,56,0.0769871529933491,1
675,702,56,0.1370877306176,1
675,703,56,0.172571556827153,1
675,704,56,0.152524030788238,1
675,705,56,0.0966780015629021,1
676,701,56,0.107556949386751,1
676,702,56,0.146854645540868,1
676,703,56,0.191925706314538,1
676,704,56,0.168705829273517,1
676,705,56,0.0999866212929734,1
677,701,56,0.111201725988064,1
677,702,56,0.11556472352359,1
677,703,56,0.139093313221293,1
677,704,56,0.123487301030835,1
677,705,56,0.0787354495612596,1
678,701,56,0.0981445430891408,1
678,702,56,0.0866787145007555,1
678,703,56,0.088862851333216,1
678,704,56,0.0802979554699684,1
679,702,56,0.0763093198216966,1
679,703,56,0.0719291175164048,1
680,702,56,0.0738342034104011,1
685,737,56,0.0842887391076776,1
685,738,56,0.0933901804878363,1
685,739,56,0.0723104238743646,1
686,737,56,0.0995642528845065,1
686,738,56,0.109370644934037,1
686,739,56,0.0838576814215514,1
687,703,56,0.0875301663914645,1
687,704,56,0.0751213634886396,1
687,737,56,0.0809796119237911,1
687,738,56,0.0871730440310863,1
687,739,56,0.0722624590616848,1
688,703,56,0.123954561723401,1
688,704,56,0.10759144929477,1
688,705,56,0.0998921792719492,1
688,706,56,0.0858407414175518,1
689,703,56,0.144944144489035,1
689,704,56,0.148266660111939,1
689,705,56,0.161668904653849,1
689,706,56,0.148021219299461,1
689,707,56,0.100116765818044,1
690,704,56,0.161378821808469,1
690,705,56,0.207379537971782,1
690,706,56,0.206489005185872,1
690,707,56,0.144670911890891,1
690,708,56,0.075546102332052,1
691,705,56,0.189959579982841,1
691,706,56,0.202983055435868,1
691,707,56,0.148664323166165,1
691,708,56,0.0779081399595994,1
692,706,56,0.144478969223107,1
692,707,56,0.11134466112985,1
653,746,57,0.0722095934964052,1
653,747,57,0.0752294650541444,1
654,745,57,0.0738485024857173,1
654,746,57,0.0786235455678511,1
654,747,57,0.0845306972576695,1
654,748,57,0.0913569034183869,1
654,749,57,0.0934771080215407,1
654,750,57,0.087543061279511,1
654,751,57,0.0773363576839241,1
655,746,57,0.0766738593494848,1
655,747,57,0.0869105583315519,1
655,748,57,0.104878198015653,1
655,749,57,0.116410801964995,1
655,750,57,0.117305178887341,1
655,751,57,0.113660513508782,1
655,752,57,0.0953903479336926,1
656,747,57,0.0818273448036618,1
656,748,57,0.100930415875224,1
656,749,57,0.114695635874944,1
656,750,57,0.121746414678912,1
656,751,57,0.126617790568889,1
656,752,57,0.112271779250416,1
657,748,57,0.0815115764535201,1
657,749,57,0.0910386256048571,1
657,750,57,0.0963663206489714,1
657,751,57,0.100950630610771,1
661,715,57,0.0703634209049395,1
661,716,57,0.121487001507958,1
661,717,57,0.135863279318374,1
661,718,57,0.0778457161888945,1
662,715,57,0.0933884356808823,1
662,716,57,0.187031057063279,1
662,717,57,0.207113632172561,1
662,718,57,0.108436394654368,1
663,716,57,0.130407497370138,1
663,717,57,0.142483507890031,1
663,718,57,0.073401685925628,1
674,703,57,0.083441555390155,1
674,704,57,0.0781446690489098,1
675,702,57,0.100615690238402,1
675,703,57,0.108804646241572,1
675,704,57,0.0979822482367301,1
675,705,57,0.0731193539159196,1
676,702,57,0.102323675509395,1
676,703,57,0.111984928816325,1
676,704,57,0.10048583767306,1
676,705,57,0.0723801674925698,1
677,702,57,0.0877912618065734,1
677,703,57,0.0896963198948812,1
677,704,57,0.082119095990353,1
678,702,57,0.0736465358672249,1
678,703,57,0.0716577618022357,1
680,702,57,0.0697557414853977,1
681,702,57,0.0703579292814587,1
684,738,57,0.0751183674257026,1
685,737,57,0.109626401656952,1
685,738,57,0.122610059364033,1
685,739,57,0.0917057535864333,1
686,703,57,0.0738696209061407,1
686,704,57,0.0708381543762928,1
686,736,57,0.0751861785485564,1
686,737,57,0.122251838678958,1
686,738,57,0.135990017646602,1
686,739,57,0.101299397361752,1
687,703,57,0.0976765038372962,1
687,704,57,0.0917660502219673,1
687,705,57,0.0796564851874648,1
687,737,57,0.0939110505478499,1
687,738,57,0.102391618709269,1
687,739,57,0.0831378686116709,1
688,704,57,0.124534560580031,1
688,705,57,0.119673556211869,1
688,706,57,0.104717015390782,1
688,707,57,0.0764488279123734,1
689,704,57,0.161586808358523,1
689,705,57,0.186268041164876,1
689,706,57,0.178398822773882,1
689,707,57,0.130238244144178,1
689,708,57,0.0759219796293302,1
690,705,57,0.222804896603991,1
690,706,57,0.233585718153088,1
690,707,57,0.179132684407882,1
690,708,57,0.102315055745957,1
691,706,57,0.219770461816895,1
691,707,57,0.172635593327791,1
691,708,57,0.0977458234187517,1
692,708,57,0.0706877881642529,1
653,746,58,0.0705383951513108,1
653,747,58,0.0752760534852429,1
653,748,58,0.0797373719353404,1
653,749,58,0.0757761387930952,1
654,745,58,0.0730846176595485,1
654,746,58,0.0768226962486567,1
654,747,58,0.0851669539735775,1
654,748,58,0.0978600422357286,1
654,749,58,0.0998589236684912,1
654,750,58,0.0901063912376045,1
654,751,58,0.0805391072549935,1
655,746,58,0.0786060279840898,1
655,747,58,0.0846653393528571,1
655,748,58,0.102827347751065,1
655,749,58,0.115364543420585,1
655,750,58,0.117538315682653,1
655,751,58,0.120341379335658,1
655,752,58,0.101775277817756,1
656,747,58,0.0778838447392638,1
656,748,58,0.0931770220797187,1
656,749,58,0.108907346552084,1
656,750,58,0.118516853472697,1
656,751,58,0.129755259334759,1
656,752,58,0.113312706054055,1
657,748,58,0.0744781275449156,1
657,749,58,0.0852061321886881,1
657,750,58,0.0895884268720402,1
657,751,58,0.0963087350680672,1
660,717,58,0.0705376722034095,1
661,715,58,0.0766111992304275,1
661,716,58,0.13925703311524,1
661,717,58,0.154300786478338,1
661,718,58,0.0863127777371197,1
662,715,58,0.101038023889758,1
662,716,58,0.206088631077017,1
662,717,58,0.225571632124957,1
662,718,58,0.116834970791793,1
663,715,58,0.0717390378297504,1
663,716,58,0.13448742604521,1
663,717,58,0.145374951923965,1
663,718,58,0.0757739143380144,1
673,740,58,0.0851278661269545,1
673,741,58,0.0867382256255891,1
674,740,58,0.0858256220744245,1
674,741,58,0.0907176923480747,1
675,741,58,0.0711499882215103,1
684,737,58,0.0806166920773585,1
684,738,58,0.0883532495284711,1
684,739,58,0.0747078303376967,1
685,736,58,0.0791026931922554,1
685,737,58,0.122197951254626,1
685,738,58,0.133953807077015,1
685,739,58,0.100951311850139,1
686,704,58,0.0829929106060461,1
686,705,58,0.072474122914045,1
686,736,58,0.0849911177508624,1
686,737,58,0.131407765305752,1
686,738,58,0.144012598312573,1
686,739,58,0.107928774004929,1
687,704,58,0.107273963943363,1
687,705,58,0.0914900092492842,1
687,706,58,0.0714134332172983,1
687,736,58,0.0719316547854813,1
687,737,58,0.0999210068195119,1
687,738,58,0.107951567718085,1
688,705,58,0.125751323606384,1
688,706,58,0.107804760634174,1
688,707,58,0.0834568902273682,1
689,705,58,0.177068459607121,1
689,706,58,0.177021968495932,1
689,707,58,0.14254780854471,1
689,708,58,0.0898388657570277,1
690,706,58,0.227263705590701,1
690,707,58,0.19458914370269,1
690,708,58,0.120434514489322,1
691,707,58,0.185356862655248,1
691,708,58,0.113218986980932,1
653,748,59,0.080448794378713,1
653,749,59,0.0786869147319654,1
654,746,59,0.0764218702973629,1
654,747,59,0.0825810805535245,1
654,748,59,0.0988278331271634,1
654,749,59,0.103048729691559,1
654,750,59,0.0912541822536088,1
655,747,59,0.079819732384707,1
655,748,59,0.0947324931492345,1
655,749,59,0.107099705693471,1
655,750,59,0.109112079836583,1
655,751,59,0.109270030050164,1
656,748,59,0.0817114020339972,1
656,749,59,0.0957425139300938,1
656,750,59,0.105928981935868,1
656,751,59,0.112025323530308,1
657,749,59,0.0744518789749622,1
657,750,59,0.079839849800344,1
660,717,59,0.0869916327678249,1
661,715,59,0.082384452627226,1
661,716,59,0.139825506513983,1
661,717,59,0.156115788892984,1
661,718,59,0.0964308228948925,1
662,715,59,0.0954418857773458,1
662,716,59,0.177869166116299,1
662,717,59,0.195833781931775,1
662,718,59,0.112669748167216,1
663,716,59,0.113504954584413,1
663,717,59,0.12237731184836,1
663,718,59,0.0737103429709333,1
664,735,59,0.0755161069455718,1
664,736,59,0.0728577162898848,1
665,735,59,0.0826455271880686,1
665,736,59,0.0789677243802279,1
670,741,59,0.0827885944068746,1
670,742,59,0.0744866082799112,1
671,726,59,0.0726919109692996,1
671,741,59,0.0818419080330189,1
671,742,59,0.0734062460585437,1
672,725,59,0.0790238571139074,1
672,726,59,0.117393740005245,1
672,727,59,0.0845078687874028,1
672,740,59,0.0971039986137196,1
672,741,59,0.0988889083219756,1
672,742,59,0.0733762089635307,1
673,726,59,0.0916773222699318,1
673,739,59,0.0877724512582964,1
673,740,59,0.138591809823327,1
673,741,59,0.137194448850101,1
673,742,59,0.0848230949266186,1
674,739,59,0.0837433791875089,1
674,740,59,0.136635040105813,1
674,741,59,0.140231886651557,1
674,742,59,0.0879031518971376,1
675,740,59,0.0881728253671519,1
675,741,59,0.0925584636845474,1
684,737,59,0.0890962870396796,1
684,738,59,0.0950092501183966,1
685,736,59,0.0848519641827141,1
685,737,59,0.120433179816273,1
685,738,59,0.128256046124521,1
686,704,59,0.0917959969484925,1
686,705,59,0.0796909225326845,1
686,726,59,0.0698279389556139,1
686,727,59,0.100354407134895,1
686,728,59,0.085918771130933,1
686,736,59,0.0865966460111183,1
686,737,59,0.123053643512833,1
687,705,59,0.0957597117484373,1
687,706,59,0.0716921365846562,1
687,727,59,0.101840864485529,1
687,728,59,0.0874052910443661,1
688,705,59,0.117018835907065,1
688,706,59,0.0993662416252047,1
688,707,59,0.0828503716953217,1
689,706,59,0.147127697402037,1
689,707,59,0.130169286036673,1
689,708,59,0.0915740241371172,1
690,707,59,0.175980937420962,1
690,708,59,0.118492982289111,1
691,708,59,0.111691634413922,1
654,748,60,0.0920574051775972,1
654,749,60,0.100466443205324,1
655,748,60,0.0847394484641584,1
655,749,60,0.097786732537972,1
655,750,60,0.0996397661830775,1
656,749,60,0.0832329779692193,1
656,750,60,0.0916049093056297,1
661,717,60,0.130942381497161,1
661,718,60,0.0932740013698194,1
662,715,60,0.0786279527694799,1
662,716,60,0.123634045551946,1
662,717,60,0.136981387761893,1
662,718,60,0.0940186307566951,1
663,716,60,0.0806957575526367,1
663,717,60,0.0867343258777755,1
664,734,60,0.0713144171605142,1
664,735,60,0.103806462509145,1
664,736,60,0.0948415470595707,1
665,734,60,0.0742918155290544,1
665,735,60,0.112745365737119,1
665,736,60,0.103082263351902,1
666,735,60,0.0733875467330207,1
669,741,60,0.0712238192759265,1
670,722,60,0.0786977241933737,1
670,740,60,0.0706590857422884,1
670,741,60,0.0870082466667097,1
670,742,60,0.076889610638056,1
671,722,60,0.0713511345721917,1
671,726,60,0.0925972387171746,1
671,740,60,0.0799168159461397,1
671,741,60,0.0916958061013689,1
671,742,60,0.0768241977558363,1
672,725,60,0.10246670797109,1
672,726,60,0.156242499415524,1
672,727,60,0.109457329167967,1
672,739,60,0.0844601333716533,1
672,740,60,0.127471327886236,1
672,741,60,0.127563336909516,1
672,742,60,0.0849003599835657,1
673,725,60,0.0797260897772275,1
673,726,60,0.120063614410287,1
673,727,60,0.0813411414857981,1
673,739,60,0.110403730533516,1
673,740,60,0.183263803355502,1
673,741,60,0.177004784580433,1
673,742,60,0.0989830444804262,1
674,739,60,0.102195400916876,1
674,740,60,0.170272318347105,1
674,741,60,0.167733158483749,1
674,742,60,0.0958386868552278,1
675,716,60,0.0706633052555198,1
675,717,60,0.0745932639496134,1
675,739,60,0.0701727225417158,1
675,740,60,0.0987230612928577,1
675,741,60,0.0987706576801647,1
676,710,60,0.0745461055019005,1
676,711,60,0.0698872206835172,1
676,716,60,0.0842414346801,1
676,717,60,0.0868315137105401,1
676,718,60,0.0703771013036864,1
684,736,60,0.0754505063749546,1
684,737,60,0.0941445349142684,1
685,726,60,0.0702712798046395,1
685,727,60,0.0994893513110827,1
685,728,60,0.0826798324562678,1
685,736,60,0.0881224692652603,1
686,705,60,0.0783973532432444,1
686,726,60,0.102644719988931,1
686,727,60,0.166280186133503,1
686,728,60,0.138107990843253,1
687,726,60,0.0946767357923498,1
687,727,60,0.154356717620776,1
687,728,60,0.129109805887376,1
688,706,60,0.0846497542644472,1
688,707,60,0.0762234558555777,1
688,727,60,0.0862838737239135,1
688,728,60,0.0748885951187003,1
689,707,60,0.106073926038648,1
689,708,60,0.0821507041067667,1
690,708,60,0.100892732215871,1
662,717,61,0.0844705605048445,1
662,718,61,0.0733870531820496,1
663,735,61,0.0758230608924558,1
663,736,61,0.0705753002513857,1
664,734,61,0.0777565433458429,1
664,735,61,0.112262061162282,1
664,736,61,0.100764054440869,1
665,729,61,0.0738998109324404,1
665,734,61,0.0784886740757334,1
665,735,61,0.115328701888095,1
665,736,61,0.10352878100084,1
666,715,61,0.072952380756417,1
666,729,61,0.0736495805901168,1
666,735,61,0.0752769919272301,1
666,736,61,0.0699419353270828,1
670,722,61,0.083254165903864,1
670,723,61,0.0724229673986088,1
670,740,61,0.0705451519336187,1
670,741,61,0.0791641854723953,1
670,742,61,0.0726641122322118,1
671,722,61,0.0719925700975846,1
671,725,61,0.0727492671532736,1
671,726,61,0.0979355555342997,1
671,727,61,0.0756681832074551,1
671,740,61,0.0889551245105365,1
671,741,61,0.0958958205936937,1
671,742,61,0.0790737266162501,1
672,725,61,0.11050755002299,1
672,726,61,0.154800899591879,1
672,727,61,0.112140494692117,1
672,739,61,0.0926758036900596,1
672,740,61,0.141251785403259,1
672,741,61,0.140480469506836,1
672,742,61,0.0936347523725482,1
673,719,61,0.0713067080333748,1
673,725,61,0.0883704334439703,1
673,726,61,0.12134654107245,1
673,727,61,0.08593921526341,1
673,739,61,0.114981353227228,1
673,740,61,0.187651137819896,1
673,741,61,0.179423073115836,1
673,742,61,0.104226099008716,1
674,716,61,0.0738358856545559,1
674,717,61,0.0821502105557957,1
674,718,61,0.0808266875884082,1
674,719,61,0.075819036019044,1
674,739,61,0.103779852465241,1
674,740,61,0.163429755490122,1
674,741,61,0.155523041128172,1
674,742,61,0.0937185378634509,1
675,710,61,0.0808594774465836,1
675,711,61,0.0753812215506098,1
675,715,61,0.0792126299332018,1
675,716,61,0.116986998393721,1
675,717,61,0.128669753061017,1
675,718,61,0.105012854013684,1
675,739,61,0.0739812607455083,1
675,740,61,0.096185667090722,1
675,741,61,0.0920609017429273,1
676,710,61,0.091901846253228,1
676,711,61,0.0861824802807618,1
676,715,61,0.0903808681403088,1
676,716,61,0.130175695247874,1
676,717,61,0.139370647158492,1
676,718,61,0.108202993705015,1
677,710,61,0.0713781825556898,1
677,715,61,0.0719920556923472,1
677,716,61,0.0942326511411566,1
677,717,61,0.0973827784467209,1
677,718,61,0.0772387180087212,1
680,725,61,0.0875384038266856,1
680,726,61,0.110733130622449,1
680,727,61,0.0831432768180861,1
681,725,61,0.0950650769895026,1
681,726,61,0.11873607352091,1
681,727,61,0.0883876660194244,1
682,726,61,0.0825192615565446,1
684,736,61,0.0800866044316039,1
685,726,61,0.0899280455515014,1
685,727,61,0.127632114280045,1
685,728,61,0.10401748683067,1
686,725,61,0.0743240006135047,1
686,726,61,0.126691406129219,1
686,727,61,0.200724885957749,1
686,728,61,0.165061059623627,1
686,729,61,0.084956367591647,1
687,726,61,0.108204064224022,1
687,727,61,0.170668493796996,1
687,728,61,0.142556748073566,1
687,729,61,0.0802526530519635,1
688,726,61,0.0741592727633493,1
688,727,61,0.0957379677000224,1
688,728,61,0.0843487020749495,1
662,727,62,0.0723321887770458,1
663,735,62,0.0758173676777334,1
664,734,62,0.0732578888074985,1
664,735,62,0.100208455075906,1
664,736,62,0.0926325171844716,1
665,729,62,0.0763897825328224,1
665,734,62,0.0706911248468741,1
665,735,62,0.095315133546273,1
665,736,62,0.0876906191170115,1
666,715,62,0.0815621897580305,1
666,729,62,0.0765866259532068,1
670,722,62,0.0733443644987646,1
671,725,62,0.0762185064430229,1
671,726,62,0.0904524955939106,1
671,727,62,0.0759704866529358,1
672,719,62,0.0700712526329206,1
672,725,62,0.0993741731978522,1
672,726,62,0.124606980495755,1
672,727,62,0.0982911277275434,1
672,739,62,0.0894361559703373,1
673,718,62,0.0787130590305869,1
673,719,62,0.0972820175829827,1
673,720,62,0.0815162478091898,1
673,725,62,0.0822148587815814,1
673,726,62,0.100481284491566,1
673,727,62,0.0789519655062648,1
673,739,62,0.101050960486337,1
673,740,62,0.152464860283089,1
673,741,62,0.146945862102026,1
674,715,62,0.0701146851183733,1
674,716,62,0.102620827951079,1
674,717,62,0.117408421408779,1
674,718,62,0.108208652162626,1
674,719,62,0.0960880899783182,1
674,720,62,0.0716880282941788,1
674,739,62,0.0896405625379965,1
674,740,62,0.125345652513868,1
674,741,62,0.118779506006362,1
675,710,62,0.0860044057001217,1
675,711,62,0.0790750404350322,1
675,715,62,0.101639884968979,1
675,716,62,0.157884731184614,1
675,717,62,0.176849795672679,1
675,718,62,0.136725672747511,1
675,719,62,0.0832523098741559,1
675,739,62,0.0707273626104247,1
676,710,62,0.0912251809204929,1
676,711,62,0.084227531835845,1
676,715,62,0.107715344491348,1
676,716,62,0.159757944808155,1
676,717,62,0.174082128661147,1
676,718,62,0.131713711296428,1
676,719,62,0.0723837474749654,1
677,715,62,0.0810267008572827,1
677,716,62,0.106984180009134,1
677,717,62,0.111930040387206,1
677,718,62,0.0884639648286958,1
679,725,62,0.0781609214738439,1
679,726,62,0.0971158785941355,1
679,727,62,0.0751331739548342,1
680,725,62,0.130957271443358,1
680,726,62,0.168220564397641,1
680,727,62,0.121367548270119,1
681,724,62,0.0698763695135762,1
681,725,62,0.130157969121449,1
681,726,62,0.163649601166326,1
681,727,62,0.117125512431034,1
682,725,62,0.0837931791756303,1
682,726,62,0.0979422984137633,1
682,727,62,0.0751335493316291,1
684,727,62,0.0741756364110375,1
685,725,62,0.0735692569074335,1
685,726,62,0.0991921363065993,1
685,727,62,0.128768671797891,1
685,728,62,0.106919232872196,1
686,725,62,0.0783590439558997,1
686,726,62,0.127986303140285,1
686,727,62,0.182135726572651,1
686,728,62,0.151969905124766,1
686,729,62,0.0879160606880284,1
687,726,62,0.102735700201736,1
687,727,62,0.145344379569448,1
687,728,62,0.125081415055957,1
687,729,62,0.0802612172040246,1
688,726,62,0.075892422182444,1
688,727,62,0.0912505744655246,1
688,728,62,0.0827807045427599,1
665,729,63,0.072409078457198,1
671,725,63,0.0713070764587476,1
671,726,63,0.0772040095580386,1
672,719,63,0.075017356310768,1
672,725,63,0.0784938250795298,1
672,726,63,0.0882839299470157,1
672,727,63,0.0772579943022808,1
673,717,63,0.076981202576008,1
673,718,63,0.0903108673194849,1
673,719,63,0.100677717778045,1
673,720,63,0.0822633310480765,1
673,726,63,0.0731857121915487,1
674,715,63,0.0782307971690695,1
674,716,63,0.114267706328775,1
674,717,63,0.13078871335961,1
674,718,63,0.115616011116047,1
674,719,63,0.095678790243451,1
674,720,63,0.0712332940642863,1
675,710,63,0.0774587652761672,1
675,711,63,0.0700916898139755,1
675,715,63,0.107609307498215,1
675,716,63,0.165730523283038,1
675,717,63,0.185163988496898,1
675,718,63,0.141302280533593,1
675,719,63,0.0865452680501739,1
676,710,63,0.077525485025747,1
676,711,63,0.0706589397624238,1
676,715,63,0.105916302541907,1
676,716,63,0.154427455292346,1
676,717,63,0.167598843105402,1
676,718,63,0.127080713574048,1
676,719,63,0.0747892523450762,1
677,715,63,0.0793713100461063,1
677,716,63,0.1024292954172,1
677,717,63,0.106889883967974,1
677,718,63,0.0868190567620876,1
679,725,63,0.0945428514021741,1
679,726,63,0.115168047571307,1
679,727,63,0.0901300747327929,1
680,724,63,0.080040759802673,1
680,725,63,0.148127061652775,1
680,726,63,0.185726302935636,1
680,727,63,0.136501322549768,1
680,728,63,0.0764795879552876,1
681,724,63,0.0793610845041567,1
681,725,63,0.137375241436793,1
681,726,63,0.167559831724422,1
681,727,63,0.123395750801416,1
681,728,63,0.0716709764557001,1
682,725,63,0.089410296680023,1
682,726,63,0.100533691262986,1
682,727,63,0.0812000206651877,1
684,726,63,0.075211669413498,1
684,727,63,0.0796279426482093,1
684,728,63,0.0728033561688477,1
685,725,63,0.0746847446648113,1
685,726,63,0.0981635760829259,1
685,727,63,0.112013401841359,1
685,728,63,0.0969890429459971,1
685,729,63,0.0731956179680804,1
686,725,63,0.0779637235309309,1
686,726,63,0.112381111217638,1
686,727,63,0.136522315844593,1
686,728,63,0.117635941455012,1
686,729,63,0.0824994708577477,1
687,726,63,0.0899092767117571,1
687,727,63,0.109176741965213,1
687,728,63,0.0982288916452359,1
687,729,63,0.0747263489262444,1
688,726,63,0.0722925031081199,1
688,727,63,0.0810085645969521,1
673,718,64,0.0887609365334047,1
673,719,64,0.0881688074451622,1
674,716,64,0.106743528726502,1
674,717,64,0.120769531327335,1
674,718,64,0.106176362195119,1
674,719,64,0.0842160689407568,1
675,716,64,0.142682999802246,1
675,717,64,0.157280736018799,1
675,718,64,0.122447590726069,1
676,716,64,0.126097685165309,1
676,717,64,0.135056830934518,1
676,718,64,0.105723650829066,1
680,726,64,0.166024929912982,1
681,726,64,0.143772134718338,1
