x,y,z,signal,cytoplasm.p
888,688,12,0.0727083024226763,1
899,692,12,0.0718807773269302,1
900,691,12,0.0783190315701338,1
900,692,12,0.0869447732312635,1
900,693,12,0.0754980958108395,1
901,692,12,0.0711090860537121,1
888,688,13,0.0762832311344521,1
889,687,13,0.0703873546513245,1
889,688,13,0.0791989286801885,1
899,691,13,0.0777733032245923,1
899,692,13,0.08425757588228,1
899,693,13,0.0745693371546506,1
900,691,13,0.0832231069497983,1
900,692,13,0.099444445124139,1
900,693,13,0.089675542094142,1
901,692,13,0.080208574084253,1
901,693,13,0.0738791721601439,1
888,688,14,0.0715557496825146,1
889,687,14,0.0706282700879972,1
889,688,14,0.0789541691070793,1
899,691,14,0.0753090101775493,1
899,692,14,0.0842375766408192,1
899,693,14,0.0763350817921011,1
900,691,14,0.0770414783572755,1
900,692,14,0.0979120527760866,1
900,693,14,0.0894370527037918,1
901,692,14,0.0790300577824452,1
901,693,14,0.0731498984647478,1
899,692,15,0.0755778703311746,1
900,692,15,0.0859935684330249,1
900,693,15,0.0781085633623795,1
901,692,15,0.0699000391059203,1
886,685,20,0.0730133516798974,1
887,685,20,0.0762982114491368,1
887,686,20,0.0705490099728995,1
886,685,21,0.0736026793450225,1
887,685,21,0.0782018653501748,1
887,686,21,0.0715591628307792,1
885,655,28,0.0713367659826541,1
886,655,28,0.0728391629442265,1
887,655,28,0.0698705859303661,1
884,654,29,0.0886825314432287,1
884,655,29,0.0771578034551571,1
885,654,29,0.102398208657446,1
885,655,29,0.0844560181297538,1
886,654,29,0.103248742960434,1
886,655,29,0.0843273681604402,1
887,654,29,0.090708440005223,1
887,655,29,0.0771158377197734,1
888,654,29,0.0796741765567793,1
888,655,29,0.0710060173178277,1
889,654,29,0.0732138654511651,1
895,654,29,0.0748542550933904,1
895,655,29,0.0719757824131467,1
896,655,29,0.0749842744928632,1
897,656,29,0.070469930594777,1
898,656,29,0.0707465624383409,1
883,654,30,0.0811355253706888,1
883,655,30,0.0722974108121419,1
884,654,30,0.0963783118521414,1
884,655,30,0.0825824360808394,1
885,654,30,0.108372650113458,1
885,655,30,0.0913779314703225,1
885,656,30,0.070000779115392,1
886,654,30,0.106825611118983,1
886,655,30,0.0917604265214661,1
886,656,30,0.07220091812159,1
887,654,30,0.0927819866630571,1
887,655,30,0.0829935709911482,1
888,654,30,0.0808015860031058,1
888,655,30,0.0747999575351525,1
889,654,30,0.0746866493544743,1
890,654,30,0.0713820614492369,1
893,654,30,0.069868347572441,1
894,654,30,0.073201158251516,1
895,654,30,0.0768617632410133,1
895,655,30,0.0744053739609292,1
896,654,30,0.0769570741898034,1
896,655,30,0.0769006355935502,1
896,656,30,0.072746834155529,1
897,655,30,0.0750971030254146,1
897,656,30,0.072838099376641,1
898,655,30,0.0754668630712206,1
898,656,30,0.0723191270548682,1
898,657,30,0.07051512874145,1
899,656,30,0.070557219602432,1
882,653,31,0.0828838149871771,1
882,654,31,0.0759867738349806,1
883,653,31,0.0982365173553098,1
883,654,31,0.088401659232167,1
883,655,31,0.0743472670233655,1
884,653,31,0.111443656332367,1
884,654,31,0.100145092863214,1
884,655,31,0.0842502004234028,1
885,653,31,0.118024970842955,1
885,654,31,0.108331998196857,1
885,655,31,0.0926400177689472,1
885,656,31,0.0710884403299935,1
886,653,31,0.112005074037651,1
886,654,31,0.105324173453664,1
886,655,31,0.0939263923364853,1
886,656,31,0.0744149530206209,1
887,654,31,0.0922877961611689,1
887,655,31,0.0858425974472598,1
887,656,31,0.071838839397235,1
888,654,31,0.0819606105172681,1
888,655,31,0.0773631832219141,1
889,654,31,0.0770821858852542,1
889,655,31,0.0708431524488025,1
890,654,31,0.0741859036615198,1
891,654,31,0.0709798521649398,1
892,654,31,0.0708578686094464,1
893,654,31,0.0736385417317783,1
894,654,31,0.0748204016676295,1
894,655,31,0.0703280937776875,1
895,654,31,0.0757779739685369,1
895,655,31,0.0742852255808775,1
896,654,31,0.0757866562947741,1
896,655,31,0.0761829499188408,1
896,656,31,0.0730673294727174,1
897,655,31,0.0739348600028073,1
897,656,31,0.0726902217737226,1
898,656,31,0.0726855990780079,1
898,657,31,0.0703426500556225,1
875,655,32,0.070118869874494,1
877,654,32,0.0738252430272787,1
878,653,32,0.0769420104580531,1
878,654,32,0.0713310171565547,1
880,653,32,0.0719188572173446,1
881,653,32,0.0771717132508342,1
882,652,32,0.0952492966273035,1
882,653,32,0.0900671365568505,1
882,654,32,0.0791571297789359,1
883,652,32,0.110496664095938,1
883,653,32,0.104747573842455,1
883,654,32,0.0905082251451068,1
883,655,32,0.0720379906897657,1
884,652,32,0.117913706380382,1
884,653,32,0.113456843791868,1
884,654,32,0.0989566638334524,1
884,655,32,0.0803380999327547,1
885,653,32,0.11528284335632,1
885,654,32,0.103517825559567,1
885,655,32,0.0872184159633125,1
886,653,32,0.107368051441858,1
886,654,32,0.100056580405265,1
886,655,32,0.0890391741554801,1
886,656,32,0.0716010660033638,1
887,653,32,0.0938552097738997,1
887,654,32,0.0897780755705227,1
887,655,32,0.0835447283973713,1
887,656,32,0.0706561452907285,1
888,653,32,0.0857605081033562,1
888,654,32,0.0823415136927445,1
888,655,32,0.0766134445397747,1
889,653,32,0.0849279501779898,1
889,654,32,0.0794602256865391,1
889,655,32,0.0711678394735338,1
890,654,32,0.0765847490692324,1
895,655,32,0.0723459247871697,1
896,655,32,0.0754202676887,1
896,656,32,0.0716285102179232,1
897,656,32,0.07249161964354,1
874,655,33,0.0722344309276667,1
875,654,33,0.074552132384885,1
875,655,33,0.0700483059884778,1
876,654,33,0.074455194803317,1
877,653,33,0.0787098961335189,1
877,654,33,0.0736988175130459,1
878,653,33,0.0785410947499968,1
878,654,33,0.0719912215216919,1
879,653,33,0.0764316648511406,1
880,652,33,0.0824435953266868,1
880,653,33,0.0768790375250001,1
881,652,33,0.0882343593558245,1
881,653,33,0.0820600089022692,1
881,654,33,0.071520763174947,1
882,651,33,0.104646771270184,1
882,652,33,0.0990253647383385,1
882,653,33,0.0922302870459081,1
882,654,33,0.0778213514543376,1
883,651,33,0.112006791038916,1
883,652,33,0.108543203255357,1
883,653,33,0.101908147300301,1
883,654,33,0.0852754934786763,1
884,652,33,0.111946994905775,1
884,653,33,0.106269483445939,1
884,654,33,0.0910108060135029,1
884,655,33,0.0731197988069358,1
885,652,33,0.107544256089946,1
885,653,33,0.104822280776059,1
885,654,33,0.093220002722733,1
885,655,33,0.07805886764559,1
886,652,33,0.0988117683906268,1
886,653,33,0.0983599398551835,1
886,654,33,0.0907904528834833,1
886,655,33,0.0799071187122719,1
887,653,33,0.0894193404802109,1
887,654,33,0.0845791834270088,1
887,655,33,0.0772402959815441,1
888,653,33,0.0854698899984718,1
888,654,33,0.0806863244728097,1
888,655,33,0.0731495647964857,1
889,653,33,0.0859398895513563,1
889,654,33,0.0797629462173475,1
889,655,33,0.070748752136311,1
890,653,33,0.0851081101852682,1
890,654,33,0.0778452921521447,1
891,654,33,0.0743187870469091,1
870,666,34,0.0725471893120272,1
873,655,34,0.0704696664407362,1
874,654,34,0.0737174890328803,1
874,655,34,0.0697715837764263,1
875,654,34,0.0743546702879312,1
876,653,34,0.078242871789305,1
876,654,34,0.0734414341573531,1
877,653,34,0.0786858303101135,1
877,654,34,0.0722381777441934,1
878,652,34,0.0832463386025484,1
878,653,34,0.0781436958498119,1
878,654,34,0.0707615427530257,1
879,652,34,0.0832115050262675,1
879,653,34,0.0772020492569986,1
880,652,34,0.0855238816941361,1
880,653,34,0.0790117060280286,1
881,652,34,0.0915377168593453,1
881,653,34,0.0835600562831625,1
881,654,34,0.0710131703311969,1
882,651,34,0.104850844169581,1
882,652,34,0.0990956297132032,1
882,653,34,0.0902039266414755,1
882,654,34,0.0746628268308433,1
883,652,34,0.103035431621029,1
883,653,34,0.0955815259450431,1
883,654,34,0.0795362533903476,1
884,652,34,0.103291876534735,1
884,653,34,0.0976533069416568,1
884,654,34,0.0840993823689245,1
885,652,34,0.0991060916035051,1
885,653,34,0.0952993607694657,1
885,654,34,0.0852627723761829,1
885,655,34,0.0705351835942879,1
886,652,34,0.0926687132394895,1
886,653,34,0.090494662920536,1
886,654,34,0.0834879769871224,1
886,655,34,0.0717256980506878,1
887,652,34,0.0861459992174367,1
887,653,34,0.0852508228815458,1
887,654,34,0.0796652787364561,1
887,655,34,0.069808370702325,1
888,652,34,0.0848365528798574,1
888,653,34,0.0838449116591032,1
888,654,34,0.077759761854288,1
889,653,34,0.084677003839187,1
889,654,34,0.0783665514917974,1
890,653,34,0.0833026590246254,1
890,654,34,0.07745008294993,1
891,654,34,0.0728429931778187,1
869,665,35,0.0714364146188519,1
869,666,35,0.079127641846271,1
870,665,35,0.0767157625220694,1
870,666,35,0.087913968309968,1
871,666,35,0.0721065525662092,1
872,655,35,0.0731616046596106,1
873,654,35,0.0730831578609017,1
873,655,35,0.0698093856099556,1
874,654,35,0.0730306885266833,1
875,653,35,0.0776189538476733,1
875,654,35,0.0729638436515053,1
876,653,35,0.0775814161681848,1
876,654,35,0.0712888845870399,1
877,652,35,0.0823170516382778,1
877,653,35,0.0777457477872789,1
877,654,35,0.0705114444877225,1
878,652,35,0.0836912991329297,1
878,653,35,0.0772470597152742,1
879,652,35,0.0846902810554506,1
879,653,35,0.0777220295349799,1
880,652,35,0.0873233129232165,1
880,653,35,0.0800271906266802,1
880,654,35,0.0700584342105175,1
881,652,35,0.0921652495404832,1
881,653,35,0.0834005837081355,1
881,654,35,0.0703485935215415,1
882,652,35,0.0952853467024567,1
882,653,35,0.0862447441687578,1
882,654,35,0.07118540571725,1
883,652,35,0.0955465463888975,1
883,653,35,0.0891160707870545,1
883,654,35,0.074429898578195,1
884,652,35,0.0938578374114639,1
884,653,35,0.0898828056962956,1
884,654,35,0.0774549767511077,1
885,652,35,0.0905456168447306,1
885,653,35,0.0880175236454014,1
885,654,35,0.0781396431707116,1
886,652,35,0.0866023809343735,1
886,653,35,0.0850116035918721,1
886,654,35,0.0768179623301879,1
887,652,35,0.0833034306324815,1
887,653,35,0.0823973753209611,1
887,654,35,0.0744613885204326,1
888,652,35,0.0834770145944273,1
888,653,35,0.081943155496306,1
888,654,35,0.0732811343630929,1
889,652,35,0.0843981058320096,1
889,653,35,0.0822498035806164,1
889,654,35,0.0745609884966754,1
890,653,35,0.080034434008537,1
890,654,35,0.0738144266144483,1
868,665,36,0.075198642448431,1
868,666,36,0.0701398840235855,1
869,665,36,0.0904048992066036,1
869,666,36,0.0912694962365557,1
870,665,36,0.0819772035618865,1
870,666,36,0.0896626611089398,1
873,654,36,0.0734359494852945,1
874,653,36,0.0778323972640982,1
874,654,36,0.072652023709132,1
875,653,36,0.077654920505761,1
875,654,36,0.0716693845800329,1
876,652,36,0.0812166067583839,1
876,653,36,0.0765062953191014,1
877,652,36,0.0832973272838536,1
877,653,36,0.0763593144496376,1
878,652,36,0.0841652262393162,1
878,653,36,0.0757603868705543,1
879,652,36,0.0850996711588054,1
879,653,36,0.0770448011370525,1
880,652,36,0.0868207390062425,1
880,653,36,0.0791948690496661,1
881,651,36,0.093841376443866,1
881,652,36,0.0898501340122963,1
881,653,36,0.0818119752093379,1
882,651,36,0.0931727400036882,1
882,652,36,0.0900876710578151,1
882,653,36,0.0828023860283756,1
883,651,36,0.0916707114674886,1
883,652,36,0.0893385997122,1
883,653,36,0.0848745563046285,1
883,654,36,0.0714793605047555,1
884,652,36,0.0873953991706787,1
884,653,36,0.0851326695596446,1
884,654,36,0.0731376153018485,1
885,652,36,0.0846667852486596,1
885,653,36,0.0834742548798427,1
885,654,36,0.0729701068828422,1
886,652,36,0.0826642751735464,1
886,653,36,0.0816935924905066,1
886,654,36,0.0716644907788551,1
887,652,36,0.0814067629106817,1
887,653,36,0.0803247323480035,1
888,652,36,0.0816318291049037,1
888,653,36,0.0798549621920492,1
889,652,36,0.0815804094354266,1
889,653,36,0.0796419845209069,1
889,654,36,0.0698230103973255,1
890,653,36,0.0765685314014089,1
868,664,37,0.0757214241495296,1
868,665,37,0.0957837497661542,1
868,666,37,0.0787994721590539,1
869,664,37,0.0728133592652892,1
869,665,37,0.0985113001205877,1
869,666,37,0.089606681306547,1
870,665,37,0.077486557061833,1
870,666,37,0.0801275900164676,1
871,655,37,0.0717850353899681,1
873,654,37,0.074130139353213,1
874,653,37,0.0793303661697753,1
874,654,37,0.072058073348292,1
875,652,37,0.081526452496873,1
875,653,37,0.0771304635119296,1
875,654,37,0.0701119323552108,1
876,652,37,0.0817793521852935,1
876,653,37,0.0756241389968553,1
877,652,37,0.0835358305770481,1
877,653,37,0.0759021472220004,1
878,652,37,0.0832780023303391,1
878,653,37,0.0755869002285183,1
879,651,37,0.0907274729990081,1
879,652,37,0.0835774000813706,1
879,653,37,0.0763962404039788,1
880,651,37,0.0897040359734427,1
880,652,37,0.0844974486056337,1
880,653,37,0.0777071673944713,1
881,651,37,0.0887556951611206,1
881,652,37,0.0852317273249615,1
881,653,37,0.078931799430673,1
882,651,37,0.0868467790335321,1
882,652,37,0.0841780238074529,1
882,653,37,0.0792333938310967,1
883,651,37,0.0855606894743012,1
883,652,37,0.083264308028748,1
883,653,37,0.0804773299665464,1
883,654,37,0.0697378068163087,1
884,651,37,0.0842672314076152,1
884,652,37,0.0820238615072062,1
884,653,37,0.0807220686853893,1
884,654,37,0.070635179801592,1
885,651,37,0.082938056934038,1
885,652,37,0.0802094013034862,1
885,653,37,0.0794964564986677,1
886,652,37,0.079860731872415,1
886,653,37,0.0784701346329193,1
887,652,37,0.0795659290114099,1
887,653,37,0.0770054838934993,1
888,652,37,0.0790746928639258,1
888,653,37,0.0760051881521963,1
889,652,37,0.0783682059302638,1
889,653,37,0.0761187535354933,1
890,652,37,0.0762164140649625,1
890,653,37,0.0736064053072829,1
867,665,38,0.0816762904008312,1
868,664,38,0.085430593609185,1
868,665,38,0.104432924671276,1
868,666,38,0.0814272209460029,1
869,664,38,0.0724752003844748,1
869,665,38,0.091617192468529,1
869,666,38,0.0798660358074983,1
870,655,38,0.0726980004150833,1
871,654,38,0.078732745458052,1
871,655,38,0.0701478503533436,1
872,654,38,0.0755351746964675,1
873,653,38,0.0821450526005771,1
873,654,38,0.0743925763927925,1
874,653,38,0.079566749279221,1
874,654,38,0.0712824475701499,1
875,652,38,0.081236731125443,1
875,653,38,0.07550074430267,1
876,652,38,0.0810521361108473,1
876,653,38,0.0734756629599089,1
877,651,38,0.0910057106210834,1
877,652,38,0.0825274503318108,1
877,653,38,0.0744755207616178,1
878,651,38,0.0888805218482641,1
878,652,38,0.0817870891181215,1
878,653,38,0.0749917264173838,1
879,651,38,0.0871141585342443,1
879,652,38,0.0813179515415807,1
879,653,38,0.0752593005579156,1
880,651,38,0.0849040581401376,1
880,652,38,0.0804637677419757,1
880,653,38,0.0748321287167586,1
881,651,38,0.0824965582118762,1
881,652,38,0.0793040967455555,1
881,653,38,0.0745113900997957,1
882,651,38,0.0810409373697999,1
882,652,38,0.0783008953098032,1
882,653,38,0.0744047761386263,1
883,651,38,0.0808515319710919,1
883,652,38,0.0780920398319825,1
883,653,38,0.0751847257013318,1
884,651,38,0.0799430436618268,1
884,652,38,0.0774229932578991,1
884,653,38,0.0751948886804822,1
885,651,38,0.0791487324610059,1
885,652,38,0.0766154813064581,1
885,653,38,0.0746615964291267,1
886,651,38,0.0802099713201006,1
886,652,38,0.0772625405323521,1
886,653,38,0.0741215404440413,1
887,652,38,0.0776729455433376,1
887,653,38,0.0735862114260025,1
888,652,38,0.0767903512814974,1
888,653,38,0.0730488734469689,1
889,652,38,0.0757459348639512,1
889,653,38,0.0734659448717746,1
890,652,38,0.0743794034478609,1
890,653,38,0.0715511269867999,1
867,664,39,0.076006696610798,1
867,665,39,0.0886296519751048,1
867,666,39,0.0714906774199791,1
868,664,39,0.080671344158125,1
868,665,39,0.0926713895370086,1
868,666,39,0.076410094588279,1
869,665,39,0.0752310916869222,1
870,655,39,0.0701915887013698,1
871,654,39,0.0767983037084113,1
872,653,39,0.0825032732856514,1
872,654,39,0.0739982152640773,1
873,653,39,0.0815133004062077,1
873,654,39,0.0727014552718807,1
874,652,39,0.0824390421451933,1
874,653,39,0.0781654051411161,1
875,652,39,0.0794965051586226,1
875,653,39,0.0732735434101297,1
876,651,39,0.0878167457200928,1
876,652,39,0.0786784618026584,1
876,653,39,0.0707089691474754,1
877,651,39,0.0875912693919652,1
877,652,39,0.079071703752411,1
877,653,39,0.0712782489111849,1
878,651,39,0.0846039304897827,1
878,652,39,0.0781376064040282,1
878,653,39,0.0716030680129365,1
879,651,39,0.0820313759945261,1
879,652,39,0.0772007145839502,1
879,653,39,0.0714685579947694,1
880,651,39,0.0791752312821559,1
880,652,39,0.0755214664920321,1
880,653,39,0.0704284445075201,1
881,651,39,0.076247243622098,1
881,652,39,0.0732719932429952,1
882,651,39,0.0759711609408822,1
882,652,39,0.0725318892319246,1
883,651,39,0.0768124150953301,1
883,652,39,0.0730307719437489,1
884,651,39,0.075772093065417,1
884,652,39,0.0727183124705399,1
884,653,39,0.0700701543082245,1
885,651,39,0.0753285784308382,1
885,652,39,0.0725199883972423,1
885,653,39,0.0700308787732041,1
886,651,39,0.0772143949826971,1
886,652,39,0.0735919672035241,1
886,653,39,0.0697440074848465,1
887,651,39,0.0793151634095825,1
887,652,39,0.0744102955677955,1
887,653,39,0.0697706592372833,1
887,687,39,0.0716915526651975,1
888,652,39,0.0736702888766346,1
888,653,39,0.0697901510249288,1
889,652,39,0.0729488772396648,1
889,653,39,0.0698943806483085,1
866,665,40,0.0787452093579266,1
867,664,40,0.0749892169539958,1
867,665,40,0.0861347726707008,1
867,666,40,0.0704256222301363,1
868,664,40,0.0699519106178357,1
868,665,40,0.0758923457168006,1
870,654,40,0.0759723218283775,1
871,653,40,0.0826938256690104,1
871,654,40,0.0730953576067355,1
872,653,40,0.0795663739024261,1
872,654,40,0.0703973160392332,1
873,652,40,0.0805723420041851,1
873,653,40,0.0768829650785021,1
874,652,40,0.0787456890060534,1
874,653,40,0.0737383293964186,1
875,651,40,0.0833445343915214,1
875,652,40,0.0761674760531849,1
876,651,40,0.0836509600303238,1
876,652,40,0.0746370440061724,1
877,651,40,0.0816562494508376,1
877,652,40,0.0739863561379278,1
878,651,40,0.0790418334915292,1
878,652,40,0.0731300173974632,1
879,651,40,0.0759089040043083,1
879,652,40,0.071412432212512,1
880,651,40,0.0727313880955617,1
881,651,40,0.0700637589998672,1
882,651,40,0.0701541066332583,1
883,651,40,0.0712979839986048,1
884,651,40,0.0707218223269891,1
885,651,40,0.0710067263628847,1
886,651,40,0.0729029144365578,1
887,687,40,0.0723785617140583,1
866,665,41,0.0772188160871702,1
867,664,41,0.0698974670797331,1
867,665,41,0.0746687702967623,1
870,654,41,0.0706488184918061,1
871,653,41,0.0779794198420948,1
872,652,41,0.0791019354872435,1
872,653,41,0.0743942725397916,1
873,652,41,0.0756877653635883,1
873,653,41,0.0710068028285281,1
874,652,41,0.0739324965192839,1
875,651,41,0.0790784257776083,1
875,652,41,0.0721231386594055,1
876,651,41,0.0775730188502548,1
876,652,41,0.0699561301310671,1
877,651,41,0.0752771031499841,1
878,651,41,0.0729908568778928,1
866,665,42,0.0711961665187033,1
871,653,42,0.0718268620969093,1
875,651,42,0.072137124920726,1
876,651,42,0.0699237086982645,1
865,665,44,0.0697907836043424,1
895,657,44,0.0744616665773177,1
895,658,44,0.0704983062999015,1
896,657,44,0.0712131836000715,1
894,657,45,0.070200104193476,1
895,657,45,0.084364599977355,1
895,658,45,0.0782661660048542,1
896,657,45,0.0774741626761796,1
896,658,45,0.0724783632815428,1
890,696,46,0.0725717208807152,1
891,696,46,0.073258243330027,1
894,657,46,0.0731892991253665,1
895,657,46,0.0858079932679091,1
895,658,46,0.0797369896071234,1
896,657,46,0.0766908069166316,1
896,658,46,0.0725884946623088,1
890,695,47,0.072601751024306,1
890,696,47,0.0776015266323997,1
891,695,47,0.0700973482715873,1
891,696,47,0.0754202954943885,1
895,657,47,0.0756259185609199,1
895,658,47,0.0699520009863234,1
890,694,48,0.0716228726145778,1
890,695,48,0.07458642375024,1
890,696,48,0.0753235177955294,1
891,695,48,0.0707596936747397,1
891,696,48,0.0727889180650889,1
890,695,49,0.0711720103268103,1
896,654,51,0.0709338059447672,1
897,654,51,0.0720653028273047,1
894,653,52,0.0719436042801185,1
894,654,52,0.0764955414690702,1
895,653,52,0.080064040115378,1
895,654,52,0.0911915290859736,1
895,655,52,0.077919345652069,1
896,653,52,0.0808004459698769,1
896,654,52,0.0956610293599153,1
896,655,52,0.0814145971634194,1
897,653,52,0.0741927577637375,1
897,654,52,0.0855106044778726,1
897,655,52,0.0734853532423546,1
898,654,52,0.0704582313513364,1
893,653,53,0.0716378668321068,1
893,654,53,0.0722253662732125,1
894,653,53,0.0936344465099746,1
894,654,53,0.101222452070222,1
894,655,53,0.0808280222614567,1
895,653,53,0.113345183098234,1
895,654,53,0.128148146150258,1
895,655,53,0.098095048963593,1
896,653,53,0.107777316419615,1
896,654,53,0.123642081395926,1
896,655,53,0.0954580130766816,1
897,653,53,0.0856437033573478,1
897,654,53,0.0956477590950739,1
897,655,53,0.0775031083979185,1
898,654,53,0.0706954555828595,1
893,653,54,0.0821352163382667,1
893,654,54,0.0832095516766496,1
894,653,54,0.127238135479547,1
894,654,54,0.13531087760759,1
894,655,54,0.0987231030013905,1
895,653,54,0.164672294389724,1
895,654,54,0.174233113549757,1
895,655,54,0.119315710903589,1
896,654,54,0.156366971580139,1
896,655,54,0.106624812339408,1
897,654,54,0.104742249053105,1
897,655,54,0.0776534189985815,1
883,692,55,0.0703631289452101,1
893,654,55,0.0941868412693364,1
893,655,55,0.0732968515285232,1
894,654,55,0.159606959919546,1
894,655,55,0.112084480132613,1
895,654,55,0.201390317792326,1
895,655,55,0.130722299472604,1
895,656,55,0.0717769369831896,1
896,655,55,0.112332951765138,1
897,655,55,0.0799880471686802,1
893,654,56,0.0994178072745465,1
893,655,56,0.074984156318687,1
894,655,56,0.109404644339663,1
895,655,56,0.124742727867061,1
895,656,56,0.0706984099372637,1
893,655,57,0.0727107354204209,1
897,656,57,0.071981684170533,1
893,655,58,0.0708170846158244,1
896,656,58,0.0713723781182133,1
892,654,59,0.0725772889698393,1
894,655,59,0.0748471368371318,1
896,656,59,0.0724374124537897,1
897,656,59,0.0785209703829377,1
880,655,60,0.0751187636567639,1
881,654,60,0.0819103308810199,1
881,655,60,0.0988295640312732,1
881,656,60,0.0855852279944113,1
882,654,60,0.079022744886367,1
882,655,60,0.0975926696864386,1
882,656,60,0.0882653140385583,1
883,655,60,0.0757562716286548,1
883,656,60,0.0728266990443519,1
894,655,60,0.0704489790084847,1
896,656,60,0.0728589327887571,1
880,654,61,0.082825742806724,1
880,655,61,0.101226101566839,1
880,656,61,0.082079458981382,1
881,654,61,0.103579081491355,1
881,655,61,0.137570353953068,1
881,656,61,0.110865353622736,1
882,654,61,0.0911513081575439,1
882,655,61,0.120645921139063,1
882,656,61,0.101623576932668,1
883,654,61,0.0705400009298222,1
883,655,61,0.0814968741957205,1
883,656,61,0.0759729405049469,1
888,687,61,0.071179900190925,1
889,686,61,0.0735356259271807,1
889,687,61,0.0824618567126158,1
890,687,61,0.076036462600348,1
879,655,62,0.0722389076435168,1
880,654,62,0.0873982770594394,1
880,655,62,0.110608151004019,1
880,656,62,0.0875767965310958,1
881,653,62,0.0721739535551575,1
881,654,62,0.110349273092569,1
881,655,62,0.147318764190633,1
881,656,62,0.11388151312106,1
881,657,62,0.0713900347304172,1
882,654,62,0.0892737637980168,1
882,655,62,0.116328524932694,1
882,656,62,0.0942715791050706,1
883,655,62,0.0764270073983151,1
883,656,62,0.0709240809052109,1
888,686,62,0.07282332760462,1
888,687,62,0.0801919045739913,1
889,686,62,0.0849149093100786,1
889,687,62,0.0951282932223301,1
889,688,62,0.0732942308423811,1
890,686,62,0.0703794647872097,1
890,687,62,0.0770039545806313,1
894,685,62,0.0737140550303493,1
894,686,62,0.0700146472025364,1
895,685,62,0.074249105991503,1
879,654,63,0.0708798212005251,1
879,655,63,0.0746266168729812,1
879,656,63,0.0698511288998312,1
880,654,63,0.0870460693545054,1
880,655,63,0.101429034433008,1
880,656,63,0.0835852273826861,1
881,653,63,0.0741686710860657,1
881,654,63,0.103978517158223,1
881,655,63,0.126198300049183,1
881,656,63,0.100525738836072,1
881,657,63,0.0723997844058136,1
882,654,63,0.0836005066085224,1
882,655,63,0.0983404828246486,1
882,656,63,0.0829449875018991,1
883,655,63,0.0727009200123769,1
888,686,63,0.0732316958489221,1
888,687,63,0.0779635358425335,1
889,686,63,0.0801541166433062,1
889,687,63,0.0869283748264647,1
889,688,63,0.0699287901878397,1
893,685,63,0.0710977760899107,1
894,685,63,0.0848242975226466,1
894,686,63,0.0748962277801963,1
895,685,63,0.0805186005597174,1
895,686,63,0.0705694054454215,1
878,658,64,0.0798707766773893,1
878,659,64,0.0920296690033084,1
878,660,64,0.0749712475277962,1
879,654,64,0.0712007753115739,1
879,655,64,0.0726885186753014,1
879,656,64,0.0700747978582057,1
879,658,64,0.0871085417851652,1
879,659,64,0.105680260052146,1
879,660,64,0.0867401233638299,1
880,653,64,0.0707747504550679,1
880,654,64,0.0830325893235499,1
880,655,64,0.087209504240145,1
880,656,64,0.0767711514535813,1
880,658,64,0.0772197753834238,1
880,659,64,0.088000874989406,1
880,660,64,0.0742057638745381,1
881,653,64,0.0730640414500511,1
881,654,64,0.0906354014129294,1
881,655,64,0.0997255606349751,1
881,656,64,0.0853346987409362,1
881,657,64,0.0712956205150815,1
882,654,64,0.0778139690440382,1
882,655,64,0.0856997248682733,1
882,656,64,0.0772693737803035,1
883,655,64,0.0717072211706729,1
887,657,64,0.0697957469197414,1
888,687,64,0.0703096516547833,1
889,687,64,0.0708988819999987,1
893,685,64,0.0713916335575065,1
894,684,64,0.0705750917087218,1
894,685,64,0.0884482893717983,1
894,686,64,0.0745705258478344,1
895,685,64,0.0802042989596446,1
877,658,65,0.076820096416781,1
877,659,65,0.0845191996054706,1
878,657,65,0.075735945670354,1
878,658,65,0.107971858919275,1
878,659,65,0.138814630708202,1
878,660,65,0.10565909992319,1
879,654,65,0.0702514404458876,1
879,655,65,0.0703602023964944,1
879,657,65,0.0765462659963345,1
879,658,65,0.114425162991385,1
879,659,65,0.151636834684949,1
879,660,65,0.11651171576002,1
880,653,65,0.0704718630901285,1
880,654,65,0.0767620520420164,1
880,655,65,0.0764837657599862,1
880,656,65,0.0712235620733078,1
880,657,65,0.071828593001019,1
880,658,65,0.085970677399959,1
880,659,65,0.104408261025567,1
880,660,65,0.0841375595792488,1
881,654,65,0.0778307984370089,1
881,655,65,0.0822204338221277,1
881,656,65,0.0758232624836975,1
881,657,65,0.0705681263837501,1
882,654,65,0.0735856275065438,1
882,655,65,0.0806068419122039,1
882,656,65,0.0758932076931444,1
882,657,65,0.0705611193502456,1
883,655,65,0.0722542216264637,1
883,656,65,0.0707641981962784,1
885,656,65,0.0703533969542316,1
885,657,65,0.0709387970658548,1
885,658,65,0.0706761931921442,1
886,656,65,0.0700473953521791,1
886,657,65,0.0712692885280625,1
886,658,65,0.0718006552354886,1
887,657,65,0.0715896100596977,1
887,658,65,0.0725289209746761,1
888,657,65,0.0697572777496879,1
888,658,65,0.0708220201255349,1
894,685,65,0.0769071212703952,1
877,657,66,0.073300278579632,1
877,658,66,0.0892609662298801,1
877,659,66,0.103073546268554,1
877,660,66,0.0809849923245177,1
878,657,66,0.0834441691248749,1
878,658,66,0.130096101464515,1
878,659,66,0.170889465603585,1
878,660,66,0.125480941091313,1
879,657,66,0.0821990442962414,1
879,658,66,0.130847160916858,1
879,659,66,0.175032318551755,1
879,660,66,0.130229443643764,1
879,661,66,0.071602275550814,1
880,654,66,0.0703607654616868,1
880,655,66,0.0713621317219974,1
880,657,66,0.0723210873559081,1
880,658,66,0.0881862138061694,1
880,659,66,0.107808034753996,1
880,660,66,0.0866094505306771,1
881,655,66,0.0745095479729319,1
881,656,66,0.0729922263080519,1
882,655,66,0.074963600963456,1
882,656,66,0.0742773079110743,1
882,657,66,0.0700871227296377,1
885,657,66,0.0708778122395302,1
885,658,66,0.0727900511468957,1
885,659,66,0.0699734183178982,1
886,658,66,0.0726616375259344,1
886,659,66,0.0707497948496302,1
887,658,66,0.0716244992473556,1
887,659,66,0.0705919836644917,1
876,657,67,0.0711688682840086,1
876,658,67,0.0757010356284297,1
876,659,67,0.0733690211930509,1
877,657,67,0.0797358704281609,1
877,658,67,0.100906774088568,1
877,659,67,0.11230521559085,1
877,660,67,0.0882857373167689,1
878,656,67,0.0698039426464298,1
878,657,67,0.0901164012854681,1
878,658,67,0.137837511008272,1
878,659,67,0.170132664276564,1
878,660,67,0.125101004163513,1
878,661,67,0.0739694572307358,1
879,656,67,0.0697535865445382,1
879,657,67,0.0854141395930093,1
879,658,67,0.129999268154278,1
879,659,67,0.163668370006071,1
879,660,67,0.122694672074169,1
879,661,67,0.0738122369164782,1
880,656,67,0.0697457522918005,1
880,657,67,0.0731815204840058,1
880,658,67,0.0882489017309152,1
880,659,67,0.103165096497974,1
880,660,67,0.0858978960102841,1
881,655,67,0.0697933556305296,1
881,656,67,0.0720644825594936,1
881,658,67,0.0702360221916088,1
881,659,67,0.0709411675008002,1
882,656,67,0.0721060729180824,1
885,658,67,0.071934796828283,1
885,659,67,0.0706285481448823,1
886,658,67,0.0707071339720337,1
886,659,67,0.070987658611989,1
876,658,68,0.0755062220233065,1
876,659,68,0.0742723167899867,1
877,657,68,0.0786554178383057,1
877,658,68,0.098364055097083,1
877,659,68,0.103032845691998,1
877,660,68,0.0840231530738744,1
878,657,68,0.0865547219842673,1
878,658,68,0.121587713711741,1
878,659,68,0.137480249619451,1
878,660,68,0.106181040502211,1
878,661,68,0.0711587331105467,1
879,657,68,0.0785706035369281,1
879,658,68,0.10757060197981,1
879,659,68,0.125317874631046,1
879,660,68,0.10026185590069,1
880,658,68,0.078724514974253,1
880,659,68,0.0882279292903566,1
880,660,68,0.0789645475803156,1
876,658,69,0.0712705050269348,1
876,659,69,0.070993004255605,1
877,657,69,0.0728832905718918,1
877,658,69,0.085962718021623,1
877,659,69,0.0859617309196809,1
877,660,69,0.0735774178770112,1
878,657,69,0.0765030768106564,1
878,658,69,0.0940142513607548,1
878,659,69,0.0973367113722819,1
878,660,69,0.081344735371038,1
879,658,69,0.0807447164186807,1
879,659,69,0.086606774233158,1
879,660,69,0.0761562286521826,1
880,659,69,0.0716289412060951,1
877,658,70,0.0724896940996107,1
877,659,70,0.0713166694212835,1
878,658,70,0.0736077260774871,1
878,659,70,0.0727132379323868,1
