x,y,z,signal,cytoplasm.p
635,640,5,0.0761674204418079,1
635,641,5,0.0721808007059531,1
634,640,6,0.0786588518408367,1
634,641,6,0.0784174150475044,1
635,639,6,0.0705191744691282,1
635,640,6,0.0896123953755358,1
635,641,6,0.0871593705837615,1
635,642,6,0.0707246585072171,1
636,640,6,0.0780653324681686,1
636,641,6,0.07561556094195,1
633,626,7,0.0736561844411379,1
633,627,7,0.07151678696149,1
633,640,7,0.0700417299431452,1
634,636,7,0.0742197501358586,1
634,637,7,0.079375272356719,1
634,638,7,0.0703457225842029,1
634,639,7,0.06995868825441,1
634,640,7,0.0863392835096918,1
634,641,7,0.0876824790017001,1
635,631,7,0.0729328194545503,1
635,632,7,0.073191780783066,1
635,636,7,0.0790801705845623,1
635,637,7,0.085985233677894,1
635,638,7,0.0724958391567714,1
635,639,7,0.0722790521063031,1
635,640,7,0.0960134803646238,1
635,641,7,0.0976163740358934,1
635,642,7,0.072845732038137,1
636,632,7,0.0738973431775851,1
636,640,7,0.0783518144768871,1
636,641,7,0.0792857588939831,1
628,635,8,0.0706362642234438,1
632,626,8,0.074028182844869,1
632,627,8,0.073848154914611,1
633,626,8,0.0763111132886055,1
633,627,8,0.0749089627855338,1
633,639,8,0.0715316630048429,1
633,640,8,0.0760685017049336,1
633,641,8,0.0712097356946962,1
634,636,8,0.0835526530185967,1
634,637,8,0.0901759958273672,1
634,638,8,0.0735127348941148,1
634,639,8,0.0737088762208644,1
634,640,8,0.0914085385819499,1
634,641,8,0.0933043373759838,1
635,631,8,0.0712842410370588,1
635,632,8,0.0726346660080797,1
635,636,8,0.0901954041979471,1
635,637,8,0.0993658384427213,1
635,638,8,0.0760621550565312,1
635,639,8,0.0726080559641756,1
635,640,8,0.0974864658591746,1
635,641,8,0.104095127264412,1
635,642,8,0.0763396071679061,1
636,632,8,0.0781479640229982,1
636,637,8,0.0725496640183046,1
636,640,8,0.0743592026151584,1
636,641,8,0.0792829922279764,1
637,632,8,0.0804996092744651,1
657,624,8,0.0741234520851263,1
657,625,8,0.0767551562312659,1
657,626,8,0.0719623661684406,1
658,624,8,0.0719404274802062,1
658,625,8,0.0754743775585404,1
658,626,8,0.0709619731072278,1
627,635,9,0.0753898760711585,1
628,635,9,0.0728575286014873,1
629,632,9,0.070927521859164,1
629,633,9,0.0751592139821238,1
629,634,9,0.0698469649979769,1
630,633,9,0.0721997850397833,1
631,626,9,0.0720558002332564,1
631,627,9,0.0725981779933324,1
632,625,9,0.0732717012832659,1
632,626,9,0.078931312831124,1
632,627,9,0.0794523427738466,1
632,628,9,0.0734394460506246,1
633,626,9,0.0756586041477634,1
633,627,9,0.0762031577029654,1
633,636,9,0.0702120050281583,1
633,637,9,0.0715511061325335,1
633,639,9,0.0753335486976594,1
633,640,9,0.0800949252838905,1
633,641,9,0.0722502732186953,1
634,636,9,0.0864454386770009,1
634,637,9,0.0916478829972219,1
634,638,9,0.0738925953562721,1
634,639,9,0.0759705353128907,1
634,640,9,0.0911999333553258,1
634,641,9,0.0958351624842091,1
634,642,9,0.0754634290686896,1
635,632,9,0.0716644490703224,1
635,636,9,0.0903775106034213,1
635,637,9,0.0987424905177041,1
635,638,9,0.077775736222337,1
635,639,9,0.0750277764925371,1
635,640,9,0.0953063678029702,1
635,641,9,0.110084840994839,1
635,642,9,0.0893986043880046,1
636,632,9,0.079166298704722,1
636,637,9,0.0721641172928471,1
636,640,9,0.0716367615559885,1
636,641,9,0.0816522662859586,1
636,642,9,0.0721960799317893,1
637,632,9,0.0768108996853063,1
641,630,9,0.0721595919170421,1
646,632,9,0.087850501825944,1
646,633,9,0.0880812056235114,1
647,631,9,0.0743655492635608,1
647,632,9,0.100882068734327,1
647,633,9,0.0958513940548769,1
648,632,9,0.082721005729529,1
656,625,9,0.0742217938539641,1
656,626,9,0.0734996662205151,1
657,623,9,0.0779639042679063,1
657,624,9,0.0754896567843767,1
657,625,9,0.0810546942341902,1
657,626,9,0.0810752843465318,1
657,627,9,0.0715026616717269,1
658,623,9,0.0732986519468542,1
658,624,9,0.072704527800461,1
658,625,9,0.0766811722455629,1
658,626,9,0.0752839781064682,1
626,634,10,0.0792703684453929,1
627,635,10,0.0726701808237291,1
628,633,10,0.07054260771312,1
628,635,10,0.0706636389237819,1
629,632,10,0.0741629500656548,1
629,633,10,0.0778484202921021,1
629,634,10,0.0709744509099467,1
630,632,10,0.0703511585963066,1
630,633,10,0.0722198816011539,1
631,625,10,0.0705519504244594,1
631,626,10,0.0755432592004018,1
631,627,10,0.0750824285733035,1
631,628,10,0.0710541072561057,1
632,625,10,0.0740562457359977,1
632,626,10,0.0795475007913499,1
632,627,10,0.0793668333302562,1
632,628,10,0.073485540930752,1
632,631,10,0.0719930010857565,1
633,626,10,0.0716932488121966,1
633,627,10,0.0725483432481004,1
633,630,10,0.0707678129357847,1
633,631,10,0.0740454571288558,1
633,639,10,0.0727168735261595,1
633,640,10,0.0785471146815592,1
634,636,10,0.0781190947669027,1
634,637,10,0.0808623831410329,1
634,639,10,0.0733249352739183,1
634,640,10,0.0854398737577253,1
634,641,10,0.0885936436084843,1
634,642,10,0.0751231986640813,1
635,636,10,0.0769329249493325,1
635,637,10,0.0818751080250999,1
635,638,10,0.0710921593408317,1
635,639,10,0.0719284154227699,1
635,640,10,0.0867938022454984,1
635,641,10,0.103790849615047,1
635,642,10,0.0943502692035539,1
636,632,10,0.0712297835961119,1
636,640,10,0.0698552997531077,1
636,641,10,0.0796632975811498,1
636,642,10,0.0759714876577222,1
637,638,10,0.0698031154271966,1
637,639,10,0.0727988238416206,1
641,630,10,0.0767807096590066,1
646,632,10,0.0765948564370058,1
646,633,10,0.075679409754191,1
647,632,10,0.0906281580310725,1
647,633,10,0.0856731773871684,1
648,632,10,0.0715566533673912,1
649,643,10,0.0779128113152691,1
649,644,10,0.0796154022826913,1
655,626,10,0.0748921194897189,1
655,627,10,0.0730238969872648,1
656,625,10,0.0768163982602092,1
656,626,10,0.087406542300349,1
656,627,10,0.0793027551210849,1
657,623,10,0.0715321426529697,1
657,624,10,0.0727007948867786,1
657,625,10,0.0806390408994985,1
657,626,10,0.0873120238136814,1
657,627,10,0.0763122741761008,1
658,624,10,0.0700288767636314,1
658,625,10,0.074238908255242,1
658,626,10,0.0752991391581283,1
625,633,11,0.0714015532368825,1
625,634,11,0.0871835684841873,1
626,634,11,0.0731975782691204,1
626,635,11,0.0746948172754741,1
628,626,11,0.0701575197815229,1
628,633,11,0.071494598022059,1
629,632,11,0.0733287516046663,1
629,633,11,0.0759498965405942,1
630,626,11,0.0732218873923002,1
630,627,11,0.0711109420834202,1
630,633,11,0.0700083283598225,1
631,625,11,0.0715051780865371,1
631,626,11,0.0778285253219732,1
631,627,11,0.0757441344456202,1
631,628,11,0.0707120208217893,1
632,625,11,0.0713418544236515,1
632,626,11,0.0770202695683645,1
632,627,11,0.0765846656521669,1
632,628,11,0.0726745880253579,1
632,630,11,0.0709725809773944,1
632,631,11,0.0745887872337633,1
633,630,11,0.071151003129141,1
633,631,11,0.0753606453411124,1
633,640,11,0.0710027918579605,1
634,640,11,0.0732575134307037,1
634,641,11,0.0725088939275268,1
635,622,11,0.0711899797530098,1
635,623,11,0.0735627851334328,1
635,640,11,0.0732805226379457,1
635,641,11,0.0842647636527599,1
635,642,11,0.0836871143768089,1
636,641,11,0.0718689599093134,1
636,642,11,0.0700370099275206,1
637,638,11,0.0721381398283566,1
637,639,11,0.0777186998037808,1
641,630,11,0.0763091043276106,1
647,632,11,0.0702044001723508,1
655,626,11,0.0907751458519585,1
655,627,11,0.0940736512628343,1
656,625,11,0.0759399560069519,1
656,626,11,0.0963045920204792,1
656,627,11,0.09170273666923,1
657,624,11,0.0699404477227475,1
657,625,11,0.0807456201035573,1
657,626,11,0.0877282193592991,1
657,627,11,0.0751368929656724,1
658,625,11,0.0766380317198397,1
658,626,11,0.0753164760049143,1
625,634,12,0.0732751213829526,1
625,635,12,0.0738033043390443,1
626,634,12,0.0702178442227454,1
626,635,12,0.0725634139312728,1
628,633,12,0.0712301450700625,1
628,634,12,0.0700037890811733,1
629,626,12,0.0729967794895454,1
629,627,12,0.0716240543563395,1
629,632,12,0.0699222767053062,1
629,633,12,0.0723250496665208,1
630,626,12,0.0776109041008497,1
630,627,12,0.0756310695647164,1
631,626,12,0.0767806123390968,1
631,627,12,0.0750738018584432,1
631,628,12,0.0710624142055481,1
632,626,12,0.0727950492194053,1
632,627,12,0.0734080742825632,1
632,628,12,0.0719715211913825,1
632,630,12,0.071113388984009,1
632,631,12,0.071533414763219,1
633,631,12,0.0697749274104696,1
634,623,12,0.0715698610694335,1
634,624,12,0.0704377941702816,1
635,623,12,0.0734386883456127,1
635,624,12,0.0723605575307481,1
637,639,12,0.0732874462543847,1
655,626,12,0.0920770081879967,1
655,627,12,0.0989998460677084,1
656,626,12,0.0899884951183221,1
656,627,12,0.0892742990575206,1
657,625,12,0.0763677743303667,1
657,626,12,0.0786204452335822,1
658,625,12,0.0752806205695806,1
629,626,13,0.0711155925848235,1
629,627,13,0.072381981813745,1
630,626,13,0.0754779158324033,1
630,627,13,0.0775518726241429,1
630,628,13,0.071596658801735,1
631,626,13,0.0710517924325373,1
631,627,13,0.0733936083731159,1
631,628,13,0.0714351077514919,1
632,628,13,0.0697626581504145,1
634,623,13,0.071814850039473,1
634,624,13,0.077451445428667,1
635,624,13,0.0750660718770375,1
640,626,13,0.0704579950029841,1
645,623,13,0.0720610972169175,1
645,624,13,0.0757860654238933,1
646,623,13,0.0759604001394288,1
646,624,13,0.0762627591962866,1
655,626,13,0.0795779897288011,1
655,627,13,0.0852535895475525,1
656,626,13,0.074412012569061,1
656,627,13,0.0739818794220777,1
657,625,13,0.0701387300875123,1
658,625,13,0.0700737551448865,1
627,631,14,0.0708280261542531,1
627,632,14,0.0711336245738222,1
628,631,14,0.0713783493898208,1
629,627,14,0.0707427739132814,1
630,626,14,0.0699338855802591,1
630,627,14,0.0771504279962798,1
630,628,14,0.0735549161235845,1
630,629,14,0.0714262863968121,1
631,627,14,0.0715651132481204,1
631,628,14,0.0716816399372437,1
631,629,14,0.0721046200708578,1
634,624,14,0.0772759289713697,1
635,624,14,0.0701723402134987,1
638,626,14,0.0723734454673725,1
639,625,14,0.0699346085281604,1
639,626,14,0.0768889989129088,1
645,623,14,0.0705776984920197,1
645,624,14,0.0800716519226077,1
646,623,14,0.0708955105602668,1
646,624,14,0.0759173777878817,1
626,631,15,0.070235869260322,1
626,632,15,0.0737989318945261,1
626,633,15,0.0704214791825483,1
627,631,15,0.075813092553125,1
627,632,15,0.0761065468382374,1
627,633,15,0.0703942157049643,1
628,631,15,0.0763276229161583,1
628,632,15,0.0731334861571048,1
630,627,15,0.0745251678184524,1
630,628,15,0.0734828715846551,1
630,629,15,0.0735837784282579,1
630,630,15,0.0720694250206263,1
631,629,15,0.0718400350418409,1
631,630,15,0.0700860105020973,1
634,624,15,0.070172465339097,1
638,625,15,0.0715834719539591,1
638,626,15,0.081512494041241,1
638,627,15,0.0712857216899719,1
639,625,15,0.0718345851268929,1
639,626,15,0.0789663549500688,1
645,624,15,0.0723024297389179,1
657,621,15,0.082208400910425,1
626,631,16,0.0722789130778606,1
626,632,16,0.0736933536952537,1
626,633,16,0.070750441331888,1
627,631,16,0.0769974828066306,1
627,632,16,0.0769982613659088,1
627,633,16,0.07146859275188,1
628,631,16,0.0782023032897689,1
628,632,16,0.0748280204262812,1
630,627,16,0.0713091966424965,1
630,628,16,0.0747034231360679,1
630,629,16,0.0766454697415161,1
630,630,16,0.0735225294478925,1
631,629,16,0.0708827547006629,1
638,625,16,0.0709964591124024,1
638,626,16,0.0802757387248489,1
638,627,16,0.0729601246406671,1
639,626,16,0.0711231001207212,1
657,620,16,0.0804355171624495,1
658,621,16,0.102011667878624,1
659,621,16,0.079706160049988,1
626,631,17,0.0704184970224556,1
626,632,17,0.0706869957021303,1
626,633,17,0.0697631447499635,1
627,631,17,0.0725819186169762,1
627,632,17,0.0721490327068304,1
628,631,17,0.0728245719091808,1
628,632,17,0.0699646247689069,1
629,628,17,0.0701692120735414,1
629,629,17,0.0709706067735102,1
630,628,17,0.0743533078091942,1
630,629,17,0.0759806843891969,1
630,630,17,0.0699176818152799,1
658,620,17,0.0852476252273671,1
658,621,17,0.0757715647573353,1
662,623,17,0.0740575387005134,1
662,624,17,0.074518654335919,1
663,625,17,0.0816533646106547,1
626,632,18,0.0701215322691689,1
626,633,18,0.0701405583115318,1
626,634,18,0.0716340226956703,1
626,635,18,0.0723044665056013,1
627,634,18,0.0700505304435586,1
627,635,18,0.0731194790415179,1
629,628,18,0.0730638259559651,1
629,629,18,0.0754340036988239,1
630,628,18,0.071071784722576,1
630,629,18,0.0723521741156623,1
662,623,18,0.0720780100269537,1
662,624,18,0.0741743712522103,1
663,623,18,0.117397174007776,1
663,624,18,0.129326884897574,1
663,625,18,0.0801812549952919,1
664,625,18,0.0877459941456791,1
626,634,19,0.0701828090552228,1
626,635,19,0.0739732249015289,1
627,635,19,0.0720141334090241,1
628,629,19,0.0722306702082958,1
629,628,19,0.0705805833322026,1
629,629,19,0.0751072938102535,1
641,619,19,0.0701368532035379,1
642,618,19,0.0705070720432042,1
642,619,19,0.0736898084699686,1
662,623,19,0.0698921283875392,1
662,624,19,0.0705015873711457,1
663,623,19,0.110675426867369,1
663,624,19,0.120816453426695,1
663,625,19,0.0739465801005142,1
664,624,19,0.126523098296668,1
664,625,19,0.0803607129089355,1
626,635,20,0.070472711163628,1
628,629,20,0.0702500640643063,1
629,629,20,0.0698103657604756,1
640,618,20,0.0711407150243923,1
640,619,20,0.0725974272397426,1
641,618,20,0.0816017224956695,1
641,619,20,0.0888903650619967,1
641,620,20,0.0776007897816542,1
642,618,20,0.0777193949459936,1
642,619,20,0.0855415591606063,1
642,620,20,0.0759328447021154,1
661,620,20,0.0751489884401743,1
662,621,20,0.0723811476430897,1
663,622,20,0.0785694009409,1
663,623,20,0.0975047272451036,1
663,624,20,0.100369797583485,1
664,624,20,0.103450306396443,1
664,625,20,0.0715032942511405,1
639,618,21,0.0764212377179493,1
639,619,21,0.0745344827241033,1
640,617,21,0.0743052317737605,1
640,618,21,0.094786116419526,1
640,619,21,0.0978137110072488,1
640,620,21,0.0801308432820233,1
641,617,21,0.0732247861353274,1
641,618,21,0.0977357716623553,1
641,619,21,0.107351625231371,1
641,620,21,0.0917946900811325,1
642,618,21,0.0810641759739721,1
642,619,21,0.0907630434260345,1
642,620,21,0.0820043558167165,1
663,623,21,0.0806201608370002,1
663,624,21,0.0768961449748559,1
664,624,21,0.078031548556629,1
639,617,22,0.0731815135325837,1
639,618,22,0.0945532507296769,1
639,619,22,0.0987181744431021,1
639,620,22,0.0792814212065756,1
640,617,22,0.081508462216407,1
640,618,22,0.116007278861915,1
640,619,22,0.125429792527299,1
640,620,22,0.0991310472089428,1
641,617,22,0.0746983903064476,1
641,618,22,0.104827633371097,1
641,619,22,0.117507882356579,1
641,620,22,0.0988450309455069,1
642,618,22,0.0757904795769442,1
642,619,22,0.0852918988348972,1
642,620,22,0.078508061592047,1
662,622,22,0.0699059756204172,1
638,618,23,0.0759906527285277,1
638,619,23,0.0797782115403395,1
639,617,23,0.0761634928883059,1
639,618,23,0.104756763622507,1
639,619,23,0.116948181652561,1
639,620,23,0.0922899232963399,1
640,617,23,0.0824761418850878,1
640,618,23,0.118485697198721,1
640,619,23,0.133638852043262,1
640,620,23,0.104461251716445,1
641,617,23,0.0727759536628211,1
641,618,23,0.0971253533824953,1
641,619,23,0.109333725931118,1
641,620,23,0.0913601358296761,1
642,619,23,0.0754438191068679,1
642,620,23,0.0699007272967109,1
638,618,24,0.0792891650908256,1
638,619,24,0.0905250475866553,1
638,620,24,0.0767851933262788,1
639,617,24,0.0748360284645721,1
639,618,24,0.103690053994198,1
639,619,24,0.122912765991997,1
639,620,24,0.0974900458415703,1
640,617,24,0.0762907873303047,1
640,618,24,0.105201884035598,1
640,619,24,0.122460409148472,1
640,620,24,0.097047156834983,1
641,618,24,0.0818134975707838,1
641,619,24,0.0907223776065887,1
641,620,24,0.077356801816401,1
638,619,25,0.0890223378110873,1
638,620,25,0.0787260859956539,1
639,618,25,0.0896989405810232,1
639,619,25,0.105345792376481,1
639,620,25,0.087852851406623,1
640,618,25,0.0826963003752878,1
640,619,25,0.0947791024345993,1
640,620,25,0.0803769444796032,1
641,619,25,0.0716974266168952,1
638,619,26,0.0802873267455355,1
638,620,26,0.0755471519967932,1
639,619,26,0.0829129901058462,1
639,620,26,0.075136594054521,1
640,619,26,0.0727183611304948,1
632,623,27,0.0735293348901553,1
638,619,27,0.0707381373147224,1
638,620,27,0.06993284286694,1
642,620,27,0.0713151957197925,1
653,617,27,0.0755903828910041,1
654,616,27,0.075775965007542,1
654,617,27,0.088469046318271,1
654,618,27,0.0740742707735743,1
655,617,27,0.0738887442684134,1
632,623,28,0.0703623712401982,1
641,620,28,0.0709126180101226,1
642,619,28,0.0701602586418412,1
642,620,28,0.0746939274934418,1
653,617,28,0.0821825694257992,1
654,616,28,0.0800499773884141,1
654,617,28,0.099272480843549,1
654,618,28,0.0787852982093359,1
655,617,28,0.0783428818994533,1
653,617,29,0.080061968591584,1
654,616,29,0.0764586016118846,1
654,617,29,0.0936932763954396,1
654,618,29,0.0751606737807706,1
655,617,29,0.0722607559632636,1
628,630,30,0.0697968452444376,1
632,624,30,0.0741359646449558,1
633,624,30,0.0731446570924637,1
653,617,30,0.0711572733119,1
654,617,30,0.0744376772195557,1
660,621,30,0.0743386194542388,1
666,655,30,0.073668022713021,1
629,626,31,0.0701817385362151,1
629,627,31,0.069972153159071,1
630,626,31,0.0727959529042819,1
631,624,31,0.0734851168940023,1
631,625,31,0.073132839674847,1
631,631,31,0.0707421135281793,1
632,623,31,0.0713747416017367,1
632,624,31,0.0810504121581596,1
632,625,31,0.0751089204430314,1
633,624,31,0.0750006103348628,1
650,616,31,0.0711387755776187,1
650,617,31,0.0778093741540119,1
650,618,31,0.0724258174816811,1
651,616,31,0.0725142673768314,1
651,617,31,0.077879326314881,1
651,618,31,0.0721412332112033,1
658,620,31,0.0723355532653555,1
658,621,31,0.0727058207649768,1
659,620,31,0.0758948273745001,1
659,621,31,0.0819845234093867,1
660,620,31,0.0712560043603769,1
660,621,31,0.0793521936352557,1
625,634,32,0.0791493511375752,1
628,627,32,0.0775330968329766,1
629,626,32,0.0744820411955734,1
629,627,32,0.0787082486464747,1
629,631,32,0.0748604001505511,1
629,632,32,0.0739164039770587,1
630,625,32,0.0717463090172958,1
630,626,32,0.0772367577076813,1
630,627,32,0.0720581984738903,1
630,631,32,0.0858108363995593,1
630,632,32,0.0850968975413765,1
630,633,32,0.0712087207870656,1
631,624,32,0.0752129901837022,1
631,625,32,0.0782648521860721,1
631,626,32,0.0746014874819903,1
631,631,32,0.0822901009746895,1
631,632,32,0.0781823249025744,1
632,624,32,0.0776597934526724,1
632,625,32,0.0751112908779769,1
638,620,32,0.070156435359671,1
648,616,32,0.0705941177510848,1
648,617,32,0.0744558621398413,1
649,616,32,0.0779598237831174,1
649,617,32,0.0903520475441682,1
649,618,32,0.0844406068268971,1
650,616,32,0.0822986929324391,1
650,617,32,0.0957471922371856,1
650,618,32,0.090515927320824,1
651,616,32,0.0766499186516777,1
651,617,32,0.0843274793831942,1
651,618,32,0.079334599585851,1
658,620,32,0.090490353038817,1
658,621,32,0.0901622737200875,1
659,620,32,0.0848058136912096,1
659,621,32,0.0903521170583895,1
660,621,32,0.0744105249647257,1
672,629,32,0.0713064160736455,1
625,634,33,0.093331114254019,1
627,627,33,0.0725099435922681,1
628,626,33,0.0724650999681236,1
628,627,33,0.0844029926817652,1
628,628,33,0.0740519914656556,1
629,626,33,0.0727209401081041,1
629,627,33,0.0798171325528314,1
629,631,33,0.0802556213092119,1
629,632,33,0.0872386028931708,1
629,633,33,0.0732094860552248,1
630,625,33,0.0708020486897626,1
630,626,33,0.0723307915411981,1
630,630,33,0.0718301014596207,1
630,631,33,0.0965643666653839,1
630,632,33,0.101745546585317,1
630,633,33,0.0814577515919869,1
631,624,33,0.0715730934807228,1
631,625,33,0.0758236031033818,1
631,626,33,0.0706358957980711,1
631,631,33,0.0876361130161097,1
631,632,33,0.0885070705973085,1
631,633,33,0.0710272817181157,1
637,620,33,0.0700930175356018,1
647,616,33,0.0731126875020993,1
647,617,33,0.072809535983119,1
648,616,33,0.0878122481499763,1
648,617,33,0.0894093999465686,1
648,618,33,0.0745029858304436,1
649,615,33,0.0701788050360773,1
649,616,33,0.0925191811981049,1
649,617,33,0.103059956238295,1
649,618,33,0.0925258128548145,1
650,616,33,0.0866246046309151,1
650,617,33,0.0996531059621402,1
650,618,33,0.0945528823043041,1
650,619,33,0.0725701151022037,1
651,616,33,0.0738628293667221,1
651,617,33,0.0810303503538997,1
651,618,33,0.0788540408227548,1
651,661,33,0.0784038945314664,1
657,620,33,0.0746105451850224,1
658,619,33,0.0705934851716712,1
658,620,33,0.0949483626119818,1
658,621,33,0.0940668458205715,1
659,620,33,0.0847150211668023,1
659,621,33,0.088870212889249,1
667,624,33,0.0858812890628215,1
667,625,33,0.0714717278432596,1
628,627,34,0.0780583115318198,1
628,628,34,0.0709397702649526,1
629,631,34,0.0789509645014785,1
629,632,34,0.0904273175429648,1
629,633,34,0.0794953720768158,1
630,631,34,0.0953738939175168,1
630,632,34,0.105480969731172,1
630,633,34,0.085486309257537,1
631,631,34,0.0851594325348355,1
631,632,34,0.0915463783313161,1
631,633,34,0.0748498826488722,1
647,616,34,0.0794313077704887,1
647,617,34,0.0778522991856492,1
648,615,34,0.0828591513414688,1
648,616,34,0.107115589693032,1
648,617,34,0.1023134986274,1
648,618,34,0.0772299036054635,1
649,615,34,0.0824584088072405,1
649,616,34,0.107133566070654,1
649,617,34,0.10864100976469,1
649,618,34,0.0880256498578684,1
650,615,34,0.0720362875913445,1
650,616,34,0.0863503710279852,1
650,617,34,0.0928265522303165,1
650,618,34,0.0861466109425839,1
650,619,34,0.0739731970958404,1
650,661,34,0.0816748236507623,1
651,617,34,0.0728516268441011,1
651,618,34,0.07312144629398,1
651,619,34,0.071103462353211,1
651,660,34,0.0712583400382117,1
651,661,34,0.0909480207688473,1
651,662,34,0.0747599242951202,1
654,615,34,0.0717645773546469,1
655,615,34,0.0754669047797534,1
655,616,34,0.0708122255717572,1
656,615,34,0.0759433135438394,1
656,616,34,0.0730076723680192,1
656,617,34,0.071316314898755,1
657,616,34,0.0702093009249507,1
658,620,34,0.0804656585287944,1
658,621,34,0.0815431706670896,1
659,620,34,0.0722929201934475,1
659,621,34,0.0770154661356744,1
666,624,34,0.072088492771522,1
667,624,34,0.120111940696917,1
667,625,34,0.0915227226418162,1
670,629,34,0.0712653748774047,1
671,629,34,0.0717344846482569,1
628,632,35,0.0708280539599416,1
628,633,35,0.0767667373005303,1
629,631,35,0.0733362938976746,1
629,632,35,0.0837810837011284,1
629,633,35,0.0794387875006979,1
630,631,35,0.0835961619696927,1
630,632,35,0.0943558233898338,1
630,633,35,0.0804936380028575,1
631,631,35,0.0734842340633921,1
631,632,35,0.0819817289376915,1
631,633,35,0.0702646620507741,1
647,615,35,0.0782761830041399,1
647,616,35,0.0894159134291021,1
647,617,35,0.0852980230377915,1
648,614,35,0.074740884349913,1
648,615,35,0.103651292864415,1
648,616,35,0.126266994002647,1
648,617,35,0.114240811276564,1
648,618,35,0.0810046092377616,1
649,615,35,0.0960744165309934,1
649,616,35,0.116250098988251,1
649,617,35,0.108403048682422,1
649,618,35,0.082634154661468,1
650,615,35,0.0768267558791792,1
650,616,35,0.0852906128218036,1
650,617,35,0.0841765918144947,1
650,618,35,0.078263427144536,1
650,619,35,0.0752938560773114,1
650,661,35,0.0874734775440147,1
650,662,35,0.0746965273253174,1
651,619,35,0.0725560245695513,1
651,661,35,0.0899292759532179,1
651,662,35,0.0760227961044453,1
653,614,35,0.0719302784039001,1
653,615,35,0.0725949733877316,1
654,614,35,0.0766717252628917,1
654,615,35,0.0785042383098768,1
654,616,35,0.0745406764412189,1
655,614,35,0.0756368740021929,1
655,615,35,0.080531884727403,1
655,616,35,0.0810141813460311,1
655,617,35,0.0758758569435142,1
656,614,35,0.0742745064879569,1
656,615,35,0.0820494914005903,1
656,616,35,0.0875613574225506,1
656,617,35,0.0828358501744974,1
657,615,35,0.0784429615238229,1
657,616,35,0.082004001294188,1
657,617,35,0.0765991176587699,1
666,624,35,0.0848477029609499,1
667,625,35,0.104577834016945,1
668,626,35,0.0721691014625125,1
670,629,35,0.0740254856930835,1
671,629,35,0.070223002177964,1
627,633,36,0.0725200092515087,1
628,632,36,0.0721447506307999,1
628,633,36,0.0806380398947121,1
628,634,36,0.0709992396812534,1
629,632,36,0.0752980130277436,1
629,633,36,0.0767063850536194,1
629,634,36,0.0698780656605753,1
630,631,36,0.0697730227208066,1
630,632,36,0.0784992402373672,1
630,633,36,0.0724739977884468,1
647,614,36,0.0741227360886472,1
647,615,36,0.0908119536321236,1
647,616,36,0.0978629131730673,1
647,617,36,0.0902901173244343,1
647,618,36,0.0728504520537615,1
648,614,36,0.0812055400943569,1
648,615,36,0.113526100810525,1
648,616,36,0.128088975645109,1
648,617,36,0.112951753460084,1
648,618,36,0.0859167274128275,1
648,619,36,0.0722631472524754,1
649,614,36,0.0724496469567341,1
649,615,36,0.0976746130504776,1
649,616,36,0.109848979242053,1
649,617,36,0.100738806875702,1
649,618,36,0.0853667934568988,1
649,619,36,0.0805561243363616,1
649,620,36,0.0726669970723947,1
650,615,36,0.0764686603197031,1
650,616,36,0.0807647017572973,1
650,617,36,0.0782602016846688,1
650,618,36,0.0779577453079013,1
650,619,36,0.081514294459572,1
650,620,36,0.0759627149629973,1
650,661,36,0.0884905053583786,1
650,662,36,0.0824361851106989,1
651,615,36,0.0714806673721155,1
651,616,36,0.0699751214163195,1
651,619,36,0.0720886317999645,1
651,661,36,0.0819864141962054,1
651,662,36,0.075839097823304,1
652,614,36,0.0745372215844215,1
652,615,36,0.0795577958475207,1
652,616,36,0.0751709340798308,1
653,613,36,0.0724566609416608,1
653,614,36,0.0816339909971854,1
653,615,36,0.0881802633888283,1
653,616,36,0.0816624501193754,1
654,613,36,0.0735584752517138,1
654,614,36,0.0810117970082414,1
654,615,36,0.0869221602550827,1
654,616,36,0.0830879643522175,1
655,614,36,0.0745452782826673,1
655,615,36,0.0830090935167589,1
655,616,36,0.0879261193958469,1
655,617,36,0.0790565705064395,1
656,614,36,0.0724112820580124,1
656,615,36,0.0839543896061891,1
656,616,36,0.0967408076618241,1
656,617,36,0.0902623046845022,1
656,618,36,0.0699593903480449,1
657,615,36,0.0771945347696788,1
657,616,36,0.0860720777945329,1
657,617,36,0.0814627496644966,1
666,625,36,0.070943989778184,1
670,629,36,0.0751835161538816,1
627,633,37,0.0720617436991754,1
628,632,37,0.0724418335582628,1
628,633,37,0.0787423036634773,1
628,634,37,0.071993028891445,1
629,632,37,0.0699951832205794,1
629,633,37,0.0763155343930786,1
629,634,37,0.0757378295057505,1
629,635,37,0.0733347645848066,1
629,637,37,0.0702999266152269,1
633,618,37,0.0726858145720938,1
634,617,37,0.074154837756032,1
634,618,37,0.0744426613892211,1
634,619,37,0.0697812462531835,1
635,617,37,0.070829006304773,1
635,618,37,0.0725205028024797,1
636,661,37,0.0706742467939485,1
636,662,37,0.0754069765695922,1
646,615,37,0.0734183901930004,1
646,616,37,0.0747952514223722,1
646,617,37,0.0723684404434407,1
647,614,37,0.0801088142253013,1
647,615,37,0.0964419521217186,1
647,616,37,0.0992377167814893,1
647,617,37,0.0898877273031619,1
647,618,37,0.0757054636843249,1
647,619,37,0.0699177165723906,1
648,614,37,0.0836711191544935,1
648,615,37,0.108223667234422,1
648,616,37,0.11316820684229,1
648,617,37,0.101079072037421,1
648,618,37,0.0881227542735675,1
648,619,37,0.0858707089983435,1
648,620,37,0.0755121098778485,1
649,614,37,0.0747494554533962,1
649,615,37,0.0918082592571254,1
649,616,37,0.0955431749491656,1
649,617,37,0.0903208078531272,1
649,618,37,0.08632686131835,1
649,619,37,0.0892345577772177,1
649,620,37,0.0792771738876557,1
649,662,37,0.0714860477728422,1
650,615,37,0.075788234267597,1
650,616,37,0.0762426765377602,1
650,617,37,0.0756392444371383,1
650,618,37,0.0760018167124645,1
650,619,37,0.0805990980279538,1
650,620,37,0.0744266105555287,1
650,661,37,0.0799649684472169,1
650,662,37,0.080126248391997,1
651,614,37,0.0705750291459227,1
651,615,37,0.0773865608545289,1
651,616,37,0.0733292660099037,1
652,613,37,0.0705334735444445,1
652,614,37,0.0818932303825863,1
652,615,37,0.0937164732910791,1
652,616,37,0.084420809176678,1
653,613,37,0.073795650823282,1
653,614,37,0.0878841258547747,1
653,615,37,0.102057533361821,1
653,616,37,0.0910303117039927,1
654,613,37,0.0733346325077861,1
654,614,37,0.0821491608910544,1
654,615,37,0.0917569716646687,1
654,616,37,0.0864295199203289,1
654,617,37,0.0704401159452722,1
655,614,37,0.0732089646985652,1
655,615,37,0.0819782323723613,1
655,616,37,0.0867651067749561,1
655,617,37,0.0771719287449202,1
656,614,37,0.0703846505481169,1
656,615,37,0.0799998298291863,1
656,616,37,0.0921857353814929,1
656,617,37,0.0852879434757066,1
657,615,37,0.0704963668531279,1
657,616,37,0.0779486528477585,1
657,617,37,0.0740772181765563,1
666,625,37,0.0713688885043053,1
670,629,37,0.0712631712765903,1
627,630,38,0.0749836210591832,1
627,631,38,0.0736864092245483,1
628,630,38,0.0698725531828282,1
628,631,38,0.0715565629989036,1
628,632,38,0.0723649577809548,1
628,633,38,0.0773152253606565,1
628,634,38,0.0701514859471162,1
629,633,38,0.0780560940281612,1
629,634,38,0.07663270693049,1
629,635,38,0.0776694489780075,1
629,636,38,0.0733823123121587,1
629,637,38,0.0723944804707303,1
629,638,38,0.0737596911166164,1
629,639,38,0.0720302607083599,1
630,635,38,0.0731970777667272,1
630,636,38,0.0719179187753574,1
632,618,38,0.0746898331058087,1
633,617,38,0.0780887587607383,1
633,618,38,0.0781480335372195,1
633,619,38,0.072746889766906,1
634,617,38,0.0772869886839746,1
634,618,38,0.0797217798955085,1
634,619,38,0.0745285531610285,1
635,617,38,0.0732290682113579,1
635,618,38,0.0759964849716927,1
635,619,38,0.0729136057237899,1
636,618,38,0.0704990779077576,1
636,661,38,0.0721850619277172,1
636,662,38,0.075990506748663,1
646,614,38,0.0729550292482476,1
646,615,38,0.0786387205223554,1
646,616,38,0.0769448744439696,1
646,617,38,0.0701692329278078,1
647,614,38,0.0801141112089624,1
647,615,38,0.0917950307008168,1
647,616,38,0.0892628292110103,1
647,617,38,0.0810564320897221,1
647,618,38,0.076454256973055,1
647,619,38,0.0785892611539183,1
647,620,38,0.0725683285867169,1
648,614,38,0.0792278326933947,1
648,615,38,0.0925175267596385,1
648,616,38,0.0900145351456117,1
648,617,38,0.0849523496696573,1
648,618,38,0.0868638795319658,1
648,619,38,0.0942328110238655,1
648,620,38,0.0838385511078565,1
648,662,38,0.0719300420555478,1
649,614,38,0.0724554235885221,1
649,615,38,0.08072821374255,1
649,616,38,0.0792174125116256,1
649,617,38,0.0791885571583743,1
649,618,38,0.0822565047515473,1
649,619,38,0.0887871781519361,1
649,620,38,0.0785577086488815,1
649,661,38,0.0713945879119107,1
649,662,38,0.0796723483327598,1
650,615,38,0.0719566381966076,1
650,616,38,0.0698346679322333,1
650,617,38,0.0706604621238697,1
650,619,38,0.0727390416113241,1
650,661,38,0.0709740477274633,1
650,662,38,0.0727652137156341,1
651,614,38,0.072540745343715,1
651,615,38,0.0800116402953809,1
651,616,38,0.0730063307435486,1
652,613,38,0.0704131374759954,1
652,614,38,0.084056714539906,1
652,615,38,0.100207495779653,1
652,616,38,0.0881984483091138,1
653,613,38,0.0723953285442298,1
653,614,38,0.0867373288921346,1
653,615,38,0.105447707176292,1
653,616,38,0.0940840922988698,1
653,617,38,0.071391279034978,1
654,613,38,0.072091766891344,1
654,614,38,0.0803439669330303,1
654,615,38,0.0918876584006657,1
654,616,38,0.086109483397001,1
654,617,38,0.0720119020025212,1
655,614,38,0.0716978645564893,1
655,615,38,0.0793947224358317,1
655,616,38,0.0807794735293182,1
655,617,38,0.0733041157646464,1
656,615,38,0.0741422348277148,1
656,616,38,0.080343897418809,1
656,617,38,0.0751413488272562,1
627,629,39,0.071443289575336,1
627,630,39,0.0786563562802929,1
627,631,39,0.0724865451053869,1
628,632,39,0.0718131677953181,1
628,633,39,0.0772289721148984,1
629,633,39,0.075876121097555,1
629,634,39,0.0710983183008366,1
629,635,39,0.0716808822322318,1
629,636,39,0.073124880296511,1
629,637,39,0.0736499698697559,1
629,638,39,0.0730677674123114,1
629,639,39,0.0718391105026979,1
630,636,39,0.0739827483498436,1
630,637,39,0.0707700373908655,1
632,618,39,0.079509671152132,1
632,619,39,0.0747173746402778,1
633,617,39,0.0819394086797792,1
633,618,39,0.0824959256324626,1
633,619,39,0.0774633254090829,1
634,617,39,0.0802735768325673,1
634,618,39,0.0828796024253679,1
634,619,39,0.0783968874979618,1
634,620,39,0.0701950088010565,1
635,617,39,0.0756708386507078,1
635,618,39,0.0783438759528175,1
635,619,39,0.0765851035917609,1
636,617,39,0.0715548390462159,1
636,618,39,0.075204857019813,1
636,619,39,0.0764934004310549,1
636,661,39,0.0706730372464983,1
637,618,39,0.0741039324917923,1
637,619,39,0.0770335398332059,1
645,614,39,0.0726436124883578,1
645,615,39,0.0765118842624919,1
645,616,39,0.071557515343735,1
646,614,39,0.0752219366639803,1
646,615,39,0.0807653482395551,1
646,616,39,0.0757125610863171,1
647,614,39,0.0780148512406787,1
647,615,39,0.0816854106666625,1
647,616,39,0.076950129719098,1
647,617,39,0.0744898823997332,1
647,618,39,0.0790253864267755,1
647,619,39,0.0843650170626827,1
647,620,39,0.0793744798945964,1
647,662,39,0.0794855080088168,1
647,663,39,0.0743250989382009,1
648,614,39,0.0780577276123611,1
648,615,39,0.079780804420793,1
648,616,39,0.0748284792201416,1
648,617,39,0.0752997508832755,1
648,618,39,0.0821115119888119,1
648,619,39,0.0883069669599462,1
648,620,39,0.081080087779222,1
648,661,39,0.0742608677977428,1
648,662,39,0.0947553424737676,1
648,663,39,0.0852220231396715,1
649,614,39,0.0750120662785289,1
649,615,39,0.0756213097680494,1
649,616,39,0.0714624129376087,1
649,617,39,0.0719100845226197,1
649,618,39,0.074374502695261,1
649,619,39,0.0772746012497433,1
649,620,39,0.0708030705488153,1
649,661,39,0.0735591078311274,1
649,662,39,0.0856773969003998,1
649,663,39,0.0766202986419924,1
650,614,39,0.0728153404205955,1
650,615,39,0.0733301349376697,1
651,613,39,0.0709805542585747,1
651,614,39,0.0783909926919977,1
651,615,39,0.0831688024401382,1
651,616,39,0.0749238874888416,1
652,613,39,0.0726165227963269,1
652,614,39,0.0858787726480113,1
652,615,39,0.0981630547262663,1
652,616,39,0.0890079761729718,1
652,617,39,0.0698322071288002,1
653,613,39,0.0738489265224671,1
653,614,39,0.0874475973994341,1
653,615,39,0.100890813623364,1
653,616,39,0.0934857486392452,1
653,617,39,0.0748882405961718,1
654,613,39,0.0738305191566735,1
654,614,39,0.0831253143433086,1
654,615,39,0.0907054578451303,1
654,616,39,0.0854452124499192,1
654,617,39,0.0739534967655311,1
655,614,39,0.0730057885326226,1
655,615,39,0.0772282978269521,1
655,616,39,0.0751433647396731,1
626,630,40,0.0727930194041441,1
627,629,40,0.077094281359756,1
627,630,40,0.0837635939230557,1
627,631,40,0.0742774469395169,1
628,632,40,0.0698045404687327,1
628,633,40,0.0756087763539535,1
629,637,40,0.073700242554582,1
629,638,40,0.0713930585990426,1
630,637,40,0.0718605139314285,1
631,619,40,0.078464719475082,1
631,620,40,0.0714855959304039,1
632,618,40,0.0833649229126214,1
632,619,40,0.0792529620843856,1
632,620,40,0.0727753141319854,1
633,617,40,0.0861648931827792,1
633,618,40,0.0848868325161056,1
633,619,40,0.0819721776836883,1
633,620,40,0.0753385884787018,1
634,617,40,0.0830226070813748,1
634,618,40,0.0836306757805557,1
634,619,40,0.0818534960537055,1
634,620,40,0.0751501145705589,1
635,617,40,0.078132198197613,1
635,618,40,0.0799426265764991,1
635,619,40,0.0798161384994671,1
635,620,40,0.0715722245529568,1
635,660,40,0.070789967118105,1
636,617,40,0.0746484582413058,1
636,618,40,0.077838875989521,1
636,619,40,0.0799911822600597,1
636,660,40,0.0702988491447971,1
637,617,40,0.0743320086517956,1
637,618,40,0.0764496620830287,1
637,619,40,0.0804427118843515,1
637,620,40,0.0707276198130434,1
638,619,40,0.0698351823374707,1
644,615,40,0.0713240309773166,1
645,614,40,0.0743175566451925,1
645,615,40,0.0838927652490289,1
645,616,40,0.0755531232684007,1
645,618,40,0.0769694338183461,1
645,619,40,0.0835151153391082,1
646,614,40,0.073745767418095,1
646,615,40,0.0804204117221664,1
646,616,40,0.0729728874516932,1
646,618,40,0.0831104104942672,1
646,619,40,0.0920083907001761,1
646,620,40,0.0795156702294281,1
647,614,40,0.0749065853991662,1
647,615,40,0.072493746778711,1
647,617,40,0.0707232821256359,1
647,618,40,0.0815474805488087,1
647,619,40,0.0867545962246993,1
647,620,40,0.079927569796171,1
647,661,40,0.0738730410058274,1
647,662,40,0.0991395696524712,1
647,663,40,0.0887002714724981,1
648,613,40,0.0748602611221086,1
648,614,40,0.0781497018785301,1
648,615,40,0.0711457339511683,1
648,617,40,0.0699092497402393,1
648,618,40,0.0751439695133982,1
648,619,40,0.0764333470952954,1
648,620,40,0.073100946550126,1
648,661,40,0.0817519913877997,1
648,662,40,0.108225043616003,1
648,663,40,0.0964270621755215,1
648,664,40,0.0702739561021585,1
649,613,40,0.0740376993417615,1
649,614,40,0.0776662374209846,1
649,615,40,0.0731580107743706,1
649,661,40,0.071534123808276,1
649,662,40,0.0838676011009273,1
649,663,40,0.0770748660377539,1
650,613,40,0.0717817195616133,1
650,614,40,0.0766213830638443,1
650,615,40,0.0762746878366574,1
650,616,40,0.0708146446666576,1
651,613,40,0.0727855118682464,1
651,614,40,0.08073987822888,1
651,615,40,0.0844831356274732,1
651,616,40,0.0786048253880618,1
651,617,40,0.0700406802784039,1
652,613,40,0.0730598636453525,1
652,614,40,0.0841373579880071,1
652,615,40,0.0929411742297769,1
652,616,40,0.0896381782002067,1
652,617,40,0.079428158776265,1
652,618,40,0.0704513842005409,1
653,613,40,0.0747074271552133,1
653,614,40,0.0870934850048371,1
653,615,40,0.0967554890653574,1
653,616,40,0.0943959748040422,1
653,617,40,0.0851948291763088,1
653,618,40,0.076331258509931,1
654,613,40,0.0742934908217871,1
654,614,40,0.0837156499646423,1
654,615,40,0.0896172613710251,1
654,616,40,0.0864545728456764,1
654,617,40,0.0802572201363013,1
654,618,40,0.0745108687431362,1
655,614,40,0.0717134148877885,1
655,615,40,0.0745094923615549,1
655,616,40,0.0722740192766828,1
626,630,41,0.0769230539299114,1
627,629,41,0.0763287838036536,1
627,630,41,0.0897162357192764,1
627,631,41,0.0810362938198187,1
628,630,41,0.0720160798072198,1
628,631,41,0.0701005598286102,1
629,637,41,0.0702156892818858,1
631,620,41,0.0740661167554187,1
632,619,41,0.0809940778332384,1
632,620,41,0.0757676302524111,1
632,621,41,0.0708222286681987,1
633,618,41,0.0847827627754348,1
633,619,41,0.084034039000926,1
633,620,41,0.0796910407068606,1
633,621,41,0.0734609537506871,1
634,617,41,0.0836148334895272,1
634,618,41,0.0825176627294553,1
634,619,41,0.0830832304337487,1
634,620,41,0.0776814262783332,1
634,621,41,0.0702416597949542,1
635,617,41,0.0792904580553413,1
635,618,41,0.0800323277276324,1
635,619,41,0.0804475083656194,1
635,620,41,0.0729600412236016,1
635,660,41,0.0712393487529594,1
636,617,41,0.0771994563765451,1
636,618,41,0.077762542423139,1
636,619,41,0.0780383539988918,1
637,618,41,0.0757913206990217,1
637,619,41,0.0764794280725786,1
637,620,41,0.0704154662024081,1
644,615,41,0.072579833190338,1
644,618,41,0.0723447847539408,1
644,619,41,0.0793456801527222,1
645,614,41,0.0728500836283888,1
645,615,41,0.0859460554627834,1
645,616,41,0.0783212421223704,1
645,617,41,0.0740234767320886,1
645,618,41,0.0944983066891811,1
645,619,41,0.108773538627551,1
645,620,41,0.0815096926181236,1
646,614,41,0.071013392776705,1
646,615,41,0.0793331745443148,1
646,616,41,0.0731087529971752,1
646,617,41,0.0732808006948308,1
646,618,41,0.0927634263659767,1
646,619,41,0.104865094584942,1
646,620,41,0.0820959408032463,1
646,662,41,0.0796135045444505,1
646,663,41,0.071587336944662,1
647,613,41,0.0725022761736614,1
647,614,41,0.0726372588885332,1
647,617,41,0.0706392533349587,1
647,618,41,0.0776639643059489,1
647,619,41,0.079638063918827,1
647,620,41,0.0705804234494936,1
647,661,41,0.0827885318440755,1
647,662,41,0.104638638106295,1
647,663,41,0.0920251505789256,1
648,612,41,0.0703699274360508,1
648,613,41,0.0787066011594305,1
648,614,41,0.0776552541740231,1
648,661,41,0.0806634612454324,1
648,662,41,0.100955239403641,1
648,663,41,0.0909145913798362,1
649,612,41,0.0716656794720389,1
649,613,41,0.0768107954139744,1
649,614,41,0.0787505550015427,1
649,615,41,0.073483358184204,1
649,619,41,0.0709247065332023,1
649,620,41,0.0753348069050645,1
649,662,41,0.0745862221589983,1
649,663,41,0.0705430456527141,1
650,613,41,0.0737109616475026,1
650,614,41,0.0786158920520887,1
650,615,41,0.0786074599770481,1
650,616,41,0.073629143409062,1
650,619,41,0.0744950334035297,1
650,620,41,0.0787175566007034,1
650,621,41,0.0700363495424185,1
651,613,41,0.0729420926516684,1
651,614,41,0.0791671398267995,1
651,615,41,0.0820358596617983,1
651,616,41,0.0803549293257254,1
651,617,41,0.0776839913530982,1
651,618,41,0.0768267211220685,1
651,619,41,0.0760800341142431,1
651,620,41,0.0724943793581246,1
652,613,41,0.0726893250402682,1
652,614,41,0.080292915688926,1
652,615,41,0.0864033825731295,1
652,616,41,0.0891339498447664,1
652,617,41,0.0930255714458268,1
652,618,41,0.0936207174512728,1
652,619,41,0.0842089228788097,1
652,620,41,0.0703038958772617,1
653,613,41,0.0741623800490403,1
653,614,41,0.083740876675543,1
653,615,41,0.0915159241509755,1
653,616,41,0.0935054489695546,1
653,617,41,0.0966752001397848,1
653,618,41,0.0967790960949024,1
653,619,41,0.084883530590595,1
654,614,41,0.0805118368259873,1
654,615,41,0.0867010702743176,1
654,616,41,0.0857126892705411,1
654,617,41,0.0848847401380452,1
654,618,41,0.0830826048057572,1
654,619,41,0.0748906457882279,1
655,615,41,0.0731715799503635,1
655,616,41,0.0716923868358528,1
655,617,41,0.0703484405902547,1
655,618,41,0.0698074253089156,1
626,630,42,0.0727846568433247,1
627,630,42,0.08770678812488,1
627,631,42,0.0827015347961498,1
628,630,42,0.0708804329256723,1
631,620,42,0.0759024878416846,1
631,621,42,0.0707602775941984,1
632,619,42,0.0818135323278945,1
632,620,42,0.0769680921938755,1
632,621,42,0.0716422462280471,1
633,618,42,0.0838736210324897,1
633,619,42,0.083850681339469,1
633,620,42,0.0806122153615084,1
633,621,42,0.073549820731165,1
634,618,42,0.0800931387684038,1
634,619,42,0.0814432717796953,1
634,620,42,0.07707890481401,1
635,618,42,0.0788281676295962,1
635,619,42,0.0788531371378782,1
635,620,42,0.0727819596915393,1
636,617,42,0.0777390952763029,1
636,618,42,0.0766145845730036,1
636,619,42,0.0751143981636678,1
637,618,42,0.0744178100551153,1
637,619,42,0.0722757779864811,1
637,620,42,0.0697501942505399,1
644,618,42,0.0794536913497393,1
644,619,42,0.08851576682639,1
645,615,42,0.0798714996252905,1
645,616,42,0.0763068381639971,1
645,617,42,0.0788658095804166,1
645,618,42,0.104874722304589,1
645,619,42,0.120638566534452,1
645,620,42,0.0842988603782953,1
646,615,42,0.073753615573677,1
646,616,42,0.071558384271501,1
646,617,42,0.0762545634695983,1
646,618,42,0.0944896660714766,1
646,619,42,0.103734056496265,1
646,620,42,0.0751633778839782,1
646,661,42,0.0761406088066622,1
646,662,42,0.0870700726151117,1
646,663,42,0.0735608387352371,1
647,617,42,0.0708085552208739,1
647,618,42,0.073051334250402,1
647,619,42,0.0713511345721917,1
647,661,42,0.0853089228676874,1
647,662,42,0.0987706646315869,1
647,663,42,0.0840326973764554,1
648,613,42,0.0775338475865663,1
648,614,42,0.0727288160693745,1
648,661,42,0.0751379912903686,1
648,662,42,0.0856005767344688,1
648,663,42,0.0768406726262784,1
649,613,42,0.0769669799663351,1
649,614,42,0.0758210727857274,1
649,615,42,0.073254475659234,1
649,619,42,0.0778071010389762,1
649,620,42,0.0865473187197015,1
649,621,42,0.0756498662101492,1
650,613,42,0.0746439050598123,1
650,614,42,0.0773057505722967,1
650,615,42,0.0788609574877716,1
650,616,42,0.0750771732981751,1
650,618,42,0.0720452966344217,1
650,619,42,0.0854781830450699,1
650,620,42,0.0925133350520956,1
650,621,42,0.0772847711803159,1
651,613,42,0.0724915501293187,1
651,614,42,0.076407369630805,1
651,615,42,0.0791953278435265,1
651,616,42,0.0806799569701409,1
651,617,42,0.0834719331048521,1
651,618,42,0.0903769683924953,1
651,619,42,0.0907362248394666,1
651,620,42,0.0841781836901619,1
652,614,42,0.0768621733749188,1
652,615,42,0.0820835950775478,1
652,616,42,0.0902910071064666,1
652,617,42,0.104569534018925,1
652,618,42,0.115615246459613,1
652,619,42,0.104290503934727,1
652,620,42,0.0822406833147851,1
653,614,42,0.078065193439726,1
653,615,42,0.0854389700728487,1
653,616,42,0.0942247195685091,1
653,617,42,0.107017810989386,1
653,618,42,0.114432044899291,1
653,619,42,0.100125990355208,1
653,620,42,0.0773966751737244,1
654,615,42,0.0805712089223783,1
654,616,42,0.0840621992119645,1
654,617,42,0.0873125938302959,1
654,618,42,0.0873196286694889,1
654,619,42,0.0790860097791494,1
655,616,42,0.0702077785635047,1
655,617,42,0.0697835332710634,1
670,642,42,0.0739069987029202,1
671,642,42,0.0743761432308831,1
627,630,43,0.0782132378767754,1
627,631,43,0.0773621057514843,1
632,620,43,0.0753231493701567,1
632,621,43,0.0701778874483565,1
633,619,43,0.0798850201413285,1
633,620,43,0.0766777034859213,1
633,621,43,0.0709338128961894,1
634,618,43,0.0777548332959996,1
634,619,43,0.0766414587709485,1
634,620,43,0.0733531302420674,1
635,618,43,0.076393362515218,1
635,619,43,0.0746462198833807,1
635,620,43,0.0705799924613217,1
636,618,43,0.0750443000229341,1
636,619,43,0.0716166510917737,1
640,619,43,0.0704933151788139,1
640,620,43,0.0770259975401976,1
641,619,43,0.069954162878605,1
641,620,43,0.0779589131468187,1
641,621,43,0.0708985135746259,1
643,619,43,0.0704050321177947,1
644,616,43,0.0703542311248869,1
644,617,43,0.0735436061597831,1
644,618,43,0.0855530290071167,1
644,619,43,0.0925708789244671,1
644,620,43,0.0722775992590785,1
645,615,43,0.0736028044706208,1
645,616,43,0.0757336447496298,1
645,617,43,0.0827098973569692,1
645,618,43,0.1027652506972,1
645,619,43,0.111424943104,1
645,620,43,0.0814711469824266,1
646,615,43,0.0699097432912103,1
646,616,43,0.0720194025869968,1
646,617,43,0.0789130027852402,1
646,618,43,0.090309727286256,1
646,619,43,0.0917692965361008,1
646,661,43,0.0796649798253046,1
646,662,43,0.0868525973738528,1
646,663,43,0.071112513104821,1
647,617,43,0.0719876554421405,1
647,618,43,0.0720966745953661,1
647,660,43,0.0736783525263025,1
647,661,43,0.0820941542877595,1
647,662,43,0.0862688099921632,1
647,663,43,0.0714085741732312,1
648,614,43,0.0704874203728498,1
648,662,43,0.0712024853614172,1
649,613,43,0.0756991309387668,1
649,614,43,0.0730073665054456,1
649,615,43,0.0733300654234484,1
649,616,43,0.0697815590671792,1
649,619,43,0.0776737449568823,1
649,620,43,0.0866527926476421,1
649,621,43,0.0770798432559972,1
650,614,43,0.0740537779811424,1
650,615,43,0.0761463367784952,1
650,616,43,0.0738550159682508,1
650,617,43,0.0707307757586893,1
650,618,43,0.0742996706360585,1
650,619,43,0.0867348611372794,1
650,620,43,0.0912130923974131,1
650,621,43,0.077836964348436,1
651,614,43,0.0723680998237564,1
651,615,43,0.0757432655178542,1
651,616,43,0.0787939666327289,1
651,617,43,0.0867882133021079,1
651,618,43,0.0969943121239698,1
651,619,43,0.0990177737853752,1
651,620,43,0.0872066472056506,1
651,621,43,0.0704606226405483,1
652,614,43,0.0731827230800339,1
652,615,43,0.0791931311941342,1
652,616,43,0.0896809781062458,1
652,617,43,0.109718466291609,1
652,618,43,0.124404124095231,1
652,619,43,0.116585275708973,1
652,620,43,0.0895372435509154,1
653,615,43,0.0803607824231568,1
653,616,43,0.0929468674444993,1
653,617,43,0.110678826112789,1
653,618,43,0.118756774856005,1
653,619,43,0.106561832454933,1
653,620,43,0.0823554304398437,1
654,616,43,0.0812844109298155,1
654,617,43,0.087196852651873,1
654,618,43,0.0872270982895497,1
654,619,43,0.0806564125033951,1
654,620,43,0.0700892498648087,1
670,641,43,0.0771242976005025,1
670,642,43,0.0786634397794408,1
671,641,43,0.0742928651937956,1
671,642,43,0.0764938244678047,1
633,620,44,0.0717965469450113,1
634,619,44,0.072270376731488,1
635,619,44,0.070456569961448,1
640,619,44,0.0767608007860335,1
640,620,44,0.0872947495296946,1
640,621,44,0.0715893180999684,1
641,619,44,0.0743982418018264,1
641,620,44,0.0854384695704555,1
641,621,44,0.073042721438386,1
642,620,44,0.0697388286753615,1
643,617,44,0.0713815678982659,1
643,618,44,0.0742509481183668,1
643,619,44,0.0754251336841892,1
643,620,44,0.0716087890333475,1
644,616,44,0.0726965336650144,1
644,617,44,0.0815107978942418,1
644,618,44,0.0895847287154684,1
644,619,44,0.0910636159674055,1
644,620,44,0.0792537197893975,1
645,616,44,0.0761787304056094,1
645,617,44,0.0873486091483385,1
645,618,44,0.0968382040372525,1
645,619,44,0.0946878302620653,1
645,620,44,0.0766330127930636,1
645,662,44,0.0720112416174191,1
646,616,44,0.073811138591782,1
646,617,44,0.0818504304765472,1
646,618,44,0.085878042748688,1
646,619,44,0.0798876894874255,1
646,660,44,0.0723766709272396,1
646,661,44,0.081347404717135,1
646,662,44,0.0839884307203475,1
647,615,44,0.0706338312256992,1
647,616,44,0.0733615623171081,1
647,617,44,0.0752224371663734,1
647,618,44,0.0730924588637083,1
647,660,44,0.0763524742502641,1
647,661,44,0.0806351063945743,1
647,662,44,0.0779362237049945,1
648,614,44,0.0704508767467256,1
648,615,44,0.0732214077441734,1
648,616,44,0.0734375691666502,1
648,617,44,0.0701403011089131,1
649,614,44,0.0721215120266276,1
649,615,44,0.0740218222936223,1
649,616,44,0.0725583880530746,1
649,619,44,0.0756636369773837,1
649,621,44,0.0764632660161322,1
650,615,44,0.0732308130183119,1
650,616,44,0.0727439215096576,1
650,617,44,0.0751625576161672,1
650,618,44,0.0806800751443171,1
650,619,44,0.0884204975861326,1
650,620,44,0.0851708467699689,1
650,621,44,0.0764036506199667,1
651,615,44,0.0732370275896939,1
651,616,44,0.0773703431867054,1
651,617,44,0.0903747856459473,1
651,618,44,0.103876560649879,1
651,619,44,0.10694701770644,1
651,620,44,0.0878764514847459,1
651,621,44,0.0711338261650639,1
652,615,44,0.0757896176006004,1
652,616,44,0.086276595584946,1
652,617,44,0.107396552272581,1
652,618,44,0.122810302029838,1
652,619,44,0.120438421188557,1
652,620,44,0.0922995093074537,1
652,621,44,0.0702787873405372,1
653,616,44,0.0872034912600048,1
653,617,44,0.104345357606735,1
653,618,44,0.111362873855824,1
653,619,44,0.105066338255533,1
653,620,44,0.0845046224732693,1
654,617,44,0.0837881950059649,1
654,618,44,0.0851514314479668,1
654,619,44,0.0825031481600531,1
654,620,44,0.0744640161579968,1
655,619,44,0.0711734006112358,1
670,641,44,0.0757693263994103,1
670,642,44,0.0712223316715912,1
671,641,44,0.0710448966217868,1
671,642,44,0.0697652927394009,1
640,620,45,0.0801592467928363,1
641,620,45,0.0778283445849979,1
642,620,45,0.0718105193034875,1
643,617,45,0.0749186461165574,1
643,618,45,0.0766540756021099,1
643,619,45,0.0766120751096156,1
643,620,45,0.0798414555788555,1
643,621,45,0.0812785439295399,1
643,622,45,0.0720023924570508,1
644,616,45,0.0753762304295223,1
644,617,45,0.0868113962949031,1
644,618,45,0.0880718142522172,1
644,619,45,0.0841383172842607,1
644,620,45,0.0838739686035961,1
644,621,45,0.083871945739757,1
644,622,45,0.0729236018688092,1
645,616,45,0.0806185203013781,1
645,617,45,0.0905066193665953,1
645,618,45,0.0886594527217654,1
645,619,45,0.079290659646583,1
645,620,45,0.0727738821390271,1
645,621,45,0.0706230287157131,1
645,662,45,0.0713570710866886,1
646,615,45,0.073407956108387,1
646,616,45,0.0847949694726907,1
646,617,45,0.0881296917928507,1
646,618,45,0.0813908302511654,1
646,619,45,0.0707807912408967,1
646,660,45,0.0748888453698968,1
646,661,45,0.084135717452385,1
646,662,45,0.0800506864334711,1
647,615,45,0.076690174337218,1
647,616,45,0.085880281106613,1
647,617,45,0.083273198897649,1
647,618,45,0.0738386801262512,1
647,660,45,0.0786875890199118,1
647,661,45,0.0852667068811071,1
647,662,45,0.0758286567872685,1
648,614,45,0.0714427334615658,1
648,615,45,0.0758459102169889,1
648,616,45,0.08089570130729,1
648,617,45,0.0771843787419505,1
648,618,45,0.0699191485653488,1
648,661,45,0.0698766545218834,1
649,615,45,0.0727709972988442,1
649,616,45,0.0739751087369255,1
649,617,45,0.0731430999739071,1
649,618,45,0.0728335600979917,1
649,619,45,0.0728103701537744,1
650,615,45,0.0715666773180991,1
650,616,45,0.0736627952435812,1
650,617,45,0.0800533349253017,1
650,618,45,0.0882392879141129,1
650,619,45,0.089594085329652,1
650,620,45,0.0792628817637615,1
651,615,45,0.0715352916471934,1
651,616,45,0.077715383975426,1
651,617,45,0.0922807821762422,1
651,618,45,0.108330879017894,1
651,619,45,0.109491696998965,1
651,620,45,0.0878243922844331,1
651,621,45,0.0714296369822775,1
652,616,45,0.0815537576829898,1
652,617,45,0.0987011156532012,1
652,618,45,0.114150832068545,1
652,619,45,0.114315156736217,1
652,620,45,0.0910936391595742,1
652,621,45,0.0716843023319185,1
653,616,45,0.0796203238895576,1
653,617,45,0.0920806298789251,1
653,618,45,0.100166767397408,1
653,619,45,0.0991586513062111,1
653,620,45,0.0848544041318808,1
654,617,45,0.0785476429896409,1
654,618,45,0.0828754454749356,1
654,619,45,0.0835179445679141,1
654,620,45,0.0778782557958733,1
655,619,45,0.0723852420307228,1
660,625,45,0.0763581813678308,1
660,626,45,0.076941078967488,1
661,625,45,0.0776372221850244,1
661,626,45,0.077086808580969,1
662,625,45,0.0714341623580825,1
662,626,45,0.0717109957928881,1
642,620,46,0.0734893850671886,1
642,621,46,0.0751745001593822,1
643,617,46,0.0743488728018769,1
643,618,46,0.0756780889839868,1
643,619,46,0.0748991543289119,1
643,620,46,0.0856175799129927,1
643,621,46,0.0956902739928057,1
643,622,46,0.0812458235855858,1
644,616,46,0.0727515680739978,1
644,617,46,0.0836186915288079,1
644,618,46,0.082459743480289,1
644,619,46,0.0783102380211426,1
644,620,46,0.0882000610390474,1
644,621,46,0.09885621578371,1
644,622,46,0.0840618585922803,1
645,616,46,0.0805797591715951,1
645,617,46,0.08798451829314,1
645,618,46,0.0821471519300596,1
645,619,46,0.0730796960526822,1
645,620,46,0.0738504627867573,1
645,621,46,0.0772466495813687,1
646,615,46,0.0763092503074753,1
646,616,46,0.0939625466829704,1
646,617,46,0.0933629170102523,1
646,618,46,0.0795322841283128,1
646,660,46,0.0751127506766236,1
646,661,46,0.0845835072115722,1
646,662,46,0.0740092888795264,1
647,615,46,0.0807832203458449,1
647,616,46,0.0989337380432759,1
647,617,46,0.0943513953339385,1
647,618,46,0.0772377100525127,1
647,660,46,0.0795536110914,1
647,661,46,0.0888830660687628,1
647,662,46,0.0734219354182854,1
648,615,46,0.0748012226939797,1
648,616,46,0.0853457167450083,1
648,617,46,0.0834882480925854,1
648,618,46,0.0737198038564488,1
648,661,46,0.0702508704292731,1
649,616,46,0.0722886172631506,1
649,617,46,0.0745349484693858,1
649,618,46,0.0754712216128945,1
649,619,46,0.0708573403013647,1
650,616,46,0.0723043900399579,1
650,617,46,0.079953797511858,1
650,618,46,0.0898752077919102,1
650,619,46,0.0873102929095717,1
650,620,46,0.0741112870964032,1
651,616,46,0.0761424787392145,1
651,617,46,0.0883204318646072,1
651,618,46,0.103437272479954,1
651,619,46,0.102169555529406,1
651,620,46,0.0828840930440622,1
652,616,46,0.0757340757378017,1
652,617,46,0.0876143272591621,1
652,618,46,0.100444553177045,1
652,619,46,0.0999422851226442,1
652,620,46,0.0831678014353519,1
653,617,46,0.0824484821764424,1
653,618,46,0.0911915082317073,1
653,619,46,0.0910674809581084,1
653,620,46,0.0804770102011286,1
654,618,46,0.0823872262446549,1
654,619,46,0.083302311453519,1
659,625,46,0.0774426796853642,1
659,626,46,0.0807660920417228,1
659,627,46,0.0764075781734688,1
660,624,46,0.0706228549301599,1
660,625,46,0.086783090104,1
660,626,46,0.0897108205614391,1
660,627,46,0.0815480853225338,1
661,625,46,0.0837001760989865,1
661,626,46,0.0882213671478682,1
661,627,46,0.0809372012973912,1
662,625,46,0.073786551411717,1
662,626,46,0.0809222418369728,1
662,627,46,0.0791914002900245,1
662,628,46,0.0729604513575071,1
663,626,46,0.0699381746077118,1
663,627,46,0.0725850119998229,1
663,628,46,0.0723875012429143,1
666,631,46,0.0720571835662597,1
642,620,47,0.0730575766274725,1
642,621,47,0.0758374155791491,1
643,619,47,0.0743054333650022,1
643,620,47,0.0861176513180008,1
643,621,47,0.0969605143095859,1
643,622,47,0.0797960558409408,1
644,617,47,0.0755917314668969,1
644,618,47,0.0756567481180554,1
644,619,47,0.0770103220833,1
644,620,47,0.0906254330735985,1
644,621,47,0.101981630783611,1
644,622,47,0.0836791341442065,1
645,616,47,0.0769447493183713,1
645,617,47,0.0807052810009514,1
645,618,47,0.0754612463221416,1
645,620,47,0.077434435298721,1
645,621,47,0.0797484246965232,1
646,615,47,0.0766322272823632,1
646,616,47,0.093945348864627,1
646,617,47,0.0923932909433758,1
646,618,47,0.0768762569561491,1
646,660,47,0.0725019703110878,1
646,661,47,0.0799387615857962,1
647,615,47,0.0813401126753232,1
647,616,47,0.100734872370778,1
647,617,47,0.0984563908372026,1
647,618,47,0.0795646569011606,1
647,660,47,0.0764941303303783,1
647,661,47,0.0853234443885118,1
648,616,47,0.0840363399216502,1
648,617,47,0.0858581686328254,1
648,618,47,0.0778443537101575,1
649,616,47,0.0713104896070122,1
649,617,47,0.0761920979903605,1
649,618,47,0.0793646505837081,1
649,619,47,0.0729123127592741,1
650,616,47,0.0712447500079524,1
650,617,47,0.0781587109216073,1
650,618,47,0.0872251727456204,1
650,619,47,0.0831271217130618,1
650,620,47,0.07032375609028,1
651,616,47,0.0734357131369421,1
651,617,47,0.0815631212485955,1
651,618,47,0.0917367708319662,1
651,619,47,0.0889669488795753,1
651,620,47,0.0752791399166675,1
652,617,47,0.0797117142362678,1
652,618,47,0.0878767156387868,1
652,619,47,0.0850921636229077,1
652,620,47,0.0742437464450427,1
653,618,47,0.0857463619593267,1
653,619,47,0.082552753508355,1
653,633,47,0.070707641425849,1
654,632,47,0.0697963655963108,1
654,633,47,0.0799308508674151,1
655,633,47,0.073715014326603,1
658,625,47,0.0709767309764045,1
658,626,47,0.0761589883667673,1
658,627,47,0.0772704303964669,1
659,625,47,0.083274450153632,1
659,626,47,0.0911554164480213,1
659,627,47,0.0892017818218866,1
659,628,47,0.0732286163689196,1
660,624,47,0.0700677560675905,1
660,625,47,0.0879161302022497,1
660,626,47,0.096977531390954,1
660,627,47,0.0926160353626073,1
660,628,47,0.0764283490227858,1
661,625,47,0.0809865981030292,1
661,626,47,0.0915128168652845,1
661,627,47,0.0880682551240879,1
661,628,47,0.0762940058387497,1
662,625,47,0.0714208364818641,1
662,626,47,0.0832363702632175,1
662,627,47,0.0842052942364591,1
662,628,47,0.0778305203801238,1
662,629,47,0.0712726599677943,1
663,627,47,0.073185399377553,1
663,628,47,0.0730114539416565,1
663,629,47,0.0712130098145183,1
666,632,47,0.0698772801498749,1
635,624,48,0.0713615408511166,1
637,639,48,0.0699326621299647,1
643,620,48,0.0843715027395276,1
643,621,48,0.08757909745182,1
644,619,48,0.0767131835444601,1
644,620,48,0.0892820359903485,1
644,621,48,0.0926587518515808,1
645,620,48,0.0776871751044326,1
646,616,48,0.0854351745963671,1
646,617,48,0.0850492872512253,1
646,661,48,0.0707304351390051,1
647,616,48,0.0913680117909466,1
647,617,48,0.092256834527013,1
647,661,48,0.0732802515324827,1
648,617,48,0.0838388430675858,1
648,618,48,0.0806651156838987,1
649,617,48,0.0785077557294733,1
649,618,48,0.0840817744166756,1
649,619,48,0.0771400425716213,1
650,617,48,0.076979840097271,1
650,618,48,0.084588679069635,1
650,619,48,0.0800701295611617,1
651,617,48,0.0755941575132194,1
651,618,48,0.0813163805201799,1
651,619,48,0.0780383192417811,1
652,618,48,0.0804542929536159,1
652,619,48,0.0761846182601514,1
653,632,48,0.0803982575398461,1
653,633,48,0.0785299933288592,1
654,632,48,0.0789667094725973,1
654,633,48,0.0809376531398295,1
655,633,48,0.0729767524423961,1
658,625,48,0.0709002931386905,1
658,626,48,0.0783208250370427,1
658,627,48,0.0814820815694331,1
658,628,48,0.0729139115863635,1
659,625,48,0.080014754532494,1
659,626,48,0.0934501226008418,1
659,627,48,0.0964673526181725,1
659,628,48,0.082766697427173,1
660,625,48,0.0800508949761349,1
660,626,48,0.0958405637392022,1
660,627,48,0.0990740594503416,1
660,628,48,0.0875233053378247,1
660,629,48,0.0738738543222163,1
661,625,48,0.072319989031212,1
661,626,48,0.0873300627541023,1
661,627,48,0.091482911847292,1
661,628,48,0.0844592783467316,1
661,629,48,0.0777051097735216,1
662,626,48,0.0784669369787407,1
662,627,48,0.0840432704895114,1
662,628,48,0.0800061695261666,1
662,629,48,0.0776914710833074,1
663,628,48,0.0700650172072723,1
663,629,48,0.0721873767512857,1
663,650,48,0.0698149884561904,1
663,651,48,0.0730441395285001,1
664,649,48,0.0738165050896644,1
664,650,48,0.0764544516128745,1
664,651,48,0.0713196029214214,1
665,648,48,0.0747729999201421,1
665,650,48,0.0717288887534443,1
635,624,49,0.0720111234432429,1
644,620,49,0.0816459822003553,1
649,618,49,0.0826007600295675,1
650,618,49,0.0777779606774178,1
652,632,49,0.0725849216313353,1
653,632,49,0.0870133003505964,1
653,633,49,0.0772973254486782,1
654,632,49,0.0776988395907626,1
654,633,49,0.0728714383971644,1
658,626,49,0.0745501234238902,1
658,627,49,0.0778195232303181,1
658,628,49,0.0743362142621827,1
659,625,49,0.0720376361672372,1
659,626,49,0.085600208309096,1
659,627,49,0.0908599184448034,1
659,628,49,0.0823971737297194,1
659,629,49,0.0718314778412019,1
660,626,49,0.0849355272281088,1
660,627,49,0.0934373806440821,1
660,628,49,0.0889521910103987,1
660,629,49,0.0805748306133067,1
661,626,49,0.0766875188939653,1
661,627,49,0.0872066402542285,1
661,628,49,0.0875659523125769,1
661,629,49,0.0856168778193578,1
661,630,49,0.0716838018295253,1
662,627,49,0.0766107612908335,1
662,628,49,0.0778152411542875,1
662,629,49,0.0789500538651798,1
662,630,49,0.0708438823481259,1
662,650,49,0.0704020430062799,1
662,651,49,0.0767052589232347,1
663,631,49,0.0723953007385413,1
663,632,49,0.0709031154160743,1
663,650,49,0.0889879977857774,1
664,631,49,0.0769035829965323,1
664,632,49,0.0801498415186978,1
664,648,49,0.073519887907484,1
664,649,49,0.07813519426055,1
664,650,49,0.0850249155652463,1
664,651,49,0.0831656395430702,1
665,632,49,0.0714982058101432,1
665,650,49,0.070372443850861,1
653,632,50,0.0832138476555244,1
653,633,50,0.0744922945432115,1
654,632,50,0.0756486358084326,1
654,633,50,0.0714686414118349,1
655,632,50,0.0697701239777795,1
658,627,50,0.0724408186506322,1
659,626,50,0.0735086127007932,1
659,627,50,0.0791650057402063,1
659,628,50,0.0775562659229275,1
659,629,50,0.0726213609861276,1
660,626,50,0.0711831951650134,1
660,627,50,0.081616084133785,1
660,628,50,0.0862677116674671,1
660,629,50,0.0849728285592449,1
660,630,50,0.0748001104664393,1
661,627,50,0.0775185475064637,1
661,628,50,0.0862467114212199,1
661,629,50,0.0890259942591263,1
661,630,50,0.079494294606386,1
662,628,50,0.0727328617970527,1
662,629,50,0.0764230450877025,1
662,630,50,0.0740873603014404,1
662,650,50,0.0763013465405163,1
663,631,50,0.0800030344347871,1
663,632,50,0.0854036846541295,1
663,649,50,0.0755920581837369,1
664,631,50,0.0825107391130163,1
664,632,50,0.092474643436534,1
664,633,50,0.0714314721577192,1
664,650,50,0.0856124080549298,1
665,632,50,0.0724192831448812,1
654,633,51,0.072866127510659,1
655,633,51,0.0726158832654912,1
660,628,51,0.0778958150881674,1
660,629,51,0.0811157833318467,1
661,628,51,0.0767508254952805,1
661,629,51,0.081703922303788,1
661,630,51,0.0777355291967515,1
663,631,51,0.0766930661288231,1
663,632,51,0.0833604670510377,1
664,631,51,0.0748835136291251,1
664,632,51,0.083722288572774,1
655,653,55,0.0711295927489883,1
