x,y,z,signal,cytoplasm.p
90,323,21,0.06984975251825,1
91,322,21,0.0713520104513797,1
91,323,21,0.0733684998363913,1
92,322,21,0.0700049013087137,1
92,323,21,0.0722391578947134,1
92,330,21,0.0716439701807347,1
92,331,21,0.0748444952967234,1
93,329,21,0.0735194777735785,1
93,330,21,0.0754194960808438,1
93,331,21,0.0775455468300069,1
93,332,21,0.0701367697864723,1
90,322,22,0.0722619446564474,1
90,323,22,0.074960931617359,1
90,324,22,0.073178858089331,1
90,325,22,0.0707736590817939,1
90,326,22,0.0700809846238991,1
91,322,22,0.0748734827269951,1
91,323,22,0.0780312357426332,1
91,324,22,0.074445052678433,1
91,325,22,0.0710143173158479,1
91,326,22,0.0708973109785978,1
92,322,22,0.071634933331969,1
92,323,22,0.0750400874611249,1
92,324,22,0.0705865059438552,1
92,328,22,0.0711498283388014,1
92,329,22,0.0746868439942938,1
92,330,22,0.0807903316506814,1
92,331,22,0.0838301954984592,1
92,332,22,0.0765263084634065,1
93,328,22,0.0709100529353576,1
93,329,22,0.0761158686953104,1
93,330,22,0.0808276538360839,1
93,331,22,0.0846986436162699,1
93,332,22,0.0779735041818643,1
94,331,22,0.071889543070233,1
89,323,23,0.0709523106304706,1
89,324,23,0.0708786047016527,1
90,322,23,0.0736073159435816,1
90,323,23,0.0772857791365244,1
90,324,23,0.0772379950608199,1
90,325,23,0.0732872933230979,1
90,326,23,0.0718393190453618,1
91,319,23,0.0704484298461367,1
91,321,23,0.0702893187450603,1
91,322,23,0.0756613986194587,1
91,323,23,0.0787877103528141,1
91,324,23,0.077484054549867,1
91,325,23,0.0729901756385243,1
91,326,23,0.0733769805713869,1
91,327,23,0.0718462843703335,1
91,328,23,0.0708249536256727,1
91,329,23,0.0709720943778455,1
91,330,23,0.0725314095837978,1
91,331,23,0.0699649653885912,1
92,322,23,0.0716277038529564,1
92,323,23,0.0743940918028163,1
92,324,23,0.0710825733297178,1
92,328,23,0.0735053524838154,1
92,329,23,0.0779602964798221,1
92,330,23,0.0836460245206132,1
92,331,23,0.0840706590926937,1
92,332,23,0.0783961645500606,1
93,329,23,0.074818629054987,1
93,330,23,0.0804798046728238,1
93,331,23,0.0834839590651327,1
93,332,23,0.0805063591053509,1
94,331,23,0.0722800948196223,1
94,332,23,0.0722720937327535,1
89,323,24,0.0722736091427773,1
89,324,24,0.0726019943240804,1
90,319,24,0.0754355469145362,1
90,320,24,0.0751118608945913,1
90,321,24,0.0734670849050035,1
90,322,24,0.0737891999035476,1
90,323,24,0.0766985855579923,1
90,324,24,0.0773213495635508,1
90,325,24,0.0737073330051521,1
90,326,24,0.0720563076870717,1
90,327,24,0.0705257644173051,1
91,318,24,0.0741018609679983,1
91,319,24,0.0794410328100451,1
91,320,24,0.0777826042273989,1
91,321,24,0.0752257460433061,1
91,322,24,0.0749887234030248,1
91,323,24,0.0765279837561392,1
91,324,24,0.0763227152121363,1
91,325,24,0.0720022186714976,1
91,326,24,0.072896331439803,1
91,327,24,0.0755272292209758,1
91,328,24,0.0766808316258787,1
91,329,24,0.0783062479048414,1
91,330,24,0.0778505752329616,1
91,331,24,0.0738595621983222,1
92,328,24,0.0747172147575689,1
92,329,24,0.0809613783435506,1
92,330,24,0.0844722288461551,1
92,331,24,0.082629087074737,1
92,332,24,0.0756239165513472,1
93,329,24,0.0735545963581666,1
93,330,24,0.0786826535102012,1
93,331,24,0.0809145535640998,1
93,332,24,0.0798253699880525,1
93,333,24,0.0717141725928004,1
94,331,24,0.0715894849340994,1
94,332,24,0.0759535668914775,1
94,333,24,0.0713547284574316,1
89,319,25,0.0779186088013235,1
89,320,25,0.0808106854146707,1
89,321,25,0.076632268990896,1
89,322,25,0.0734727920225702,1
89,323,25,0.0730833316464549,1
89,324,25,0.0735458723233966,1
90,318,25,0.0778993742162967,1
90,319,25,0.0884499507616868,1
90,320,25,0.0905901893634121,1
90,321,25,0.0841129445934953,1
90,322,25,0.0787883846407605,1
90,323,25,0.0765090202765754,1
90,324,25,0.0759373422722319,1
90,325,25,0.0711562236471587,1
90,326,25,0.0698152595616533,1
90,327,25,0.0723251747921191,1
90,328,25,0.0743994374464323,1
90,329,25,0.0750052816905325,1
90,330,25,0.0732348378917238,1
91,318,25,0.0773856780239187,1
91,319,25,0.0854922179663453,1
91,320,25,0.0871775207469364,1
91,321,25,0.08197074569073,1
91,322,25,0.077374847708244,1
91,323,25,0.0746204787672426,1
91,324,25,0.0733795804032626,1
91,327,25,0.0757934339313484,1
91,328,25,0.0808282655612311,1
91,329,25,0.0841195971044713,1
91,330,25,0.0832764730174711,1
91,331,25,0.0780908858959093,1
92,320,25,0.0700914882227338,1
92,328,25,0.0751686748676394,1
92,329,25,0.0814537128157308,1
92,330,25,0.0838129490201609,1
92,331,25,0.0815586167270569,1
92,332,25,0.0734278858356266,1
93,329,25,0.0726361119038822,1
93,330,25,0.0766512255190377,1
93,331,25,0.0792736773223255,1
93,332,25,0.078382011454609,1
93,333,25,0.0744930591996455,1
94,331,25,0.0718036860555362,1
94,332,25,0.0777290365684844,1
94,333,25,0.0762967307962237,1
89,318,26,0.0752192881721497,1
89,319,26,0.0857286149786352,1
89,320,26,0.0906442436218756,1
89,321,26,0.0836838680626754,1
89,322,26,0.0764762790783549,1
89,323,26,0.0726736356805264,1
89,324,26,0.0729688208697486,1
90,318,26,0.0811934446198551,1
90,319,26,0.0936463890531896,1
90,320,26,0.0991777051542626,1
90,321,26,0.0913387671580562,1
90,322,26,0.0822940980424128,1
90,323,26,0.0761559992552524,1
90,324,26,0.0741095005809164,1
90,327,26,0.0723703242788372,1
90,328,26,0.0772510637344196,1
90,329,26,0.0790310657386537,1
90,330,26,0.0781442172064715,1
90,331,26,0.0731773496307293,1
91,318,26,0.0757208680357594,1
91,319,26,0.0857145870087819,1
91,320,26,0.0907834528014009,1
91,321,26,0.0854260751848022,1
91,322,26,0.0779101141634837,1
91,323,26,0.0721860768353478,1
91,324,26,0.0697611427403907,1
91,327,26,0.0729341749818651,1
91,328,26,0.0804419402764953,1
91,329,26,0.0843803310456296,1
91,330,26,0.0832982031630417,1
91,331,26,0.0774803841989837,1
92,328,26,0.0737638411156265,1
92,329,26,0.0780281423597865,1
92,330,26,0.0798050718354402,1
92,331,26,0.0783521133880386,1
92,332,26,0.0718955699532175,1
93,329,26,0.0703594864000153,1
93,330,26,0.0735258591790915,1
93,331,26,0.0772674690906405,1
93,332,26,0.0768548535274185,1
93,333,26,0.0745619130358184,1
94,331,26,0.069957430047005,1
94,332,26,0.0750299870447736,1
94,333,26,0.0753450533012804,1
88,320,27,0.0721106608566866,1
89,318,27,0.0783153820735169,1
89,319,27,0.0881875901877507,1
89,320,27,0.0930291861853331,1
89,321,27,0.0872564541451942,1
89,322,27,0.0781330462711126,1
89,323,27,0.0739144228217524,1
89,324,27,0.0725937499374372,1
89,328,27,0.0711495085733835,1
89,329,27,0.0728156671374355,1
89,330,27,0.072580271129932,1
89,331,27,0.070471564178977,1
90,318,27,0.080539350554768,1
90,319,27,0.0922151398970923,1
90,320,27,0.0978659926530698,1
90,321,27,0.0922641682773575,1
90,322,27,0.0820871681085214,1
90,323,27,0.076090878332762,1
90,324,27,0.0730903386799594,1
90,327,27,0.0711595047184029,1
90,328,27,0.0761443208660782,1
90,329,27,0.0800423655811845,1
90,330,27,0.0802614674552212,1
90,331,27,0.0765917978112697,1
91,318,27,0.0712609676757759,1
91,319,27,0.0812303010599751,1
91,320,27,0.0864339827333348,1
91,321,27,0.0829820663875272,1
91,322,27,0.0749072179785798,1
91,323,27,0.0698997123890803,1
91,326,27,0.070204685180658,1
91,327,27,0.0725702263249577,1
91,328,27,0.0771133908191845,1
91,329,27,0.0812866631905849,1
91,330,27,0.0809784023763409,1
91,331,27,0.0772323574574745,1
92,326,27,0.0721767341240085,1
92,327,27,0.0728652307772046,1
92,328,27,0.0727548699995084,1
92,329,27,0.0745650828843085,1
92,330,27,0.0761865507555028,1
92,331,27,0.0762417798043058,1
92,332,27,0.0729439347785321,1
93,326,27,0.0715955743798831,1
93,327,27,0.0736993249668612,1
93,328,27,0.0703421147961187,1
93,330,27,0.0707562944293194,1
93,331,27,0.0744642664091934,1
93,332,27,0.0752073595317789,1
93,333,27,0.07322427173009,1
94,332,27,0.0698989477326463,1
94,333,27,0.0704307940881992,1
88,319,28,0.0706557699139336,1
88,320,28,0.0737050807443828,1
88,321,28,0.0715525589797581,1
89,317,28,0.070568230655082,1
89,318,28,0.0787434367452841,1
89,319,28,0.0856326088876323,1
89,320,28,0.0899450070214925,1
89,321,28,0.0857641436971289,1
89,322,28,0.0783424022513265,1
89,323,28,0.0743887253049339,1
89,324,28,0.0732177582475565,1
89,325,28,0.0701209344468659,1
89,328,28,0.0720669086058161,1
89,329,28,0.0748225427056448,1
89,330,28,0.0764862821747963,1
89,331,28,0.0756202044919311,1
90,318,28,0.077497137126311,1
90,319,28,0.086135384395848,1
90,320,28,0.0904103213158631,1
90,321,28,0.0863123258946814,1
90,322,28,0.0787418935295718,1
90,323,28,0.0741085273818186,1
90,324,28,0.0730675588696476,1
90,325,28,0.0730546848358675,1
90,326,28,0.0724477909270261,1
90,327,28,0.0712608425501776,1
90,328,28,0.073028762982754,1
90,329,28,0.0776526960506802,1
90,330,28,0.0799978417224579,1
90,331,28,0.0783361459714118,1
90,332,28,0.070832113590464,1
91,319,28,0.0740183048740258,1
91,320,28,0.0782967175051046,1
91,321,28,0.0762460827346027,1
91,322,28,0.0706551303830979,1
91,324,28,0.0711310247419465,1
91,325,28,0.080577298368162,1
91,326,28,0.0835941182515872,1
91,327,28,0.0774748578183924,1
91,328,28,0.0729956881162714,1
91,329,28,0.0757128460946243,1
91,330,28,0.0782211694494229,1
91,331,28,0.0782847888647338,1
91,332,28,0.0742209527318867,1
92,325,28,0.0808684239268617,1
92,326,28,0.0878214170757625,1
92,327,28,0.0809131632796743,1
92,328,28,0.0710257385024034,1
92,329,28,0.0705759536850657,1
92,330,28,0.0736480790829372,1
92,331,28,0.0758691835782718,1
92,332,28,0.0760082537293546,1
92,333,28,0.0730220826660895,1
93,325,28,0.070865424805299,1
93,326,28,0.0788643150246592,1
93,327,28,0.0778370894740343,1
93,331,28,0.0724834517225402,1
93,332,28,0.074506392027286,1
93,333,28,0.0737766039266526,1
88,319,29,0.0706121636429278,1
88,320,29,0.0740348005987343,1
88,321,29,0.0746536996135899,1
88,322,29,0.0723563171632503,1
88,323,29,0.0706661831442806,1
89,317,29,0.0707364481191454,1
89,318,29,0.0759411377487135,1
89,319,29,0.0796572637467431,1
89,320,29,0.083473942065847,1
89,321,29,0.0822852836391551,1
89,322,29,0.0781546165339742,1
89,323,29,0.0757611793326768,1
89,324,29,0.0743093887241927,1
89,325,29,0.0718826820165931,1
89,326,29,0.0715505778244518,1
89,327,29,0.072421396377208,1
89,328,29,0.074373849261581,1
89,329,29,0.0764963547854591,1
89,330,29,0.0780750644591471,1
89,331,29,0.0770739832071437,1
89,332,29,0.0721093122807939,1
90,318,29,0.0720788859061418,1
90,319,29,0.0776655700844603,1
90,320,29,0.0809603286788094,1
90,321,29,0.0787777837220161,1
90,322,29,0.0746038579169357,1
90,323,29,0.072650661230395,1
90,324,29,0.0743973381169498,1
90,325,29,0.0779921965559652,1
90,326,29,0.0801885192314152,1
90,327,29,0.0766544301246384,1
90,328,29,0.0744261656645126,1
90,329,29,0.0757494175264371,1
90,330,29,0.0785623869559734,1
90,331,29,0.0788625215577503,1
90,332,29,0.0749391111033008,1
91,320,29,0.0710685523112867,1
91,321,29,0.0715138465099301,1
91,324,29,0.0746967150137149,1
91,325,29,0.0898927392785158,1
91,326,29,0.0957051708904249,1
91,327,29,0.0843007442136918,1
91,328,29,0.0737570217705194,1
91,329,29,0.0725861798387404,1
91,330,29,0.0763144221655382,1
91,331,29,0.0794084375916893,1
91,332,29,0.07939452084459,1
91,333,29,0.075303921736552,1
92,324,29,0.0703748490429171,1
92,325,29,0.0886710268396077,1
92,326,29,0.0960166432616918,1
92,327,29,0.0835265504285079,1
92,328,29,0.0702148481598084,1
92,330,29,0.0723775468064277,1
92,331,29,0.0758883695033437,1
92,332,29,0.0789459108175918,1
92,333,29,0.077857686537798,1
92,334,29,0.0715793080521047,1
93,325,29,0.07270305409897,1
93,326,29,0.079042368751033,1
93,327,29,0.0750596904715244,1
93,332,29,0.0730649173292391,1
93,333,29,0.0753135425047765,1
93,334,29,0.0719085899668623,1
93,335,29,0.0723972262824707,1
93,336,29,0.0748453364188008,1
94,336,29,0.0709471109667193,1
95,327,29,0.0723083175934599,1
87,322,30,0.070380681286082,1
87,323,30,0.0707943326112011,1
88,318,30,0.0706688107818448,1
88,319,30,0.0708612052920676,1
88,320,30,0.0731062157280986,1
88,321,30,0.0764892295777784,1
88,322,30,0.077311436835597,1
88,323,30,0.0763022502253929,1
88,324,30,0.0726565699392034,1
88,327,30,0.0722322273268523,1
88,328,30,0.0742738739085433,1
88,329,30,0.0737196787308505,1
88,330,30,0.0730741140607138,1
88,331,30,0.0718118122680032,1
89,318,30,0.071701882478479,1
89,319,30,0.0729553490136655,1
89,320,30,0.0754779714437804,1
89,321,30,0.0767065101792177,1
89,322,30,0.0760825505290533,1
89,323,30,0.0755990930229299,1
89,324,30,0.0747175345229867,1
89,325,30,0.0732063231581568,1
89,326,30,0.0740199454096479,1
89,327,30,0.07585643467009,1
89,328,30,0.0766381776997044,1
89,329,30,0.0773706560007011,1
89,330,30,0.0791524167147334,1
89,331,30,0.0787568738442566,1
89,332,30,0.0750249681179976,1
90,320,30,0.0719646601377427,1
90,321,30,0.0715283054679553,1
90,322,30,0.070133210658343,1
90,323,30,0.0709167123977557,1
90,324,30,0.0771846150903029,1
90,325,30,0.0834154806057547,1
90,326,30,0.087007718358628,1
90,327,30,0.0826327574256203,1
90,328,30,0.0767457718113938,1
90,329,30,0.0749504419213686,1
90,330,30,0.0783587241904819,1
90,331,30,0.0812770563252047,1
90,332,30,0.0797566899374327,1
90,333,30,0.0742526581682102,1
91,324,30,0.0810315946584605,1
91,325,30,0.0970886498736621,1
91,326,30,0.102008365953113,1
91,327,30,0.0884374938132343,1
91,328,30,0.0756601404120536,1
91,329,30,0.0716640528392611,1
91,330,30,0.07573354742972,1
91,331,30,0.0817235739741425,1
91,332,30,0.0845164815994188,1
91,333,30,0.0802890159411124,1
91,334,30,0.0731613335541476,1
91,335,30,0.0698702453106819,1
92,322,30,0.0714626353831168,1
92,324,30,0.076660130290783,1
92,325,30,0.0921521044012401,1
92,326,30,0.0959533644660652,1
92,327,30,0.0812008965443758,1
92,330,30,0.0712131975029157,1
92,331,30,0.0766638075930884,1
92,332,30,0.0817085728051913,1
92,333,30,0.0809298536442024,1
92,334,30,0.0750114336991153,1
92,335,30,0.0741851459565079,1
92,336,30,0.0764488140095291,1
92,337,30,0.0708699571325261,1
93,325,30,0.0725931173580236,1
93,326,30,0.077547076142875,1
93,327,30,0.0731600614438982,1
93,332,30,0.0704916468375033,1
93,333,30,0.0733010293332218,1
93,334,30,0.0717580291150028,1
93,335,30,0.0747028670222977,1
93,336,30,0.0799768414762107,1
93,337,30,0.074719564338248,1
94,326,30,0.0697974083096299,1
94,327,30,0.0761230217086796,1
94,328,30,0.0719743156630778,1
94,336,30,0.071807217377977,1
94,337,30,0.0705931932119419,1
95,326,30,0.0698290998431092,1
95,327,30,0.0813940000996556,1
95,328,30,0.0794012011612545,1
96,328,30,0.0700519276794062,1
87,321,31,0.0717417627872244,1
87,322,31,0.076155867178232,1
87,323,31,0.0753181443462249,1
87,324,31,0.0723800771240821,1
87,327,31,0.0711128884816159,1
87,328,31,0.07262836106821,1
88,317,31,0.0700498839613007,1
88,319,31,0.0698614587131127,1
88,320,31,0.0714202456109833,1
88,321,31,0.0747006078101063,1
88,322,31,0.078297231910342,1
88,323,31,0.0771044026303736,1
88,324,31,0.0737441755424278,1
88,325,31,0.0701842479996032,1
88,326,31,0.0714112713250167,1
88,327,31,0.0756984010394434,1
88,328,31,0.0784525336320925,1
88,329,31,0.0765446046064461,1
88,330,31,0.0752682817953043,1
88,331,31,0.0734182928730906,1
88,332,31,0.069989927945451,1
89,321,31,0.0713143198406044,1
89,322,31,0.0729070852898343,1
89,323,31,0.0735247747572397,1
89,324,31,0.0748508906050807,1
89,325,31,0.075139979397097,1
89,326,31,0.0772209293194969,1
89,327,31,0.0803503622413876,1
89,328,31,0.079900799869558,1
89,329,31,0.0786815829911936,1
89,330,31,0.079585782273006,1
89,331,31,0.0797559530866872,1
89,332,31,0.0768961171691674,1
89,333,31,0.0718810484323931,1
90,323,31,0.0705348777317143,1
90,324,31,0.0788935388032832,1
90,325,31,0.0859559681907372,1
90,326,31,0.0888017552841374,1
90,327,31,0.0871135051005643,1
90,328,31,0.0802038332143621,1
90,329,31,0.0772442582921568,1
90,330,31,0.0797764597819634,1
90,331,31,0.0839481750348072,1
90,332,31,0.0845623818397267,1
90,333,31,0.0790476240261614,1
90,334,31,0.0726162308365975,1
91,322,31,0.0714723256655625,1
91,323,31,0.0713934270244154,1
91,324,31,0.083836889717968,1
91,325,31,0.0960510388983787,1
91,326,31,0.0966706122011806,1
91,327,31,0.0874148979097463,1
91,328,31,0.0767420180434449,1
91,329,31,0.0730725221850466,1
91,330,31,0.0765394327483832,1
91,331,31,0.0835758916227689,1
91,332,31,0.0885807904289706,1
91,333,31,0.0835162901294477,1
91,334,31,0.0768147716274314,1
91,335,31,0.0734423934536066,1
91,336,31,0.0735414442675014,1
91,337,31,0.0702018003404751,1
92,322,31,0.0743501171064377,1
92,323,31,0.0713196863384869,1
92,324,31,0.0782893976576043,1
92,325,31,0.0881379014223833,1
92,326,31,0.0874155096348935,1
92,327,31,0.0771889597291325,1
92,330,31,0.0711507042179895,1
92,331,31,0.0783411788010321,1
92,332,31,0.0850434063481054,1
92,333,31,0.081821741957427,1
92,334,31,0.0765141712803719,1
92,335,31,0.0756636369773837,1
92,336,31,0.0786055066274302,1
92,337,31,0.0752385088543322,1
92,338,31,0.0716078297370939,1
93,325,31,0.0720982386653447,1
93,326,31,0.0764576562184753,1
93,327,31,0.0734509645570899,1
93,332,31,0.0703031729293604,1
93,333,31,0.0698584904558643,1
93,335,31,0.0711380178726068,1
93,336,31,0.0771219271655571,1
93,337,31,0.076165786857608,1
93,338,31,0.0728467538971897,1
94,326,31,0.0753440175393834,1
94,327,31,0.0805157574280672,1
94,328,31,0.0750119481043527,1
94,337,31,0.0714019564193658,1
94,338,31,0.070914494894097,1
95,327,31,0.0797984610329969,1
95,328,31,0.0802400223179578,1
96,328,31,0.0707999910688129,1
86,322,32,0.0728932102512678,1
86,323,32,0.0723557401952137,1
86,324,32,0.0713930516476205,1
87,320,32,0.0703307492209402,1
87,321,32,0.0740014407239445,1
87,322,32,0.0812867048991176,1
87,323,32,0.0797785730142901,1
87,324,32,0.0758043337612443,1
87,325,32,0.0714102772716525,1
87,326,32,0.0737758740273292,1
87,327,32,0.0770662323714715,1
87,328,32,0.0791237281956132,1
87,329,32,0.0764723445734307,1
87,330,32,0.0724189077680863,1
88,321,32,0.0723357061966423,1
88,322,32,0.0776964343987064,1
88,323,32,0.0761934535176754,1
88,324,32,0.0734510757798439,1
88,325,32,0.071249032083983,1
88,326,32,0.0752311820554098,1
88,327,32,0.0802115631957678,1
88,328,32,0.082216687005601,1
88,329,32,0.0798747459394241,1
88,330,32,0.078103954569509,1
88,331,32,0.0766584619494724,1
88,332,32,0.073274106475322,1
88,333,32,0.0699337326489723,1
89,322,32,0.0707280647040596,1
89,323,32,0.0707085868192584,1
89,324,32,0.073860312951912,1
89,325,32,0.0777845019656397,1
89,326,32,0.0824121818500926,1
89,327,32,0.0851482476966324,1
89,328,32,0.0834406586567005,1
89,329,32,0.0817836134070577,1
89,330,32,0.0831297563020481,1
89,331,32,0.0843463733485367,1
89,332,32,0.0818061568690172,1
89,333,32,0.0774493947591393,1
89,334,32,0.0717562356480939,1
90,324,32,0.0778925548711896,1
90,325,32,0.0875256340642374,1
90,326,32,0.0911468522959602,1
90,327,32,0.0902167381124564,1
90,328,32,0.0831395160987151,1
90,329,32,0.080722159053877,1
90,330,32,0.084172302787042,1
90,331,32,0.0899040561937394,1
90,332,32,0.0916860880132346,1
90,333,32,0.0863705232007328,1
90,334,32,0.0793036588059614,1
90,335,32,0.0755003689258752,1
90,336,32,0.0744079598899607,1
90,337,32,0.0720677636307378,1
91,322,32,0.071143210584936,1
91,323,32,0.0719056773209909,1
91,324,32,0.0814217779824771,1
91,325,32,0.0906395097034067,1
91,326,32,0.0892142665760275,1
91,327,32,0.0840592448575604,1
91,328,32,0.0767158042306021,1
91,329,32,0.0746556946717405,1
91,330,32,0.0789377915565469,1
91,331,32,0.0875287969613054,1
91,332,32,0.0934091509188223,1
91,333,32,0.0880495418957207,1
91,334,32,0.0821877829923948,1
91,335,32,0.0809080053244557,1
91,336,32,0.0807738776345056,1
91,337,32,0.0776369580309835,1
91,338,32,0.0757336656038962,1
92,322,32,0.0719173070502102,1
92,323,32,0.0705794363475515,1
92,324,32,0.0743742246383759,1
92,325,32,0.0802632748249743,1
92,326,32,0.0784943464361894,1
92,327,32,0.0736363659366524,1
92,330,32,0.0710154851547654,1
92,331,32,0.0794532603615674,1
92,332,32,0.0857986436051477,1
92,333,32,0.0808956665501794,1
92,334,32,0.0771543555497819,1
92,335,32,0.0787369371655949,1
92,336,32,0.081456173619164,1
92,337,32,0.0808019891855892,1
92,338,32,0.0802279337948781,1
92,339,32,0.0755193532597054,1
93,325,32,0.0715104959244646,1
93,326,32,0.0771687867021185,1
93,327,32,0.0749433306165322,1
93,332,32,0.0709643922021282,1
93,336,32,0.0751906552644065,1
93,337,32,0.079262631512565,1
93,338,32,0.080649593158288,1
93,339,32,0.0735750961020206,1
94,326,32,0.0786054788217417,1
94,327,32,0.0816283672966843,1
94,328,32,0.0751357042724886,1
94,337,32,0.0725374990295815,1
94,338,32,0.0736167629262529,1
95,327,32,0.0750653558805583,1
95,328,32,0.0775263817592014,1
86,322,33,0.0746180318666537,1
86,323,33,0.0759993628604535,1
86,324,33,0.0740611047800648,1
86,325,33,0.072433610025886,1
86,326,33,0.0708360411439661,1
86,327,33,0.0721523068266524,1
86,328,33,0.0719788827474156,1
86,329,33,0.0712638386131145,1
87,321,33,0.0726874412048716,1
87,322,33,0.0791819741616196,1
87,323,33,0.0794576814660405,1
87,324,33,0.0759490067585619,1
87,325,33,0.0742225446075539,1
87,326,33,0.0763980060651992,1
87,327,33,0.0802599381423531,1
87,328,33,0.0798985476087886,1
87,329,33,0.0771494617486041,1
87,330,33,0.0719580493352995,1
88,321,33,0.0706089868430155,1
88,322,33,0.0744562166623698,1
88,323,33,0.0738118267825726,1
88,324,33,0.0736274125049522,1
88,325,33,0.0759698818792107,1
88,326,33,0.0805346166362991,1
88,327,33,0.0834550063919717,1
88,328,33,0.0834014665387457,1
88,329,33,0.0811542594533224,1
88,330,33,0.0788010918404096,1
88,331,33,0.0774932582327639,1
88,332,33,0.075482531576696,1
88,333,33,0.0727710598616433,1
89,322,33,0.0707276406673098,1
89,323,33,0.0701019501130357,1
89,324,33,0.0746295851302296,1
89,325,33,0.0826153093560803,1
89,326,33,0.0878491602014733,1
89,327,33,0.0868111112865959,1
89,328,33,0.0846417531775785,1
89,329,33,0.0829044954680064,1
89,330,33,0.0840261630396556,1
89,331,33,0.0856886443014021,1
89,332,33,0.0851741834525901,1
89,333,33,0.082185391703183,1
89,334,33,0.0765124056191515,1
89,335,33,0.0717504937734166,1
90,323,33,0.0697644099087907,1
90,324,33,0.0759301266960636,1
90,325,33,0.0858457394900615,1
90,326,33,0.0900518712338585,1
90,327,33,0.0870225040334932,1
90,328,33,0.0822236731848391,1
90,329,33,0.080559579193159,1
90,330,33,0.0849384885339351,1
90,331,33,0.0916834742785147,1
90,332,33,0.0950691435714472,1
90,333,33,0.0914236023137002,1
90,334,33,0.0845728784871392,1
90,335,33,0.0805562355591157,1
90,336,33,0.0782380683566149,1
90,337,33,0.0763484841339629,1
90,338,33,0.0744878456330499,1
91,323,33,0.0699291516617903,1
91,324,33,0.0752995423406117,1
91,325,33,0.0814771877682554,1
91,326,33,0.0820097987802423,1
91,327,33,0.0786764389388193,1
91,328,33,0.0747068849442874,1
91,329,33,0.0732186549810109,1
91,330,33,0.0780490800432345,1
91,331,33,0.0876154186324362,1
91,332,33,0.0934841915206887,1
91,333,33,0.0899462999860082,1
91,334,33,0.0846732292169718,1
91,335,33,0.0849818932136992,1
91,336,33,0.0843615900115738,1
91,337,33,0.0829959275232495,1
91,338,33,0.0830371425050434,1
91,339,33,0.079176218384098,1
92,325,33,0.0739764642642403,1
92,326,33,0.0753972723843022,1
92,327,33,0.0729869849357677,1
92,330,33,0.0704714251505344,1
92,331,33,0.0790750890949871,1
92,332,33,0.0839974467148469,1
92,333,33,0.0804424477303106,1
92,334,33,0.077420532454466,1
92,335,33,0.0807361870237303,1
92,336,33,0.0833273643788665,1
92,337,33,0.0863640861838428,1
92,338,33,0.0899053144011444,1
92,339,33,0.0840069562603173,1
93,325,33,0.0706129143965176,1
93,326,33,0.0778556914796475,1
93,327,33,0.0759463791209977,1
93,328,33,0.0700056590137256,1
93,331,33,0.0710406075943341,1
93,332,33,0.0738696139547185,1
93,333,33,0.0716251109725028,1
93,335,33,0.0711208131028412,1
93,336,33,0.0760191883163611,1
93,337,33,0.0824944102224388,1
93,338,33,0.0863855035154176,1
93,339,33,0.0778571721325606,1
94,326,33,0.0760856717175885,1
94,327,33,0.0777618750866147,1
94,328,33,0.072792247796288,1
94,337,33,0.0739774374633382,1
94,338,33,0.074584734554663,1
95,328,33,0.0724539776927196,1
86,326,34,0.0704322052268911,1
86,327,34,0.0725389518768061,1
86,328,34,0.0713142781320717,1
87,322,34,0.0718986355303757,1
87,323,34,0.0733075567185995,1
87,324,34,0.0721266769332684,1
87,325,34,0.074866718993265,1
87,326,34,0.079396321262921,1
87,327,34,0.083331152903926,1
87,328,34,0.0788975219681623,1
87,329,34,0.0764961809999059,1
87,330,34,0.0728659259194173,1
87,331,34,0.0698445528544986,1
88,322,34,0.0711456296798364,1
88,323,34,0.0703977470274051,1
88,324,34,0.0718875410606602,1
88,325,34,0.0796873912102437,1
88,326,34,0.0868095611194615,1
88,327,34,0.088447726306606,1
88,328,34,0.0837429829564476,1
88,329,34,0.0822855686474624,1
88,330,34,0.0801466160588306,1
88,331,34,0.0787734668888749,1
88,332,34,0.0774897894731222,1
88,333,34,0.0764266320215203,1
88,334,34,0.0723815855826838,1
89,321,34,0.0715545401350645,1
89,322,34,0.0747431574649487,1
89,323,34,0.072561300698946,1
89,324,34,0.0751728248666495,1
89,325,34,0.0855099649470368,1
89,326,34,0.0914327225795315,1
89,327,34,0.0885215017496451,1
89,328,34,0.0838154515321268,1
89,329,34,0.0822533488059014,1
89,330,34,0.0822422265304974,1
89,331,34,0.0849378003431444,1
89,332,34,0.0861801654571934,1
89,333,34,0.086515995611595,1
89,334,34,0.0831158326035267,1
89,335,34,0.0785172722263659,1
89,336,34,0.0736735629964567,1
89,337,34,0.0728080553302059,1
90,316,34,0.0699881205756979,1
90,321,34,0.0708545458296695,1
90,322,34,0.0746528584915125,1
90,323,34,0.072854456072907,1
90,324,34,0.0741220826549672,1
90,325,34,0.0820640129214147,1
90,326,34,0.0861537987130638,1
90,327,34,0.0826285796209217,1
90,328,34,0.0793514428816659,1
90,329,34,0.0781088344678425,1
90,330,34,0.0813501574802974,1
90,331,34,0.0892392152300431,1
90,332,34,0.0937763180841747,1
90,333,34,0.0941274900272118,1
90,334,34,0.0904904851158374,1
90,335,34,0.0869662114171047,1
90,336,34,0.0820308546378665,1
90,337,34,0.0810568700293161,1
90,338,34,0.0785646670224312,1
91,324,34,0.0705137036999139,1
91,325,34,0.0747656870240639,1
91,326,34,0.0780702401721906,1
91,327,34,0.0761147495163478,1
91,328,34,0.0733464846825135,1
91,329,34,0.0713792878318081,1
91,330,34,0.0748701390929517,1
91,331,34,0.0840376398375881,1
91,332,34,0.089388212011924,1
91,333,34,0.0900326783573645,1
91,334,34,0.0878557849067609,1
91,335,34,0.0892501637198939,1
91,336,34,0.0873049611687999,1
91,337,34,0.0879842263334107,1
91,338,34,0.087919035896699,1
91,339,34,0.0831392241389857,1
92,325,34,0.0709150301536008,1
92,326,34,0.0752068590293857,1
92,327,34,0.073766809372875,1
92,331,34,0.0769706642200627,1
92,332,34,0.0809388001244805,1
92,333,34,0.0805379463674982,1
92,334,34,0.0794788554978408,1
92,335,34,0.0843021762066501,1
92,336,34,0.0867577521703452,1
92,337,34,0.0906718477191439,1
92,338,34,0.0931846686440589,1
92,339,34,0.0875831501309203,1
93,325,34,0.0698047629142408,1
93,326,34,0.0761486724563301,1
93,327,34,0.0752927855583038,1
93,328,34,0.070616042536475,1
93,331,34,0.0727796865765036,1
93,332,34,0.0765189816644841,1
93,333,34,0.0761605246310574,1
93,334,34,0.0728175092642993,1
93,335,34,0.0758037567932078,1
93,336,34,0.079981109649397,1
93,337,34,0.0840981589186301,1
93,338,34,0.0845704037808618,1
93,339,34,0.0767385353809591,1
94,326,34,0.0700057702364796,1
94,327,34,0.0726288059592262,1
94,328,34,0.0712267041161094,1
94,332,34,0.0711891108252439,1
94,333,34,0.0737917649783127,1
94,334,34,0.0702670185828753,1
94,335,34,0.069935463553082,1
94,336,34,0.0730946833187891,1
94,337,34,0.0748632710878898,1
94,338,34,0.0728577997069503,1
86,327,35,0.0713120119684581,1
87,325,35,0.0742349181389408,1
87,326,35,0.0804164007515989,1
87,327,35,0.0835265990884628,1
87,328,35,0.0779053315850599,1
87,329,35,0.0767207884002676,1
87,330,35,0.0760942636753381,1
87,331,35,0.0716908436201405,1
88,321,35,0.069889716244061,1
88,322,35,0.0719184609862833,1
88,323,35,0.0704230084954164,1
88,324,35,0.0715999676786677,1
88,325,35,0.0806889729646403,1
88,326,35,0.0894334935756625,1
88,327,35,0.0910938685565044,1
88,328,35,0.0844563170409053,1
88,329,35,0.0837932903983843,1
88,330,35,0.0832298567806841,1
88,331,35,0.0797392349164706,1
88,332,35,0.079089200481906,1
88,333,35,0.0790647175731729,1
88,334,35,0.0772123095560588,1
88,335,35,0.0734494839041767,1
89,316,35,0.0750826093102788,1
89,321,35,0.0727951187336266,1
89,322,35,0.0778480101581966,1
89,323,35,0.0748981255184371,1
89,324,35,0.0745750442722172,1
89,325,35,0.0830796852084637,1
89,326,35,0.0888997981418237,1
89,327,35,0.0875758650405307,1
89,328,35,0.0823010147074297,1
89,329,35,0.0809951900607788,1
89,330,35,0.0806027197188823,1
89,331,35,0.082372676918142,1
89,332,35,0.0856648773891482,1
89,333,35,0.0874833277091694,1
89,334,35,0.0879887030492608,1
89,335,35,0.0837001552447201,1
89,336,35,0.0774639510370743,1
89,337,35,0.0747255217070112,1
89,338,35,0.072300253943792,1
90,315,35,0.0723007753004516,1
90,316,35,0.0741414562684366,1
90,317,35,0.0706844862387423,1
90,321,35,0.0706937038244834,1
90,322,35,0.0758987757822686,1
90,323,35,0.0733293146698586,1
90,324,35,0.0718252493669757,1
90,325,35,0.0772764086194965,1
90,326,35,0.0812866214820521,1
90,327,35,0.079774582897989,1
90,328,35,0.0773328055072169,1
90,329,35,0.0758970935381137,1
90,330,35,0.0775172197848374,1
90,331,35,0.0838588423090467,1
90,332,35,0.0893950522112974,1
90,333,35,0.0916067653353377,1
90,334,35,0.0932657013717992,1
90,335,35,0.089201427299358,1
90,336,35,0.0842090897129407,1
90,337,35,0.0822328560134695,1
90,338,35,0.0804685781260879,1
90,339,35,0.0739902558857413,1
91,313,35,0.0697425963461546,1
91,314,35,0.0717765129464398,1
91,315,35,0.07326080145337,1
91,316,35,0.0727933808780947,1
91,325,35,0.0728357289416955,1
91,326,35,0.0774670861284538,1
91,327,35,0.0760430386456806,1
91,328,35,0.0724642936031568,1
91,329,35,0.0702426399454742,1
91,330,35,0.0727412382607164,1
91,331,35,0.0792872882068512,1
91,332,35,0.0847776048202162,1
91,333,35,0.0879611476119474,1
91,334,35,0.0909696953030408,1
91,335,35,0.0903813964483905,1
91,336,35,0.0893203105205825,1
91,337,35,0.0887061732298843,1
91,338,35,0.0884169176037369,1
91,339,35,0.0820807728001641,1
91,340,35,0.0714517077475324,1
92,314,35,0.070808450949542,1
92,315,35,0.0729810067127381,1
92,316,35,0.0704771878794781,1
92,325,35,0.0710650696488008,1
92,326,35,0.075788887701277,1
92,327,35,0.0738767183081328,1
92,331,35,0.0738194663954908,1
92,332,35,0.0782752376107306,1
92,333,35,0.0805519604345073,1
92,334,35,0.0835149554563992,1
92,335,35,0.0864268227685435,1
92,336,35,0.0893407407502153,1
92,337,35,0.0897896705426313,1
92,338,35,0.0894543895505778,1
92,339,35,0.0834033712284086,1
93,310,35,0.0705738543555832,1
93,326,35,0.0720396381768099,1
93,327,35,0.0717779796965087,1
93,331,35,0.070656666647388,1
93,332,35,0.0746620552229872,1
93,333,35,0.0759129080234538,1
93,334,35,0.0760123481169876,1
93,335,35,0.0784103454512007,1
93,336,35,0.0823199990412599,1
93,337,35,0.0823871567304336,1
93,338,35,0.0792678867876933,1
93,339,35,0.0720867271103016,1
94,334,35,0.0697658488531711,1
94,335,35,0.0706090980657696,1
94,336,35,0.07340822721385,1
94,337,35,0.0733242887916604,1
94,338,35,0.0700744641899435,1
95,318,35,0.072039589516855,1
96,317,35,0.0807706938831712,1
96,318,35,0.0814369807426699,1
97,317,35,0.0871291040918184,1
97,318,35,0.0768829164185472,1
87,325,36,0.0734698863281209,1
87,326,36,0.0811408849171491,1
87,327,36,0.0834248302685162,1
87,328,36,0.0783169600463399,1
87,329,36,0.0775509619878442,1
87,330,36,0.079654038286876,1
87,331,36,0.0765572561947181,1
88,322,36,0.0705671670874965,1
88,323,36,0.0699077968930146,1
88,324,36,0.0718047218174332,1
88,325,36,0.0797467215981019,1
88,326,36,0.0891773892816412,1
88,327,36,0.0909813111294159,1
88,328,36,0.0853276430474768,1
88,329,36,0.0847188374975503,1
88,330,36,0.0867330885246368,1
88,331,36,0.0839870612901884,1
88,332,36,0.0830421822860858,1
88,333,36,0.0831931185147402,1
88,334,36,0.0822462653067535,1
88,335,36,0.0801439050042009,1
89,315,36,0.0785381890555475,1
89,316,36,0.0789376803337928,1
89,317,36,0.0746744287543741,1
89,321,36,0.0712405722032538,1
89,322,36,0.077282539773813,1
89,323,36,0.0758674943826948,1
89,324,36,0.07479109447194,1
89,325,36,0.0794170643065495,1
89,326,36,0.084335376198731,1
89,327,36,0.0847679840519917,1
89,328,36,0.0814021541178111,1
89,329,36,0.0809490465206964,1
89,330,36,0.0817944993341094,1
89,331,36,0.0829924031522308,1
89,332,36,0.085899362760353,1
89,333,36,0.0882212628765363,1
89,334,36,0.0911325323663775,1
89,335,36,0.0888351082075052,1
89,336,36,0.0821104136641157,1
89,337,36,0.0779698129767146,1
89,338,36,0.0761431738814272,1
90,313,36,0.074055063994236,1
90,314,36,0.0809664459302816,1
90,315,36,0.0843446493958491,1
90,316,36,0.0829318562655003,1
90,317,36,0.0757702856956639,1
90,318,36,0.069953940433097,1
90,322,36,0.0737574249530028,1
90,323,36,0.0724981539803398,1
90,324,36,0.0711584898107723,1
90,325,36,0.0743893022729704,1
90,326,36,0.0782344397142643,1
90,327,36,0.0782098247285108,1
90,328,36,0.0765356859318565,1
90,329,36,0.0755560567685385,1
90,330,36,0.0768708974096888,1
90,331,36,0.0808195762835718,1
90,332,36,0.0854607141212635,1
90,333,36,0.0888394111378021,1
90,334,36,0.0943293454229501,1
90,335,36,0.0912048480107699,1
90,336,36,0.0868579847260016,1
90,337,36,0.0841697029551663,1
90,338,36,0.0830769672024118,1
90,339,36,0.0752831300329686,1
91,313,36,0.0745216643017002,1
91,314,36,0.0842818224426608,1
91,315,36,0.0883263475248377,1
91,316,36,0.0835414056175944,1
91,317,36,0.0733659486644705,1
91,325,36,0.073403868672176,1
91,326,36,0.0780128631339502,1
91,327,36,0.076437246843109,1
91,328,36,0.0723337737012908,1
91,329,36,0.0705340018525262,1
91,330,36,0.0727661174005107,1
91,331,36,0.0764416609961599,1
91,332,36,0.0813687664373328,1
91,333,36,0.0869460800986234,1
91,334,36,0.0941899137979167,1
91,335,36,0.0924776603537373,1
91,336,36,0.0918776831099128,1
91,337,36,0.0901107219735899,1
91,338,36,0.0884474134926102,1
91,339,36,0.0799672971736296,1
91,340,36,0.0715103568960221,1
92,309,36,0.0708728558755533,1
92,310,36,0.073947442076858,1
92,311,36,0.0700234824600605,1
92,313,36,0.0722767233798904,1
92,314,36,0.0807218601427255,1
92,315,36,0.0844135171348663,1
92,316,36,0.0787153738541554,1
92,325,36,0.0708420124155736,1
92,326,36,0.0743635611568323,1
92,327,36,0.0719843465652078,1
92,332,36,0.0749415858095782,1
92,333,36,0.0805744969450446,1
92,334,36,0.087441487099384,1
92,335,36,0.088423410232004,1
92,336,36,0.0907215364845112,1
92,337,36,0.0885041718542813,1
92,338,36,0.0844390010483857,1
92,339,36,0.0769337452171435,1
93,309,36,0.0734234438768871,1
93,310,36,0.0791656452710421,1
93,311,36,0.0731019892634451,1
93,314,36,0.0707745210581377,1
93,315,36,0.0722714472504957,1
93,333,36,0.0730789870076252,1
93,334,36,0.0775714686831204,1
93,335,36,0.0799890829305772,1
93,336,36,0.0831430821782665,1
93,337,36,0.0809870290912011,1
93,338,36,0.0753795601607213,1
94,336,36,0.0715400603227729,1
94,337,36,0.0708866544484764,1
95,317,36,0.0707859213904268,1
95,318,36,0.080335826817719,1
95,319,36,0.0763596759235882,1
96,317,36,0.0933166761502602,1
96,318,36,0.0919855691813316,1
96,319,36,0.0759532818831703,1
97,316,36,0.0775967579568202,1
97,317,36,0.101925254750157,1
97,318,36,0.0884506945638544,1
87,329,37,0.0762948122037165,1
87,330,37,0.078462974668128,1
88,324,37,0.0712937575339513,1
88,325,37,0.0755589277058772,1
88,326,37,0.0823770563140824,1
88,327,37,0.083688921746562,1
88,328,37,0.0827443138479225,1
88,329,37,0.0830892225596226,1
88,330,37,0.0853020270569369,1
88,331,37,0.0835704695135095,1
88,333,37,0.0826848444316217,1
88,334,37,0.0824291850286165,1
88,338,37,0.069874179815606,1
89,314,37,0.0833682456923983,1
89,315,37,0.0873465723816551,1
89,316,37,0.0818102095481175,1
89,317,37,0.0751653103793297,1
89,322,37,0.0728204566672814,1
89,323,37,0.0735609638608354,1
89,324,37,0.073906873577322,1
89,325,37,0.0751817504926612,1
89,326,37,0.079167007749779,1
89,327,37,0.0794288191613671,1
89,328,37,0.0788647599156754,1
89,329,37,0.079398010458498,1
89,330,37,0.080753127639455,1
89,331,37,0.080174824929824,1
89,332,37,0.0813140239880787,1
89,333,37,0.0843027601261088,1
89,334,37,0.0876203958506794,1
89,335,37,0.0872530131912411,1
89,336,37,0.082398028754641,1
89,337,37,0.0792364176997221,1
89,338,37,0.0782213154292876,1
89,339,37,0.0747507623207562,1
90,313,37,0.079218420467834,1
90,314,37,0.0958436849277375,1
90,315,37,0.102725349534188,1
90,316,37,0.091032730798893,1
90,317,37,0.0783348391040518,1
90,318,37,0.0710572145417967,1
90,323,37,0.0698614795673791,1
90,324,37,0.0709219746243062,1
90,325,37,0.0729444352809253,1
90,326,37,0.0768562855203768,1
90,327,37,0.0759250591093326,1
90,328,37,0.0741252942119901,1
90,329,37,0.0739663290907785,1
90,330,37,0.0758812860041958,1
90,331,37,0.0768094607409259,1
90,332,37,0.0795600133511794,1
90,333,37,0.0843819298727189,1
90,334,37,0.0906866890053861,1
90,335,37,0.0900922937535299,1
90,336,37,0.0867016194366656,1
90,337,37,0.0849645355126468,1
90,338,37,0.0841011897386777,1
90,339,37,0.0776600784609796,1
90,340,37,0.0698149745533461,1
91,309,37,0.0705117503502961,1
91,310,37,0.0700063611073604,1
91,312,37,0.0701551215408889,1
91,313,37,0.0805943710609071,1
91,314,37,0.0974767547224625,1
91,315,37,0.103816479508431,1
91,316,37,0.0905656091347693,1
91,317,37,0.0758986089481375,1
91,325,37,0.0721231386594055,1
91,326,37,0.076210442793355,1
91,327,37,0.0741928967921801,1
91,328,37,0.0706273246945879,1
91,332,37,0.0764867340172346,1
91,333,37,0.083832253119409,1
91,334,37,0.0923397788958383,1
91,335,37,0.0921846092511083,1
91,336,37,0.0908866814199942,1
91,337,37,0.0896449349825147,1
91,338,37,0.086492826521644,1
91,339,37,0.0780559132911858,1
91,340,37,0.0711279105048334,1
92,308,37,0.0716153511758358,1
92,309,37,0.076140872960703,1
92,310,37,0.0782198000192638,1
92,311,37,0.0756414132808421,1
92,312,37,0.0735423340495337,1
92,313,37,0.0786025939815588,1
92,314,37,0.0878482078566419,1
92,315,37,0.0912731387817505,1
92,316,37,0.0817220446612744,1
92,326,37,0.0712978588730065,1
92,332,37,0.0704225636044002,1
92,333,37,0.0784292602708096,1
92,334,37,0.08742262093973,1
92,335,37,0.0880358128370188,1
92,336,37,0.0878869203264699,1
92,337,37,0.0851031816269798,1
92,338,37,0.0797157738667903,1
92,339,37,0.0721491925895393,1
93,308,37,0.0702966663982491,1
93,309,37,0.0765371735361918,1
93,310,37,0.0801303497310523,1
93,311,37,0.0756881476918053,1
93,312,37,0.0708688449049857,1
93,313,37,0.07168296765887,1
93,314,37,0.0737102456510235,1
93,315,37,0.0735113029011566,1
93,334,37,0.0753944987668733,1
93,335,37,0.0776145814031551,1
93,336,37,0.078726037335699,1
93,337,37,0.0767613708026479,1
93,338,37,0.0722376285818454,1
94,310,37,0.0705838365977582,1
95,317,37,0.0727593258610921,1
95,318,37,0.0791390977899371,1
95,319,37,0.0753559531311763,1
96,317,37,0.0901380271597068,1
96,318,37,0.0881462083718257,1
96,319,37,0.0750037454262423,1
97,316,37,0.0738394517341073,1
97,317,37,0.0962482159870252,1
97,318,37,0.0859189101593755,1
88,329,38,0.0800537659134736,1
88,330,38,0.080950930356093,1
88,338,38,0.0705130085577011,1
89,314,38,0.0908548995180273,1
89,315,38,0.0972440350124781,1
89,316,38,0.0862432496130004,1
89,324,38,0.0709017390344931,1
89,325,38,0.0713046921209579,1
89,326,38,0.073867674507945,1
89,327,38,0.0743297146824935,1
89,328,38,0.0754457446507973,1
89,329,38,0.0769620027480918,1
89,330,38,0.0788551252446066,1
89,333,38,0.0788461301043737,1
89,334,38,0.0819416470377043,1
89,335,38,0.083150631422697,1
89,336,38,0.080988440229893,1
89,337,38,0.0794041068557038,1
89,338,38,0.0792074511237169,1
89,339,38,0.0784029004781021,1
90,312,38,0.0707185482071671,1
90,313,38,0.0857847685665812,1
90,314,38,0.111007315565424,1
90,315,38,0.120386897247748,1
90,316,38,0.0998053003981997,1
90,317,38,0.0811691841566301,1
90,318,38,0.0716805972239245,1
90,324,38,0.0705961336635018,1
90,325,38,0.0721329193103388,1
90,326,38,0.0740932133988717,1
90,327,38,0.0720595053412503,1
90,328,38,0.0710166529936828,1
90,329,38,0.071915388457703,1
90,333,38,0.0805405740050624,1
90,334,38,0.0867460251212161,1
90,335,38,0.0889658714091456,1
90,336,38,0.0865760558987766,1
90,337,38,0.0859665621580595,1
90,338,38,0.0847426044098042,1
90,339,38,0.080406974623194,1
90,340,38,0.0727070511666933,1
91,308,38,0.0724539568384532,1
91,309,38,0.0742421059094206,1
91,310,38,0.0754024998537421,1
91,311,38,0.0747287541183005,1
91,312,38,0.0750030155269189,1
91,313,38,0.0866847552865843,1
91,314,38,0.108442894234057,1
91,315,38,0.115561901246206,1
91,316,38,0.096254423606985,1
91,317,38,0.0784108181479053,1
91,325,38,0.0709941720945224,1
91,326,38,0.072186195009524,1
91,327,38,0.070545659387434,1
91,328,38,0.0698763417078877,1
91,329,38,0.069885030985547,1
91,330,38,0.0711905219639358,1
91,332,38,0.0733191586421303,1
91,333,38,0.0821511281435165,1
91,334,38,0.0906433329855768,1
91,335,38,0.0927467638071371,1
91,336,38,0.0900842509581284,1
91,337,38,0.0896780237518416,1
91,338,38,0.0851362078335075,1
91,339,38,0.0771811532820834,1
91,340,38,0.0703542658819976,1
92,307,38,0.0715466224652612,1
92,308,38,0.0782414397963467,1
92,309,38,0.0806141826139705,1
92,310,38,0.08119251312929,1
92,311,38,0.0794185032509299,1
92,312,38,0.0785484285003413,1
92,313,38,0.0831634081365673,1
92,314,38,0.0916988230185722,1
92,315,38,0.0933748665048895,1
92,316,38,0.0822894266867431,1
92,317,38,0.070134517525703,1
92,333,38,0.0765570546034764,1
92,334,38,0.0865378925912966,1
92,335,38,0.0885995453658706,1
92,336,38,0.0857749531585371,1
92,337,38,0.0832049498352012,1
92,338,38,0.0774811766611063,1
92,339,38,0.0703858392413007,1
93,308,38,0.0756342463646287,1
93,309,38,0.0796500551219969,1
93,310,38,0.078554622217457,1
93,311,38,0.0746939831048188,1
93,312,38,0.0742089684801388,1
93,313,38,0.0757658993483014,1
93,314,38,0.0750455165218064,1
93,315,38,0.0721708879779993,1
93,334,38,0.0730695191706876,1
93,335,38,0.076424053043911,1
93,336,38,0.0756583956050996,1
93,337,38,0.0741476916940849,1
93,338,38,0.0710905744165866,1
95,311,38,0.0712278163436498,1
95,317,38,0.071995044803862,1
95,318,38,0.0735538177988884,1
96,310,38,0.0710439164712668,1
96,311,38,0.0768874487457744,1
96,317,38,0.0790724545060008,1
96,318,38,0.0772606984054884,1
97,317,38,0.0804449989022314,1
97,318,38,0.0747781717782049,1
98,321,38,0.0710984017179022,1
98,322,38,0.073148056337884,1
99,322,38,0.0701952729550974,1
88,315,39,0.0790730592797259,1
89,314,39,0.0975985714438248,1
89,315,39,0.105387062969652,1
89,316,39,0.092424760031347,1
89,326,39,0.0698705025133006,1
89,327,39,0.0698958682526438,1
89,328,39,0.0702903267012688,1
89,329,39,0.0725534664462083,1
89,334,39,0.0772803361729985,1
89,335,39,0.0792025573225391,1
89,336,39,0.0782295528645087,1
89,337,39,0.077766254482555,1
89,338,39,0.0781247323702481,1
89,339,39,0.0782117850295508,1
90,310,39,0.0698567386974881,1
90,311,39,0.0705241377845273,1
90,312,39,0.073131421584733,1
90,313,39,0.0899694204160042,1
90,314,39,0.11897511902503,1
90,315,39,0.128690551716023,1
90,316,39,0.106546761771761,1
90,317,39,0.0828068835984921,1
90,318,39,0.070525104032203,1
90,324,39,0.0703663891621879,1
90,325,39,0.0725395010391542,1
90,326,39,0.0714342666294145,1
90,330,39,0.0715412907244894,1
90,333,39,0.0765319599695961,1
90,334,39,0.0827630548819782,1
90,335,39,0.0860003947295541,1
90,336,39,0.0843301139721805,1
90,337,39,0.0840235493049356,1
90,338,39,0.0829846384137144,1
90,339,39,0.0796691367757369,1
90,340,39,0.0727771423560049,1
91,307,39,0.0717180862434582,1
91,308,39,0.0751259236215552,1
91,309,39,0.0753193816993636,1
91,310,39,0.0767425394001045,1
91,311,39,0.0771866101484535,1
91,312,39,0.0775026287497917,1
91,313,39,0.0888917970549549,1
91,314,39,0.109865043978589,1
91,315,39,0.115795385612625,1
91,316,39,0.0966316842372666,1
91,317,39,0.0772739547674855,1
91,329,39,0.0703023596129715,1
91,333,39,0.0776562065188546,1
91,334,39,0.086239516699318,1
91,335,39,0.0896023992305165,1
91,336,39,0.0865866985260538,1
91,337,39,0.086164934891312,1
91,338,39,0.0822972122795259,1
91,339,39,0.0756070802069544,1
92,306,39,0.0699072407792444,1
92,307,39,0.073490552906106,1
92,308,39,0.0821101495100749,1
92,309,39,0.0829445634651493,1
92,310,39,0.079486495110759,1
92,311,39,0.0776011304013384,1
92,312,39,0.0781282984497995,1
92,313,39,0.0830225862271084,1
92,314,39,0.0892386591162729,1
92,315,39,0.0890861379633735,1
92,316,39,0.0784027197411268,1
92,333,39,0.0715286599904838,1
92,334,39,0.0814776465621158,1
92,335,39,0.0852380600705197,1
92,336,39,0.0821937195068917,1
92,337,39,0.0801981191453733,1
92,338,39,0.0763257182264954,1
92,339,39,0.0707365523904773,1
93,308,39,0.0788021276023066,1
93,309,39,0.0819333678939504,1
93,310,39,0.0750985489212171,1
93,311,39,0.0707880276713314,1
93,312,39,0.0723870980604309,1
93,313,39,0.0746980149296527,1
93,314,39,0.0726742056971409,1
93,335,39,0.0726917997465456,1
93,336,39,0.0720633147205762,1
93,337,39,0.0714327859765013,1
93,338,39,0.0704621241477278,1
94,309,39,0.0700777244069214,1
95,310,39,0.0702648427877494,1
95,311,39,0.0778515067235267,1
95,312,39,0.07456636194598,1
96,310,39,0.0791279060003119,1
96,311,39,0.0885893615324538,1
96,312,39,0.0803262338551831,1
97,310,39,0.0735754367217049,1
97,311,39,0.0767533210558243,1
98,321,39,0.0759560694034434,1
98,322,39,0.0795687651916379,1
98,323,39,0.0715188515338619,1
99,321,39,0.0699956072573292,1
99,322,39,0.0757233844505696,1
99,323,39,0.0712273297441009,1
106,336,39,0.0720940122006912,1
88,315,40,0.0804952715870575,1
89,314,40,0.0968999813256996,1
89,315,40,0.106213309003727,1
89,316,40,0.0949264100209032,1
89,317,40,0.0777756806109599,1
89,335,40,0.0753723376331309,1
89,336,40,0.0748517595328466,1
89,337,40,0.0759758670536625,1
89,338,40,0.077268803763689,1
89,339,40,0.0770189418467382,1
90,310,40,0.0698239210336242,1
90,311,40,0.0713223904416945,1
90,312,40,0.0734586528299629,1
90,313,40,0.0883747919856443,1
90,314,40,0.113085206862088,1
90,315,40,0.122847798000793,1
90,316,40,0.105322386938178,1
90,317,40,0.0823318234102987,1
90,334,40,0.078175595925955,1
90,335,40,0.082125859724083,1
90,336,40,0.0807612747061884,1
90,337,40,0.0811321122224242,1
90,338,40,0.0811917762785445,1
90,339,40,0.0783330595399871,1
90,340,40,0.0713339576081146,1
91,307,40,0.072919229424291,1
91,308,40,0.0753054232437315,1
91,309,40,0.0761674343446522,1
91,310,40,0.0755185747004271,1
91,311,40,0.0762029422088795,1
91,312,40,0.0769070309019075,1
91,313,40,0.0870276689401339,1
91,314,40,0.102366885549339,1
91,315,40,0.106703349506605,1
91,316,40,0.0915778682735537,1
91,317,40,0.0741978601075791,1
91,329,40,0.0709845304720316,1
91,334,40,0.0813755093167964,1
91,335,40,0.0856822211873563,1
91,336,40,0.0827877254791087,1
91,337,40,0.0815312281238746,1
91,338,40,0.0794015417809388,1
91,339,40,0.0743704847732713,1
92,307,40,0.0718544036313784,1
92,308,40,0.0808239348252457,1
92,309,40,0.0834822420638672,1
92,310,40,0.0757836324261486,1
92,311,40,0.0731921283541724,1
92,312,40,0.0747319031125243,1
92,313,40,0.0800977614641185,1
92,314,40,0.0833739389071208,1
92,315,40,0.0819681458588543,1
92,316,40,0.0728194139539622,1
92,334,40,0.0759998981199573,1
92,335,40,0.0812574533148051,1
92,336,40,0.0787651738422768,1
92,337,40,0.0763421027284499,1
92,338,40,0.074282146100875,1
92,339,40,0.0706484431150112,1
93,308,40,0.075408332096907,1
93,309,40,0.0799471241466156,1
93,310,40,0.0703538835537805,1
93,313,40,0.0719340669289596,1
94,312,40,0.070291425025965,1
95,310,40,0.0707574900739253,1
95,311,40,0.0815983997158926,1
95,312,40,0.0795741942523195,1
96,310,40,0.081054082509043,1
96,311,40,0.0926285687767032,1
96,312,40,0.0858681439235784,1
96,313,40,0.0707681535554689,1
97,309,40,0.0766832159636684,1
97,310,40,0.0804890500642534,1
97,311,40,0.0819288564209897,1
97,312,40,0.073923508330473,1
97,321,40,0.0745589864871027,1
97,322,40,0.0701512635016082,1
98,309,40,0.078872156228819,1
98,310,40,0.0745054744395652,1
98,321,40,0.0772727313171911,1
98,322,40,0.0794818237550893,1
98,323,40,0.0738207037486295,1
99,321,40,0.0704947541231943,1
99,322,40,0.0766231139679541,1
99,323,40,0.0760676675342783,1
89,314,41,0.0881790329871117,1
89,315,41,0.096912980485078,1
89,317,41,0.075227428287461,1
89,336,41,0.0719357978330693,1
89,337,41,0.0730719382655879,1
89,338,41,0.0736201969287839,1
90,311,41,0.0705946530105886,1
90,312,41,0.071449942086312,1
90,313,41,0.0816661204702587,1
90,314,41,0.097326138259226,1
90,315,41,0.105196183869453,1
90,316,41,0.093797269670467,1
90,317,41,0.0770475678030592,1
90,335,41,0.0790171489915544,1
90,336,41,0.0783989381674895,1
90,337,41,0.0779515724450521,1
90,338,41,0.0780109167357545,1
90,339,41,0.0745396893392768,1
91,307,41,0.0709578092053735,1
91,308,41,0.073559358082324,1
91,309,41,0.0766381916025486,1
91,310,41,0.0723929094493295,1
91,311,41,0.0714804310237632,1
91,312,41,0.0727248815644504,1
91,313,41,0.0805026122888241,1
91,314,41,0.0893653904930794,1
91,315,41,0.0914699752507128,1
91,316,41,0.081245615042922,1
91,329,41,0.0715831104800085,1
91,334,41,0.0753931223852921,1
91,335,41,0.0827973810044438,1
91,336,41,0.0811066839202818,1
91,337,41,0.0776437565218242,1
91,338,41,0.076112031510296,1
91,339,41,0.0719005124143501,1
92,308,41,0.075393553373464,1
92,309,41,0.0799081683770131,1
92,310,41,0.0711591501958744,1
92,312,41,0.0700673528851071,1
92,313,41,0.0743682394639241,1
92,314,41,0.07552080610693,1
92,315,41,0.0734653470494717,1
92,335,41,0.0769997559216663,1
92,336,41,0.0758627674156481,1
92,337,41,0.0732673357901698,1
92,338,41,0.0725561357923053,1
92,339,41,0.0702364948883134,1
93,309,41,0.07226884741862,1
94,312,41,0.0698355160057329,1
95,310,41,0.0704481170321409,1
95,311,41,0.0798960659510891,1
95,312,41,0.0789026173605817,1
96,310,41,0.0780659650475822,1
96,311,41,0.0874034280632359,1
96,312,41,0.0836336231835378,1
96,313,41,0.072360063979777,1
97,309,41,0.0799764313423052,1
97,310,41,0.0814549084603367,1
97,311,41,0.0806343417381403,1
97,312,41,0.0747293936491362,1
97,313,41,0.0710212756893976,1
97,314,41,0.0714793187962228,1
97,321,41,0.076500004282076,1
98,309,41,0.0817091289189615,1
98,310,41,0.0788204306967683,1
98,321,41,0.0750964982516895,1
98,322,41,0.0735926971028475,1
99,322,41,0.0725770665243312,1
99,323,41,0.0713927040765141,1
89,316,42,0.0778030275056095,1
89,336,42,0.0707095113584013,1
90,309,42,0.0699233750300023,1
90,314,42,0.0826471121123136,1
90,315,42,0.086117609609468,1
90,316,42,0.0792178852083302,1
90,335,42,0.0759199428626468,1
90,336,42,0.0774483659486645,1
90,337,42,0.0751543549380567,1
90,338,42,0.0743123013700641,1
91,308,42,0.0720773357390074,1
91,309,42,0.0746997458337625,1
91,313,42,0.0736935413836511,1
91,314,42,0.07764406933582,1
91,315,42,0.0762656857450023,1
91,316,42,0.0699737450347382,1
91,335,42,0.0800016928103165,1
91,336,42,0.0811302214356055,1
91,337,42,0.0758054459887847,1
91,338,42,0.0731442330557139,1
92,309,42,0.0723147268046615,1
92,336,42,0.0730245365181005,1
92,337,42,0.0705512344279803,1
92,338,42,0.0697524048027765,1
95,311,42,0.0727953898390896,1
95,312,42,0.073011043807751,1
96,310,42,0.0716373732811358,1
96,311,42,0.0767678703823371,1
96,312,42,0.0756657432582884,1
96,313,42,0.0707743959325394,1
96,333,42,0.0705526247124058,1
97,308,42,0.0698877628944432,1
97,309,42,0.0778868477536229,1
97,310,42,0.0783887543340727,1
97,311,42,0.0755682565143723,1
97,312,42,0.0720130003272173,1
97,313,42,0.0739543795961413,1
97,314,42,0.0789788953155868,1
97,320,42,0.0740525962393807,1
97,321,42,0.0771794571350843,1
98,309,42,0.0772784940461348,1
98,310,42,0.0784455544042765,1
98,321,42,0.0736575260656085,1
98,322,42,0.0705708304869577,1
99,322,42,0.0702638487343852,1
90,315,43,0.0719826990781636,1
90,336,43,0.0738008226813448,1
91,336,43,0.0765535093781914,1
91,337,43,0.0720997957839013,1
96,334,43,0.0697482826094549,1
97,308,43,0.0714841430831793,1
97,309,43,0.0734476765344236,1
97,310,43,0.0740097615762311,1
97,314,43,0.0745049530829057,1
97,320,43,0.0707639131879711,1
97,321,43,0.070101859744548,1
98,310,43,0.0724080079381904,1
100,315,43,0.0706473308874708,1
96,308,44,0.0747579848483467,1
97,308,44,0.0713849393379977,1
97,309,44,0.0698487376106194,1
98,315,44,0.0705237832619988,1
99,314,44,0.0716347595464158,1
99,315,44,0.0771608620808932,1
100,314,44,0.0795015588425092,1
100,315,44,0.0860907215086788,1
101,314,44,0.0698293222886173,1
101,315,44,0.0726536711961762,1
96,308,45,0.0727929290356565,1
98,314,45,0.0744390605525591,1
98,315,45,0.0803132485986489,1
98,316,45,0.0704951016943007,1
99,314,45,0.0834430916544451,1
99,315,45,0.0900927247417018,1
99,316,45,0.0712984427924652,1
100,314,45,0.083988131809196,1
100,315,45,0.0901679252262771,1
92,311,46,0.0700582465221201,1
98,314,46,0.0844381390720419,1
98,315,46,0.0913612897657493,1
98,316,46,0.0731763416745208,1
99,314,46,0.0961932163351524,1
99,315,46,0.101564072759256,1
99,316,46,0.0752938491258893,1
100,314,46,0.0835218304128833,1
100,315,46,0.086118263043148,1
104,336,46,0.0757412843625479,1
105,336,46,0.0846770385962977,1
92,311,47,0.0722808247189457,1
97,315,47,0.0746871081483347,1
98,314,47,0.096130166936456,1
98,315,47,0.104819395935876,1
98,316,47,0.0759003537550915,1
99,314,47,0.101022139890196,1
99,315,47,0.106490295369819,1
99,316,47,0.0745727503029152,1
100,314,47,0.0762249504113351,1
100,315,47,0.0765854581142894,1
104,336,47,0.0721340941006784,1
104,337,47,0.0770871352978089,1
105,335,47,0.0747099296671793,1
105,336,47,0.0796776800735316,1
105,337,47,0.0834044973587933,1
106,335,47,0.0790067218583632,1
106,336,47,0.0845603450730433,1
106,337,47,0.0888339403685878,1
107,335,47,0.0761087851961625,1
107,336,47,0.0806388810167895,1
108,335,47,0.0731422519004076,1
108,336,47,0.0742523453542144,1
91,311,48,0.0697989098168094,1
97,315,48,0.0766247892606868,1
98,314,48,0.0978134607560522,1
98,315,48,0.10846182295651,1
98,316,48,0.071231097414894,1
99,314,48,0.0899086302294993,1
99,315,48,0.0963826078310162,1
100,338,48,0.0736293519517258,1
101,337,48,0.0704252399019193,1
103,337,48,0.0724686451934086,1
104,337,48,0.0750082638506252,1
105,335,48,0.0707311858925949,1
105,336,48,0.0754656257180819,1
105,337,48,0.0789574432269013,1
105,338,48,0.0820543156875468,1
106,335,48,0.0734760800452365,1
106,336,48,0.0781125604301028,1
106,337,48,0.081861865565947,1
107,335,48,0.0709962575211607,1
107,336,48,0.0756315283585768,1
107,337,48,0.0797511913625299,1
108,336,48,0.0712221092260832,1
108,337,48,0.0739466426633134,1
97,315,49,0.0707686679607063,1
98,314,49,0.0845077228075381,1
98,315,49,0.095258701901442,1
99,315,49,0.0756208301199226,1
99,339,49,0.0699718333936531,1
99,340,49,0.0699460019090273,1
100,338,49,0.0738845039009157,1
102,337,49,0.0704217919965441,1
103,337,49,0.0706880870754044,1
104,337,49,0.0724823047378891,1
104,338,49,0.0772433476558581,1
105,336,49,0.0716773092012582,1
105,337,49,0.0747085463341759,1
105,338,49,0.0790051091284296,1
106,336,49,0.0724091549228414,1
106,337,49,0.0760139747497655,1
106,338,49,0.0819347373241096,1
107,336,49,0.0698650804040411,1
107,337,49,0.0757431056351453,1
99,339,50,0.0698804847554757,1
99,340,50,0.0736651934842152,1
99,341,50,0.0724415833070662,1
100,338,50,0.0734496715925742,1
100,339,50,0.0810625840983049,1
101,338,50,0.0774084230771199,1
102,338,50,0.0777134445286524,1
103,338,50,0.0752954757586671,1
104,337,50,0.0704532610845153,1
104,338,50,0.0745644850620056,1
104,339,50,0.0792993697785088,1
105,337,50,0.0722409513616223,1
105,338,50,0.0777774045636476,1
105,339,50,0.082993883805144,1
106,337,50,0.0734872648834397,1
106,338,50,0.0827586893888821,1
107,337,50,0.0746499875541738,1
137,329,50,0.0897202327869998,1
137,330,50,0.0738842397468748,1
138,329,50,0.0730838460516923,1
99,339,51,0.0711883253145435,1
99,340,51,0.0814545469863861,1
99,342,51,0.0737447038505095,1
100,338,51,0.0699403573542598,1
100,339,51,0.0786992604576638,1
101,338,51,0.0717283952024732,1
101,339,51,0.0816607261666878,1
102,338,51,0.0714971909025126,1
102,339,51,0.080227871232079,1
103,338,51,0.070655081723143,1
103,339,51,0.0765118773110698,1
104,338,51,0.0719658071223937,1
104,339,51,0.0759892068327252,1
104,340,51,0.081695031434887,1
105,337,51,0.0707647821157371,1
105,338,51,0.0776174453890717,1
106,337,51,0.0733373574652601,1
116,331,51,0.0707102412577247,1
116,337,51,0.0730290688453276,1
117,331,51,0.0773796928494669,1
117,332,51,0.0713652668133769,1
118,330,51,0.0712424699414946,1
118,331,51,0.0786363014274551,1
136,329,51,0.0738873331297215,1
137,328,51,0.0749939439210425,1
137,329,51,0.108509189946887,1
137,330,51,0.0898242886248263,1
138,329,51,0.0783506952979246,1
98,340,52,0.0750063869666508,1
98,342,52,0.070684090007681,1
99,339,52,0.0750523775754463,1
100,339,52,0.0786808808975587,1
101,339,52,0.0773477580162132,1
101,340,52,0.0870993241994242,1
101,342,52,0.0785498187847668,1
102,339,52,0.0745167009863011,1
102,340,52,0.0793890361725314,1
102,341,52,0.0784119512297121,1
102,342,52,0.0750939887883015,1
103,339,52,0.0729153644335881,1
103,340,52,0.0766210076870494,1
103,341,52,0.0762482515783065,1
104,338,52,0.0702569946321674,1
104,339,52,0.0750439176947171,1
104,340,52,0.0792862872020648,1
104,341,52,0.0799593656009821,1
105,337,52,0.0699227911105436,1
105,338,52,0.0781772225587328,1
106,337,52,0.0745809112724929,1
111,337,52,0.0710454596869791,1
112,337,52,0.0701180635095272,1
112,338,52,0.0727257018322614,1
113,337,52,0.0714182296985663,1
116,337,52,0.0759742473723068,1
116,338,52,0.0712498036918391,1
116,339,52,0.0723208301532894,1
116,340,52,0.0707528187182556,1
117,330,52,0.0722127216363625,1
117,331,52,0.0798526543199029,1
117,335,52,0.0718692866261534,1
117,336,52,0.0714684050634826,1
118,330,52,0.0738676258479901,1
118,331,52,0.080547636649944,1
118,332,52,0.0703468070060547,1
136,329,52,0.0715527258138892,1
137,328,52,0.0726914591268613,1
137,329,52,0.101031503455802,1
137,330,52,0.0878683044180125,1
98,340,53,0.0776641798000348,1
98,342,53,0.0767845816011316,1
99,339,53,0.0747298107344639,1
100,339,53,0.0757394491871063,1
101,339,53,0.0705910382710823,1
101,340,53,0.081448652180422,1
101,342,53,0.0778847206184519,1
102,340,53,0.0715708551227977,1
102,341,53,0.0724524136227409,1
102,342,53,0.0714081570879036,1
103,340,53,0.0699954404231981,1
103,341,53,0.0697759562209444,1
103,342,53,0.0703753564967324,1
104,339,53,0.0727679386731081,1
104,340,53,0.0760364208918152,1
104,341,53,0.0748134710997684,1
104,342,53,0.0735506131932876,1
105,338,53,0.0793297822503166,1
106,337,53,0.0762841695764393,1
110,337,53,0.0760582970172504,1
111,337,53,0.0774372019647277,1
112,337,53,0.0718645874647952,1
112,338,53,0.0749568858896808,1
113,337,53,0.071772870401245,1
113,338,53,0.0697922573058334,1
114,339,53,0.0708502915593274,1
115,337,53,0.0781510156973122,1
115,338,53,0.070897102435934,1
115,339,53,0.0764987321718267,1
115,340,53,0.0856417778134185,1
116,336,53,0.0910703797011356,1
116,337,53,0.0756286852269267,1
116,338,53,0.0733627788159804,1
116,339,53,0.0799035178756098,1
116,340,53,0.0864738352363917,1
117,330,53,0.0742924411570459,1
117,331,53,0.0789660212818066,1
117,335,53,0.0731310879164708,1
117,336,53,0.0737753318164033,1
117,339,53,0.0724711685596409,1
118,330,53,0.0731167818897324,1
118,331,53,0.0774145194743257,1
98,340,54,0.0732879328539336,1
98,342,54,0.0778711305881926,1
99,339,54,0.0700177544882274,1
100,339,54,0.070401396524022,1
101,340,54,0.0749534518871498,1
101,342,54,0.0783815040007937,1
102,342,54,0.0697896505225356,1
104,340,54,0.071158858236145,1
105,338,54,0.0772210266394067,1
106,337,54,0.0740832659138073,1
109,337,54,0.0718153157847555,1
110,337,54,0.0784947218129843,1
111,337,54,0.0785589460020202,1
111,338,54,0.0858370293581357,1
112,337,54,0.0715430216285992,1
112,338,54,0.0748879416850203,1
113,335,54,0.0786706414527649,1
113,336,54,0.0768388374508368,1
113,337,54,0.0715078404812119,1
113,338,54,0.0698742006698724,1
114,337,54,0.0753879088186965,1
114,338,54,0.0702229882751197,1
115,336,54,0.0926003321000213,1
115,337,54,0.0761763877763524,1
115,338,54,0.0720158017503347,1
115,339,54,0.0866302422342605,1
116,330,54,0.0707486687192455,1
116,335,54,0.0888101247963789,1
116,336,54,0.083723324334671,1
116,337,54,0.0730689282998067,1
116,338,54,0.0722070075673737,1
116,339,54,0.0855379513725222,1
117,330,54,0.0760011702302066,1
117,331,54,0.0768069304232715,1
117,333,54,0.0721599533909927,1
117,334,54,0.0752459190703201,1
117,335,54,0.0748070966456774,1
117,336,54,0.0745709637874284,1
118,330,54,0.070983133236184,1
118,331,54,0.0720087391054532,1
118,335,54,0.069930986837232,1
118,336,54,0.0707615497044478,1
98,341,55,0.0745419137943576,1
99,340,55,0.0787865077567861,1
99,342,55,0.0850792131234842,1
100,340,55,0.079932971051164,1
100,342,55,0.0846580751167338,1
101,341,55,0.0771700449095236,1
101,342,55,0.0761923899500899,1
104,340,55,0.0702869761158034,1
105,338,55,0.0743037997808022,1
105,341,55,0.0789426992605689,1
106,337,55,0.0714933120089654,1
108,337,55,0.0721399680523761,1
109,337,55,0.0714063010581955,1
109,338,55,0.0850956740910821,1
110,337,55,0.0754246123275297,1
111,337,55,0.0741873565087444,1
113,334,55,0.0736668131655709,1
113,335,55,0.0769278921197122,1
113,336,55,0.0739445780909415,1
114,333,55,0.0763487413365816,1
114,335,55,0.085567001365593,1
114,336,55,0.0799991068812851,1
115,335,55,0.0865466861402879,1
115,336,55,0.0798527863969233,1
116,331,55,0.073697788702571,1
116,333,55,0.0789967604704545,1
116,334,55,0.0789603211156621,1
116,335,55,0.0808611527393163,1
116,336,55,0.076487081588341,1
116,337,55,0.0718271957651714,1
117,330,55,0.0733761533521537,1
117,331,55,0.0749869646932265,1
117,332,55,0.070837292399949,1
117,333,55,0.074004415932615,1
117,334,55,0.073160485480648,1
117,335,55,0.0769776573507229,1
117,336,55,0.0747614049480334,1
118,335,55,0.0727644490592001,1
99,341,56,0.073271708234688,1
99,342,56,0.0733820134010072,1
100,341,56,0.0758007954873814,1
100,342,56,0.0753612640176817,1
105,339,56,0.0794382869983047,1
105,340,56,0.0797723236857975,1
105,341,56,0.076255369834565,1
106,338,56,0.0827254337854242,1
108,338,56,0.0816922647688802,1
109,337,56,0.0697993477564035,1
109,338,56,0.0787724658840885,1
110,337,56,0.0719549072924978,1
110,338,56,0.078642022447866,1
111,337,56,0.0699403643056819,1
113,334,56,0.0720022047686533,1
113,335,56,0.0721502074971699,1
114,333,56,0.0762225382678569,1
114,334,56,0.0767792707146262,1
114,335,56,0.0743315081494024,1
115,332,56,0.076735914694817,1
115,333,56,0.0793759674989317,1
115,334,56,0.0733509961554743,1
116,331,56,0.078512044756926,1
116,332,56,0.0860709794698367,1
116,333,56,0.0813761836047428,1
116,334,56,0.070253644046702,1
117,331,56,0.0781135892405777,1
117,332,56,0.0836850706587034,1
117,333,56,0.07928427824107,1
117,334,56,0.0708642847720701,1
105,339,57,0.0727025118880441,1
105,340,57,0.0737715432913438,1
105,341,57,0.0732923817640952,1
106,338,57,0.0699981306235615,1
106,339,57,0.0792146458456188,1
106,340,57,0.077238544223168,1
107,338,57,0.0710222697427618,1
107,339,57,0.0789300963322517,1
107,340,57,0.0774460650279403,1
108,339,57,0.0770403661297351,1
109,338,57,0.0699385013245518,1
109,339,57,0.0765856040941541,1
114,333,57,0.073666382177399,1
114,334,57,0.0701519725466652,1
115,332,57,0.0836923974576258,1
115,333,57,0.0768710572923977,1
116,331,57,0.081926367811868,1
116,332,57,0.101038753789081,1
116,333,57,0.0828601036863002,1
117,331,57,0.0777337704869532,1
117,332,57,0.0943376732266589,1
117,333,57,0.0784279325491833,1
118,332,57,0.0711190404901987,1
105,340,58,0.0698398467417183,1
105,341,58,0.0701301450811848,1
108,340,58,0.0711840015299802,1
109,339,58,0.0699751283677416,1
114,333,58,0.0699198437075616,1
115,332,58,0.0837434347988859,1
115,333,58,0.0731631617781671,1
116,331,58,0.0772337894504328,1
116,332,58,0.103013395612885,1
116,333,58,0.0811969411851852,1
117,331,58,0.0716654500751087,1
117,332,58,0.0933849043584416,1
117,333,58,0.0754476840975708,1
104,340,59,0.0717232998100538,1
115,332,59,0.0711234894003603,1
116,332,59,0.0826781710663793,1
116,333,59,0.0707546538936973,1
117,332,59,0.0745717284438624,1
104,340,60,0.0729959731245786,1
112,339,61,0.0713772719193911,1
119,335,61,0.0703328137933121,1
119,334,62,0.0705263830938744,1
119,335,62,0.0754444794919701,1
120,335,62,0.0702172950603973,1
119,335,63,0.0776092913709161,1
119,336,63,0.0743538639229644,1
120,335,63,0.0729198550522825,1
120,336,63,0.0697758867067232,1
115,305,64,0.0811232769649001,1
115,306,64,0.0815448320569781,1
116,305,64,0.0701344410600596,1
116,306,64,0.0721876478567487,1
118,336,64,0.0709192705210986,1
119,335,64,0.0761646815814897,1
119,336,64,0.0832655175761982,1
120,335,64,0.0705415649998009,1
120,336,64,0.074374447083884,1
122,333,64,0.0700008138725027,1
123,333,64,0.0711949152627204,1
115,305,65,0.0802278573292347,1
115,306,65,0.0871648969643529,1
116,306,65,0.0729777743014488,1
119,335,65,0.0701426576410143,1
119,336,65,0.0817593877009434,1
120,336,65,0.0711235380603152,1
122,333,65,0.0729849342662401,1
115,306,66,0.0719125314232086,1
