x,y,z,signal,cytoplasm.p
614,874,33,0.116602828049845,1
617,876,33,0.0983141230319412,1
612,873,34,0.128024758407495,1
613,873,34,0.11932839029755,1
614,873,34,0.108660723997844,1
614,874,34,0.106468321924474,1
615,874,34,0.0962159127283987,1
615,875,34,0.0928652994572552,1
616,875,34,0.0897376739051177,1
616,876,34,0.0874432458091822,1
616,877,34,0.0838308419807171,1
616,878,34,0.0772684492411605,1
617,877,34,0.100485420587732,1
617,878,34,0.0949477230811461,1
617,879,34,0.0755784751048997,1
618,879,34,0.0821940323208874,1
621,885,34,0.072950580338086,1
607,894,35,0.111372730972401,1
607,895,35,0.107677097766803,1
608,895,35,0.104884641983965,1
608,896,35,0.101900097553478,1
609,896,35,0.104578765507511,1
610,896,35,0.103900668181817,1
610,897,35,0.0986316083833483,1
611,897,35,0.0960323812813885,1
612,872,35,0.120137647055945,1
612,873,35,0.122893788609589,1
612,874,35,0.118776363963561,1
612,897,35,0.0882940651204776,1
612,898,35,0.0868709143711588,1
613,872,35,0.115031598106366,1
613,873,35,0.114930885902583,1
613,874,35,0.109591422100807,1
613,897,35,0.0816207693922989,1
613,898,35,0.083572026632066,1
614,873,35,0.10533223015191,1
614,874,35,0.0998567617762096,1
614,875,35,0.0920506970552441,1
614,897,35,0.076382288899769,1
614,898,35,0.0792477068092572,1
615,874,35,0.092366041368636,1
615,875,35,0.0871612196620474,1
615,876,35,0.0782693845132992,1
615,897,35,0.0737977710070308,1
616,876,35,0.0828121249707762,1
616,877,35,0.0768786412939388,1
617,878,35,0.0804643655642786,1
618,879,35,0.0708328365383653,1
621,885,35,0.0720305109595565,1
621,886,35,0.0785746979245612,1
622,885,35,0.0792586970076408,1
604,892,36,0.114791419520439,1
604,893,36,0.120013355628305,1
605,890,36,0.0811983384210328,1
605,893,36,0.118225797428219,1
605,894,36,0.118169949702846,1
606,890,36,0.0770942674569118,1
606,894,36,0.115629719320482,1
606,895,36,0.113270045176458,1
607,893,36,0.105914015524027,1
607,894,36,0.111374948476059,1
607,895,36,0.111362095296545,1
608,894,36,0.105226902203834,1
608,895,36,0.110463596180878,1
608,896,36,0.111814104568964,1
608,897,36,0.105472697538841,1
609,895,36,0.108837547322501,1
609,896,36,0.114681065694165,1
609,897,36,0.110121308155319,1
610,894,36,0.0870497744624994,1
610,895,36,0.103404211516315,1
610,896,36,0.110802707406523,1
610,897,36,0.109290849559436,1
611,871,36,0.1324137612132,1
611,872,36,0.131613666429169,1
611,873,36,0.130402367220608,1
611,874,36,0.114887015477536,1
611,894,36,0.0777145984647256,1
611,895,36,0.0945562189869253,1
611,896,36,0.102441912248361,1
611,897,36,0.103649958191367,1
611,898,36,0.101721001113785,1
612,871,36,0.121830262732614,1
612,872,36,0.121389069873026,1
612,873,36,0.119620252706995,1
612,874,36,0.106950159749242,1
612,875,36,0.0888372700997868,1
612,894,36,0.0700729765856083,1
612,895,36,0.083288352997887,1
612,896,36,0.090992822684459,1
612,897,36,0.0946852234787675,1
612,898,36,0.0951913982324035,1
613,871,36,0.118580625819295,1
613,872,36,0.116225059965748,1
613,873,36,0.110790000206874,1
613,874,36,0.0999805040415012,1
613,875,36,0.0846913585258803,1
613,895,36,0.0725623086551545,1
613,896,36,0.0799801920616761,1
613,897,36,0.08638018567749,1
613,898,36,0.0900379683896035,1
614,873,36,0.101740339970143,1
614,874,36,0.0931225507359276,1
614,875,36,0.0816273037290987,1
614,896,36,0.0719846176706708,1
614,897,36,0.0788185329585275,1
614,898,36,0.083644210199438,1
614,899,36,0.0863429955691079,1
615,875,36,0.080646374649843,1
615,876,36,0.0703613424297233,1
615,897,36,0.0745405513156206,1
615,898,36,0.0797400551842816,1
616,876,36,0.0765028335108819,1
616,897,36,0.0749707261711367,1
617,877,36,0.0780863952772149,1
617,896,36,0.0698139804999819,1
618,894,36,0.0713402208394515,1
618,895,36,0.0715076945013472,1
619,892,36,0.0772112112313627,1
619,893,36,0.0751261321642191,1
619,894,36,0.074895671666426,1
620,886,36,0.0739136164567856,1
620,887,36,0.0762896959570306,1
620,888,36,0.0768407768976103,1
620,889,36,0.076719724832682,1
620,890,36,0.0793382282282015,1
620,891,36,0.0821609783086712,1
621,885,36,0.0736133219722998,1
621,886,36,0.0803615818367014,1
621,887,36,0.081930941847628,1
621,889,36,0.0806926850240564,1
621,890,36,0.0815328547566524,1
621,891,36,0.0836111353329553,1
622,885,36,0.0821844393583515,1
622,886,36,0.0890023107639379,1
622,891,36,0.0836730238441565,1
604,893,37,0.115920539016608,1
604,894,37,0.117598292552769,1
605,890,37,0.073227052298941,1
605,891,37,0.0926940511731442,1
605,892,37,0.107769044227283,1
605,893,37,0.113982253130531,1
605,894,37,0.116367612779316,1
606,891,37,0.0824027974302205,1
606,892,37,0.0969068145736509,1
606,893,37,0.10673022370455,1
606,894,37,0.112391058702702,1
606,895,37,0.113090357865884,1
607,891,37,0.0698446154172978,1
607,892,37,0.0823623749105491,1
607,893,37,0.0952517713335808,1
607,894,37,0.106854403909435,1
607,895,37,0.112474593942408,1
607,896,37,0.114921459774178,1
607,897,37,0.11151574257983,1
608,893,37,0.0817717681837525,1
608,894,37,0.0994592029933157,1
608,895,37,0.111820896108383,1
608,896,37,0.118649820275152,1
608,897,37,0.116439497435537,1
608,898,37,0.109888831745109,1
609,894,37,0.0891564029382382,1
609,895,37,0.108392350443768,1
609,896,37,0.119758780647152,1
609,897,37,0.12120983440489,1
609,898,37,0.116859870785853,1
610,870,37,0.148700845938023,1
610,894,37,0.0785126495306511,1
610,895,37,0.100150375944031,1
610,896,37,0.113069538356613,1
610,897,37,0.116935613481355,1
610,898,37,0.116025463782201,1
611,870,37,0.138554605812101,1
611,871,37,0.137339121847419,1
611,875,37,0.0802484335387321,1
611,895,37,0.0883441153597956,1
611,896,37,0.101215472842406,1
611,897,37,0.107176664887844,1
611,898,37,0.10894108875509,1
612,870,37,0.126987369877719,1
612,871,37,0.127405219861804,1
612,872,37,0.124141596687164,1
612,873,37,0.116650132477422,1
612,874,37,0.0969103667503581,1
612,875,37,0.075369292910239,1
612,895,37,0.0768289872856821,1
612,896,37,0.0889808100152976,1
612,897,37,0.0981540804402997,1
612,898,37,0.101901717234833,1
612,899,37,0.100951207578807,1
613,873,37,0.107266011516449,1
613,874,37,0.0911583082396263,1
613,875,37,0.0727288230207967,1
613,896,37,0.0779227309946451,1
613,897,37,0.088671478682046,1
613,898,37,0.0948515501560122,1
613,899,37,0.0971669228868177,1
614,874,37,0.08754093414434,1
614,875,37,0.0731212238484719,1
614,896,37,0.0703617942721616,1
614,897,37,0.0799043033863102,1
614,898,37,0.087158689344393,1
614,899,37,0.0908687954108602,1
615,875,37,0.0746426190467187,1
615,897,37,0.0746415346248668,1
615,898,37,0.0820947034501076,1
615,899,37,0.0874055899555176,1
616,876,37,0.0702078411263039,1
616,897,37,0.0735916543895283,1
617,877,37,0.0702344025102531,1
617,896,37,0.0697386896469189,1
618,893,37,0.0703327998904678,1
618,894,37,0.0712427340955355,1
618,895,37,0.0712727155791714,1
618,896,37,0.0732171465224093,1
619,890,37,0.0712953355067742,1
619,891,37,0.0746145700584342,1
619,892,37,0.0752645419301997,1
619,893,37,0.0748956091036269,1
619,894,37,0.075712880851735,1
619,895,37,0.0757661565509201,1
619,896,37,0.0763881628514667,1
620,886,37,0.0715635700324081,1
620,887,37,0.0719803077889517,1
620,888,37,0.0711369612564434,1
620,889,37,0.071721568905944,1
620,890,37,0.0762936860733318,1
620,891,37,0.0797501695034772,1
620,892,37,0.0795153435125881,1
620,893,37,0.0776155754565194,1
620,894,37,0.0779569041858239,1
620,895,37,0.078476988735137,1
620,896,37,0.0788985229729486,1
620,897,37,0.0804556971408856,1
621,884,37,0.0699182726861608,1
621,885,37,0.0747105552951707,1
621,886,37,0.0802518119298861,1
621,887,37,0.0800035071314918,1
621,888,37,0.0791383331335031,1
621,889,37,0.0783294239462144,1
621,890,37,0.0813076564854099,1
621,891,37,0.0837670348770088,1
621,892,37,0.0827432780860255,1
621,893,37,0.0798703456892174,1
621,894,37,0.0803626036957542,1
621,895,37,0.0816952538803951,1
622,886,37,0.0903156638007529,1
622,887,37,0.0907854548109736,1
622,888,37,0.0910578323841954,1
622,891,37,0.0861941100099811,1
622,892,37,0.0839194934671091,1
622,893,37,0.0819368714107027,1
622,894,37,0.0828855736969754,1
623,887,37,0.103275151413096,1
623,893,37,0.0845233774101693,1
604,894,38,0.112832654744774,1
605,891,38,0.0830452617660883,1
605,892,38,0.0977796768445126,1
605,893,38,0.10627282012856,1
605,894,38,0.112246948770577,1
605,895,38,0.112808185738885,1
606,891,38,0.0711098715644125,1
606,892,38,0.0844472315321846,1
606,893,38,0.0966021059361141,1
606,894,38,0.107271294597266,1
606,895,38,0.111892676493271,1
606,896,38,0.115635565466492,1
606,897,38,0.115397187298895,1
607,892,38,0.0701190019515144,1
607,893,38,0.0840668219076793,1
607,894,38,0.100720190967244,1
607,895,38,0.113039605532932,1
607,896,38,0.120204422416902,1
607,897,38,0.118498390495526,1
607,898,38,0.113746544309032,1
608,894,38,0.0904555472682246,1
608,895,38,0.109609002247367,1
608,896,38,0.121356843080043,1
608,897,38,0.123367833890152,1
608,898,38,0.120982230941592,1
608,899,38,0.113898599716649,1
609,869,38,0.148295494610924,1
609,894,38,0.0778788258124878,1
609,895,38,0.101828817670982,1
609,896,38,0.118184784037666,1
609,897,38,0.125172270143164,1
609,898,38,0.127140356775901,1
609,899,38,0.11822296124799,1
610,869,38,0.153515651154726,1
610,870,38,0.15394627785268,1
610,871,38,0.148764785118751,1
610,895,38,0.0910761076729686,1
610,896,38,0.109527566337143,1
610,897,38,0.118586993321963,1
610,898,38,0.122840693647379,1
611,870,38,0.145891289656751,1
611,871,38,0.14032942900685,1
611,872,38,0.133610392921072,1
611,873,38,0.118802974007465,1
611,874,38,0.0926311686085789,1
611,895,38,0.0776230204296179,1
611,896,38,0.0954549405481013,1
611,897,38,0.10809819406502,1
611,898,38,0.114784016255873,1
611,899,38,0.113427814653064,1
612,870,38,0.138712556025682,1
612,871,38,0.134857686593409,1
612,872,38,0.125247456724895,1
612,873,38,0.109016184968334,1
612,874,38,0.0856842092940848,1
612,896,38,0.0833851654538567,1
612,897,38,0.0997931632151651,1
612,898,38,0.108647293850294,1
612,899,38,0.110070069222818,1
613,873,38,0.101855476374841,1
613,874,38,0.0819743326245478,1
613,896,38,0.0733020929008073,1
613,897,38,0.0895544969806359,1
613,898,38,0.100144154421227,1
613,899,38,0.103835540307905,1
614,874,38,0.0823383577470986,1
614,897,38,0.0814493125655241,1
614,898,38,0.0934086712706955,1
614,899,38,0.097880291728386,1
615,874,38,0.0825001590485383,1
615,875,38,0.0702381562782019,1
615,897,38,0.0769162554390707,1
615,898,38,0.0890607096612311,1
615,899,38,0.0949445879897666,1
616,875,38,0.0749505253384342,1
616,897,38,0.0755211119695036,1
616,898,38,0.0870959597111145,1
616,899,38,0.0965795972312652,1
617,896,38,0.0703135861597074,1
617,897,38,0.0766487021528054,1
618,895,38,0.0706049480667595,1
618,896,38,0.0745530847297165,1
618,897,38,0.0785961986732015,1
619,891,38,0.0725379022120649,1
619,892,38,0.0732367078242761,1
619,893,38,0.0735745816967832,1
619,894,38,0.0743144632623458,1
619,895,38,0.0750912082194505,1
619,896,38,0.0775875125653906,1
619,897,38,0.0807438335880705,1
619,898,38,0.0845166623363941,1
620,882,38,0.0703056615384821,1
620,890,38,0.0737373353430543,1
620,891,38,0.0780672858177864,1
620,892,38,0.0769151362601082,1
620,893,38,0.0756795279283672,1
620,894,38,0.0762225938792339,1
620,895,38,0.0777222450290658,1
620,896,38,0.0805539763469242,1
620,897,38,0.0855359702172158,1
621,883,38,0.0762637184925402,1
621,884,38,0.0742027191516462,1
621,885,38,0.0761782299032162,1
621,886,38,0.0808761400054232,1
621,887,38,0.0803675809139975,1
621,888,38,0.0780334949548247,1
621,889,38,0.0769323062727631,1
621,890,38,0.080798437008882,1
621,891,38,0.0835832948873347,1
621,892,38,0.0806077873056132,1
621,893,38,0.0776226937127779,1
621,894,38,0.0783316970612501,1
621,895,38,0.0816301607635931,1
622,886,38,0.0941756633825553,1
622,887,38,0.0928018746817639,1
622,888,38,0.090085265865759,1
622,891,38,0.0873975054515833,1
622,892,38,0.0827130672054593,1
622,893,38,0.0805260246785496,1
622,894,38,0.0817461869503232,1
623,887,38,0.101731643741062,1
623,892,38,0.0853630466403721,1
623,893,38,0.083999142861846,1
624,893,38,0.0851246962784644,1
604,894,39,0.106141605084481,1
605,891,39,0.0722493208738638,1
605,892,39,0.0848652831075104,1
605,893,39,0.0950602805082346,1
605,894,39,0.105369941616952,1
605,895,39,0.10923012193573,1
606,892,39,0.0722558621620858,1
606,893,39,0.0848976280746696,1
606,894,39,0.100593751550167,1
606,895,39,0.110077305653252,1
606,896,39,0.116894586187958,1
606,897,39,0.117283615575901,1
607,893,39,0.0729234489375224,1
607,894,39,0.0942778353849853,1
607,895,39,0.112730037851328,1
607,896,39,0.124193996507161,1
607,897,39,0.123704421749565,1
607,898,39,0.122838260649634,1
607,899,39,0.118847796777343,1
608,894,39,0.0814644736171842,1
608,895,39,0.104425764706484,1
608,896,39,0.120199598129945,1
608,897,39,0.125282811657835,1
608,898,39,0.130096810509572,1
608,899,39,0.125375015320934,1
608,900,39,0.115059758317404,1
609,869,39,0.147697908656311,1
609,870,39,0.14858239370497,1
609,871,39,0.146969191074685,1
609,895,39,0.0921264049936347,1
609,896,39,0.112348390873684,1
609,897,39,0.123437334208582,1
609,898,39,0.13184879133121,1
609,899,39,0.127141955602991,1
609,900,39,0.115594322679009,1
610,869,39,0.154005406649297,1
610,870,39,0.150959446404313,1
610,871,39,0.142724972489052,1
610,872,39,0.135316327522538,1
610,873,39,0.112279196417827,1
610,874,39,0.0833358590167063,1
610,895,39,0.0803746644131454,1
610,896,39,0.102254397636472,1
610,897,39,0.116307204921029,1
610,898,39,0.125434018991953,1
610,899,39,0.123083159251186,1
611,869,39,0.152696926559393,1
611,870,39,0.147443361480846,1
611,871,39,0.137359308777277,1
611,872,39,0.128233148140033,1
611,873,39,0.105654254781967,1
611,874,39,0.0791401613575227,1
611,896,39,0.0878351878429971,1
611,897,39,0.106231563438233,1
611,898,39,0.119110671756516,1
611,899,39,0.120295041155756,1
612,871,39,0.139918252388008,1
612,872,39,0.122897625794603,1
612,873,39,0.0999939828490064,1
612,874,39,0.074749879490146,1
612,896,39,0.076589364813525,1
612,897,39,0.0968068670263017,1
612,898,39,0.112309094484397,1
612,899,39,0.115614182892027,1
613,872,39,0.117184905381691,1
613,873,39,0.0959102100374976,1
613,874,39,0.0735529627739667,1
613,897,39,0.0868002392623885,1
613,898,39,0.103311215391094,1
613,899,39,0.108174298234472,1
613,900,39,0.107979109252554,1
614,873,39,0.09420263490041,1
614,874,39,0.0771903430621359,1
614,897,39,0.0808998652091444,1
614,898,39,0.0986115326762441,1
614,899,39,0.105277265257148,1
614,900,39,0.105659927142423,1
615,874,39,0.0811284627258072,1
615,897,39,0.0773702180611071,1
615,898,39,0.0954402660959901,1
616,875,39,0.0750367577299258,1
616,897,39,0.0770868433380796,1
616,898,39,0.0928754971935162,1
616,899,39,0.103839294075853,1
617,876,39,0.0751835509109922,1
617,896,39,0.069787488630254,1
617,897,39,0.078772271244269,1
617,898,39,0.0890303528008003,1
617,899,39,0.099478027444437,1
618,896,39,0.075471409301292,1
618,897,39,0.0817023165252766,1
618,898,39,0.086979857058741,1
618,899,39,0.093378655029949,1
619,879,39,0.0778006918277747,1
619,880,39,0.0711627718868028,1
619,894,39,0.0710282549172136,1
619,895,39,0.0736117857080096,1
619,896,39,0.0791833853003115,1
619,897,39,0.0851486717333822,1
619,898,39,0.0899458689978363,1
620,881,39,0.0897828790032128,1
620,882,39,0.0781505777577181,1
620,891,39,0.073239050453533,1
620,892,39,0.0722859479170536,1
620,893,39,0.0719153537005923,1
620,894,39,0.0734332314792426,1
620,895,39,0.0778791525293278,1
620,896,39,0.0841936784100841,1
620,897,39,0.0917643193178575,1
620,898,39,0.0981385718175333,1
621,882,39,0.0940192146761538,1
621,883,39,0.083837758645734,1
621,884,39,0.0793828146497273,1
621,885,39,0.0783698325630416,1
621,886,39,0.0816574033869108,1
621,887,39,0.0818201222760713,1
621,888,39,0.076709798201884,1
621,889,39,0.0741867239293308,1
621,890,39,0.0771812297477268,1
621,891,39,0.0793867630574957,1
621,892,39,0.076034557910685,1
621,893,39,0.0744026559548774,1
621,894,39,0.0768764098874359,1
621,895,39,0.0839112073719331,1
621,896,39,0.0920932606129308,1
622,884,39,0.0908937718705643,1
622,885,39,0.0912278502665898,1
622,886,39,0.0960351688016616,1
622,887,39,0.0949629745012939,1
622,888,39,0.0893918058971639,1
622,891,39,0.0870961056909791,1
622,892,39,0.0813693434053693,1
622,893,39,0.0799335271649342,1
622,894,39,0.0827433962602016,1
622,895,39,0.0893636039775926,1
623,886,39,0.101730204796681,1
623,887,39,0.100528387327902,1
623,892,39,0.0865163014741686,1
623,893,39,0.0851644514616116,1
623,894,39,0.087700844658961,1
624,887,39,0.100042211815727,1
624,893,39,0.0865724689649588,1
624,894,39,0.0875871193929551,1
604,895,40,0.106634745921628,1
605,892,40,0.072283403696555,1
605,893,40,0.084262316752171,1
605,894,40,0.0988069788607809,1
605,895,40,0.10815050351653,1
605,896,40,0.113541512113381,1
606,893,40,0.0748556801349265,1
606,894,40,0.0954952866021293,1
606,895,40,0.11143330566482,1
606,896,40,0.118873183370953,1
606,897,40,0.118054278038645,1
607,894,40,0.0890438941711046,1
607,895,40,0.113146601822318,1
607,896,40,0.125371219844453,1
607,897,40,0.125059114893772,1
607,898,40,0.12779651541336,1
607,899,40,0.125956891061539,1
608,873,40,0.117205620619631,1
608,874,40,0.0846454860912609,1
608,894,40,0.0735162036537565,1
608,895,40,0.0984875540626002,1
608,896,40,0.115707943673683,1
608,897,40,0.123207520193047,1
608,898,40,0.133636808325157,1
608,899,40,0.133923220819654,1
608,900,40,0.122234543540705,1
609,869,40,0.150467160592088,1
609,870,40,0.146703035024268,1
609,871,40,0.140906605586096,1
609,872,40,0.131760772424231,1
609,873,40,0.104432472828837,1
609,874,40,0.0758369220281781,1
609,895,40,0.0810010014496774,1
609,896,40,0.103025685727207,1
609,897,40,0.117880979085006,1
609,898,40,0.130629581404267,1
609,899,40,0.131414800144945,1
609,900,40,0.121886583154691,1
610,869,40,0.152890940750972,1
610,870,40,0.146979798944852,1
610,871,40,0.136983640022663,1
610,872,40,0.125489268895022,1
610,873,40,0.0974700813572201,1
610,874,40,0.0715629791615272,1
610,896,40,0.0913190112163699,1
610,897,40,0.11045468445771,1
610,898,40,0.124774162197922,1
610,899,40,0.126586676003446,1
610,900,40,0.121754436620047,1
611,871,40,0.132072112718478,1
611,872,40,0.119535083883089,1
611,873,40,0.0924150210889464,1
611,896,40,0.0780755858158067,1
611,897,40,0.0995164688088021,1
611,898,40,0.11861318628054,1
611,899,40,0.123380694021087,1
611,900,40,0.121253892518335,1
612,872,40,0.114965962778638,1
612,873,40,0.0902267551117422,1
612,897,40,0.0880372170242886,1
612,898,40,0.109090363593856,1
612,899,40,0.115770388298654,1
612,900,40,0.115318128775039,1
613,873,40,0.0898757708571026,1
613,897,40,0.0803869267217783,1
613,898,40,0.102404249443275,1
613,899,40,0.111259547917321,1
613,900,40,0.111704480642013,1
614,874,40,0.0714761489477326,1
614,897,40,0.0770463234984984,1
614,898,40,0.101025817192502,1
615,897,40,0.0742939982756024,1
616,897,40,0.074620881949726,1
616,898,40,0.0937900332400323,1
617,897,40,0.0765043211152172,1
617,898,40,0.0890162066567708,1
617,899,40,0.0985530156047748,1
617,900,40,0.107982668380683,1
618,896,40,0.0722283831904158,1
618,897,40,0.079973643822032,1
618,898,40,0.0873506598178661,1
618,899,40,0.0943394180336129,1
619,879,40,0.0775284393801511,1
619,880,40,0.0717129630453502,1
619,896,40,0.0765812594553244,1
619,897,40,0.085044476867113,1
619,898,40,0.0916899669067818,1
619,899,40,0.0980573583528177,1
620,881,40,0.0917244737662227,1
620,882,40,0.0784134666397359,1
620,895,40,0.0730993546744588,1
620,896,40,0.0822492474668462,1
620,897,40,0.0954136212949754,1
621,882,40,0.0929095522105189,1
621,883,40,0.0838208527871199,1
621,884,40,0.0780993874851712,1
621,885,40,0.0756484898285679,1
621,886,40,0.07793957429046,1
621,887,40,0.0794779101044315,1
621,888,40,0.0732416850425193,1
621,889,40,0.0699374308055441,1
621,890,40,0.0708857855207105,1
621,891,40,0.0703890647011678,1
621,894,40,0.0726606851811029,1
621,895,40,0.0802382566567374,1
621,896,40,0.0900783144436315,1
622,883,40,0.0940234341893852,1
622,884,40,0.0896640096848325,1
622,885,40,0.0878152928728682,1
622,886,40,0.091257630158984,1
622,887,40,0.0929075571523683,1
622,888,40,0.0879870208051059,1
622,889,40,0.0877302144174497,1
622,891,40,0.0827417348703132,1
622,892,40,0.0770247740899031,1
622,893,40,0.0766257555083625,1
622,894,40,0.0808013566061756,1
622,895,40,0.0864824549998298,1
623,885,40,0.0938217247735115,1
623,886,40,0.0965475303209911,1
623,887,40,0.0980016288016215,1
623,888,40,0.0993356414649994,1
623,892,40,0.0859956121511304,1
623,893,40,0.084551440301298,1
623,894,40,0.0871885596052749,1
623,895,40,0.0897186687170211,1
624,886,40,0.0939312027205975,1
624,887,40,0.0958316311617684,1
624,892,40,0.0903672294500947,1
624,893,40,0.0874599848336653,1
624,894,40,0.0881201822473803,1
625,887,40,0.0900617770103902,1
625,888,40,0.0959701730047695,1
625,893,40,0.086035228305835,1
626,888,40,0.0883425165327063,1
626,889,40,0.0931406452877255,1
604,895,41,0.105991419609417,1
605,894,41,0.0955442941281282,1
605,895,41,0.112038239272621,1
605,896,41,0.116882407296391,1
606,875,41,0.0765198575436722,1
606,894,41,0.0920609921114149,1
606,895,41,0.114648275835989,1
606,896,41,0.120517792526409,1
606,897,41,0.116498667940686,1
607,873,41,0.12388973276064,1
607,874,41,0.0919990966487917,1
607,894,41,0.0816038287765742,1
607,895,41,0.109020390578721,1
607,896,41,0.11896299574484,1
607,897,41,0.118914864098029,1
607,898,41,0.125580513261868,1
607,899,41,0.128342674747074,1
608,869,41,0.146314728584226,1
608,871,41,0.140426429151217,1
608,872,41,0.129548176469581,1
608,873,41,0.104672567997699,1
608,874,41,0.0778319593245042,1
608,895,41,0.089530514574296,1
608,896,41,0.105255701945709,1
608,897,41,0.114322205478255,1
608,898,41,0.127220270324679,1
608,899,41,0.132454232392826,1
608,900,41,0.124541498099314,1
609,868,41,0.147982444266834,1
609,869,41,0.149547709890128,1
609,870,41,0.141690434042349,1
609,871,41,0.134931844364666,1
609,872,41,0.120485440607828,1
609,873,41,0.0933177258150014,1
609,895,41,0.0698915027595478,1
609,896,41,0.0901977051186713,1
609,897,41,0.106723571193574,1
609,898,41,0.120930929446291,1
609,899,41,0.126122974439009,1
609,900,41,0.122479748004831,1
610,868,41,0.145050167579324,1
610,870,41,0.138809500558672,1
610,871,41,0.129127935196285,1
610,872,41,0.112998536531002,1
610,873,41,0.084730376858282,1
610,896,41,0.0788441767547558,1
610,897,41,0.0993383525196292,1
610,898,41,0.116166362157303,1
610,899,41,0.12211389465826,1
610,900,41,0.121442164835236,1
611,871,41,0.126217930865271,1
611,872,41,0.107907078616469,1
611,873,41,0.0800103195251767,1
611,897,41,0.0878239265391505,1
611,898,41,0.109045791075175,1
611,899,41,0.118622167517929,1
611,900,41,0.118822424086578,1
612,872,41,0.106154187158532,1
612,873,41,0.0808404514042206,1
612,897,41,0.077867223888957,1
612,898,41,0.0998233115329321,1
612,899,41,0.111855430773512,1
612,900,41,0.112516955908853,1
613,873,41,0.0843447606186032,1
613,897,41,0.0739391837873706,1
613,898,41,0.0974732790113988,1
613,901,41,0.106931022484125,1
614,897,41,0.0730611427070239,1
615,897,41,0.0713208611288264,1
616,897,41,0.072514899956245,1
616,898,41,0.0920012863467618,1
617,897,41,0.0748148196756611,1
617,898,41,0.0884453489202384,1
617,899,41,0.0977242601073122,1
618,896,41,0.0698556264699477,1
618,897,41,0.0800971358361271,1
618,898,41,0.0893911107549511,1
618,899,41,0.0966862946095002,1
619,879,41,0.0715547834348389,1
619,896,41,0.0756299434343318,1
619,897,41,0.0870048404698672,1
619,898,41,0.0953748045538155,1
619,899,41,0.100864127113816,1
620,881,41,0.0832090094657237,1
620,882,41,0.0721628451825977,1
620,895,41,0.0697916038721535,1
620,896,41,0.0826902665408811,1
620,897,41,0.102549965153911,1
621,882,41,0.0853635749484538,1
621,883,41,0.078740162625462,1
621,884,41,0.0726265119899241,1
621,886,41,0.071293305691513,1
621,887,41,0.074429189533138,1
621,888,41,0.0700239968652979,1
621,894,41,0.0698550842590218,1
621,895,41,0.0774504722295691,1
621,896,41,0.0907955135187921,1
622,883,41,0.0878044069458165,1
622,884,41,0.0834211460147886,1
622,885,41,0.0801617493048022,1
622,886,41,0.0824552111530619,1
622,887,41,0.0862906791661764,1
622,888,41,0.0848948544572408,1
622,889,41,0.0832510308124844,1
622,890,41,0.0817225034551348,1
622,891,41,0.0766099410230224,1
622,892,41,0.0729562666013863,1
622,893,41,0.0733950056089635,1
622,894,41,0.0793007739657785,1
622,895,41,0.0843211813947467,1
623,885,41,0.086867271825964,1
623,886,41,0.0886044808755811,1
623,887,41,0.0916284468209534,1
623,888,41,0.0947099427358529,1
623,889,41,0.0972913602943221,1
623,891,41,0.0900408115212537,1
623,892,41,0.0852696890411998,1
623,893,41,0.083019840415368,1
623,894,41,0.0854467000542545,1
623,895,41,0.0872681603400569,1
624,886,41,0.0869826028704813,1
624,887,41,0.088339013015954,1
624,888,41,0.0934880078514367,1
624,891,41,0.0949057851514509,1
624,892,41,0.0901952234609718,1
624,893,41,0.0862686153523437,1
624,894,41,0.0857331959658172,1
624,895,41,0.0875278654707403,1
625,887,41,0.0832579752831898,1
625,888,41,0.0870662493329415,1
625,889,41,0.0922801913053614,1
625,892,41,0.0904848058039592,1
625,893,41,0.0856918489070029,1
626,888,41,0.0827747402225745,1
626,889,41,0.086812209611292,1
626,890,41,0.0907724069916403,1
605,895,42,0.115810546664285,1
605,896,42,0.11809066178206,1
606,873,42,0.126701777651033,1
606,874,42,0.0980600555046032,1
606,875,42,0.0731037896817761,1
606,894,42,0.0878974030710382,1
606,895,42,0.115370556400725,1
606,896,42,0.118713703844503,1
606,897,42,0.1122167031329,1
607,868,42,0.136479842655394,1
607,872,42,0.12799677198201,1
607,873,42,0.108189869420038,1
607,874,42,0.0824613840159111,1
607,894,42,0.072477716799285,1
607,895,42,0.100971853302526,1
607,896,42,0.109727982788501,1
607,897,42,0.110540986363423,1
607,898,42,0.119217348280485,1
608,868,42,0.145536697614027,1
608,869,42,0.150763736065735,1
608,870,42,0.140583878862405,1
608,871,42,0.132697073373428,1
608,872,42,0.117163995503931,1
608,873,42,0.0940909950610424,1
608,874,42,0.0712544402903982,1
608,895,42,0.0790992939468351,1
608,896,42,0.0946802532119463,1
608,897,42,0.104545085867303,1
608,898,42,0.116523672206079,1
608,899,42,0.124542971800805,1
609,868,42,0.146525134229181,1
609,869,42,0.150174714263184,1
609,870,42,0.138763231892991,1
609,871,42,0.129925110383022,1
609,872,42,0.109976489178137,1
609,873,42,0.0836403521601572,1
609,896,42,0.0789075320160259,1
609,897,42,0.0954791175942607,1
609,898,42,0.109189205865087,1
609,899,42,0.117838213936078,1
609,900,42,0.12138414826616,1
610,868,42,0.140604552391812,1
610,871,42,0.12374799326346,1
610,872,42,0.102438200188945,1
610,873,42,0.0742074878272257,1
610,897,42,0.08623537365173,1
610,898,42,0.103163594990794,1
610,899,42,0.113888951142736,1
610,900,42,0.11822361468167,1
611,872,42,0.0991008849883316,1
611,873,42,0.0706262750298466,1
611,897,42,0.074859141943146,1
611,898,42,0.094791462063142,1
611,899,42,0.109445157227822,1
611,900,42,0.113496571169327,1
612,872,42,0.100946626591625,1
612,873,42,0.0734273227704342,1
612,898,42,0.0873527591473486,1
612,899,42,0.104190306136182,1
612,900,42,0.108031349189842,1
612,901,42,0.107914739083654,1
613,873,42,0.0789314796652551,1
613,898,42,0.0874843565196443,1
613,901,42,0.107341420543688,1
614,873,42,0.0853700328196103,1
615,874,42,0.0726891790604035,1
616,898,42,0.0862981449935413,1
617,897,42,0.0703432131208148,1
617,898,42,0.0857806255189932,1
618,897,42,0.0774004011359847,1
618,898,42,0.0899007195111182,1
618,899,42,0.100080097066322,1
619,896,42,0.0721291168824351,1
619,897,42,0.0872980306009388,1
619,898,42,0.0992709654335252,1
619,899,42,0.103918623705173,1
620,880,42,0.0767416704723386,1
620,896,42,0.0825561736080417,1
620,897,42,0.109896033418434,1
621,881,42,0.0801278541705085,1
621,882,42,0.072990432841143,1
621,895,42,0.076215837096926,1
621,896,42,0.0941821143022896,1
622,882,42,0.0790984875818683,1
622,883,42,0.0757325394735115,1
622,884,42,0.0716781572747578,1
622,887,42,0.0736619054615489,1
622,888,42,0.0762838428595993,1
622,889,42,0.0742994968505053,1
622,890,42,0.0713919463715022,1
622,894,42,0.0771946390410107,1
622,895,42,0.0841410491931568,1
623,884,42,0.0770391982908177,1
623,885,42,0.0748155356721402,1
623,886,42,0.0758384026810912,1
623,887,42,0.0793689952225378,1
623,888,42,0.0833515831335587,1
623,889,42,0.0833637967822368,1
623,890,42,0.0826309778615557,1
623,891,42,0.0806153713071543,1
623,892,42,0.0799449483514897,1
623,893,42,0.0785551018655837,1
623,894,42,0.0828538474063855,1
623,895,42,0.0868219485536927,1
624,885,42,0.0773002937059266,1
624,886,42,0.076399354641092,1
624,887,42,0.0773307756919557,1
624,888,42,0.0805615116885104,1
624,889,42,0.0829910962848708,1
624,890,42,0.0853529879325536,1
624,891,42,0.0861425513120615,1
624,892,42,0.0857117438771318,1
624,893,42,0.0825214234488263,1
624,894,42,0.0831407047918989,1
624,895,42,0.0868197727585668,1
625,887,42,0.0749445123582939,1
625,888,42,0.077239253268225,1
625,889,42,0.0813930686090905,1
625,890,42,0.0859233729723814,1
625,891,42,0.0887115327763446,1
625,892,42,0.0875640545743361,1
625,893,42,0.0835467582126325,1
625,894,42,0.0828269662570184,1
626,888,42,0.0772413734519739,1
626,889,42,0.0813434493579444,1
626,890,42,0.0852163716334819,1
627,889,42,0.0839085727829468,1
605,874,43,0.0950928826780126,1
605,875,43,0.0760393057319981,1
605,896,43,0.119337844231643,1
606,868,43,0.129762141242665,1
606,873,43,0.107885890681824,1
606,874,43,0.086441900403138,1
606,895,43,0.113740044729343,1
606,896,43,0.115895729391035,1
606,897,43,0.109336520402813,1
607,868,43,0.136301594289201,1
607,869,43,0.144656689281218,1
607,871,43,0.127576822668443,1
607,872,43,0.112886312772176,1
607,873,43,0.0943561014467189,1
607,874,43,0.0742443373159236,1
607,895,43,0.0935350828820841,1
607,896,43,0.102743777754248,1
607,897,43,0.104543042149197,1
607,898,43,0.111306289279706,1
608,868,43,0.141623269401753,1
608,869,43,0.149325180964982,1
608,870,43,0.13609446971549,1
608,871,43,0.123624049406927,1
608,872,43,0.104357321004217,1
608,873,43,0.0838922091352587,1
608,895,43,0.071683892198013,1
608,896,43,0.0875483443603279,1
608,897,43,0.0966207079417273,1
608,898,43,0.105002044552276,1
608,899,43,0.113775642962058,1
609,868,43,0.138614304625332,1
609,869,43,0.145305771370952,1
609,871,43,0.121883524528955,1
609,872,43,0.0985498805133953,1
609,873,43,0.0747457016854474,1
609,896,43,0.0706386346583893,1
609,897,43,0.0849727729478679,1
609,898,43,0.0971852815926565,1
609,899,43,0.107633227341756,1
609,900,43,0.116832760239556,1
610,868,43,0.13802387863551,1
610,872,43,0.0933656350163041,1
610,897,43,0.0737838403570873,1
610,898,43,0.0901049105846913,1
610,899,43,0.103100420466499,1
610,900,43,0.111884223563964,1
611,872,43,0.093544182293649,1
611,898,43,0.0828431769734198,1
611,899,43,0.0988865934984072,1
611,900,43,0.107105391956771,1
612,898,43,0.0778866600652255,1
612,899,43,0.0960148080862501,1
612,901,43,0.106933114862185,1
613,872,43,0.103627331312342,1
613,873,43,0.0739338311923324,1
613,898,43,0.0784693977821738,1
614,873,43,0.0808313937011885,1
616,898,43,0.0804013995826477,1
617,898,43,0.0825217571170884,1
618,897,43,0.0745924923417573,1
618,898,43,0.0892256112969396,1
619,896,43,0.0706345124650677,1
619,897,43,0.0899519167350872,1
619,899,43,0.10632134105501,1
620,879,43,0.0698035325125242,1
620,896,43,0.0841837031193311,1
621,880,43,0.075392684445698,1
621,895,43,0.0762787335643356,1
621,896,43,0.0994386406866626,1
622,881,43,0.07225041919856,1
622,894,43,0.0748051293932154,1
622,895,43,0.0846524166591221,1
623,890,43,0.0702224947241487,1
623,891,43,0.0718498087413521,1
623,892,43,0.0736232625059421,1
623,893,43,0.074480435417062,1
623,894,43,0.079620073638361,1
623,895,43,0.0867539010824866,1
624,889,43,0.0701189185344489,1
624,890,43,0.0738251665616353,1
624,891,43,0.0770051085167044,1
624,892,43,0.0788412780117287,1
624,893,43,0.0779404501696481,1
624,894,43,0.0798039039965227,1
624,895,43,0.0855206562342689,1
625,889,43,0.072708670848049,1
625,890,43,0.0773846700677102,1
625,891,43,0.0806993792435652,1
625,892,43,0.081396912745527,1
625,893,43,0.0791172425187683,1
625,894,43,0.0798243550804218,1
626,888,43,0.0736236795912697,1
626,889,43,0.07712415857206,1
626,890,43,0.0801292722606225,1
626,891,43,0.0821954573624236,1
626,892,43,0.081430279571739,1
626,893,43,0.0790394004937845,1
627,890,43,0.0850234557665995,1
605,873,44,0.103665202660092,1
605,874,44,0.0834498275824867,1
605,875,44,0.0702684714300999,1
605,896,44,0.118999727059362,1
606,868,44,0.126119901910429,1
606,872,44,0.113012091804151,1
606,873,44,0.0920799486395566,1
606,874,44,0.0761020909766537,1
606,895,44,0.10915183501973,1
606,896,44,0.113460382065731,1
606,897,44,0.107780381996773,1
607,867,44,0.124375136664959,1
607,868,44,0.130945398414364,1
607,869,44,0.137626702180834,1
607,870,44,0.130700152241706,1
607,871,44,0.118778379875978,1
607,872,44,0.101219059776224,1
607,873,44,0.0833531611063817,1
607,895,44,0.0878341729353665,1
607,896,44,0.099896092922607,1
607,897,44,0.102417617028026,1
607,898,44,0.106897203815474,1
608,867,44,0.124894672051924,1
608,868,44,0.131870465865403,1
608,869,44,0.139600572396781,1
608,870,44,0.129508845323183,1
608,871,44,0.114008216692177,1
608,872,44,0.0942136876615928,1
608,873,44,0.0758482389434016,1
608,896,44,0.0840641108530496,1
608,897,44,0.0928047386676804,1
608,898,44,0.0994382444556013,1
608,899,44,0.107645976249938,1
609,867,44,0.124821237228569,1
609,868,44,0.129390504312885,1
609,869,44,0.13693069799174,1
609,871,44,0.114107726299933,1
609,872,44,0.0901980874468884,1
609,897,44,0.0792959149217114,1
609,898,44,0.0910723330507534,1
609,899,44,0.101576244699402,1
609,900,44,0.113137822176171,1
610,868,44,0.133718306798179,1
610,872,44,0.0892482868359195,1
610,898,44,0.0829967408396384,1
610,899,44,0.0959825882446892,1
610,900,44,0.107013820873085,1
611,898,44,0.0764556959174353,1
611,899,44,0.0922555415624973,1
611,900,44,0.103527091805263,1
612,898,44,0.0721151097668482,1
612,899,44,0.0908604745585736,1
613,873,44,0.0715566742216576,1
613,898,44,0.0720205217659593,1
614,872,44,0.099485222166339,1
614,873,44,0.0775133478427123,1
614,898,44,0.0742116795347686,1
615,873,44,0.0858202764308084,1
615,898,44,0.075085890381523,1
616,874,44,0.0767449445921606,1
616,898,44,0.0760005585050594,1
617,875,44,0.0700619238244255,1
617,898,44,0.0796924170884419,1
618,875,44,0.0760685295106221,1
618,897,44,0.0709356897801638,1
618,898,44,0.0873432565533003,1
619,876,44,0.0726011810076915,1
619,897,44,0.0877848456439497,1
619,899,44,0.1051878421629,1
620,876,44,0.0700108447746327,1
620,877,44,0.0700731017112066,1
620,896,44,0.0823368145313863,1
621,879,44,0.0721777212259506,1
621,895,44,0.0745771853102325,1
621,896,44,0.0998159986368539,1
622,880,44,0.0705431360212017,1
622,895,44,0.0827554708804371,1
623,894,44,0.0733830213572157,1
623,895,44,0.0841556888881573,1
624,893,44,0.071257978564261,1
624,894,44,0.0750311062237361,1
624,895,44,0.08309463771746,1
625,891,44,0.071953336271097,1
625,892,44,0.0733823957292242,1
625,893,44,0.073707986438832,1
625,894,44,0.076639574935552,1
626,888,44,0.0701587362803952,1
626,889,44,0.072163679353253,1
626,890,44,0.0746359734871648,1
626,891,44,0.0761768743759013,1
626,892,44,0.0762875827247039,1
626,893,44,0.0758579778858023,1
626,894,44,0.0782169499361915,1
627,889,44,0.0811616071065111,1
627,891,44,0.0827466217200688,1
605,868,45,0.120395739456695,1
605,872,45,0.11904817847159,1
605,873,45,0.0922485553832592,1
605,874,45,0.0767067604304143,1
606,868,45,0.120987611342319,1
606,869,45,0.124891669037565,1
606,871,45,0.119809456514461,1
606,872,45,0.101267233131568,1
606,873,45,0.0821368360196224,1
606,874,45,0.0701171111646958,1
606,894,45,0.0802584296837515,1
606,896,45,0.112115817143564,1
606,897,45,0.10753400969373,1
607,868,45,0.122341400801649,1
607,869,45,0.126124434237656,1
607,870,45,0.123332784819785,1
607,871,45,0.109210727467994,1
607,872,45,0.0912379715372075,1
607,873,45,0.0750798287414278,1
607,895,45,0.0846082820800346,1
607,896,45,0.0989832252174016,1
607,897,45,0.101463138109965,1
607,898,45,0.104593384348245,1
608,867,45,0.117948602519462,1
608,868,45,0.121365560163391,1
608,869,45,0.126331809062563,1
608,870,45,0.121349182612858,1
608,871,45,0.104245201516722,1
608,872,45,0.0857866315477113,1
608,896,45,0.0830902861272081,1
608,897,45,0.0910623925171111,1
608,898,45,0.0976641303059093,1
609,867,45,0.117083414618629,1
609,868,45,0.121939636408368,1
609,869,45,0.129031783125417,1
609,871,45,0.108374471386056,1
609,872,45,0.0852687088906798,1
609,897,45,0.0775439827600282,1
609,898,45,0.0893262192293909,1
609,899,45,0.0999036143613489,1
610,867,45,0.120016386448353,1
610,868,45,0.126732878313632,1
610,872,45,0.0895005052849716,1
610,898,45,0.0810802059533981,1
610,899,45,0.0932189878151024,1
610,900,45,0.103833691229619,1
611,867,45,0.121855927383109,1
611,868,45,0.130044160438378,1
611,898,45,0.0744629525904113,1
611,899,45,0.0897684895594089,1
612,867,45,0.12139440856522,1
612,868,45,0.128682376843601,1
613,873,45,0.0730286170028893,1
614,872,45,0.0956165124526108,1
614,873,45,0.0776378756187044,1
615,869,45,0.0785992294932491,1
615,870,45,0.0797888541676167,1
615,872,45,0.0926382799134153,1
615,873,45,0.0841474097444034,1
615,898,45,0.0714141700680439,1
616,871,45,0.0751102829217684,1
616,873,45,0.0862824556337995,1
616,874,45,0.0743133510348054,1
616,898,45,0.0732659246514779,1
617,872,45,0.0734147824049162,1
617,874,45,0.0784709062407755,1
617,898,45,0.0771199807673614,1
618,874,45,0.0751659916186981,1
618,875,45,0.0745684960325731,1
618,898,45,0.0835152057075958,1
618,899,45,0.0960586576570304,1
619,875,45,0.0739892757352213,1
619,876,45,0.0712499357688595,1
619,897,45,0.0796765887002576,1
619,898,45,0.0995240597617653,1
619,899,45,0.101311882115893,1
619,900,45,0.100287027000213,1
620,876,45,0.0707737077417488,1
620,877,45,0.0700460328734421,1
620,896,45,0.0752118431990511,1
620,897,45,0.106670323300077,1
621,877,45,0.0709962088612058,1
621,878,45,0.073574679016693,1
621,896,45,0.0911137287695227,1
622,878,45,0.0728009231711031,1
622,879,45,0.0721387306992374,1
622,895,45,0.0759035583606923,1
623,895,45,0.0780270509865125,1
624,894,45,0.0698086557106322,1
624,895,45,0.0793586237007236,1
625,894,45,0.0729499477586724,1
626,891,45,0.0705540775596304,1
626,892,45,0.0715699792436096,1
626,893,45,0.0723283098834986,1
626,894,45,0.0754225338523135,1
627,887,45,0.0766946232473796,1
627,889,45,0.0803877052810566,1
627,890,45,0.0794613170598131,1
627,892,45,0.0791033674802018,1
605,872,46,0.10611304169096,1
605,873,46,0.0835258691891394,1
605,874,46,0.0730793693358422,1
606,872,46,0.0915559782452742,1
606,873,46,0.0762024556093305,1
606,896,46,0.109324737742307,1
606,897,46,0.107196337412465,1
607,868,46,0.111622975217568,1
607,871,46,0.100985429429941,1
607,872,46,0.084399600387767,1
607,873,46,0.0711457895625453,1
607,895,46,0.0848290731496482,1
607,896,46,0.0984917388187209,1
607,897,46,0.100936665203717,1
608,868,46,0.111653644891995,1
608,871,46,0.0974060031480488,1
608,872,46,0.0809876060592377,1
608,896,46,0.0836219447943636,1
608,897,46,0.0904961505248713,1
608,898,46,0.0969399798086212,1
609,868,46,0.115532851253136,1
609,872,46,0.0841301910717936,1
609,897,46,0.0778561989334628,1
609,898,46,0.0891883794800247,1
609,899,46,0.0989018240642885,1
610,867,46,0.10970896369756,1
610,868,46,0.11816502809598,1
610,872,46,0.091949115923695,1
610,898,46,0.0814389271408656,1
610,899,46,0.0917763522295602,1
610,900,46,0.100659136626698,1
611,867,46,0.108152978222807,1
611,868,46,0.116629319919573,1
611,873,46,0.0712519447298544,1
611,898,46,0.0753199864730887,1
611,899,46,0.0888993949593403,1
612,868,46,0.111558862251286,1
612,873,46,0.0728142281930551,1
613,868,46,0.101583335149972,1
613,869,46,0.103107427500004,1
613,873,46,0.0760250761709031,1
614,869,46,0.0860443833287769,1
614,870,46,0.08830978923733,1
614,873,46,0.0795065360607525,1
615,870,46,0.0743292697914774,1
615,871,46,0.0830052910888552,1
615,898,46,0.0697798629201801,1
616,871,46,0.0727853172284268,1
616,874,46,0.0732808424033635,1
616,898,46,0.0714158384093545,1
617,872,46,0.0704597050528275,1
617,873,46,0.0777889091672686,1
617,874,46,0.0764003486944562,1
617,898,46,0.0742667417494405,1
618,874,46,0.0730685459715897,1
618,875,46,0.0736273082336203,1
618,898,46,0.0785189405676765,1
618,899,46,0.0938346961272015,1
619,875,46,0.0731197153898702,1
619,876,46,0.0701226931566641,1
619,898,46,0.0893637916659901,1
619,899,46,0.0976691631355296,1
619,900,46,0.098203379926028,1
620,876,46,0.0705564132374653,1
620,897,46,0.0901805698631271,1
620,898,46,0.109690903902873,1
621,877,46,0.0711823123344032,1
621,878,46,0.071373942188192,1
621,896,46,0.0813048133537598,1
621,897,46,0.11008732960396,1
622,878,46,0.0716777610436965,1
622,896,46,0.0928499229115092,1
623,895,46,0.0708214362060762,1
624,895,46,0.07548198936577,1
625,894,46,0.0702873792982868,1
625,895,46,0.0789871188479636,1
626,883,46,0.0724314342307601,1
626,893,46,0.0704447594952533,1
626,894,46,0.0739457042213262,1
627,884,46,0.0788864135956025,1
627,887,46,0.0737605530929602,1
627,889,46,0.0778349206303305,1
627,890,46,0.0759443354028922,1
627,891,46,0.0747056753968372,1
627,893,46,0.0774305564051738,1
605,873,47,0.0800924922861459,1
605,874,47,0.0720613891766469,1
606,873,47,0.0742754310270999,1
606,896,47,0.105295735185741,1
607,873,47,0.0708641248893612,1
607,894,47,0.072372986673512,1
607,895,47,0.0882619008902937,1
607,896,47,0.0982801305777377,1
607,897,47,0.0990653701726822,1
608,895,47,0.0758936317298942,1
608,896,47,0.0857829750996723,1
608,897,47,0.0898762922137621,1
608,898,47,0.0949654978675261,1
609,873,47,0.0701958777288225,1
609,896,47,0.0697980269861993,1
609,897,47,0.078451254570421,1
609,898,47,0.0875713883246806,1
609,899,47,0.0958729504148942,1
610,873,47,0.0736941809144868,1
610,897,47,0.0702673800568259,1
610,898,47,0.0821817839150988,1
610,899,47,0.0908964898766162,1
611,873,47,0.0773459436950379,1
611,898,47,0.0779410271376847,1
611,899,47,0.0893951286769408,1
612,898,47,0.0729895778162213,1
615,898,47,0.0704952198684769,1
616,898,47,0.0713298076091045,1
617,898,47,0.07259215806177,1
617,899,47,0.0931697091836406,1
618,898,47,0.0741363608760171,1
618,899,47,0.091364105091711,1
618,900,47,0.096737366707871,1
619,898,47,0.0800881963072711,1
619,899,47,0.0935486798637655,1
619,900,47,0.0961127675268709,1
620,897,47,0.0742416054070275,1
620,898,47,0.0924074926987823,1
620,899,47,0.100740148500172,1
621,896,47,0.0701336346950928,1
621,897,47,0.0921901078260111,1
621,898,47,0.104179010075224,1
622,896,47,0.0836077569418014,1
622,897,47,0.107274853725395,1
623,896,47,0.0870804719426144,1
624,895,47,0.0731722889954205,1
624,896,47,0.0872941030474367,1
625,895,47,0.0769508804726878,1
626,881,47,0.0722945954861802,1
626,882,47,0.0810692505121252,1
626,883,47,0.0741017497452443,1
626,893,47,0.0699728691555501,1
626,894,47,0.073266473813826,1
627,883,47,0.0915467884652216,1
627,884,47,0.0772234665885735,1
627,887,47,0.0709348417066642,1
627,890,47,0.0737280134859814,1
627,891,47,0.0733812209388846,1
627,893,47,0.0754836299013921,1
628,883,47,0.0927264308974141,1
628,884,47,0.0829534543340504,1
605,874,48,0.072850966458999,1
605,875,48,0.0702151331681156,1
607,894,48,0.0753500235681016,1
607,895,48,0.0890620790913902,1
607,896,48,0.0935080279471639,1
607,897,48,0.0919799107237198,1
608,895,48,0.0798126905940919,1
608,896,48,0.0838545949901268,1
608,897,48,0.0843085298064746,1
608,898,48,0.0870197721245971,1
609,896,48,0.0706628117045488,1
609,897,48,0.0753156279314147,1
609,898,48,0.0810961803214471,1
610,897,48,0.0702128322473914,1
610,898,48,0.0788026906674989,1
610,899,48,0.0855452642686003,1
611,898,48,0.0775313172689119,1
611,899,48,0.0860289233659653,1
611,900,48,0.0943555244786823,1
612,898,48,0.074735434434965,1
612,899,48,0.0876556256580216,1
613,898,48,0.0713663025752739,1
613,899,48,0.087798164568746,1
614,898,48,0.0708445010246952,1
615,898,48,0.071672387594392,1
615,899,48,0.0930991105405137,1
616,898,48,0.0718562110011316,1
616,899,48,0.0927360655684829,1
617,898,48,0.0718907109091504,1
617,899,48,0.0904333096688387,1
617,900,48,0.0947019068918735,1
618,898,48,0.0721055724156893,1
618,899,48,0.0887632096484404,1
618,900,48,0.0924786474556794,1
619,898,48,0.0758399250425371,1
619,899,48,0.0904187464394816,1
619,900,48,0.0938129520787866,1
620,898,48,0.084754421827421,1
620,899,48,0.0955027524294942,1
621,897,48,0.0844578185480848,1
621,898,48,0.0952710545785625,1
622,896,48,0.0790198600461841,1
622,897,48,0.0994141786321959,1
623,896,48,0.0839878954608437,1
624,895,48,0.0725177639421615,1
624,896,48,0.0857084767087319,1
625,894,48,0.0698907589573801,1
625,895,48,0.0765993748613886,1
626,882,48,0.0808795879107985,1
626,883,48,0.0746897913972759,1
626,893,48,0.069941511290333,1
626,894,48,0.0736905244664478,1
627,883,48,0.0897850269926502,1
627,884,48,0.0749470913359032,1
628,882,48,0.0923598546029425,1
628,883,48,0.0908305417348926,1
628,884,48,0.0812007019045562,1
628,885,48,0.0723157069551815,1
628,886,48,0.0708979296551672,1
606,874,49,0.0718036999583804,1
606,897,49,0.088776924804298,1
607,894,49,0.0755902021540288,1
607,895,49,0.0848274187111819,1
607,896,49,0.0855359215572609,1
607,897,49,0.0836706812148995,1
608,894,49,0.0722471242244715,1
608,895,49,0.0795478553138784,1
608,896,49,0.0791127866571846,1
608,897,49,0.0777305728327746,1
609,896,49,0.0697500760763638,1
609,897,49,0.0714493512154311,1
609,898,49,0.0742806515451176,1
610,898,49,0.074607417045065,1
610,899,49,0.0793664927105719,1
611,898,49,0.0756407737500064,1
611,899,49,0.0820536761567111,1
612,898,49,0.0745296653885689,1
612,899,49,0.0851337400786523,1
613,898,49,0.0718389228143005,1
613,899,49,0.0860676844957483,1
614,898,49,0.0709496273815294,1
614,899,49,0.0877014216269976,1
615,898,49,0.0715080837809864,1
615,899,49,0.087775864406561,1
615,900,49,0.094702914848082,1
616,898,49,0.0717653211568145,1
616,899,49,0.0869797041274542,1
616,900,49,0.0902674765425651,1
617,898,49,0.071147026915684,1
617,899,49,0.0850290099528794,1
617,900,49,0.0874728102074905,1
618,898,49,0.0710894899947347,1
618,899,49,0.0844253554067494,1
618,900,49,0.0876535263285391,1
619,898,49,0.0745861039848221,1
619,899,49,0.0868522219970579,1
620,898,49,0.0824423579735481,1
620,899,49,0.0916255063693935,1
621,897,49,0.0808636204941716,1
621,898,49,0.0902023139115419,1
622,896,49,0.075992578272457,1
622,897,49,0.0920858295426765,1
623,896,49,0.0807667941353576,1
624,895,49,0.0723483160763816,1
625,894,49,0.0715016676183627,1
625,895,49,0.0764551467550873,1
626,883,49,0.0744709536772801,1
626,893,49,0.0703399876609477,1
627,883,49,0.0837631907405723,1
627,884,49,0.0725755094057746,1
628,885,49,0.0732386820281603,1
628,886,49,0.070089263767653,1
604,900,50,0.104027058938939,1
604,901,50,0.109576448737544,1
605,874,50,0.0806634751482766,1
605,899,50,0.0874942970532866,1
605,900,50,0.0959565482173996,1
605,901,50,0.105120051894313,1
606,874,50,0.0759119348243559,1
606,875,50,0.0728031754318724,1
606,898,50,0.0804723875054138,1
606,899,50,0.0823744981907395,1
606,900,50,0.0893651749989934,1
606,901,50,0.100104037764129,1
606,902,50,0.10919960519259,1
607,874,50,0.0734576031652216,1
607,894,50,0.0730496381034029,1
607,895,50,0.0779170794884554,1
607,896,50,0.076818351609827,1
607,897,50,0.074395822706926,1
607,898,50,0.0735591008797053,1
607,899,50,0.074869061622522,1
607,900,50,0.0811162838342398,1
607,901,50,0.0921981923299454,1
607,902,50,0.103921536351044,1
608,874,50,0.0738185557591921,1
608,894,50,0.073828259944482,1
608,895,50,0.0758053417174528,1
608,896,50,0.0722105805983473,1
608,899,50,0.0703937986196366,1
608,900,50,0.0764123120919376,1
608,901,50,0.0852441495163034,1
609,874,50,0.0768658506772242,1
609,900,50,0.0744640300608411,1
609,901,50,0.0819320193180577,1
610,874,50,0.077061241250384,1
610,899,50,0.069750034367831,1
610,900,50,0.0763228889976895,1
610,901,50,0.0843763895892833,1
611,874,50,0.0750490617470915,1
611,899,50,0.0730810168228864,1
611,900,50,0.0802213438467012,1
611,901,50,0.0896238791248905,1
612,874,50,0.072854184967444,1
612,899,50,0.0767645754082487,1
612,900,50,0.0856378433084943,1
613,899,50,0.0789257864505327,1
614,899,50,0.0791259387478498,1
615,899,50,0.0785861747224937,1
616,899,50,0.0788654620093102,1
617,899,50,0.0783986114506495,1
618,898,50,0.0698756048571422,1
618,899,50,0.0791741955202589,1
619,898,50,0.0738352183180317,1
620,898,50,0.0810672624053967,1
621,897,50,0.0798052595238376,1
621,898,50,0.0873922710307213,1
622,896,50,0.0755000978204122,1
622,897,50,0.0881400355089764,1
623,896,50,0.0802037637001408,1
624,895,50,0.0737547138983731,1
625,894,50,0.0743916309993832,1
626,882,50,0.0789438114881093,1
626,883,50,0.074005340471758,1
626,893,50,0.070557706201981,1
627,882,50,0.0834674702918463,1
627,883,50,0.0795079611022887,1
627,884,50,0.0722855725402587,1
603,901,51,0.109642313462202,1
604,901,51,0.105089827110902,1
604,902,51,0.112545720893617,1
605,900,51,0.0878978479620544,1
605,901,51,0.0987803618654547,1
605,902,51,0.108841544390225,1
606,898,51,0.0728144436871411,1
606,899,51,0.0742859276745124,1
606,900,51,0.0805617966968177,1
606,901,51,0.0916851773769359,1
606,902,51,0.103531144484364,1
606,903,51,0.10994346297161,1
607,894,51,0.0702065203560997,1
607,895,51,0.0711612912338897,1
607,900,51,0.0716360316566651,1
607,901,51,0.0822697194050117,1
607,902,51,0.0955485483984702,1
607,903,51,0.104142834874473,1
608,875,51,0.0729404868731569,1
608,894,51,0.074100533246372,1
608,895,51,0.071365433647508,1
608,901,51,0.0753041789391707,1
608,902,51,0.0872846074048106,1
608,903,51,0.0980907251790297,1
609,875,51,0.071268607288694,1
609,901,51,0.0731655739216454,1
609,902,51,0.0853214701846275,1
609,903,51,0.0964264434989522,1
610,901,51,0.0775835850118886,1
610,902,51,0.0914631976141385,1
611,900,51,0.0724715091793251,1
611,901,51,0.0840433956151097,1
611,902,51,0.0979627008377075,1
612,900,51,0.0778030414084538,1
612,901,51,0.0909166490007859,1
613,899,51,0.0707014685629998,1
613,900,51,0.0826485232510055,1
614,875,51,0.0715424029520298,1
614,899,51,0.0710902337969024,1
614,900,51,0.0818167091278067,1
615,875,51,0.0762871795422205,1
615,899,51,0.0715355071412794,1
615,900,51,0.0778639567205571,1
616,899,51,0.0728152917606406,1
616,900,51,0.0759198385913149,1
617,876,51,0.070345458430162,1
617,899,51,0.0739873918998248,1
618,876,51,0.0742452757579108,1
618,898,51,0.0718044159548596,1
618,899,51,0.0771893698630381,1
619,876,51,0.0750418183652346,1
619,898,51,0.076721900627808,1
619,899,51,0.0818907348220425,1
620,877,51,0.0711425362969897,1
620,897,51,0.0750933145003551,1
620,898,51,0.0825253579537505,1
621,896,51,0.0703753703995766,1
621,897,51,0.081896594870896,1
622,896,51,0.0777500437661537,1
623,895,51,0.0713650652221352,1
624,894,51,0.0719694288133222,1
624,895,51,0.0764596095680931,1
625,882,51,0.0701338501891788,1
625,893,51,0.0698503225348644,1
625,894,51,0.0767359425005055,1
626,881,51,0.0751248391997033,1
626,882,51,0.0777409721602773,1
626,883,51,0.0722293633409358,1
627,884,51,0.0730861400209944,1
603,901,52,0.106880979196229,1
603,902,52,0.115103739965205,1
604,900,52,0.0915273105804204,1
604,901,52,0.101662720390668,1
604,902,52,0.110896447333913,1
605,899,52,0.0757361403101736,1
605,900,52,0.0835942642314519,1
605,901,52,0.0947058692024861,1
605,902,52,0.106255851707147,1
605,903,52,0.114991119975317,1
606,900,52,0.0756201141234435,1
606,901,52,0.08612186387981,1
606,902,52,0.0985186060652437,1
606,903,52,0.10716619604612,1
606,904,52,0.115537529560227,1
607,901,52,0.075211836247629,1
607,902,52,0.0883939848621383,1
607,903,52,0.0995598178771892,1
607,904,52,0.108830018932337,1
608,894,52,0.0712500400401914,1
608,902,52,0.0818640135553844,1
608,903,52,0.0955312324059506,1
608,904,52,0.104956325048944,1
609,902,52,0.0827790431528714,1
609,903,52,0.0969550087832609,1
609,904,52,0.105132627016941,1
610,901,52,0.0724712241710179,1
610,902,52,0.0896843564973997,1
610,903,52,0.100980014272104,1
611,901,52,0.0788030590928717,1
611,902,52,0.0955664830675591,1
612,900,52,0.0708341156000367,1
612,901,52,0.0858962276689735,1
613,900,52,0.0750180027930258,1
614,900,52,0.0745174447884688,1
614,901,52,0.0882316483011948,1
615,900,52,0.0731700923460282,1
615,901,52,0.0820724171907668,1
616,876,52,0.0708205116669332,1
616,900,52,0.0729019412374599,1
617,876,52,0.074330938132788,1
617,898,52,0.0705851643193846,1
617,899,52,0.0716640319849947,1
617,900,52,0.0740836551934464,1
618,876,52,0.0760733398947343,1
618,897,52,0.0722580657629002,1
618,898,52,0.0787993192277671,1
618,899,52,0.0778365681173747,1
619,877,52,0.0711786836920527,1
619,897,52,0.0793375886973658,1
619,898,52,0.0840613024785101,1
619,899,52,0.082925405345766,1
620,876,52,0.0769861589399849,1
620,877,52,0.0735701466894658,1
620,896,52,0.0702706194195373,1
620,897,52,0.0822321469684125,1
620,898,52,0.0854711899144096,1
621,876,52,0.0745884327112348,1
621,877,52,0.0745774355614291,1
621,896,52,0.0756634075804535,1
621,897,52,0.0841455745689618,1
622,877,52,0.0742720804416344,1
622,878,52,0.0727518947908378,1
622,895,52,0.0714214064984786,1
622,896,52,0.0799021971054056,1
623,878,52,0.0733648572911965,1
623,895,52,0.0757168362109255,1
624,894,52,0.0746429318607144,1
625,881,52,0.0719376955713101,1
625,882,52,0.072642806123391,1
625,893,52,0.0712008239715288,1
626,882,52,0.0777298707391397,1
603,902,53,0.111332266744196,1
604,900,53,0.0884066503532546,1
604,901,53,0.0980290869190252,1
604,902,53,0.109081827247484,1
605,899,53,0.0716015804086013,1
605,900,53,0.0796320856957973,1
605,901,53,0.0907025730049474,1
605,902,53,0.104170251283344,1
605,903,53,0.114215243945979,1
606,900,53,0.0703246041637795,1
606,901,53,0.080774829979337,1
606,902,53,0.0946051291930144,1
606,903,53,0.106007470443109,1
606,904,53,0.118151750879716,1
607,902,53,0.0832794065176089,1
607,903,53,0.097067218639243,1
607,904,53,0.110207130412906,1
608,902,53,0.0784002102777388,1
608,903,53,0.0944432375230871,1
608,904,53,0.10527279549272,1
609,902,53,0.0802162136971711,1
609,903,53,0.0968921331701176,1
609,904,53,0.1042411418862,1
610,902,53,0.0854916201440424,1
610,903,53,0.0994142550978393,1
610,904,53,0.103056452721543,1
611,901,53,0.0729954448164969,1
611,902,53,0.0904427844571985,1
612,901,53,0.0799875744719755,1
614,900,53,0.0697564435790326,1
614,901,53,0.0851101817090622,1
615,900,53,0.0706838814650172,1
615,901,53,0.0811563587828049,1
616,900,53,0.0722433982622112,1
617,898,53,0.0748019386904588,1
617,899,53,0.0720068483186345,1
617,900,53,0.0741299794705041,1
618,877,53,0.0729491413937056,1
618,897,53,0.0872915310212495,1
618,898,53,0.0901318890539682,1
618,899,53,0.08185243248612,1
619,896,53,0.0761897136525708,1
619,897,53,0.0933166344417274,1
619,898,53,0.0940921628999598,1
620,877,53,0.0766694312935896,1
620,878,53,0.0699882109441855,1
620,896,53,0.0784928449290098,1
620,897,53,0.0880714597296887,1
620,898,53,0.0885712947863444,1
621,876,53,0.0789829897032199,1
621,877,53,0.0787799664685641,1
621,878,53,0.0733455949004812,1
621,895,53,0.0719331354383945,1
621,896,53,0.079661455454286,1
622,877,53,0.0810202360347042,1
622,878,53,0.0785758588120565,1
622,894,53,0.0704785016982602,1
622,895,53,0.0778804802509541,1
623,878,53,0.0805843471101993,1
623,879,53,0.0721337187238835,1
623,894,53,0.0750373068922739,1
623,895,53,0.0799685136725019,1
624,879,53,0.0723557262923695,1
624,893,53,0.0709103935550418,1
624,894,53,0.0775109356992341,1
625,881,53,0.0734999512288224,1
625,882,53,0.0733966600474298,1
603,902,54,0.107148365648363,1
604,901,54,0.095441350517842,1
604,902,54,0.107017199264239,1
604,903,54,0.117414580368784,1
605,900,54,0.0759832355611177,1
605,901,54,0.0885384076082592,1
605,902,54,0.102620480379973,1
605,903,54,0.114406025726268,1
605,904,54,0.128747581183157,1
606,901,54,0.077544406796778,1
606,902,54,0.0922809837674839,1
606,903,54,0.10587501109447,1
606,904,54,0.12090883782677,1
607,902,54,0.0811772060977652,1
607,903,54,0.0966108855822611,1
607,904,54,0.110729710522763,1
608,902,54,0.0773079958816439,1
608,903,54,0.0950192740691045,1
608,904,54,0.105323659048427,1
609,902,54,0.0797446778799964,1
609,903,54,0.097914749927872,1
609,904,54,0.103678292187958,1
610,902,54,0.0846786304719649,1
610,903,54,0.100463940693358,1
610,904,54,0.102759703462342,1
611,901,54,0.0709277164989835,1
611,902,54,0.0898902228637056,1
611,903,54,0.10217316331749,1
612,901,54,0.0765878494035012,1
612,902,54,0.095544940610386,1
613,901,54,0.0815555302956323,1
614,901,54,0.0838964564541786,1
615,900,54,0.0705400495897771,1
615,901,54,0.0809223739139932,1
616,900,54,0.0729944299088663,1
617,897,54,0.0761858139047573,1
617,898,54,0.0802284621029598,1
617,899,54,0.0741405456321379,1
617,900,54,0.0757148202985085,1
618,896,54,0.0774652857101228,1
618,897,54,0.10169514182347,1
618,898,54,0.102326553398155,1
618,899,54,0.087441653933515,1
619,877,54,0.0760885218006608,1
619,878,54,0.0699600090246143,1
619,896,54,0.0848582343654731,1
619,897,54,0.104406745615543,1
619,898,54,0.103024191171449,1
620,877,54,0.0779877615486478,1
620,878,54,0.0730868768717399,1
620,895,54,0.0701322930706222,1
620,896,54,0.0818900188255633,1
620,897,54,0.0906199205958514,1
621,877,54,0.0811789161476086,1
621,878,54,0.0762428920318462,1
621,895,54,0.0758854221003616,1
621,896,54,0.0804612652300098,1
622,878,54,0.0810321160151201,1
622,879,54,0.070547946405314,1
622,894,54,0.0750369037097905,1
622,895,54,0.0799123531331339,1
623,879,54,0.0739864117493048,1
623,893,54,0.0715823388721523,1
623,894,54,0.0775497176832834,1
624,892,54,0.0709540276317361,1
624,893,54,0.0736081779199254,1
625,890,54,0.0698921353389614,1
603,902,55,0.10539764303413,1
604,901,55,0.0952672312963924,1
604,902,55,0.106975358654454,1
605,900,55,0.0738598680608958,1
605,901,55,0.087783663902188,1
605,902,55,0.102670878190397,1
605,903,55,0.115480430578872,1
606,901,55,0.0761598503431111,1
606,902,55,0.0921086232558326,1
606,903,55,0.106514159601983,1
606,904,55,0.122149305202578,1
607,902,55,0.0815247702527181,1
607,903,55,0.0975798373611912,1
607,904,55,0.111092289749511,1
608,879,55,0.0710721809536372,1
608,902,55,0.0785311125078217,1
608,903,55,0.0960077454413686,1
609,879,55,0.070380952391545,1
609,889,55,0.0701591325114565,1
609,902,55,0.0813856514416805,1
609,903,55,0.098748698137664,1
609,904,55,0.103413957410138,1
610,902,55,0.0862383975203554,1
610,903,55,0.101057752025756,1
611,901,55,0.0706024594576378,1
611,902,55,0.0907319219091697,1
611,903,55,0.101815318009211,1
612,901,55,0.0759911323766545,1
612,902,55,0.095060085868415,1
612,903,55,0.102038813182032,1
613,901,55,0.0815955496328203,1
613,902,55,0.0995293567454265,1
614,900,55,0.0707107695658064,1
614,901,55,0.0854738731633509,1
614,902,55,0.100483939934819,1
615,900,55,0.0731570931866498,1
615,901,55,0.0821441558671226,1
616,899,55,0.070162323214213,1
616,900,55,0.075943834900499,1
617,878,55,0.0732394814417049,1
617,897,55,0.0831380980086011,1
617,898,55,0.0862381264148925,1
617,899,55,0.078023206850076,1
617,900,55,0.0781781540492979,1
618,878,55,0.0742732899890846,1
618,896,55,0.0837424963568987,1
618,897,55,0.108236450899714,1
618,898,55,0.107824328887463,1
618,899,55,0.0902739413651436,1
619,877,55,0.0792904580553413,1
619,878,55,0.0756978866342059,1
619,896,55,0.087000252531263,1
619,897,55,0.10498941381827,1
619,898,55,0.103424711260169,1
620,877,55,0.0810695494232767,1
620,878,55,0.0779632647370705,1
620,879,55,0.070437432696331,1
620,895,55,0.0729395623340139,1
620,896,55,0.0822335442042601,1
620,897,55,0.090220477977561,1
621,878,55,0.0793539106365211,1
621,879,55,0.0723919084445431,1
621,894,55,0.0708153259060261,1
621,895,55,0.0766599912623404,1
621,896,55,0.0812094259393262,1
622,879,55,0.0741240221017408,1
622,880,55,0.0705071485088477,1
622,894,55,0.0756131487984717,1
622,895,55,0.080035143053594,1
623,880,55,0.0720110956375544,1
623,881,55,0.0699874462877515,1
623,892,55,0.0721091732523513,1
623,893,55,0.073847230375468,1
623,894,55,0.0776275040968901,1
624,881,55,0.0709138067033064,1
624,891,55,0.0724483400893742,1
624,892,55,0.0747029504393632,1
625,887,55,0.0704595868786513,1
625,888,55,0.0707024556649419,1
625,889,55,0.0706921745116153,1
626,887,55,0.0718446577375557,1
626,888,55,0.0739126224034214,1
603,902,56,0.105851668218966,1
604,900,56,0.0846067666700108,1
604,901,56,0.0957439320202078,1
604,902,56,0.107568377524729,1
605,900,56,0.0727394239395411,1
605,901,56,0.0879604246640461,1
605,902,56,0.103597176043153,1
606,901,56,0.0766963611029115,1
606,902,56,0.0936912674344448,1
606,903,56,0.10772283117298,1
607,902,56,0.0841365585744624,1
607,903,56,0.09972724287913,1
608,879,56,0.0827233831158966,1
608,880,56,0.0768344650063186,1
608,881,56,0.0716123551128989,1
608,902,56,0.0813254312717899,1
608,903,56,0.0967263973637538,1
609,880,56,0.0922348888873565,1
609,882,56,0.084745371075811,1
609,902,56,0.0845455802524445,1
609,903,56,0.0983262046035988,1
610,882,56,0.103832572050656,1
610,902,56,0.0893691720667167,1
611,901,56,0.0728169114419963,1
611,902,56,0.09230606449852,1
611,903,56,0.0995303229931022,1
612,901,56,0.0781865374643837,1
612,902,56,0.0952512638797655,1
612,903,56,0.100744368013404,1
613,901,56,0.0843488550062363,1
613,902,56,0.0988827771676592,1
614,900,56,0.0753889445805934,1
614,901,56,0.0868457293687909,1
614,902,56,0.0981481022172701,1
615,880,56,0.0705030332669482,1
615,899,56,0.0714294840509907,1
615,900,56,0.0785275186225818,1
615,901,56,0.0814276727884412,1
616,879,56,0.0731902862273086,1
616,898,56,0.08083812962923,1
616,899,56,0.0888894683285422,1
616,900,56,0.0869086397390447,1
617,879,56,0.071563180752769,1
617,897,56,0.0865872129312912,1
617,898,56,0.0992660368752368,1
617,899,56,0.0972138310833341,1
617,900,56,0.0895158053650742,1
618,878,56,0.078519350701582,1
618,879,56,0.0712182581382245,1
618,896,56,0.0854391091012912,1
618,897,56,0.105660434596238,1
618,898,56,0.109794320209864,1
618,899,56,0.0968424513561724,1
619,877,56,0.0822523130440044,1
619,878,56,0.0804753905197728,1
619,879,56,0.073274648686248,1
619,895,56,0.0718124587502611,1
619,896,56,0.0858396013843229,1
619,897,56,0.099112521668973,1
619,898,56,0.0987742585168268,1
620,878,56,0.0829400519921886,1
620,879,56,0.0761162093149946,1
620,880,56,0.0709555986531369,1
620,895,56,0.0743666197825684,1
620,896,56,0.0826709137816782,1
620,897,56,0.0888320843388797,1
621,879,56,0.0767821416519649,1
621,880,56,0.0744140562871665,1
621,881,56,0.0717562912594709,1
621,894,56,0.0710570824647763,1
621,895,56,0.077222403020988,1
621,896,56,0.0840886007132048,1
622,880,56,0.0767545653603851,1
622,881,56,0.0742757785982062,1
622,882,56,0.0711824444114236,1
622,893,56,0.070668275522341,1
622,894,56,0.0744113174268482,1
622,895,56,0.0803669900431166,1
623,881,56,0.0730773603748474,1
623,882,56,0.0721424010501207,1
623,891,56,0.0708285961708675,1
623,892,56,0.0734863751014073,1
623,893,56,0.073735242964994,1
624,887,56,0.0697753931557521,1
624,890,56,0.070691117895452,1
624,891,56,0.0739788138449194,1
625,886,56,0.0710366383322993,1
625,887,56,0.0721678154494189,1
625,888,56,0.0722632932323401,1
603,902,57,0.106520144776434,1
604,899,57,0.0737539631447833,1
604,900,57,0.0840977070761918,1
604,901,57,0.0960727898982156,1
604,902,57,0.107268006574599,1
605,900,57,0.0747888422111706,1
605,901,57,0.0896378723376331,1
605,902,57,0.103760597025948,1
606,901,57,0.0809439580796991,1
606,902,57,0.0962616113774649,1
607,901,57,0.0732540933310169,1
607,902,57,0.0892832316349545,1
607,903,57,0.102793869702099,1
608,879,57,0.0950324748197246,1
608,880,57,0.0942839387336133,1
608,901,57,0.0701929789857953,1
608,902,57,0.0875254046673072,1
609,883,57,0.0719873078710341,1
609,901,57,0.0706629993929462,1
609,902,57,0.0897100837106936,1
610,883,57,0.0822457091929833,1
610,901,57,0.0740843711899255,1
610,902,57,0.0923664584539637,1
611,883,57,0.0802795550555969,1
611,901,57,0.0776443751983936,1
611,902,57,0.0927235738629197,1
611,903,57,0.0954504638322512,1
612,883,57,0.0809652572370978,1
612,901,57,0.0816782089933384,1
612,902,57,0.0941066079551408,1
613,883,57,0.077351185067322,1
613,900,57,0.0736537027834384,1
613,901,57,0.0858349022229647,1
614,883,57,0.0726163559621958,1
614,900,57,0.078777999216102,1
614,901,57,0.0862918400536717,1
615,898,57,0.0717684075882391,1
615,899,57,0.0910579436069495,1
615,900,57,0.0884916592944518,1
616,878,57,0.085853566791377,1
616,880,57,0.0807135184361725,1
616,883,57,0.07173181530216,1
616,897,57,0.0711235867202701,1
616,898,57,0.112195327509858,1
616,899,57,0.142344715795833,1
616,900,57,0.117712337584193,1
617,878,57,0.0836205753642045,1
617,879,57,0.0787730289492809,1
617,880,57,0.0764582887978889,1
617,881,57,0.0795865191237516,1
617,882,57,0.0775077241422112,1
617,896,57,0.0727819596915393,1
617,897,57,0.0888428103832224,1
617,898,57,0.131244351274379,1
617,899,57,0.157106630700194,1
618,877,57,0.0861027335661151,1
618,878,57,0.0845845429734692,1
618,879,57,0.0787926319596804,1
618,880,57,0.0748986885836294,1
618,881,57,0.0733488412146148,1
618,895,57,0.0703719155427793,1
618,896,57,0.082775748178783,1
618,897,57,0.0971408133453068,1
618,898,57,0.115439180839968,1
619,878,57,0.0861885071637464,1
619,879,57,0.0805347209076311,1
619,880,57,0.0757206525416735,1
619,881,57,0.0725806047981941,1
619,895,57,0.0734401898527922,1
619,896,57,0.0826405638726695,1
619,897,57,0.0916415989116186,1
620,879,57,0.0820718471741524,1
620,880,57,0.0784745487859703,1
620,881,57,0.0751470837505114,1
620,895,57,0.0750216800953313,1
620,896,57,0.0834138817786654,1
621,880,57,0.0802580890640672,1
621,881,57,0.0784446646222442,1
621,882,57,0.0734697403482562,1
621,894,57,0.0709034143272258,1
621,895,57,0.0779312117296406,1
622,881,57,0.0787082973064296,1
622,882,57,0.0747108333520558,1
622,883,57,0.070086267704716,1
622,893,57,0.0702945809716108,1
623,882,57,0.0751349813245874,1
623,883,57,0.0719026047924105,1
623,891,57,0.0711758405604025,1
624,884,57,0.0720472638868838,1
624,886,57,0.0712477182652009,1
624,887,57,0.0717640838036758,1
603,901,58,0.0976318965615041,1
604,900,58,0.0860299660792845,1
604,901,58,0.0973619450346047,1
604,902,58,0.106718357626978,1
605,900,58,0.0807505903703784,1
605,901,58,0.0930498805690067,1
605,902,58,0.103587270266621,1
606,900,58,0.0729463330191661,1
606,901,58,0.0870934502477264,1
606,902,58,0.0989665696099841,1
607,901,58,0.0817875757176704,1
607,902,58,0.0953005008026946,1
608,901,58,0.0791440124453813,1
608,902,58,0.0939231321195075,1
609,901,58,0.078172759745727,1
609,902,58,0.0931351328099784,1
610,901,58,0.0792913547887958,1
610,902,58,0.0919974491617475,1
611,884,58,0.0700083144569783,1
611,901,58,0.0815429621244258,1
611,902,58,0.0909274793164605,1
612,884,58,0.0796697554523062,1
612,900,58,0.0722234129235946,1
612,901,58,0.0841106019642383,1
613,884,58,0.0747628091353031,1
613,900,58,0.0771997900448072,1
613,901,58,0.0862052600910736,1
614,900,58,0.0791095890030059,1
615,898,58,0.0885162464745168,1
615,899,58,0.123237870102056,1
615,900,58,0.102697217128838,1
616,878,58,0.0897610515377324,1
616,897,58,0.0799434607471544,1
616,898,58,0.15886210113574,1
616,899,58,0.228973324445894,1
617,878,58,0.089350486644038,1
617,879,58,0.0841843287473226,1
617,880,58,0.0852208205436435,1
617,883,58,0.075705797352587,1
617,895,58,0.0698891948874014,1
617,896,58,0.0753679790914569,1
617,897,58,0.0938927474533882,1
617,898,58,0.180426775053982,1
618,878,58,0.0913050666635821,1
618,879,58,0.0854041295451456,1
618,880,58,0.0816657381420417,1
618,881,58,0.0791722977820181,1
618,882,58,0.0746990784972382,1
618,895,58,0.0743216579842477,1
618,896,58,0.0795285929231631,1
618,897,58,0.0898573078799319,1
619,879,58,0.0856235789902887,1
619,880,58,0.0814096199451761,1
619,881,58,0.0768380032801815,1
619,882,58,0.0714053904218968,1
619,895,58,0.075755791980528,1
619,896,58,0.0813671745616656,1
620,880,58,0.0831046686195899,1
620,881,58,0.0795925460067361,1
620,882,58,0.0735247747572397,1
620,895,58,0.0770657179662341,1
621,881,58,0.0811080533504409,1
621,882,58,0.0754622751326165,1
621,883,58,0.0706539277870698,1
622,882,58,0.0750851743850438,1
622,883,58,0.0712220119061734,1
622,891,58,0.0700052210741315,1
623,883,58,0.0724963535620088,1
623,886,58,0.0706019659066668,1
604,901,59,0.100135757103297,1
605,901,59,0.0967006701504599,1
606,900,59,0.0815055287162692,1
606,901,59,0.0922329494405829,1
607,900,59,0.0747178473369825,1
607,901,59,0.0889178509850888,1
608,900,59,0.0711637589887449,1
608,901,59,0.086988094493962,1
609,901,59,0.0843605403468326,1
610,901,59,0.082601010280764,1
611,884,59,0.0844433039786826,1
611,900,59,0.0721973033820837,1
611,901,59,0.0825285625593512,1
612,900,59,0.0761532325892457,1
613,900,59,0.0771702325979211,1
614,899,59,0.0767908587353128,1
615,878,59,0.0951700156579393,1
615,897,59,0.0702630910293733,1
615,898,59,0.110516364426247,1
615,899,59,0.158333070106149,1
616,879,59,0.0910551838923648,1
616,884,59,0.0720363779598321,1
616,896,59,0.0737266579586665,1
616,897,59,0.0947678619850192,1
616,898,59,0.195397844347315,1
617,879,59,0.0914724569084123,1
617,880,59,0.0926642434750615,1
617,883,59,0.0827315718911628,1
617,895,59,0.0760559613394156,1
617,896,59,0.0795180545672178,1
617,897,59,0.103355210941739,1
618,880,59,0.0866776578845922,1
618,881,59,0.0823456011289554,1
618,882,59,0.0781056576679302,1
618,883,59,0.0708760396268877,1
618,895,59,0.0762903215850221,1
618,896,59,0.0791074410135685,1
619,880,59,0.0835410441436437,1
619,881,59,0.0787422897606331,1
619,882,59,0.0741373618808035,1
619,895,59,0.0763602737458911,1
620,881,59,0.0800221995055926,1
620,882,59,0.0745124606188034,1
620,883,59,0.0698371704441992,1
621,883,59,0.0704911115779995,1
621,889,59,0.0698306778159321,1
621,890,59,0.0749514637804214,1
621,891,59,0.0749229003868995,1
617,883,60,0.085711757779976,1
618,881,60,0.0857978859001358,1
618,882,60,0.0807490888631989,1
