x,y,z,signal,cytoplasm.p
659,683,6,0.0708535170191946,1
660,683,6,0.0746408603369204,1
661,683,6,0.0762612646405292,1
653,678,7,0.0708181342805656,1
653,681,7,0.0703113408503602,1
654,677,7,0.0740847465667204,1
654,680,7,0.0713078202609152,1
654,681,7,0.0730847983965238,1
655,676,7,0.0829070813970379,1
655,677,7,0.0807377788993975,1
655,678,7,0.0728932519598005,1
655,679,7,0.0726955118059617,1
655,680,7,0.0744992807224496,1
655,681,7,0.0752057189961568,1
655,682,7,0.0713385246924524,1
656,677,7,0.0757172393934089,1
656,678,7,0.0706087087861304,1
656,679,7,0.071462976002801,1
656,680,7,0.0727136341634481,1
656,681,7,0.0727752168120756,1
656,682,7,0.070811996174827,1
656,683,7,0.070018929278567,1
657,681,7,0.0701451045416032,1
657,682,7,0.0715876428072356,1
657,683,7,0.073328244150851,1
657,684,7,0.0704010350500714,1
658,682,7,0.0738431012307243,1
658,683,7,0.0820821352789011,1
658,684,7,0.0801789262688792,1
659,682,7,0.0775076685308342,1
659,683,7,0.0950133723117182,1
659,684,7,0.0930939803909836,1
659,685,7,0.073531879110654,1
660,682,7,0.0760468271707401,1
660,683,7,0.0963523760961837,1
660,684,7,0.0922651275736111,1
660,685,7,0.0706220138080825,1
661,682,7,0.0700529634413032,1
661,683,7,0.0836036903598568,1
661,684,7,0.0776258774641123,1
652,678,8,0.087852851406623,1
652,679,8,0.0821879915350586,1
652,680,8,0.0741885452019282,1
652,681,8,0.0732218317809232,1
652,682,8,0.0706907703243456,1
653,677,8,0.0757965481684615,1
653,678,8,0.0778374439965628,1
653,679,8,0.0765260721150542,1
653,680,8,0.0751400072027855,1
653,681,8,0.078631824711605,1
653,682,8,0.0761010830204452,1
653,683,8,0.0716462154900819,1
654,676,8,0.0837483911628628,1
654,677,8,0.0807609201836599,1
654,678,8,0.0741023058590145,1
654,679,8,0.0767655625101908,1
654,680,8,0.0792419301774692,1
654,681,8,0.0819062503962311,1
654,682,8,0.0777771751667174,1
654,683,8,0.0741138313169019,1
654,684,8,0.0698778084579566,1
655,675,8,0.082198314396918,1
655,676,8,0.10113745703187,1
655,677,8,0.0922987029424869,1
655,678,8,0.0778162838676067,1
655,679,8,0.0807079712013147,1
655,680,8,0.0824004895580742,1
655,681,8,0.0822632754366995,1
655,682,8,0.0774356239919048,1
655,683,8,0.0758180767227904,1
655,684,8,0.072096014210264,1
656,676,8,0.0902487007513987,1
656,677,8,0.0824264253140319,1
656,678,8,0.0725419548911652,1
656,679,8,0.0763378345552636,1
656,680,8,0.0780418297099555,1
656,681,8,0.0788063888240707,1
656,682,8,0.0763046345631826,1
656,683,8,0.0754137333519001,1
656,684,8,0.0717934188050539,1
657,680,8,0.0717658286106298,1
657,681,8,0.0748087232784553,1
657,682,8,0.0756825309427263,1
657,683,8,0.0766216750235737,1
657,684,8,0.0735975561469146,1
658,682,8,0.0760950630888828,1
658,683,8,0.0869226955145865,1
658,684,8,0.086111610532172,1
658,685,8,0.0711747839442391,1
659,682,8,0.079568716531683,1
659,683,8,0.105154544850909,1
659,684,8,0.106562791751187,1
659,685,8,0.0778218519567308,1
660,682,8,0.0768436617377933,1
660,683,8,0.102712746605871,1
660,684,8,0.102604262712149,1
660,685,8,0.0740954448053746,1
661,683,8,0.0802936942482042,1
661,684,8,0.0776408577787971,1
651,678,9,0.106179573752142,1
651,679,9,0.0979265047826896,1
651,680,9,0.0814921472286738,1
651,682,9,0.0707450470283171,1
652,677,9,0.0828739300649118,1
652,678,9,0.0933292234672003,1
652,679,9,0.085895435206851,1
652,680,9,0.0765655422898941,1
652,681,9,0.0757882620732856,1
652,682,9,0.0794308767823168,1
652,683,9,0.0765458489110069,1
653,677,9,0.0752621714952542,1
653,678,9,0.0801608873284584,1
653,679,9,0.079115699303056,1
653,680,9,0.0799998506834527,1
653,681,9,0.0851069771034614,1
653,682,9,0.0897472043048544,1
653,683,9,0.0839012529354465,1
653,684,9,0.0746478395647364,1
654,676,9,0.0844635395684958,1
654,677,9,0.0788493764185072,1
654,678,9,0.0757179831955765,1
654,679,9,0.0800996661537815,1
654,680,9,0.0846763295512407,1
654,681,9,0.0879990606682308,1
654,682,9,0.0886612948486292,1
654,683,9,0.0823438354677351,1
654,684,9,0.0746017655388754,1
654,685,9,0.0720134382668114,1
655,676,9,0.105616765762433,1
655,677,9,0.0915630617444221,1
655,678,9,0.0796448067982906,1
655,679,9,0.0852397214604081,1
655,680,9,0.0897347543078241,1
655,681,9,0.091145587137133,1
655,682,9,0.0886316331304111,1
655,683,9,0.081997460005966,1
655,684,9,0.0751693839126964,1
655,685,9,0.0737110589674124,1
656,677,9,0.0783574729344989,1
656,678,9,0.0728054276926417,1
656,679,9,0.0821434051135329,1
656,680,9,0.0880158483526687,1
656,681,9,0.0917347479681271,1
656,682,9,0.0896778638691326,1
656,683,9,0.0825322746187673,1
656,684,9,0.0742648509626218,1
656,685,9,0.0733234754752715,1
657,679,9,0.0756061626192336,1
657,680,9,0.080788128049867,1
657,681,9,0.0840810167116637,1
657,682,9,0.0841376221420479,1
657,683,9,0.0812817346322965,1
657,684,9,0.0755035318229432,1
657,685,9,0.0723324598825087,1
658,681,9,0.0710255716682723,1
658,682,9,0.0775474793253584,1
658,683,9,0.0890102909965403,1
658,684,9,0.0882994038126715,1
658,685,9,0.0724022521606688,1
659,682,9,0.0792053170371237,1
659,683,9,0.107462333580174,1
659,684,9,0.11064657846554,1
659,685,9,0.0787997363130947,1
660,682,9,0.076141853111223,1
660,683,9,0.101210391352831,1
660,684,9,0.103270215903386,1
660,685,9,0.0744698901096946,1
661,683,9,0.0755759169815568,1
661,684,9,0.0751233098868353,1
651,679,10,0.103434943753541,1
651,680,10,0.0861102828105456,1
651,681,10,0.0755271458039103,1
651,682,10,0.0747202038690837,1
652,678,10,0.0869777229721478,1
652,679,10,0.0827861822633964,1
652,680,10,0.0767030205653097,1
652,681,10,0.0757973684362726,1
652,682,10,0.084522001028588,1
652,683,10,0.0843507388416328,1
653,677,10,0.070040958335289,1
653,678,10,0.0758684397761041,1
653,679,10,0.0761343664295917,1
653,680,10,0.0792906248894724,1
653,681,10,0.0841684238934949,1
653,682,10,0.0966060126353498,1
653,683,10,0.0939482823647648,1
653,684,10,0.0804060709383174,1
654,677,10,0.0717299245153413,1
654,678,10,0.0724830415886346,1
654,679,10,0.0776104939669442,1
654,680,10,0.0841900289134671,1
654,681,10,0.086088552664975,1
654,682,10,0.0920401447964546,1
654,683,10,0.087032201267361,1
654,684,10,0.0787196350759195,1
654,685,10,0.0751029422200017,1
655,677,10,0.0813776155977011,1
655,678,10,0.0754450634114288,1
655,679,10,0.0865282162116952,1
655,680,10,0.0978959810881278,1
655,681,10,0.0951114221208266,1
655,682,10,0.0917579031552338,1
655,683,10,0.0827541918187656,1
655,684,10,0.0777559872320727,1
655,685,10,0.0788842517033209,1
656,679,10,0.0896726294482706,1
656,680,10,0.106342424718323,1
656,681,10,0.102672275426245,1
656,682,10,0.0945963773525559,1
656,683,10,0.083489916433896,1
656,684,10,0.0765216232048926,1
656,685,10,0.0778734037032283,1
657,679,10,0.0796561306649363,1
657,680,10,0.0931541588523413,1
657,681,10,0.0893195319613043,1
657,682,10,0.0849945030934385,1
657,683,10,0.0805429235857415,1
657,684,10,0.0766128258632053,1
657,685,10,0.0749734928371434,1
658,682,10,0.0747941739519424,1
658,683,10,0.084623137269121,1
658,684,10,0.0851136921772366,1
658,685,10,0.0726498201083176,1
659,682,10,0.0752939603486433,1
659,683,10,0.0981152636991398,1
659,684,10,0.101586845618146,1
659,685,10,0.0771711362827976,1
660,682,10,0.071695341190257,1
660,683,10,0.0898975913711608,1
660,684,10,0.0928714167087274,1
660,685,10,0.0731027747741455,1
661,683,10,0.0700470338782284,1
661,684,10,0.071602219939437,1
651,679,11,0.0995108937682558,1
651,680,11,0.0879512904953706,1
651,681,11,0.0793801522550525,1
651,682,11,0.0779860028388496,1
652,678,11,0.077809867704983,1
652,679,11,0.079347362396877,1
652,680,11,0.0782180760665762,1
652,681,11,0.078681548234083,1
652,682,11,0.0865665950132611,1
652,683,11,0.0900555624390082,1
653,678,11,0.072134017635035,1
653,679,11,0.0744438917909377,1
653,680,11,0.07848827089325,1
653,681,11,0.0841699810120514,1
653,682,11,0.0977382880771655,1
653,683,11,0.100576108840808,1
653,684,11,0.0847012434481456,1
654,679,11,0.0744582673318974,1
654,680,11,0.0820385637650059,1
654,681,11,0.0847186984691078,1
654,682,11,0.092667649671904,1
654,683,11,0.0913231195068472,1
654,684,11,0.082206169503922,1
654,685,11,0.0816865924084242,1
655,679,11,0.0828583658307683,1
655,680,11,0.0993105259768528,1
655,681,11,0.0933409366134851,1
655,682,11,0.0916127713640559,1
655,683,11,0.0844597788491248,1
655,684,11,0.0802208294414638,1
656,679,11,0.0903686962001636,1
656,680,11,0.114805878478464,1
656,681,11,0.103604634919095,1
656,682,11,0.0946247183005697,1
656,683,11,0.0843078485671061,1
656,684,11,0.078800626095127,1
656,685,11,0.0811868477202561,1
657,679,11,0.0748377593686819,1
657,680,11,0.0942404575882058,1
657,681,11,0.0852819165927221,1
657,682,11,0.0824109514483761,1
657,683,11,0.0790089254591776,1
657,684,11,0.0774519667853265,1
657,685,11,0.0770564656233824,1
658,682,11,0.0721962328630761,1
658,683,11,0.0786921908613602,1
658,684,11,0.0800415522647956,1
658,685,11,0.073621406476234,1
658,686,11,0.0710825872325621,1
659,683,11,0.0832933997303516,1
659,684,11,0.0864102366753472,1
659,685,11,0.0741094310666952,1
660,683,11,0.0755022319070053,1
660,684,11,0.0786273827528655,1
660,685,11,0.0700231070832656,1
651,681,12,0.0816938774988138,1
651,682,12,0.0808574615341666,1
652,679,12,0.0728276235834948,1
652,680,12,0.0765903936239999,1
652,681,12,0.0802267520531164,1
652,682,12,0.0877238121576703,1
652,683,12,0.0922063602509452,1
653,680,12,0.0734498314752831,1
653,681,12,0.0817307756474666,1
653,682,12,0.0953952000263375,1
653,683,12,0.100926717718652,1
653,684,12,0.0866494142564881,1
654,680,12,0.0752482338938886,1
654,681,12,0.0811457926211711,1
654,682,12,0.0900527332102023,1
654,683,12,0.0922893671825697,1
654,684,12,0.0846197380237007,1
655,679,12,0.0749007879131119,1
655,680,12,0.0922472624187434,1
655,681,12,0.0880132207151045,1
655,682,12,0.0876160790175383,1
655,683,12,0.0855117653653679,1
655,684,12,0.0829796959525817,1
656,679,12,0.0830168652066975,1
656,680,12,0.108570779546936,1
656,681,12,0.0973711417660794,1
656,682,12,0.0882515849798565,1
656,683,12,0.0836885116126565,1
656,684,12,0.0814229875299273,1
656,685,12,0.0831163122516535,1
657,680,12,0.0840839849689121,1
657,681,12,0.0777340763495269,1
657,682,12,0.0768409159260529,1
657,683,12,0.0779153833414563,1
657,684,12,0.0795032202323977,1
657,685,12,0.0800791107985505,1
657,686,12,0.0792007221470974,1
658,683,12,0.0740930813218513,1
658,684,12,0.0771611818463111,1
658,685,12,0.0767671960943907,1
658,686,12,0.0744368291460562,1
659,683,12,0.0713057278828549,1
659,684,12,0.0748199498251912,1
659,685,12,0.0734783184031616,1
659,686,12,0.0707466389039843,1
651,681,13,0.0815250413581811,1
651,682,13,0.0830698072376205,1
652,680,13,0.0736416212117808,1
652,681,13,0.0804266958077697,1
652,682,13,0.0897870290022229,1
652,683,13,0.0901975730416509,1
653,681,13,0.0797472916147164,1
653,682,13,0.093221253978716,1
653,683,13,0.0954087066395313,1
654,681,13,0.078866101540146,1
654,682,13,0.0884006790816471,1
654,683,13,0.089999610442304,1
654,684,13,0.0857383956295686,1
655,680,13,0.0790620899356087,1
655,681,13,0.081077258550416,1
655,682,13,0.0837532988668848,1
655,683,13,0.0841935880415964,1
656,680,13,0.0868611545744918,1
656,681,13,0.0840282206606053,1
656,682,13,0.0806288918231923,1
656,683,13,0.0802641646070066,1
656,684,13,0.0817509556259027,1
656,685,13,0.0831139001081753,1
657,682,13,0.0717095846541962,1
657,683,13,0.0751970436213417,1
657,684,13,0.0794979719086915,1
657,685,13,0.0817158648470031,1
657,686,13,0.0794327467148691,1
658,683,13,0.0702792322315533,1
658,684,13,0.0753444346247111,1
658,685,13,0.0786405556977971,1
658,686,13,0.075617688077121,1
659,684,13,0.0699096042627678,1
659,685,13,0.0731950688057323,1
659,686,13,0.0703907191396342,1
651,681,14,0.0841313936678217,1
651,682,14,0.0886971155268522,1
652,680,14,0.0706952470401957,1
652,681,14,0.0838155975119915,1
652,682,14,0.094700412336116,1
652,683,14,0.0889430707445674,1
653,681,14,0.080129738005905,1
653,682,14,0.0927864981360179,1
653,683,14,0.0914740835411901,1
654,682,14,0.0856368770608186,1
654,683,14,0.0874440452227269,1
655,681,14,0.0751035469937268,1
655,682,14,0.0799694521144892,1
656,682,14,0.0750204705478811,1
656,685,14,0.0842211851874426,1
657,684,14,0.0803945176747415,1
657,685,14,0.083977009533792,1
657,686,14,0.0808451922741116,1
658,684,14,0.0746747137626813,1
658,685,14,0.0799061663674404,1
658,686,14,0.0769403282138983,1
659,685,14,0.0728043988821668,1
659,686,14,0.0698330204451891,1
677,671,14,0.0702718428698318,1
677,675,14,0.0732381606715007,1
652,681,15,0.0843268189980921,1
652,682,15,0.0941083597135169,1
653,681,15,0.0777711830408434,1
653,682,15,0.0877525423853232,1
654,681,15,0.0711635365432368,1
655,682,15,0.0742743813623586,1
657,683,15,0.0702563272956432,1
657,685,15,0.0868115283719235,1
658,684,15,0.074979846436968,1
658,685,15,0.0821620349248346,1
658,686,15,0.0788982935760184,1
659,662,15,0.0900235928486438,1
659,665,15,0.0783304666595336,1
659,685,15,0.0751447550240986,1
659,686,15,0.0710363046640372,1
660,662,15,0.0837425728225421,1
660,663,15,0.0799146401510138,1
660,664,15,0.0710486086812029,1
661,661,15,0.0885793028246353,1
661,662,15,0.0904668502806039,1
661,663,15,0.0752933138663854,1
662,663,15,0.0721248695635152,1
668,685,15,0.0704008821187846,1
668,686,15,0.0705297823392948,1
669,686,15,0.0712946403645615,1
671,685,15,0.0699644231776652,1
672,685,15,0.0747823078743708,1
676,673,15,0.0745407737611287,1
648,670,16,0.0833159223380446,1
649,670,16,0.0835139753058793,1
653,681,16,0.0757752212053744,1
653,682,16,0.0811874524939812,1
654,682,16,0.0743021731480244,1
655,683,16,0.0756898438388044,1
656,683,16,0.070559833337152,1
657,684,16,0.0768326089766105,1
657,685,16,0.0851665299368277,1
658,661,16,0.0728658633566182,1
658,662,16,0.0897914640095402,1
658,684,16,0.0718595476837528,1
658,685,16,0.0803691797410868,1
658,686,16,0.0783003461474551,1
659,661,16,0.07492074544604,1
659,662,16,0.0829595229255677,1
659,663,16,0.08793086721716,1
659,665,16,0.070184894481861,1
659,685,16,0.074160127788271,1
659,686,16,0.0707791089967418,1
660,661,16,0.0799908068832648,1
660,662,16,0.0817225173579791,1
660,663,16,0.0734091934615257,1
661,660,16,0.0740538544467858,1
661,661,16,0.0846460700107197,1
661,662,16,0.0839935330641891,1
662,662,16,0.0785212206341343,1
668,686,16,0.0706679001455461,1
669,686,16,0.0697465586567673,1
670,686,16,0.0732318487802089,1
671,686,16,0.0796023405605137,1
647,670,17,0.0851443827059295,1
648,670,17,0.0878199989856485,1
649,670,17,0.0911295849633955,1
649,671,17,0.0697871897191025,1
651,664,17,0.0810207643427859,1
652,663,17,0.0783667947915719,1
652,664,17,0.0821687221929212,1
653,663,17,0.0764486680296644,1
653,664,17,0.0794418739321225,1
654,662,17,0.090981206858084,1
654,682,17,0.0714500046491111,1
654,683,17,0.0761213881244796,1
655,683,17,0.0726037460824566,1
656,684,17,0.0769227897758706,1
657,662,17,0.0785816980066436,1
657,684,17,0.0745785547403916,1
657,685,17,0.0838389959988727,1
658,662,17,0.0762480986470197,1
658,663,17,0.086841322167162,1
658,665,17,0.0713802262737953,1
658,684,17,0.0708283250654045,1
658,685,17,0.0800284488340852,1
659,661,17,0.0704539979352608,1
659,662,17,0.0758964401044337,1
659,663,17,0.0759618738409199,1
659,664,17,0.0717675039033625,1
659,685,17,0.0744800947973777,1
659,686,17,0.0720030250364644,1
660,661,17,0.0756465990417492,1
660,662,17,0.077269401585992,1
661,661,17,0.0757867397118396,1
661,662,17,0.0740162681073424,1
662,661,17,0.0722309065566481,1
670,686,17,0.0700372045673402,1
670,687,17,0.0736686413895904,1
671,686,17,0.0758937638069146,1
671,687,17,0.0823711267510076,1
676,669,17,0.0700427518021979,1
647,670,18,0.0879062174742959,1
648,670,18,0.0924733713262846,1
649,671,18,0.0720590117902793,1
651,664,18,0.0729984686851224,1
652,664,18,0.074065970775554,1
653,664,18,0.0734168469772881,1
653,680,18,0.0743711521097955,1
654,681,18,0.0699714580168583,1
655,683,18,0.0720826744312013,1
655,684,18,0.0797336807301907,1
656,684,18,0.0758792353346682,1
657,663,18,0.0774520780080806,1
657,684,18,0.0739534342027319,1
657,685,18,0.083577094218797,1
658,663,18,0.0715446552127992,1
658,664,18,0.0727111942142813,1
658,685,18,0.0792168842035439,1
658,686,18,0.0795547094160961,1
659,662,18,0.0706730094408098,1
659,663,18,0.0699251059341121,1
659,685,18,0.0741107448854773,1
659,686,18,0.0735630284332073,1
660,662,18,0.0724085988090712,1
660,686,18,0.0703720406683776,1
661,686,18,0.0701339892176213,1
662,686,18,0.0710342331402432,1
662,687,18,0.0715659752244642,1
670,687,18,0.0737669831584281,1
671,686,18,0.0721655562372275,1
671,687,18,0.0793658740340026,1
677,669,18,0.0740505247155867,1
648,671,19,0.0706535593616971,1
649,671,19,0.0740853026804906,1
650,665,19,0.0750418878794559,1
653,665,19,0.0762583937031905,1
653,680,19,0.0822297417763564,1
654,664,19,0.0734618643869858,1
654,666,19,0.073037591288856,1
654,681,19,0.0746659966793334,1
655,683,19,0.0739961924002382,1
656,684,19,0.077773664698543,1
656,685,19,0.0863605201042913,1
657,666,19,0.0709075017634368,1
657,684,19,0.0749846429182359,1
657,685,19,0.0845443915592607,1
657,686,19,0.0848441577356649,1
658,664,19,0.072005513645586,1
658,665,19,0.0698350433090282,1
658,685,19,0.0797185683384855,1
658,686,19,0.0803773546135087,1
659,662,19,0.0700312054900441,1
659,663,19,0.0707102273548804,1
659,685,19,0.0742936089959633,1
659,686,19,0.0759259419399428,1
660,662,19,0.0714365397444501,1
660,663,19,0.0700042826321443,1
660,686,19,0.0742526095082553,1
660,687,19,0.0729810206155824,1
661,686,19,0.075377307899952,1
661,687,19,0.0761440497606153,1
662,686,19,0.0766864275206913,1
662,687,19,0.0793927899404803,1
663,686,19,0.0738014413579142,1
663,687,19,0.0780909693129748,1
664,687,19,0.0738971763434541,1
665,687,19,0.0703957519692545,1
668,687,19,0.0707537154517101,1
668,688,19,0.0713825202430974,1
669,687,19,0.0737400046891513,1
669,688,19,0.0748438557658877,1
670,687,19,0.0759466641293049,1
670,688,19,0.0775763972414088,1
648,671,20,0.0750890254729025,1
649,671,20,0.0763136853147926,1
653,665,20,0.070298077536941,1
653,666,20,0.0753339240744543,1
653,679,20,0.074298933785313,1
653,680,20,0.0859024213860891,1
654,666,20,0.0708670861951875,1
654,680,20,0.0736186537130715,1
654,681,20,0.0780199049245654,1
655,682,20,0.0697790635066354,1
657,664,20,0.090255971938944,1
657,666,20,0.0813560870433722,1
657,684,20,0.0749718244958328,1
657,685,20,0.084207796748425,1
657,686,20,0.0845253655168977,1
658,664,20,0.0710402600232278,1
658,665,20,0.0771680081428403,1
658,685,20,0.079282589045493,1
658,686,20,0.0810908207749868,1
659,685,20,0.0731241017372327,1
659,686,20,0.0778999025243784,1
659,687,20,0.074837224109178,1
660,663,20,0.0698203062941179,1
660,686,20,0.0773551265236683,1
660,687,20,0.0778755447412436,1
661,686,20,0.0792972843518705,1
661,687,20,0.0827062826174629,1
662,686,20,0.0793821681674694,1
662,687,20,0.0850101715989138,1
663,686,20,0.0751299137378564,1
663,687,20,0.0818856602838894,1
663,688,20,0.0824347878748513,1
664,687,20,0.0764714478399763,1
664,688,20,0.0756839212271518,1
665,687,20,0.0722334438257246,1
666,687,20,0.0719486023526282,1
667,687,20,0.0742404584223764,1
667,688,20,0.0750748515231845,1
668,687,20,0.0774383698036451,1
668,688,20,0.0797756464655744,1
669,687,20,0.0784587621063187,1
669,688,20,0.0827168279248303,1
670,688,20,0.083489478494302,1
648,671,21,0.0784893414122576,1
649,671,21,0.078546718450498,1
650,671,21,0.0739968805910288,1
652,666,21,0.0784577263444217,1
653,666,21,0.0736080180372165,1
653,667,21,0.0714412458572305,1
653,679,21,0.0781443214778034,1
653,680,21,0.0870706217774597,1
654,665,21,0.0812667473661896,1
654,666,21,0.0722954157539913,1
654,680,21,0.0755775505657568,1
654,681,21,0.0796054478462047,1
655,664,21,0.0845972849302289,1
655,666,21,0.0874441703483252,1
655,682,21,0.0731528319648856,1
656,683,21,0.0734739529100655,1
656,686,21,0.0858955394781829,1
657,664,21,0.0912457571299903,1
657,666,21,0.0898913489940903,1
657,684,21,0.075562403416941,1
657,685,21,0.0849817402824124,1
657,686,21,0.0842184880356571,1
658,665,21,0.0823596569044972,1
658,685,21,0.0803743376963054,1
658,686,21,0.0835921788048136,1
658,687,21,0.0768752420485185,1
659,685,21,0.073005969269598,1
659,686,21,0.0814255595561144,1
659,687,21,0.0787448409325539,1
660,686,21,0.0804952020728362,1
660,687,21,0.0830516431716014,1
661,686,21,0.0815797699045909,1
661,687,21,0.088052941141141,1
662,686,21,0.0805146312976826,1
662,687,21,0.0893903878070499,1
662,688,21,0.0901435396374539,1
663,686,21,0.0760468063164737,1
663,687,21,0.0854116440324655,1
663,688,21,0.085904812675301,1
664,686,21,0.0703028392610983,1
664,687,21,0.0798518271006697,1
664,688,21,0.0802077260107535,1
665,687,21,0.0764880130789061,1
666,687,21,0.0785149921599081,1
666,688,21,0.0787105704214653,1
667,687,21,0.0849283672633174,1
667,688,21,0.0851968867972585,1
668,687,21,0.0883781634253761,1
668,688,21,0.0909418340031538,1
669,687,21,0.0860294794797355,1
669,688,21,0.0924994113535742,1
648,671,22,0.0829512576846581,1
649,671,22,0.0830411395727667,1
651,666,22,0.076757832528785,1
651,671,22,0.0708645628289552,1
652,666,22,0.075800009976681,1
652,667,22,0.0838688175997996,1
652,678,22,0.0704930023648182,1
653,666,22,0.073757654349933,1
653,667,22,0.073553087899565,1
653,679,22,0.0805321141243333,1
653,680,22,0.0871619704156372,1
654,665,22,0.0776962536617311,1
654,666,22,0.0748202626391869,1
654,679,22,0.070800651453915,1
654,680,22,0.0779046294914251,1
654,681,22,0.0815940133685301,1
655,664,22,0.0746965481795838,1
655,665,22,0.110800045011849,1
655,666,22,0.0912994151573924,1
655,681,22,0.0702561048501351,1
655,682,22,0.0771255905650183,1
656,664,22,0.0902335188454722,1
656,666,22,0.108342745095466,1
656,683,22,0.0767523478567264,1
656,686,22,0.0832097254622028,1
657,664,22,0.0781274364734557,1
657,665,22,0.115635127526898,1
657,666,22,0.0911816928236632,1
657,684,22,0.0745940911688466,1
657,685,22,0.0835375267240472,1
657,686,22,0.0836562570139849,1
657,687,22,0.0735071042421915,1
658,665,22,0.0779387679254932,1
658,685,22,0.0791962037227146,1
658,686,22,0.0853182655790268,1
658,687,22,0.0783987782847805,1
659,685,22,0.0719778539369407,1
659,686,22,0.0839368442167393,1
659,687,22,0.0819022533285077,1
660,686,22,0.0825261712701394,1
660,687,22,0.0867992174033358,1
661,686,22,0.082432973553676,1
661,687,22,0.0911960822674671,1
661,688,22,0.090354487493335,1
662,663,22,0.0708794249694638,1
662,686,22,0.0809330373955368,1
662,687,22,0.0921703588357469,1
662,688,22,0.0919979566155628,1
663,663,22,0.0728662387334131,1
663,686,22,0.0772777919524999,1
663,687,22,0.088769945576482,1
663,688,22,0.0888858952975687,1
664,686,22,0.0720799911822601,1
664,687,22,0.083928377384588,1
664,688,22,0.0849935994085619,1
665,687,22,0.0808146407738612,1
665,688,22,0.0830962365445493,1
666,687,22,0.0874385257935577,1
666,688,22,0.0908424912295297,1
667,686,22,0.0713618050051574,1
667,687,22,0.100381976475053,1
667,688,22,0.104878260578452,1
668,686,22,0.0726243014376876,1
668,687,22,0.103576453853791,1
668,688,22,0.110748799127925,1
669,688,22,0.1036499373371,1
648,671,23,0.0909046091376611,1
649,672,23,0.0716818484799075,1
650,666,23,0.080334791055822,1
650,672,23,0.0776509860008368,1
651,666,23,0.077372011528016,1
651,667,23,0.0940813117300188,1
651,671,23,0.0806648862869685,1
651,672,23,0.0799720519463648,1
651,673,23,0.074401328233251,1
652,666,23,0.0760294486154213,1
652,667,23,0.0860325242026274,1
652,668,23,0.0864040360068095,1
652,672,23,0.0714296856422324,1
652,673,23,0.0724122830627988,1
652,678,23,0.0734554899328949,1
653,666,23,0.0758843029213991,1
653,667,23,0.0784519149555231,1
653,668,23,0.0716159142410282,1
653,679,23,0.0791117926038203,1
654,665,23,0.0723381322429648,1
654,666,23,0.0769749393446711,1
654,667,23,0.0699415599502879,1
654,679,23,0.0707480222369877,1
654,680,23,0.0797178731962728,1
654,681,23,0.0844057802020384,1
655,665,23,0.0898829099676275,1
655,666,23,0.089819853617509,1
655,681,23,0.0749810559844181,1
655,682,23,0.0813563859545237,1
656,664,23,0.0706515295464358,1
656,665,23,0.106617666277461,1
656,666,23,0.103135177577137,1
656,667,23,0.0726139924786725,1
656,682,23,0.071609366001384,1
656,683,23,0.0806859282417484,1
657,665,23,0.0913041073673285,1
657,666,23,0.087051498415187,1
657,684,23,0.0762842947020376,1
657,686,23,0.086239356816609,1
657,687,23,0.0765769356707611,1
658,665,23,0.0731031640537847,1
658,685,23,0.0810827988338517,1
658,686,23,0.0889512386655672,1
658,687,23,0.0829854795357918,1
659,685,23,0.0740564403758172,1
659,686,23,0.0879182086774658,1
659,687,23,0.0873227846151348,1
660,686,23,0.085921607311161,1
660,687,23,0.0915844234646199,1
661,686,23,0.0845235720499888,1
661,687,23,0.0941843387573705,1
661,688,23,0.0933251360309893,1
662,686,23,0.083257766740526,1
662,687,23,0.0944965201736944,1
662,688,23,0.0933838477422782,1
663,663,23,0.0744336801518324,1
663,686,23,0.0798898930882399,1
663,687,23,0.0910356782018751,1
663,688,23,0.0906331213464716,1
664,663,23,0.0724880883210992,1
664,686,23,0.0756027425195468,1
664,687,23,0.0873386686146961,1
664,688,23,0.089343396193468,1
665,686,23,0.0719914648214663,1
665,687,23,0.0874577464757402,1
665,688,23,0.0948662176567012,1
666,686,23,0.0740833840879834,1
666,687,23,0.100837419750002,1
666,688,23,0.117311880058272,1
667,686,23,0.0807154231258354,1
667,687,23,0.118080429288688,1
667,688,23,0.138919249611221,1
668,686,23,0.0808311573528362,1
668,688,23,0.134058161825993,1
648,672,24,0.0732498807692077,1
649,672,24,0.0810584132450284,1
650,667,24,0.10523169173368,1
650,672,24,0.091279707875661,1
650,673,24,0.0778519794202314,1
651,666,24,0.0771385271615975,1
651,667,24,0.0941165067802503,1
651,672,24,0.0951230935585787,1
651,673,24,0.089068064265842,1
651,674,24,0.0776198714353941,1
651,675,24,0.0704981742228811,1
652,666,24,0.0743193987720563,1
652,667,24,0.0861434271912495,1
652,668,24,0.088863233661433,1
652,671,24,0.0727545849912012,1
652,672,24,0.080162173341552,1
652,673,24,0.0830978909830156,1
652,674,24,0.0816306265088757,1
652,675,24,0.0795956115838943,1
652,676,24,0.0760058554887206,1
652,677,24,0.0727108049346422,1
652,678,24,0.0757400748150977,1
653,666,24,0.0744443922933309,1
653,667,24,0.0810403047903863,1
653,668,24,0.0772210196879846,1
653,674,24,0.0709083567883585,1
653,675,24,0.0741600791283161,1
653,676,24,0.072562774400437,1
653,678,24,0.0707611465219644,1
653,679,24,0.0785684138389579,1
654,666,24,0.0763328225799097,1
654,667,24,0.0762932133766272,1
654,679,24,0.0715508280756484,1
654,680,24,0.0818305563606847,1
655,665,24,0.0740885489946242,1
655,666,24,0.0862320022119981,1
655,667,24,0.0777293285282138,1
655,680,24,0.0708425893836102,1
655,681,24,0.0800552187606982,1
655,682,24,0.0853727925341949,1
656,665,24,0.0827898387114355,1
656,666,24,0.0965785545179461,1
656,667,24,0.0818853822270043,1
656,682,24,0.0762174706811259,1
656,683,24,0.0833730421736663,1
657,665,24,0.0750740243039513,1
657,666,24,0.0834067635224068,1
657,667,24,0.0707713512096475,1
657,683,24,0.0697889275746344,1
657,684,24,0.077831458822111,1
657,685,24,0.0850649140481679,1
657,686,24,0.0863432110631939,1
658,665,24,0.0708139356216006,1
658,666,24,0.072121317386808,1
658,685,24,0.0809884263270487,1
658,686,24,0.0889507451145961,1
658,687,24,0.0861002588598378,1
659,665,24,0.0706324687469622,1
659,685,24,0.0748663088593595,1
659,686,24,0.0885509827308879,1
659,687,24,0.0906620323110998,1
660,686,24,0.0872444420877579,1
660,687,24,0.0941057876873297,1
660,688,24,0.0929872065471052,1
661,686,24,0.0864787151347252,1
661,687,24,0.0959703745960112,1
661,688,24,0.0957750813427612,1
662,664,24,0.0715411655988911,1
662,686,24,0.0858943716392655,1
662,687,24,0.0961651464926016,1
662,688,24,0.095489655950206,1
663,663,24,0.0742493284370111,1
663,664,24,0.0721697409933482,1
663,686,24,0.0827584738947962,1
663,687,24,0.0930517435501369,1
663,688,24,0.0936911075517358,1
664,663,24,0.0761229313401919,1
664,664,24,0.0698389152511532,1
664,686,24,0.079027270262172,1
664,687,24,0.0901141976846537,1
664,688,24,0.0958552381913134,1
665,663,24,0.0739814484339058,1
665,686,24,0.0765415042721772,1
665,687,24,0.0932289144459005,1
665,688,24,0.116256501248031,1
666,686,24,0.0794899499675563,1
666,687,24,0.109869805702747,1
667,686,24,0.086486827444348,1
667,687,24,0.126516508348491,1
667,688,24,0.178111172926246,1
668,686,24,0.0861668048238643,1
648,671,25,0.0986636057794012,1
648,672,25,0.0811143652417326,1
649,672,25,0.0906318144791116,1
649,673,25,0.0759891095128154,1
650,667,25,0.101206137082489,1
650,673,25,0.0886654726533278,1
650,674,25,0.078746050480004,1
650,675,25,0.0750138249883272,1
650,676,25,0.0722446147610835,1
651,666,25,0.075360130935875,1
651,667,25,0.0918425714767468,1
651,668,25,0.10096758512934,1
651,672,25,0.101868531145597,1
651,673,25,0.0969324792241457,1
651,674,25,0.0920261098751791,1
651,675,25,0.0895651048508025,1
651,676,25,0.0824984281444285,1
652,666,25,0.0720784479665477,1
652,667,25,0.0852558070512112,1
652,668,25,0.0911408810243527,1
652,669,25,0.0879959811882283,1
652,671,25,0.079582452541807,1
652,672,25,0.0835867914526648,1
652,673,25,0.0875126488077032,1
652,674,25,0.0936462917332798,1
652,675,25,0.097979412056502,1
652,676,25,0.090633635751709,1
652,677,25,0.0805296533209001,1
653,666,25,0.0719904846709464,1
653,667,25,0.0826531181410318,1
653,668,25,0.0835248056215539,1
653,669,25,0.075361875742829,1
653,673,25,0.0703797636983612,1
653,674,25,0.0787616911797909,1
653,675,25,0.0850992610248999,1
653,676,25,0.0819340699875853,1
653,677,25,0.0745049878400163,1
653,678,25,0.0725586591585376,1
653,679,25,0.0774492765849632,1
654,666,25,0.0732773666922998,1
654,667,25,0.0816391211467155,1
654,668,25,0.0768994469003664,1
654,679,25,0.0729490371223737,1
654,680,25,0.0828101299126256,1
655,666,25,0.0784603539819859,1
655,667,25,0.0836476024934362,1
655,668,25,0.0721475729081836,1
655,680,25,0.0759616305411454,1
655,681,25,0.0836036069427912,1
656,666,25,0.0845303288322968,1
656,667,25,0.08610604939447,1
656,681,25,0.0744933859164855,1
656,682,25,0.0805331429348081,1
656,683,25,0.0840289922684615,1
657,666,25,0.077643582736271,1
657,667,25,0.0765307226164575,1
657,682,25,0.0699081861726537,1
657,683,25,0.0736549679422656,1
657,684,25,0.0777262281939449,1
657,685,25,0.0824064121697268,1
657,686,25,0.0850470280390338,1
658,666,25,0.0741522657298448,1
658,684,25,0.0715649742196778,1
658,685,25,0.0801049144774877,1
658,686,25,0.0882854870655723,1
658,687,25,0.0886387374838254,1
659,665,25,0.0705143571335939,1
659,666,25,0.07149933889195,1
659,685,25,0.0762503787134775,1
659,686,25,0.0891068532013134,1
659,687,25,0.0929047348749845,1
660,665,25,0.0715794818376579,1
660,685,25,0.0727345092840969,1
660,686,25,0.0893431111851608,1
660,687,25,0.0960177346349658,1
660,688,25,0.0949280227508368,1
661,665,25,0.0714783316942807,1
661,685,25,0.0704289033013805,1
661,686,25,0.0889544919311229,1
661,687,25,0.0969781222618348,1
661,688,25,0.0964119358809721,1
662,664,25,0.07374058860861,1
662,665,25,0.0728397885722179,1
662,686,25,0.0881431080375568,1
662,687,25,0.0967510401551958,1
663,663,25,0.074293483870365,1
663,664,25,0.0765560466472679,1
663,665,25,0.0700438014669391,1
663,686,25,0.0847051501473813,1
663,687,25,0.0938398540824201,1
664,663,25,0.077329705172948,1
664,664,25,0.0757254420715193,1
664,686,25,0.082531440448112,1
664,687,25,0.0935923626004147,1
665,663,25,0.0755058188408231,1
665,664,25,0.0712260228767409,1
665,686,25,0.0819671587569122,1
665,687,25,0.099210001461467,1
666,686,25,0.0854503495508714,1
666,687,25,0.115033912929934,1
667,686,25,0.0904601282554066,1
667,687,25,0.125384330226585,1
649,672,26,0.0991039714197562,1
649,673,26,0.0866510895492208,1
649,674,26,0.0775859902039447,1
649,675,26,0.0741794874988961,1
650,668,26,0.106149126523223,1
650,673,26,0.0991893348834819,1
650,674,26,0.0951781001618736,1
650,675,26,0.0925681331127267,1
650,676,26,0.084637199996085,1
651,667,26,0.0873878499262482,1
651,668,26,0.0979572231170711,1
651,669,26,0.101775458554731,1
651,672,26,0.104695792699027,1
651,673,26,0.105830278693079,1
651,674,26,0.112267587542874,1
651,676,26,0.0990871559296298,1
652,667,26,0.08191611446423,1
652,668,26,0.091162868372542,1
652,669,26,0.0919798898694534,1
652,670,26,0.0900376555756078,1
652,671,26,0.0866222272445475,1
652,672,26,0.0881880698358775,1
652,673,26,0.095918954926534,1
652,674,26,0.109820554876973,1
652,675,26,0.116571963735599,1
652,676,26,0.10366244989693,1
652,677,26,0.087989752714002,1
653,667,26,0.0818849581902545,1
653,668,26,0.088121635094605,1
653,669,26,0.0830073973697598,1
653,670,26,0.0761478660913633,1
653,671,26,0.0709510524230656,1
653,672,26,0.0714350729943812,1
653,673,26,0.0782001761545978,1
653,674,26,0.0880144233111325,1
653,675,26,0.0944692775503767,1
653,676,26,0.0896341950353277,1
653,677,26,0.0808120478934077,1
653,678,26,0.0757938649195203,1
654,666,26,0.0702897427818101,1
654,667,26,0.0843223075251313,1
654,668,26,0.0860858972217223,1
654,669,26,0.074744589457907,1
654,675,26,0.0737476443020694,1
654,676,26,0.0741149087873316,1
654,677,26,0.0709896467187174,1
654,679,26,0.0748873508141394,1
654,680,26,0.0818850207530537,1
655,666,26,0.07336875703901,1
655,667,26,0.0867100445602842,1
655,668,26,0.0827811841908867,1
655,679,26,0.0734956552499476,1
655,680,26,0.0796238065520435,1
655,681,26,0.084309204094421,1
656,666,26,0.0766247266978876,1
656,667,26,0.0868198492242102,1
656,668,26,0.0777186302895595,1
656,678,26,0.0711707034594503,1
656,679,26,0.0729962233757752,1
656,680,26,0.0737561667455977,1
656,681,26,0.0777921415785578,1
656,682,26,0.081618378103087,1
657,666,26,0.07597376772418,1
657,667,26,0.0811854921929412,1
657,668,26,0.070705514290678,1
657,678,26,0.0704203878092743,1
657,679,26,0.0712300477501528,1
657,681,26,0.071680402584105,1
657,682,26,0.0751116871090381,1
657,683,26,0.0759970410854629,1
657,684,26,0.0768522815012313,1
657,685,26,0.0791898848800007,1
657,686,26,0.0824614257244438,1
658,666,26,0.0766552642952937,1
658,667,26,0.0760407585792227,1
658,682,26,0.0709264652430006,1
658,683,26,0.0709407782211611,1
658,684,26,0.0731679582594351,1
658,685,26,0.0788583924130066,1
658,686,26,0.0865911196305269,1
658,687,26,0.0890229495362345,1
659,665,26,0.071205961072481,1
659,666,26,0.0754506732090856,1
659,667,26,0.070886418100124,1
659,685,26,0.0770926269212897,1
659,686,26,0.0883177764213545,1
659,687,26,0.09320391713193,1
660,665,26,0.0730228056139908,1
660,666,26,0.073590980101582,1
660,685,26,0.0763966157807737,1
660,686,26,0.090318451321026,1
660,687,26,0.0964345697114192,1
660,688,26,0.0949933869731017,1
661,664,26,0.0699692891731545,1
661,665,26,0.0735877546417148,1
661,666,26,0.0716593536779029,1
661,685,26,0.076391068545916,1
661,686,26,0.0911180595055081,1
661,687,26,0.0971444489390795,1
661,688,26,0.0958119794914139,1
662,663,26,0.0697738916485726,1
662,664,26,0.0750730719591199,1
662,665,26,0.0763722023862619,1
662,666,26,0.071532107895859,1
662,685,26,0.0749203422635566,1
662,686,26,0.0899276145633295,1
662,687,26,0.0966351321426418,1
663,663,26,0.0753894520344088,1
663,664,26,0.0786791569448711,1
663,665,26,0.0753201255015312,1
663,685,26,0.0709902584438647,1
663,686,26,0.0861205848181386,1
663,687,26,0.0943488372105956,1
664,663,26,0.0773480360730983,1
664,664,26,0.0782102626681049,1
664,665,26,0.0709801510760913,1
664,686,26,0.0845271728866509,1
664,687,26,0.0955886720069901,1
665,662,26,0.0704358060635531,1
665,664,26,0.0749638095061198,1
665,685,26,0.0706098418679372,1
665,686,26,0.0882647162162553,1
665,687,26,0.10313110404377,1
666,685,26,0.0776239588716051,1
666,686,26,0.0967891756569872,1
666,687,26,0.117494577334627,1
649,670,27,0.11524971287846,1
649,671,27,0.114217378032572,1
649,672,27,0.108201401829347,1
649,673,27,0.10124423782717,1
649,674,27,0.0937673298953639,1
649,675,27,0.0912527711149169,1
650,668,27,0.098370763219436,1
650,669,27,0.10571340443285,1
650,672,27,0.111900462086054,1
650,673,27,0.113018056124336,1
650,674,27,0.116834581512153,1
651,667,27,0.0825641955491768,1
651,668,27,0.0934142393598196,1
651,669,27,0.0997431129758471,1
651,670,27,0.105321518010412,1
651,671,27,0.106551850212758,1
651,672,27,0.107634666286137,1
651,673,27,0.118367523022554,1
652,667,27,0.0792654537899487,1
652,668,27,0.090206463910552,1
652,669,27,0.0945052511598865,1
652,670,27,0.0958816257897094,1
652,671,27,0.0939918816843485,1
652,672,27,0.0951321026016559,1
652,673,27,0.107049780579751,1
652,674,27,0.124623052183714,1
652,676,27,0.116935432744379,1
653,667,27,0.0806683550466101,1
653,668,27,0.0905736797358593,1
653,669,27,0.0897144213981012,1
653,670,27,0.0849681919606859,1
653,671,27,0.0804180760443316,1
653,672,27,0.0807219227055246,1
653,673,27,0.0883883264045265,1
653,674,27,0.0987081713466606,1
653,675,27,0.104217882427761,1
653,676,27,0.0995345494577557,1
653,677,27,0.0906369863371744,1
654,667,27,0.0831499362804842,1
654,668,27,0.0908734667665299,1
654,669,27,0.0840209703273263,1
654,670,27,0.0746031488718787,1
654,673,27,0.0735603243299997,1
654,674,27,0.0797232049370446,1
654,675,27,0.0837141345546185,1
654,676,27,0.0843422650580594,1
654,677,27,0.0809734251580976,1
654,678,27,0.0785305216369409,1
654,679,27,0.0818141996644187,1
655,667,27,0.0846647415305541,1
655,668,27,0.0888144416295201,1
655,669,27,0.0781494863844441,1
655,675,27,0.073589840068353,1
655,676,27,0.0765432560305533,1
655,677,27,0.0791065373286919,1
655,678,27,0.081992823407407,1
655,679,27,0.0848362470172838,1
655,680,27,0.0853702552651183,1
656,666,27,0.0722320326870327,1
656,667,27,0.085074076022532,1
656,668,27,0.0846264878545865,1
656,669,27,0.0720657477183208,1
656,676,27,0.0714878829482839,1
656,677,27,0.080776463563537,1
656,678,27,0.0884489010969455,1
656,679,27,0.0887863509327029,1
656,680,27,0.0844603210600507,1
656,681,27,0.0837833985246969,1
657,666,27,0.0755117066953651,1
657,667,27,0.0838116073956903,1
657,668,27,0.0792408457556174,1
657,677,27,0.0774109047348194,1
657,678,27,0.087630239064412,1
657,679,27,0.0889409297065521,1
657,680,27,0.0844541551486236,1
657,681,27,0.0830465408277598,1
657,682,27,0.0818418385187976,1
657,683,27,0.0785848052923346,1
657,684,27,0.0761496178497394,1
657,685,27,0.0772436743726981,1
658,666,27,0.0778879252240527,1
658,667,27,0.0804284753718344,1
658,668,27,0.0723595843316502,1
658,678,27,0.0767834068107921,1
658,679,27,0.0824902671748508,1
658,680,27,0.083708274505765,1
658,681,27,0.0830262565779917,1
658,682,27,0.0800498592142379,1
658,683,27,0.075932928119181,1
658,684,27,0.0745496646300297,1
658,685,27,0.0782499830941414,1
658,686,27,0.0846349060267829,1
659,665,27,0.071210542059663,1
659,666,27,0.0777646208983551,1
659,667,27,0.0761848824141922,1
659,679,27,0.0721116757643172,1
659,680,27,0.0776572700864401,1
659,681,27,0.0782496077173465,1
659,682,27,0.0761324825941951,1
659,683,27,0.0731826049058577,1
659,684,27,0.0733131526134122,1
659,685,27,0.0788970979314125,1
659,686,27,0.0875728481233273,1
660,665,27,0.0733193532819499,1
660,666,27,0.0770244890815959,1
660,667,27,0.0733805536023604,1
660,682,27,0.0699822118668895,1
660,683,27,0.0707427739132814,1
660,684,27,0.0736735629964567,1
660,685,27,0.0817396109049906,1
660,686,27,0.0917183217576398,1
660,687,27,0.0960159620223233,1
661,664,27,0.0705017611566988,1
661,665,27,0.0744231417958871,1
661,666,27,0.0753470970193859,1
661,667,27,0.0706432434512599,1
661,684,27,0.074188913627301,1
661,685,27,0.0841547573975922,1
661,686,27,0.0937092090549558,1
661,687,27,0.096438156645237,1
662,663,27,0.0710296799587497,1
662,664,27,0.0756346843042227,1
662,665,27,0.0773202025788998,1
662,666,27,0.074948717968681,1
662,684,27,0.071474911594594,1
662,685,27,0.0816214228259789,1
662,686,27,0.0914322915913596,1
663,663,27,0.0751291560328445,1
663,664,27,0.078610615922694,1
663,665,27,0.0775322557108991,1
663,666,27,0.0718405633499226,1
663,685,27,0.0759357225908762,1
663,686,27,0.087313525320861,1
664,663,27,0.0756129541586521,1
664,664,27,0.0780498029911358,1
664,665,27,0.0753117073293348,1
664,685,27,0.0733617082969728,1
664,686,27,0.0872392215697401,1
665,664,27,0.0768881160822986,1
665,665,27,0.0729846492579329,1
665,685,27,0.0786113180163288,1
665,686,27,0.0958752860927291,1
666,684,27,0.0713194499901345,1
666,685,27,0.0902201999206759,1
666,686,27,0.110229013489763,1
671,670,27,0.0731706623626427,1
649,672,28,0.120851975193767,1
649,673,28,0.124969302519885,1
650,669,28,0.100212264455232,1
650,670,28,0.110826175407626,1
650,671,28,0.118075757933019,1
651,668,28,0.0888009072106379,1
651,669,28,0.0968492567984352,1
651,670,28,0.105646191132299,1
651,671,28,0.111317592292085,1
652,667,28,0.0780354691587089,1
652,668,28,0.0890380480250954,1
652,669,28,0.0954198358663574,1
652,670,28,0.0997522332416784,1
652,671,28,0.101694481438368,1
652,672,28,0.104678879888991,1
652,673,28,0.118142797448016,1
652,676,28,0.127785087275383,1
653,667,28,0.0798728064926505,1
653,668,28,0.0916368510903055,1
653,669,28,0.0951343201053146,1
653,670,28,0.0930546909531189,1
653,671,28,0.0904507577383787,1
653,672,28,0.0915915973322555,1
653,673,28,0.0992543376317962,1
653,674,28,0.110823874486902,1
653,675,28,0.114805523955935,1
653,676,28,0.111082523001422,1
653,677,28,0.103105828672915,1
654,667,28,0.0812587601821651,1
654,668,28,0.0931492998082742,1
654,669,28,0.0934783662289458,1
654,670,28,0.0875901571644248,1
654,671,28,0.0821085854400962,1
654,672,28,0.0812476796152938,1
654,673,28,0.0850669091063185,1
654,674,28,0.0935409776880482,1
654,675,28,0.0972051835142075,1
654,676,28,0.0977576130306799,1
654,677,28,0.0963029584362793,1
654,678,28,0.0968059633414252,1
655,667,28,0.0828239910483479,1
655,668,28,0.0926218119943953,1
655,669,28,0.0894391172761636,1
655,670,28,0.0827234248244293,1
655,671,28,0.076635702993427,1
655,672,28,0.0751418215239608,1
655,673,28,0.0774283110958266,1
655,674,28,0.0837170402490678,1
655,675,28,0.0870751193475762,1
655,676,28,0.0908876059591372,1
655,677,28,0.0959313910207201,1
655,678,28,0.101437292722495,1
655,679,28,0.100758514157433,1
656,666,28,0.0714847130997937,1
656,667,28,0.0852688757248109,1
656,668,28,0.0910006916943074,1
656,669,28,0.0834511970126458,1
656,670,28,0.0749459791083628,1
656,673,28,0.0698653028495492,1
656,674,28,0.0746370092490618,1
656,675,28,0.0786301841759829,1
656,676,28,0.0864661747692072,1
656,677,28,0.0975865941434992,1
656,678,28,0.107581814623701,1
656,679,28,0.109233764480925,1
656,680,28,0.104620543554497,1
656,682,28,0.0879371721570296,1
657,666,28,0.076187927137084,1
657,667,28,0.0867252751261655,1
657,668,28,0.0880031898129745,1
657,669,28,0.0768291610712353,1
657,675,28,0.069988016304366,1
657,676,28,0.0789613221204485,1
657,677,28,0.0916584978188106,1
657,678,28,0.104212634104055,1
657,679,28,0.110637221851356,1
657,680,28,0.110642963726033,1
657,681,28,0.10369165977271,1
657,682,28,0.0916511640684661,1
657,683,28,0.0812177745973013,1
658,666,28,0.0782810211939407,1
658,667,28,0.0837512203916687,1
658,668,28,0.080679359147838,1
658,677,28,0.0791525765974424,1
658,678,28,0.0915784660958567,1
658,679,28,0.102547219342171,1
658,680,28,0.108209597556036,1
658,681,28,0.104239918435906,1
658,682,28,0.0925102347178268,1
658,683,28,0.0811367974809381,1
659,665,28,0.0702174340888398,1
659,666,28,0.0781016814544733,1
659,667,28,0.0801672061711723,1
659,668,28,0.0744558551884191,1
659,678,28,0.0770655858892137,1
659,679,28,0.0881395836665382,1
659,680,28,0.0953472352136578,1
659,681,28,0.094645127675936,1
659,682,28,0.0888033749654931,1
659,683,28,0.0814920360059197,1
659,684,28,0.0772412969863305,1
660,665,28,0.0721289848054147,1
660,666,28,0.0777928923321476,1
660,667,28,0.0786755630596312,1
660,668,28,0.0720130281329058,1
660,679,28,0.0748973122020481,1
660,680,28,0.0808156695843361,1
660,681,28,0.082799084102865,1
660,682,28,0.0844613637733699,1
660,683,28,0.0841166010415344,1
660,684,28,0.083228105022308,1
660,685,28,0.0870731659979584,1
661,664,28,0.0698513513453393,1
661,665,28,0.073536953648807,1
661,666,28,0.0767747383873991,1
661,667,28,0.0766675266039267,1
661,668,28,0.0705388608965933,1
661,680,28,0.0726861690946223,1
661,681,28,0.075340507071209,1
661,682,28,0.079910232949385,1
661,683,28,0.0837321248350845,1
661,684,28,0.0864566165637819,1
661,685,28,0.0916297189312027,1
662,664,28,0.0737466989086601,1
662,665,28,0.0755097742000137,1
662,666,28,0.0763324819602254,1
662,667,28,0.0739873640941363,1
662,680,28,0.0700855447568148,1
662,681,28,0.0727255906095074,1
662,682,28,0.0748264702591468,1
662,683,28,0.0783251627244503,1
662,684,28,0.081729983185344,1
662,685,28,0.0869226607574759,1
663,663,28,0.0717753173018339,1
663,664,28,0.0757511762362354,1
663,665,28,0.0767477529667001,1
663,666,28,0.074755934178819,1
663,667,28,0.0698950549362549,1
663,683,28,0.0716485442164947,1
663,684,28,0.0749432889079994,1
663,685,28,0.0796440699475451,1
664,663,28,0.07250132382883,1
664,664,28,0.0763360897483096,1
664,665,28,0.0767861248168439,1
664,666,28,0.07282267417094,1
664,684,28,0.0728430001292408,1
664,685,28,0.0781986468417298,1
665,663,28,0.0753710863771479,1
665,664,28,0.0775641488356201,1
665,665,28,0.076652497629287,1
665,666,28,0.071177119622074,1
665,684,28,0.0751617373483561,1
665,685,28,0.084782936560988,1
666,662,28,0.0792977639999973,1
666,664,28,0.0821307257195723,1
666,683,28,0.0718873811779513,1
666,684,28,0.0810518719568064,1
666,685,28,0.0976850888436237,1
667,684,28,0.0845896800744214,1
669,668,28,0.0781224314495239,1
669,669,28,0.0718846770747437,1
670,668,28,0.0837687727325406,1
670,669,28,0.0816057612719256,1
670,670,28,0.0758304154970667,1
671,669,28,0.0836230153133712,1
671,670,28,0.0812548048229745,1
671,671,28,0.0748708759436973,1
672,670,28,0.0800487956466524,1
672,671,28,0.0749171168036894,1
672,672,28,0.0700265132801081,1
673,670,28,0.0772887543451949,1
651,669,29,0.0938515046659057,1
651,670,29,0.104726365053544,1
652,668,29,0.0872429197263119,1
652,669,29,0.0951215572942885,1
652,670,29,0.101670346100742,1
652,671,29,0.107929872329625,1
652,676,29,0.131631740126701,1
652,677,29,0.121134063903701,1
653,667,29,0.0777035387521207,1
653,668,29,0.0898262002659114,1
653,669,29,0.0973807555828818,1
653,670,29,0.099382341118852,1
653,671,29,0.0999568900605341,1
653,672,29,0.101026192569297,1
653,673,29,0.107348184277418,1
653,674,29,0.120242293764652,1
653,675,29,0.124237846077941,1
653,676,29,0.119552573661162,1
653,677,29,0.118335157201128,1
654,667,29,0.0796644584686451,1
654,668,29,0.0921999857968543,1
654,669,29,0.0997149944733414,1
654,670,29,0.100304864349392,1
654,671,29,0.0972628872692879,1
654,672,29,0.0945494204960846,1
654,673,29,0.097026107928781,1
654,674,29,0.106266765439887,1
654,675,29,0.110307425531361,1
654,676,29,0.110264604771056,1
654,677,29,0.116645906012769,1
655,667,29,0.0827300495297168,1
655,668,29,0.094115179058624,1
655,669,29,0.099070319585237,1
655,670,29,0.0986085227104629,1
655,671,29,0.0938904951926189,1
655,672,29,0.0903985038982463,1
655,673,29,0.0913605876721144,1
655,674,29,0.0966668862389203,1
655,675,29,0.10014017820777,1
655,676,29,0.104979167422055,1
655,677,29,0.114020159235393,1
656,666,29,0.07273827695489,1
656,667,29,0.0873413588150595,1
656,668,29,0.0963087003109566,1
656,669,29,0.0951186515998392,1
656,670,29,0.0901653323458236,1
656,671,29,0.083960381732063,1
656,672,29,0.0821230583009657,1
656,673,29,0.0842408994205962,1
656,674,29,0.088110568430578,1
656,675,29,0.092140648457574,1
656,676,29,0.101252440505281,1
656,677,29,0.11187454023294,1
656,678,29,0.125609069703967,1
657,666,29,0.0764001888117473,1
657,667,29,0.0893738920823413,1
657,668,29,0.0957365913184412,1
657,669,29,0.0885787675651315,1
657,670,29,0.0789775050311613,1
657,671,29,0.0716708235244133,1
657,672,29,0.0713836116163714,1
657,673,29,0.0743593764007116,1
657,674,29,0.0783286592897804,1
657,675,29,0.0830548894857349,1
657,676,29,0.092733674279271,1
657,677,29,0.103887794148037,1
657,678,29,0.119383918257504,1
657,682,29,0.105632253530933,1
658,666,29,0.0781980629222711,1
658,667,29,0.0872219959457082,1
658,668,29,0.0900094119475038,1
658,669,29,0.0804560794691027,1
658,674,29,0.070010698794768,1
658,675,29,0.074379848338877,1
658,676,29,0.0812713909161707,1
658,677,29,0.0906807524908892,1
658,678,29,0.104780996280044,1
658,679,29,0.121612127106253,1
658,680,29,0.134106071027296,1
658,681,29,0.126093361380746,1
658,682,29,0.104772112362565,1
659,666,29,0.0778006501192419,1
659,667,29,0.0838163691198476,1
659,668,29,0.084072417802492,1
659,669,29,0.0738815356436672,1
659,676,29,0.0697888233033025,1
659,677,29,0.0772953999047488,1
659,678,29,0.0892572472190419,1
659,679,29,0.101948910439657,1
659,680,29,0.112781123852543,1
659,681,29,0.112254345083721,1
659,682,29,0.101765837786507,1
659,683,29,0.089052743331473,1
660,665,29,0.0709966120436892,1
660,666,29,0.0779205621509413,1
660,667,29,0.0828241509310568,1
660,668,29,0.0816888307663492,1
660,669,29,0.0715434039568162,1
660,678,29,0.0785672112429298,1
660,679,29,0.0931925098482188,1
660,680,29,0.110523712079436,1
660,681,29,0.115491921279649,1
660,682,29,0.108307390162525,1
660,683,29,0.0975893538580838,1
661,665,29,0.0725771360385525,1
661,666,29,0.0774744198787983,1
661,667,29,0.0809567834535243,1
661,668,29,0.0794821713261956,1
661,669,29,0.0709018155001365,1
661,678,29,0.071391772585949,1
661,679,29,0.0899566784592445,1
661,680,29,0.11440276550929,1
661,681,29,0.12045581364672,1
661,682,29,0.110805731275149,1
661,683,29,0.0992260453437373,1
662,664,29,0.0718761615826375,1
662,665,29,0.0741938282827452,1
662,666,29,0.0775124233035694,1
662,667,29,0.0783693320606484,1
662,668,29,0.0761534897918644,1
662,669,29,0.0697694218841446,1
662,679,29,0.0850362672375805,1
662,680,29,0.108956944948963,1
662,681,29,0.112617431764284,1
662,682,29,0.101111521275912,1
662,683,29,0.0914007877462778,1
663,664,29,0.0734318968061941,1
663,665,29,0.0758252227847375,1
663,666,29,0.0769492607913321,1
663,667,29,0.074786791541643,1
663,668,29,0.0718308383103662,1
663,679,29,0.0743553584787219,1
663,680,29,0.0900312811215169,1
663,681,29,0.0923252434721697,1
663,682,29,0.0862489289248786,1
663,683,29,0.0823653501192197,1
664,664,29,0.0752336776159536,1
664,665,29,0.0772479008373516,1
664,666,29,0.076889610638056,1
664,667,29,0.0726366888719188,1
664,680,29,0.0747631984149423,1
664,681,29,0.0806306366301463,1
664,682,29,0.0820064620976211,1
665,663,29,0.0740826055287051,1
665,664,29,0.077845743994583,1
665,665,29,0.0794854871545505,1
665,667,29,0.0726362022723698,1
666,663,29,0.079343546066129,1
666,664,29,0.0832336592085878,1
666,680,29,0.0701023950040518,1
666,681,29,0.079354939446996,1
666,683,29,0.0863851559443112,1
667,668,29,0.0719398018522148,1
667,680,29,0.0734708942843294,1
667,681,29,0.0791799582492026,1
668,668,29,0.0781726554743951,1
668,669,29,0.0724147647204983,1
669,667,29,0.0861005508195671,1
669,668,29,0.0863898829113579,1
670,667,29,0.0821571619779232,1
670,668,29,0.0879157756797212,1
670,671,29,0.0768933366003164,1
671,666,29,0.0701339058005558,1
671,668,29,0.0809651668686101,1
671,669,29,0.0861014266987552,1
671,670,29,0.0855981020281914,1
671,671,29,0.0799618264044153,1
671,672,29,0.072863833541357,1
672,668,29,0.0738883271830858,1
672,669,29,0.0800305759692563,1
672,670,29,0.0813261611711133,1
673,668,29,0.069959883899016,1
673,669,29,0.0776248903621702,1
652,669,30,0.0945588674787559,1
652,670,30,0.102986556172051,1
652,675,30,0.135824462577214,1
652,676,30,0.128289621493397,1
653,668,30,0.0871033212671475,1
653,669,30,0.0985670644288945,1
653,670,30,0.106255198273467,1
653,675,30,0.132189661266654,1
653,676,30,0.125573158657257,1
654,668,30,0.0912093455808864,1
654,669,30,0.105312064076318,1
654,675,30,0.121991229863398,1
654,676,30,0.123262019342527,1
655,668,30,0.096516450512659,1
655,669,30,0.110400664956357,1
655,673,30,0.109416753717009,1
655,674,30,0.110676400066467,1
655,675,30,0.11372353510179,1
655,676,30,0.120070982917742,1
656,668,30,0.101438022621818,1
656,669,30,0.109559424704754,1
656,670,30,0.110959468926921,1
656,671,30,0.10604958910978,1
656,674,30,0.104076629530131,1
656,675,30,0.107779165497901,1
656,676,30,0.116933333414897,1
656,677,30,0.126862299890801,1
657,668,30,0.102006614194737,1
657,669,30,0.103604050999637,1
657,677,30,0.116288644623948,1
658,678,30,0.11659461146889,1
659,679,30,0.114252434054361,1
659,680,30,0.134542161543042,1
659,681,30,0.138243432351985,1
659,682,30,0.118267116681344,1
660,680,30,0.166413194644491,1
660,681,30,0.183830816955597,1
660,682,30,0.145965002536991,1
661,680,30,0.188055071056881,1
661,681,30,0.209502293746857,1
661,682,30,0.159046786518823,1
662,680,30,0.153624566036619,1
662,681,30,0.166225686984024,1
662,682,30,0.130069018723906,1
663,680,30,0.103803132777946,1
663,681,30,0.109002866043537,1
663,682,30,0.0989606330954872,1
664,666,30,0.079826760272478,1
665,664,30,0.0772709239474379,1
665,665,30,0.0813766354471811,1
665,667,30,0.0808778013953117,1
666,664,30,0.0825954004831072,1
667,668,30,0.0810057353681462,1
667,680,30,0.0811009768027151,1
668,664,30,0.0847602262648975,1
668,668,30,0.0867044695197379,1
669,664,30,0.0798673635291247,1
669,665,30,0.0826553843046453,1
669,667,30,0.0875756217407562,1
670,664,30,0.0750253782519031,1
670,665,30,0.075628650469816,1
670,666,30,0.0782354268162064,1
670,667,30,0.082645770487843,1
671,667,30,0.0759196578543396,1
671,668,30,0.0813690305913736,1
671,671,30,0.0835469250467636,1
672,668,30,0.0758166725355207,1
672,669,30,0.0809536483621448,1
672,670,30,0.0825602054328756,1
673,669,30,0.0816257118534316,1
