x,y,z,signal,cytoplasm.p
818,577,4,0.0731021282918877,1
819,576,4,0.0733113382922369,1
819,577,4,0.0819548894968572,1
819,578,4,0.0742389152066641,1
820,577,4,0.0768154945753326,1
820,578,4,0.0710140045018522,1
817,576,6,0.0758906078612687,1
817,577,6,0.11037832308564,1
818,576,6,0.0967373528050267,1
818,577,6,0.15677425540259,1
818,578,6,0.171356058959627,1
819,576,6,0.0988203603483764,1
819,577,6,0.155249572181677,1
819,578,6,0.162655061202545,1
821,560,6,0.0700848843717127,1
822,560,6,0.0729561623300544,1
822,561,6,0.0733305172658867,1
793,556,7,0.0704249618450342,1
793,557,7,0.0732030003783798,1
794,556,7,0.0734500608722133,1
794,557,7,0.080362541132955,1
794,558,7,0.0728840343740595,1
795,557,7,0.0738542026518619,1
804,552,7,0.0740578654173534,1
804,553,7,0.0741073734457454,1
813,562,7,0.0765394118941168,1
814,562,7,0.069736784957256,1
816,577,7,0.0870941314870949,1
816,578,7,0.091922457219836,1
817,576,7,0.0972239523539517,1
817,577,7,0.156689879040806,1
817,578,7,0.174956826107451,1
818,576,7,0.128418653790927,1
818,577,7,0.231895674502606,1
818,578,7,0.259543051325075,1
818,579,7,0.162700370571972,1
819,576,7,0.121780295910362,1
819,577,7,0.213082679325002,1
819,578,7,0.23173986532704,1
819,579,7,0.144840457076581,1
820,576,7,0.0925704757419837,1
820,577,7,0.136103798523985,1
820,578,7,0.13915868439498,1
821,559,7,0.0754547397910302,1
821,560,7,0.080461550238317,1
821,561,7,0.0789693371101615,1
821,562,7,0.0739458154440802,1
822,559,7,0.0747993805671159,1
822,560,7,0.0832607280463523,1
822,561,7,0.0874667277131289,1
822,562,7,0.0835019701998651,1
822,563,7,0.0698537078774405,1
823,560,7,0.0761323922257074,1
823,561,7,0.0827512096586729,1
823,562,7,0.077861120540329,1
792,556,8,0.0794578343973273,1
792,557,8,0.0829883643759747,1
792,558,8,0.077371900305262,1
793,555,8,0.0760561281735466,1
793,556,8,0.101958586819258,1
793,557,8,0.107455389109468,1
793,558,8,0.0947779484985262,1
793,559,8,0.0736181601621005,1
794,555,8,0.0761899569523453,1
794,556,8,0.104904258897209,1
794,557,8,0.116827115684788,1
794,558,8,0.10422382589368,1
794,559,8,0.0765970669892423,1
795,556,8,0.0834068191337838,1
795,557,8,0.0977522256785311,1
795,558,8,0.0914571846339982,1
804,552,8,0.0743513475081543,1
804,553,8,0.0765797718509891,1
813,562,8,0.0711415909035803,1
816,576,8,0.0720933240099006,1
816,577,8,0.0885005849204635,1
816,578,8,0.0910700321300292,1
816,579,8,0.0744367804861013,1
817,576,8,0.102669536565926,1
817,577,8,0.162893147410412,1
817,578,8,0.176062088322879,1
817,579,8,0.113555011775153,1
818,576,8,0.13900426550384,1
818,577,8,0.251032369602999,1
818,578,8,0.27203628620106,1
818,579,8,0.159651949523555,1
819,576,8,0.126051319179719,1
819,577,8,0.224413247141631,1
819,578,8,0.238974710837523,1
819,579,8,0.139553970062839,1
820,560,8,0.0724149176517851,1
820,576,8,0.0871404140556198,1
820,577,8,0.130193393568611,1
820,578,8,0.133595489072031,1
821,559,8,0.0836795790352227,1
821,560,8,0.0902366886939624,1
821,561,8,0.0908878492589117,1
821,562,8,0.083707892177548,1
821,563,8,0.0700677977761233,1
822,559,8,0.083307219157541,1
822,560,8,0.0953893191232177,1
822,561,8,0.102749707317323,1
822,562,8,0.0956125848991087,1
822,563,8,0.0779850852511287,1
823,559,8,0.0700331518882398,1
823,560,8,0.0832413405300387,1
823,561,8,0.091133373488455,1
823,562,8,0.0825523503258715,1
791,556,9,0.081122074368872,1
791,557,9,0.0940080298379507,1
791,558,9,0.0867107605567633,1
792,555,9,0.0800451531014576,1
792,556,9,0.115010444928832,1
792,557,9,0.129430016196257,1
792,558,9,0.11404115948164,1
792,559,9,0.078930436951936,1
793,555,9,0.0944727671642847,1
793,556,9,0.135309640254451,1
793,557,9,0.146785979393093,1
793,558,9,0.127030176735181,1
793,559,9,0.0846536540122608,1
794,555,9,0.0891709731190175,1
794,556,9,0.123821761755077,1
794,557,9,0.13563726077932,1
794,558,9,0.123357893356509,1
794,559,9,0.083965122601954,1
795,556,9,0.0890330916611185,1
795,557,9,0.102305129115158,1
795,558,9,0.100980215863345,1
795,559,9,0.0743163123406317,1
796,545,9,0.0820687607427278,1
797,544,9,0.0925010518891963,1
797,545,9,0.08034896500554,1
798,544,9,0.0794269561802369,1
798,545,9,0.0760370187141182,1
810,577,9,0.0697929315937798,1
810,578,9,0.0707786988628363,1
811,578,9,0.0706394549262004,1
816,576,9,0.0779667543509785,1
816,577,9,0.089147505117915,1
816,578,9,0.0865605472760102,1
816,579,9,0.072640136777294,1
817,576,9,0.107565673421521,1
817,577,9,0.151803780038763,1
817,578,9,0.150231576896187,1
817,579,9,0.0986486463189829,1
818,576,9,0.136716719315811,1
818,577,9,0.224638389801496,1
818,578,9,0.225822439435318,1
818,579,9,0.131789940591478,1
819,576,9,0.119126924181451,1
819,577,9,0.198950326917041,1
819,578,9,0.200531886673801,1
819,579,9,0.117778473414314,1
820,559,9,0.0803345894645803,1
820,560,9,0.0928016174791452,1
820,561,9,0.0879615229887423,1
820,562,9,0.0702374263788785,1
820,576,9,0.077445939902342,1
820,577,9,0.111184813178028,1
820,578,9,0.112182161516349,1
821,559,9,0.0982274527008555,1
821,560,9,0.121632550384464,1
821,561,9,0.119686666594001,1
821,562,9,0.096138890971226,1
821,563,9,0.0769701220091367,1
821,568,9,0.0716749874262677,1
822,559,9,0.0940530889561811,1
822,560,9,0.120520753832236,1
822,561,9,0.124159878927359,1
822,562,9,0.102825978320906,1
822,563,9,0.0799037889810728,1
822,567,9,0.072227847930912,1
822,568,9,0.0755822219214265,1
822,569,9,0.0710805991258336,1
823,559,9,0.0719153189434817,1
823,560,9,0.0893572295235017,1
823,561,9,0.093327680251488,1
823,562,9,0.0795999979312568,1
823,568,9,0.0786827091215783,1
823,569,9,0.0791099921854893,1
823,570,9,0.0732367912413416,1
824,568,9,0.0850254160676395,1
824,569,9,0.0874291691793741,1
824,570,9,0.0805686160419248,1
790,556,10,0.0710062119576473,1
790,557,10,0.0847216945320447,1
790,558,10,0.0820893439036473,1
791,554,10,0.0828455056998325,1
791,555,10,0.0954763856853646,1
791,556,10,0.119662364422243,1
791,557,10,0.147102922533574,1
791,558,10,0.131001510293777,1
791,559,10,0.0838058933267015,1
792,553,10,0.0720813328067307,1
792,554,10,0.103538798000126,1
792,555,10,0.129532591381171,1
792,556,10,0.170178404634163,1
792,557,10,0.199998656985245,1
792,558,10,0.169691332388533,1
792,559,10,0.0981703328652338,1
793,553,10,0.0697950726317951,1
793,554,10,0.101684825913033,1
793,555,10,0.133449981904058,1
793,556,10,0.174055323977424,1
793,557,10,0.192491718909848,1
793,558,10,0.162096027835051,1
793,559,10,0.0955435572773827,1
794,554,10,0.0819506699836258,1
794,555,10,0.106074051164246,1
794,556,10,0.133906690337835,1
794,557,10,0.142205631741906,1
794,558,10,0.127793373370559,1
794,559,10,0.0829746561715393,1
795,555,10,0.0713996485472195,1
795,556,10,0.0854463107746153,1
795,557,10,0.0936339668618478,1
795,558,10,0.0952096596183324,1
795,559,10,0.0702587811476542,1
796,545,10,0.102508743220695,1
796,546,10,0.071123093169299,1
797,544,10,0.12368398456851,1
797,545,10,0.105613707136697,1
797,546,10,0.0717730858953309,1
798,544,10,0.10470067259736,1
798,545,10,0.0933571334270422,1
799,544,10,0.0725857140934578,1
799,545,10,0.0721295965305619,1
809,578,10,0.0711321300180648,1
810,577,10,0.0732972477595845,1
810,578,10,0.0768825549445966,1
811,577,10,0.0708113079840364,1
811,578,10,0.0743229439973413,1
814,546,10,0.0737241276410121,1
814,547,10,0.073948039899161,1
815,547,10,0.0708942801585503,1
816,576,10,0.0766956103493217,1
816,577,10,0.0841008699732598,1
816,578,10,0.0798115922693957,1
817,576,10,0.0989266336898616,1
817,577,10,0.124263038031731,1
817,578,10,0.114461755277464,1
817,579,10,0.081895559108999,1
818,576,10,0.115758668200947,1
818,577,10,0.167494224202383,1
818,578,10,0.156830645338888,1
818,579,10,0.0996836574623906,1
819,560,10,0.0717829499633299,1
819,576,10,0.0991752930107844,1
819,577,10,0.149119224230188,1
819,578,10,0.144003436338209,1
819,579,10,0.0943981853562787,1
820,559,10,0.0902721409468126,1
820,560,10,0.122694060349021,1
820,561,10,0.113582038904385,1
820,562,10,0.0810680270618307,1
820,577,10,0.0907531724066135,1
820,578,10,0.0913477692497113,1
821,559,10,0.110821594420444,1
821,560,10,0.159757194054565,1
821,561,10,0.148858962985735,1
821,562,10,0.103458821888549,1
821,563,10,0.0771451310126187,1
821,567,10,0.0702102810754706,1
821,568,10,0.0740496627392429,1
821,578,10,0.0698503225348644,1
822,559,10,0.0972336565392417,1
822,560,10,0.13752076250761,1
822,561,10,0.132057945720182,1
822,562,10,0.0975362310901854,1
822,563,10,0.074024804453715,1
822,567,10,0.0731404653849208,1
822,568,10,0.0787365826430664,1
822,569,10,0.0774060248364859,1
822,570,10,0.0700600469404511,1
822,578,10,0.0730300628986919,1
822,579,10,0.0771470287508595,1
823,560,10,0.0835798261276931,1
823,561,10,0.0824519022761292,1
823,567,10,0.0714184382412301,1
823,568,10,0.0851128302008928,1
823,569,10,0.0875241673141685,1
823,570,10,0.0789907961502691,1
823,571,10,0.0740836760477128,1
824,567,10,0.0719529678457242,1
824,568,10,0.0938461312166012,1
824,569,10,0.0980414882561006,1
824,570,10,0.0884520083826365,1
824,571,10,0.0862438474353034,1
825,569,10,0.0933819361011931,1
825,571,10,0.0944621314884296,1
790,554,11,0.0757834725434397,1
790,555,11,0.0819715242500083,1
790,556,11,0.0875984919195557,1
790,557,11,0.103399839071797,1
790,558,11,0.0995248105153551,1
790,559,11,0.0756545931771959,1
791,553,11,0.0864649582703349,1
791,554,11,0.120664787298717,1
791,555,11,0.135348429189922,1
791,556,11,0.152045300249161,1
791,557,11,0.187740296760103,1
791,558,11,0.166274082784875,1
791,559,11,0.102931723354309,1
792,553,11,0.103702990590777,1
792,554,11,0.153221758930019,1
792,555,11,0.179297141152575,1
792,556,11,0.205466742950646,1
792,557,11,0.245295277504108,1
792,558,11,0.205348457551725,1
792,559,11,0.116790606815775,1
793,553,11,0.0947101721327831,1
793,554,11,0.138988110398816,1
793,555,11,0.166423566166305,1
793,556,11,0.185904342759165,1
793,557,11,0.207978917393303,1
793,558,11,0.17092137263115,1
793,559,11,0.101573651818948,1
794,553,11,0.0736632609888637,1
794,554,11,0.0988790094968661,1
794,555,11,0.117277248073233,1
794,556,11,0.124414245365848,1
794,557,11,0.128314062693597,1
794,558,11,0.111523528172612,1
794,559,11,0.076843376729486,1
795,546,11,0.0737676783006409,1
795,555,11,0.0720540971348351,1
795,556,11,0.073723411644533,1
795,557,11,0.0754380285722357,1
795,558,11,0.0759450096908386,1
796,545,11,0.114941598044081,1
796,546,11,0.0814375646621286,1
797,544,11,0.135955663718448,1
797,545,11,0.117501876327861,1
797,546,11,0.0759249061780458,1
798,543,11,0.0881128693513022,1
798,544,11,0.109427173898778,1
798,545,11,0.095924516064236,1
799,544,11,0.0700462205618395,1
807,578,11,0.0701008726426059,1
808,578,11,0.0768677901239978,1
808,579,11,0.0734353377601472,1
809,577,11,0.070585456279114,1
809,578,11,0.0789970871872945,1
809,579,11,0.0726959288912893,1
810,577,11,0.0712114318416953,1
810,578,11,0.0768289455771493,1
811,578,11,0.0717273385863099,1
814,545,11,0.0707118470362361,1
814,546,11,0.0848571847007318,1
814,547,11,0.0820370275007157,1
815,546,11,0.0760482661151204,1
815,547,11,0.0740785389467606,1
815,577,11,0.0708328087326768,1
815,578,11,0.0711558760760523,1
816,576,11,0.0744837025854619,1
816,577,11,0.0829918331356164,1
816,578,11,0.07914230934696,1
816,579,11,0.0702470401956809,1
817,576,11,0.089053563599284,1
817,577,11,0.103616306356848,1
817,578,11,0.0933408531964196,1
817,579,11,0.0744243026833824,1
818,576,11,0.0946440710597727,1
818,577,11,0.120253346525835,1
818,578,11,0.10968955532698,1
818,579,11,0.0818562835739786,1
819,560,11,0.0792373978502421,1
819,561,11,0.0739240713956654,1
819,576,11,0.0819103656381305,1
819,577,11,0.109031206991551,1
819,578,11,0.105802751061454,1
819,579,11,0.082926719164548,1
820,559,11,0.0933144377923351,1
820,560,11,0.141193643708585,1
820,561,11,0.128729827251043,1
820,562,11,0.0875314385017138,1
820,577,11,0.0823836601651035,1
820,578,11,0.0853424356737641,1
820,579,11,0.0777956659495765,1
821,559,11,0.113661014011175,1
821,560,11,0.179243198116865,1
821,561,11,0.162357637655398,1
821,562,11,0.104602024965949,1
821,563,11,0.0747449926403904,1
821,567,11,0.0743583962501916,1
821,568,11,0.0846091440563784,1
821,569,11,0.0811538632222611,1
821,577,11,0.0729780176012233,1
821,578,11,0.0780645817145788,1
821,579,11,0.0789556984199473,1
822,559,11,0.090502239970655,1
822,560,11,0.135000288066933,1
822,561,11,0.124453228941139,1
822,562,11,0.0864784440292623,1
822,567,11,0.0813829473384729,1
822,568,11,0.097634239190761,1
822,569,11,0.0970253363209248,1
822,570,11,0.0800786798103786,1
822,577,11,0.0759914034821175,1
822,578,11,0.0821846061924825,1
822,579,11,0.0862356239029266,1
822,580,11,0.0831604815878516,1
823,560,11,0.0748617139693332,1
823,561,11,0.0717343525712365,1
823,567,11,0.0801604493888643,1
823,568,11,0.101812718177335,1
823,569,11,0.103369433551411,1
823,570,11,0.0855646239792254,1
823,571,11,0.0781748521237874,1
823,572,11,0.0750698882077855,1
823,573,11,0.0721877799337691,1
823,574,11,0.0707024278592534,1
823,578,11,0.0905233236339677,1
823,579,11,0.0962089752091155,1
824,567,11,0.0753577187923967,1
824,568,11,0.098725966987307,1
824,569,11,0.103699160357185,1
824,570,11,0.0920584756966048,1
824,571,11,0.092229626660806,1
824,572,11,0.088936181885239,1
825,568,11,0.0816845973502736,1
825,569,11,0.0910202599475963,1
825,570,11,0.0929721706210434,1
825,571,11,0.101580756172362,1
825,572,11,0.0986602412910915,1
826,571,11,0.0859344396364084,1
789,555,12,0.0710558520630597,1
789,556,12,0.0722231487695538,1
790,553,12,0.0712164716227378,1
790,554,12,0.0993427458184137,1
790,555,12,0.117453327595722,1
790,556,12,0.120563282632812,1
790,557,12,0.123664256432512,1
790,558,12,0.111835146523744,1
790,559,12,0.0831399401354649,1
791,553,12,0.105707036930181,1
791,554,12,0.152535208675019,1
791,555,12,0.174232154253503,1
791,556,12,0.184080720581081,1
791,557,12,0.21045116286726,1
791,558,12,0.185760017332954,1
791,559,12,0.116638273351273,1
792,552,12,0.0740754108068032,1
792,553,12,0.127380889884357,1
792,554,12,0.183687840105279,1
792,555,12,0.205366670277699,1
792,556,12,0.217563371388569,1
792,557,12,0.253698962936797,1
792,558,12,0.216426452396772,1
792,559,12,0.126742721527364,1
793,552,12,0.0709633008288542,1
793,553,12,0.113045945229912,1
793,554,12,0.157787967388599,1
793,555,12,0.172833542024294,1
793,556,12,0.173184519327512,1
793,557,12,0.192552668979062,1
793,558,12,0.160923753910314,1
793,559,12,0.0991559472030036,1
793,567,12,0.0698479868570296,1
794,546,12,0.0701523270691937,1
794,553,12,0.0825407344994965,1
794,554,12,0.106249101876261,1
794,555,12,0.113714102021963,1
794,556,12,0.103277931981947,1
794,557,12,0.102515819768421,1
794,558,12,0.0877958566965997,1
795,545,12,0.0972313764727839,1
795,546,12,0.0845631395447386,1
796,544,12,0.111154164357868,1
796,545,12,0.109181594057858,1
796,546,12,0.0843597200790215,1
797,544,12,0.121508828973438,1
797,545,12,0.107253964701902,1
797,546,12,0.0733908139014206,1
798,543,12,0.0775200629164875,1
798,544,12,0.0978351283388237,1
798,545,12,0.0867064993349992,1
807,578,12,0.0751632736126463,1
807,579,12,0.0737058732065053,1
808,578,12,0.0826688631121506,1
808,579,12,0.0778513190351293,1
809,578,12,0.0784384083423294,1
809,579,12,0.0728027931036554,1
813,546,12,0.0708532459137316,1
814,545,12,0.0727637191598767,1
814,546,12,0.0901869304143737,1
814,547,12,0.0824580681875563,1
815,546,12,0.080125643618272,1
815,547,12,0.0725572966798006,1
815,577,12,0.0703946258388698,1
815,578,12,0.0718764118338341,1
816,577,12,0.0791354274390538,1
816,578,12,0.0767760104976484,1
817,576,12,0.0742043735901126,1
817,577,12,0.0861661791958728,1
817,578,12,0.0802130925086359,1
818,576,12,0.073795108612356,1
818,577,12,0.0874971123792482,1
818,578,12,0.0831707974982888,1
818,579,12,0.0728102728338646,1
819,560,12,0.0844259045690975,1
819,561,12,0.0779989255325846,1
819,577,12,0.082050346425512,1
819,578,12,0.0842891214358946,1
819,579,12,0.07750504089327,1
820,559,12,0.0956944170403937,1
820,560,12,0.142166175469911,1
820,561,12,0.127878806348506,1
820,562,12,0.0860725435398154,1
820,568,12,0.0784271609413271,1
820,569,12,0.0748691519910096,1
820,577,12,0.077051648287848,1
820,578,12,0.0836769305433921,1
820,579,12,0.081539757518825,1
820,580,12,0.0721862645237453,1
821,559,12,0.110287356775679,1
821,560,12,0.168632046879056,1
821,561,12,0.149816257229757,1
821,562,12,0.0943680231356675,1
821,563,12,0.0704965962500581,1
821,567,12,0.0880247253187255,1
821,568,12,0.110329315559641,1
821,569,12,0.103997063552459,1
821,570,12,0.0781566880577682,1
821,577,12,0.0764100042197913,1
821,578,12,0.0839589427876827,1
821,579,12,0.0851732102534922,1
821,580,12,0.0783050105517027,1
822,559,12,0.0813021926676177,1
822,560,12,0.114036863502765,1
822,561,12,0.102176340117402,1
822,562,12,0.0713306626340262,1
822,566,12,0.0699750936106309,1
822,567,12,0.101417946914714,1
822,568,12,0.133615397945004,1
822,569,12,0.12641537905938,1
822,570,12,0.0920822356574366,1
822,571,12,0.0712361510987807,1
822,575,12,0.0714367065785812,1
822,577,12,0.0808485220053107,1
822,578,12,0.0891432717018394,1
822,579,12,0.091962094228807,1
822,580,12,0.086777369083589,1
823,567,12,0.0948725364994151,1
823,568,12,0.124755907763415,1
823,569,12,0.120745382086864,1
823,570,12,0.0935895055659203,1
823,571,12,0.0811923115380483,1
823,572,12,0.0764069038855224,1
823,573,12,0.076257490018314,1
823,574,12,0.0761052955822545,1
823,575,12,0.0773796024809792,1
823,577,12,0.0873621922271756,1
823,578,12,0.0985825869545052,1
823,579,12,0.101950933303496,1
823,580,12,0.0967951747342833,1
824,567,12,0.0776936121213227,1
824,568,12,0.0987102498218768,1
824,569,12,0.10240740538892,1
824,570,12,0.0933377806678393,1
824,571,12,0.0929331036286868,1
824,572,12,0.0867255392802064,1
824,573,12,0.0835585547759829,1
824,574,12,0.0810968546093935,1
824,578,12,0.0968355346911556,1
824,579,12,0.0995627583287491,1
825,568,12,0.0745700253454412,1
825,569,12,0.0843812972933053,1
825,570,12,0.0906191837451059,1
825,571,12,0.0988344786867173,1
825,572,12,0.0927547162340509,1
789,555,13,0.0771798950746783,1
789,556,13,0.0832040322474804,1
789,557,13,0.0763958094158069,1
790,553,13,0.0701007822741183,1
790,554,13,0.0995219117723279,1
790,555,13,0.128435059147148,1
790,556,13,0.135656196453195,1
790,557,13,0.128074725229747,1
790,558,13,0.111444817219863,1
790,559,13,0.0859574140865398,1
791,553,13,0.104716994536516,1
791,554,13,0.14694009242166,1
791,555,13,0.17331312063687,1
791,556,13,0.183030638754501,1
791,557,13,0.194195929558626,1
791,558,13,0.175151326898578,1
791,559,13,0.119948067871684,1
791,560,13,0.0739695545506456,1
792,552,13,0.0780695241757115,1
792,553,13,0.12737318770864,1
792,554,13,0.171663353526195,1
792,555,13,0.185594323235123,1
792,556,13,0.191055749738126,1
792,557,13,0.214387071978695,1
792,558,13,0.193002481602088,1
792,559,13,0.123593588275164,1
792,560,13,0.070689755416715,1
793,552,13,0.0747693782292136,1
793,553,13,0.113375317513157,1
793,554,13,0.146023839373878,1
793,555,13,0.148231750070015,1
793,556,13,0.13990963262457,1
793,557,13,0.151678598829091,1
793,558,13,0.134866014397118,1
793,559,13,0.0891837567843099,1
793,567,13,0.0701568107364659,1
794,546,13,0.0799908485917976,1
794,553,13,0.0809774986914643,1
794,554,13,0.0975573356077645,1
794,555,13,0.0958780249530473,1
794,556,13,0.0794385998123005,1
794,557,13,0.0747806603873266,1
795,545,13,0.0986216330925954,1
795,546,13,0.0938969044038205,1
796,544,13,0.0892705174838833,1
796,545,13,0.0956863811964143,1
796,546,13,0.084700172929138,1
797,543,13,0.0740376367789623,1
797,544,13,0.0938117494827586,1
797,545,13,0.0892913230903109,1
797,546,13,0.0714490592557018,1
798,544,13,0.083594542288337,1
798,545,13,0.0795798457585092,1
799,544,13,0.0721458281012296,1
799,545,13,0.073102802579834,1
807,578,13,0.0720314841586544,1
807,579,13,0.0727842258551528,1
808,540,13,0.0737645362578393,1
808,578,13,0.0764955901290251,1
808,579,13,0.0744638701781321,1
809,540,13,0.0776347127216364,1
809,578,13,0.0699226103735683,1
814,545,13,0.0701735358581047,1
814,546,13,0.0825247184229147,1
814,547,13,0.071981030736853,1
815,546,13,0.0743165695432504,1
815,578,13,0.0733238299978,1
816,577,13,0.0738628293667221,1
816,578,13,0.0768892074555726,1
817,577,13,0.0760019279352185,1
817,578,13,0.0776950858228137,1
817,579,13,0.0697907279929654,1
818,577,13,0.0746444750764267,1
818,578,13,0.0775368575523475,1
818,579,13,0.0722525254794646,1
819,559,13,0.073047789025117,1
819,560,13,0.0888767124689383,1
819,561,13,0.0808183319790109,1
819,577,13,0.0742610137776074,1
819,578,13,0.0809685035512313,1
819,579,13,0.0784723660394222,1
819,580,13,0.0701234925702088,1
820,559,13,0.0972173346000864,1
820,560,13,0.134301614531742,1
820,561,13,0.119583702129449,1
820,562,13,0.0822086581130437,1
820,567,13,0.0749578104288238,1
820,568,13,0.0904047879838496,1
820,569,13,0.0841636135093826,1
820,577,13,0.0776917699944589,1
820,578,13,0.0866372770734535,1
820,579,13,0.0859686545361199,1
820,580,13,0.0768443638314281,1
821,559,13,0.101574444281071,1
821,560,13,0.142535198664971,1
821,561,13,0.126288168034447,1
821,562,13,0.083242772522997,1
821,566,13,0.0702142503375054,1
821,567,13,0.0996172783324951,1
821,568,13,0.132804639679429,1
821,569,13,0.119533902141327,1
821,570,13,0.0833630251743806,1
821,576,13,0.0716863530014461,1
821,577,13,0.0808825561680469,1
821,578,13,0.0904275747455835,1
821,579,13,0.0918177618511737,1
821,580,13,0.0840726193937337,1
821,581,13,0.0742003834738114,1
822,559,13,0.0735383995446096,1
822,560,13,0.0932223384005679,1
822,561,13,0.0841582192058117,1
822,566,13,0.0715836109824017,1
822,567,13,0.112605593492401,1
822,568,13,0.156022208848304,1
822,569,13,0.141693756822126,1
822,570,13,0.0998621074198256,1
822,571,13,0.0767502832843545,1
822,572,13,0.0706209154833863,1
822,573,13,0.0717155976343365,1
822,574,13,0.0733056103204038,1
822,575,13,0.0737315795655328,1
822,576,13,0.0777350425972026,1
822,577,13,0.0869409916576261,1
822,578,13,0.0977564590946067,1
822,579,13,0.0996867925537701,1
822,580,13,0.0918354740747546,1
823,567,13,0.0970575422596415,1
823,568,13,0.13027618500615,1
823,569,13,0.124390707850525,1
823,570,13,0.101561869158442,1
823,571,13,0.0882082637171579,1
823,572,13,0.0801797673909567,1
823,573,13,0.0796325514410799,1
823,574,13,0.0797863238499623,1
823,575,13,0.0789207814266009,1
823,577,13,0.0908614130005608,1
823,578,13,0.103716650135258,1
823,579,13,0.106117789512273,1
823,580,13,0.0978871388791816,1
824,567,13,0.0730626164085149,1
824,568,13,0.0905780869374881,1
824,569,13,0.0953211187207248,1
824,570,13,0.0952101184121929,1
824,571,13,0.093204626176987,1
824,572,13,0.0840097159749019,1
824,573,13,0.0805267962864057,1
824,574,13,0.0798866467741064,1
824,578,13,0.0950014575741917,1
824,579,13,0.097494008152183,1
825,569,13,0.075364273983463,1
825,570,13,0.084033816555418,1
825,571,13,0.0882325797917599,1
789,555,14,0.072674866082243,1
789,556,14,0.0801212433680652,1
789,557,14,0.0740077665180805,1
790,554,14,0.0882335599422798,1
790,555,14,0.116659475188762,1
790,556,14,0.125172047697656,1
790,557,14,0.112852396783616,1
790,558,14,0.0962004805712757,1
790,559,14,0.0817857335908066,1
791,553,14,0.0914678133584311,1
791,554,14,0.121968776769927,1
791,555,14,0.145595701285045,1
791,556,14,0.153951004819727,1
791,557,14,0.153523909444213,1
791,558,14,0.14167586386157,1
791,559,14,0.113150014970583,1
791,560,14,0.0804485371760943,1
792,552,14,0.0731991701447876,1
792,553,14,0.109409899614791,1
792,554,14,0.137058743187328,1
792,555,14,0.144392006932292,1
792,556,14,0.146441897900626,1
792,557,14,0.158371692207489,1
792,558,14,0.150634439614164,1
792,559,14,0.112603702705582,1
792,560,14,0.0748278813978387,1
793,546,14,0.0712555386150943,1
793,553,14,0.0973630433593009,1
793,554,14,0.115902242873569,1
793,555,14,0.110959795643761,1
793,556,14,0.100914907252458,1
793,557,14,0.106946753552399,1
793,558,14,0.101564580213072,1
793,559,14,0.0759439461232531,1
794,545,14,0.0878658019060466,1
794,546,14,0.0893800857994569,1
794,547,14,0.0726940798130034,1
794,554,14,0.0767699419061311,1
794,555,14,0.0709916278740238,1
795,544,14,0.0763356170516049,1
795,545,14,0.0959618312982164,1
795,546,14,0.0979828599618773,1
795,547,14,0.07460256495242,1
796,544,14,0.0716312143211308,1
796,545,14,0.0842305765587368,1
796,546,14,0.0818791607042002,1
797,544,14,0.0707285582550307,1
797,545,14,0.0746363766696482,1
798,544,14,0.0702926901847922,1
798,545,14,0.0715832634112953,1
799,544,14,0.0702989186590184,1
799,545,14,0.0707384570801402,1
800,576,14,0.0709578648167505,1
802,577,14,0.0711220365531357,1
804,578,14,0.0717339076802204,1
807,579,14,0.0732381398172343,1
808,540,14,0.0760895853682463,1
808,579,14,0.0708316269909151,1
809,540,14,0.0753274801061421,1
815,578,14,0.0703646095981233,1
816,578,14,0.0734696847368792,1
817,578,14,0.0751752161558613,1
817,579,14,0.071273403769962,1
818,578,14,0.0766715167202278,1
818,579,14,0.0757060406523615,1
819,559,14,0.077389021657962,1
819,560,14,0.0913767636314051,1
819,561,14,0.0810775088016126,1
819,577,14,0.0714252228292266,1
819,578,14,0.0814468795677795,1
819,579,14,0.0826984761704137,1
819,580,14,0.0749252916761113,1
820,559,14,0.0959226739373722,1
820,560,14,0.120759271028274,1
820,561,14,0.105247985867147,1
820,562,14,0.0767616280052666,1
820,567,14,0.0777111644621946,1
820,568,14,0.0934299773795163,1
820,569,14,0.0837084552427403,1
820,577,14,0.0792868711215235,1
820,578,14,0.0887342013639024,1
820,579,14,0.0905405284037333,1
820,580,14,0.0824220598209358,1
820,581,14,0.0697889901374335,1
821,559,14,0.0912257926456401,1
821,560,14,0.114256368559285,1
821,561,14,0.100344987957912,1
821,562,14,0.0730507433795212,1
821,566,14,0.0718273139393476,1
821,567,14,0.102836655705294,1
821,568,14,0.137204792566227,1
821,569,14,0.118215342489339,1
821,570,14,0.0822144834047865,1
821,576,14,0.0734419624654347,1
821,577,14,0.085382941610501,1
821,578,14,0.0950016174569006,1
821,579,14,0.0975645303296665,1
821,580,14,0.0896640027334104,1
821,581,14,0.0780915462810114,1
822,560,14,0.0781483741569037,1
822,561,14,0.0714994014547491,1
822,566,14,0.0716778444607621,1
822,567,14,0.109860101517457,1
822,568,14,0.150697850486811,1
822,569,14,0.133519899307816,1
822,570,14,0.0983566031725623,1
822,571,14,0.0788010987918317,1
822,572,14,0.0721097641232321,1
822,573,14,0.0744434121428109,1
822,574,14,0.074589426764599,1
822,575,14,0.0728142490473215,1
822,576,14,0.0771565521991742,1
822,577,14,0.0903413771112025,1
822,578,14,0.102451060319881,1
822,579,14,0.105051629046312,1
822,580,14,0.095794969361468,1
823,567,14,0.0884022501030479,1
823,568,14,0.115806320199631,1
823,569,14,0.112389821349564,1
823,570,14,0.101767533933506,1
823,571,14,0.0908482192013628,1
823,572,14,0.0802083585901671,1
823,573,14,0.0795076691425593,1
823,574,14,0.0788923501100994,1
823,575,14,0.0759939685568825,1
823,577,14,0.0883663946677142,1
823,578,14,0.100647555557434,1
823,579,14,0.103988040606538,1
824,568,14,0.0765100768927388,1
824,569,14,0.0831441874543848,1
824,570,14,0.0905850383596156,1
824,571,14,0.0886446879011666,1
824,572,14,0.0793869298916268,1
824,573,14,0.0764611458323833,1
824,574,14,0.0760116807804634,1
825,570,14,0.0745848666316834,1
825,571,14,0.0768374402149891,1
790,554,15,0.0723728337422253,1
790,555,15,0.0915654599850561,1
790,556,15,0.0989860266405189,1
790,557,15,0.0898788920456378,1
790,558,15,0.0777381081743608,1
790,559,15,0.0730145264702369,1
791,553,15,0.0735724823673007,1
791,554,15,0.0910519028211207,1
791,555,15,0.105754292697804,1
791,556,15,0.111564805717205,1
791,557,15,0.107909692351189,1
791,558,15,0.10197643111986,1
791,559,15,0.0960146482035412,1
791,560,15,0.0778921864458168,1
792,553,15,0.0845475614077508,1
792,554,15,0.0984911201421516,1
792,555,15,0.100151015474867,1
792,556,15,0.0999647173618497,1
792,557,15,0.105179284962261,1
792,558,15,0.104746197460874,1
792,559,15,0.0937530864314246,1
792,560,15,0.0716013579630932,1
793,546,15,0.0792580227196944,1
793,547,15,0.082159115327541,1
793,548,15,0.0760840867933435,1
793,553,15,0.0757021756616586,1
793,554,15,0.0835883346683771,1
793,555,15,0.0759437862405441,1
793,557,15,0.0700002160501997,1
793,558,15,0.0700980781709107,1
794,545,15,0.0795703640187272,1
794,546,15,0.0892515401014752,1
794,547,15,0.0887525322640526,1
794,548,15,0.0793644211867779,1
795,545,15,0.0811925339835564,1
795,546,15,0.0858097797833959,1
795,547,15,0.076488659561164,1
796,545,15,0.0729790533631203,1
796,546,15,0.0705198557084967,1
803,577,15,0.0711967226324735,1
805,578,15,0.0700200484575295,1
816,578,15,0.0715407137564529,1
816,579,15,0.0721261416737645,1
817,578,15,0.0742877698013762,1
817,579,15,0.0755369612119543,1
817,580,15,0.0709800746104479,1
818,578,15,0.0771040342050009,1
818,579,15,0.080602761427415,1
818,580,15,0.0755797541665712,1
819,559,15,0.0782908644076732,1
819,560,15,0.0888756280470864,1
819,561,15,0.0799896598986138,1
819,577,15,0.0723847276254854,1
819,578,15,0.0835226576321165,1
819,579,15,0.0890404949256843,1
819,580,15,0.0829457869154438,1
819,581,15,0.0711881932375231,1
820,559,15,0.0872745625998363,1
820,560,15,0.101250035313224,1
820,561,15,0.0898125546242751,1
820,562,15,0.0724233497268258,1
820,567,15,0.0792646126678713,1
820,568,15,0.0908003795142813,1
820,569,15,0.0789260297503071,1
820,576,15,0.0699962328853207,1
820,577,15,0.0836999119449456,1
820,578,15,0.0933064367054664,1
820,579,15,0.0986087312531267,1
820,580,15,0.0917013950447594,1
820,581,15,0.0787696436067048,1
821,559,15,0.0785479279979482,1
821,560,15,0.0896102473860984,1
821,561,15,0.0810586356905365,1
821,566,15,0.0743603913083422,1
821,567,15,0.100659171383809,1
821,568,15,0.127184081221083,1
821,569,15,0.107356463421172,1
821,570,15,0.0801881786117309,1
821,573,15,0.0700323038147403,1
821,576,15,0.0766585175608494,1
821,577,15,0.0912173049592224,1
821,578,15,0.101785489456861,1
821,579,15,0.106928158498208,1
821,580,15,0.0990691586977417,1
821,581,15,0.0857125641449428,1
822,566,15,0.0707681952640017,1
822,567,15,0.0987679118684244,1
822,568,15,0.128542959121411,1
822,569,15,0.114403891639675,1
822,570,15,0.0937129002601055,1
822,571,15,0.079345395144415,1
822,572,15,0.0747591040273092,1
822,573,15,0.0771986013516234,1
822,574,15,0.077038885476822,1
822,576,15,0.0780961203167713,1
822,577,15,0.0928174111102189,1
822,578,15,0.105641200011211,1
822,579,15,0.11025034045285,1
822,580,15,0.101678520973164,1
823,567,15,0.077923544311034,1
823,568,15,0.0977196513144416,1
823,569,15,0.0985846237211886,1
823,570,15,0.0989238253153221,1
823,571,15,0.0898276114046032,1
823,572,15,0.0807942731070277,1
823,573,15,0.0801429248536809,1
823,574,15,0.0800289145793678,1
823,577,15,0.0859605491779193,1
823,578,15,0.0965386533549343,1
823,579,15,0.101254199215079,1
824,569,15,0.0757488544612448,1
824,570,15,0.085317514825437,1
824,571,15,0.0822592644661319,1
790,556,16,0.0721878146908797,1
791,555,16,0.073298860489518,1
791,556,16,0.0755577042555828,1
791,557,16,0.0711057771767794,1
791,559,16,0.0740078707894124,1
792,546,16,0.0762140366785949,1
792,547,16,0.0861167962930791,1
792,548,16,0.0782703716152413,1
792,559,16,0.0706214159857795,1
793,545,16,0.0699574509012713,1
793,546,16,0.0890708795918036,1
793,547,16,0.107503930890185,1
793,548,16,0.0976219212707511,1
794,545,16,0.0701581176038259,1
794,546,16,0.0872690431706671,1
794,547,16,0.104603679404415,1
794,548,16,0.0956379575898741,1
795,546,16,0.0716335360961214,1
795,547,16,0.0754502283180695,1
798,574,16,0.0743358180311215,1
799,574,16,0.0712399257209959,1
799,575,16,0.0775309210378507,1
800,575,16,0.0727185279646258,1
803,540,16,0.0746396299352038,1
804,540,16,0.0754136499348346,1
805,540,16,0.0736826276509109,1
805,541,16,0.0712295402963375,1
806,540,16,0.0719922989921216,1
806,541,16,0.0725749046320495,1
816,579,16,0.0714357264280612,1
817,578,16,0.0700314904983513,1
817,579,16,0.0758621278848124,1
817,580,16,0.0732072059887669,1
818,578,16,0.0757801428122406,1
818,579,16,0.0827998070507663,1
818,580,16,0.0801314689100148,1
819,559,16,0.0754652990012419,1
819,560,16,0.0801988629475409,1
819,561,16,0.073244938308075,1
819,577,16,0.0767603350407509,1
819,578,16,0.0892943400075142,1
819,579,16,0.0960806658594861,1
819,580,16,0.0907955899844355,1
819,581,16,0.0792239051398927,1
820,559,16,0.0773032133032201,1
820,560,16,0.0823963395590641,1
820,561,16,0.0755728375015543,1
820,567,16,0.0765895525019225,1
820,568,16,0.0807843464762296,1
820,569,16,0.0707469100094473,1
820,576,16,0.0774444314437403,1
820,577,16,0.096766972814712,1
820,578,16,0.110687167819342,1
820,579,16,0.113997254299482,1
820,580,16,0.10303500758428,1
820,581,16,0.088714007482622,1
821,566,16,0.073025002263383,1
821,567,16,0.0911138121865882,1
821,568,16,0.104492665193039,1
821,569,16,0.0904157642793889,1
821,570,16,0.0758581169142448,1
821,572,16,0.0704117193858813,1
821,573,16,0.0735113585125336,1
821,574,16,0.0737150351808693,1
821,575,16,0.0740313735476255,1
821,576,16,0.0828646290621052,1
821,577,16,0.104171203628175,1
821,578,16,0.120117001332226,1
821,579,16,0.122392910839614,1
821,580,16,0.109013480865126,1
821,581,16,0.0936316728925457,1
822,567,16,0.0843101355849861,1
822,568,16,0.100264740740873,1
822,569,16,0.0932248895724886,1
822,570,16,0.0863587683459152,1
822,571,16,0.0786705302300109,1
822,572,16,0.0770331992135217,1
822,573,16,0.0791259456992719,1
822,576,16,0.0799752843576541,1
822,577,16,0.0965067671816354,1
822,578,16,0.110925483424139,1
822,579,16,0.115227412716275,1
822,580,16,0.106341110899541,1
823,569,16,0.0842695253769172,1
823,570,16,0.0906077208500177,1
823,571,16,0.0848128832875133,1
823,578,16,0.0925446859658906,1
823,579,16,0.098503027928256,1
791,547,17,0.0733734562003682,1
792,546,17,0.0847814489566527,1
792,547,17,0.104182020041006,1
792,548,17,0.0900715159527908,1
793,546,17,0.0946478665362543,1
793,547,17,0.125851674336217,1
793,548,17,0.109498092307323,1
794,546,17,0.0802461743265407,1
794,547,17,0.105952331762794,1
794,548,17,0.0957068878916904,1
799,574,17,0.0737692076135089,1
800,541,17,0.0711536933295043,1
800,542,17,0.0718155521331078,1
801,540,17,0.0698406253009966,1
801,541,17,0.0709854480597524,1
802,540,17,0.0706890046631252,1
802,576,17,0.0725294770884463,1
803,540,17,0.0726689295677461,1
804,540,17,0.0806995252234298,1
804,541,17,0.0808676314647392,1
804,577,17,0.070250321266925,1
805,539,17,0.0775188950775701,1
805,540,17,0.0881112357671022,1
805,541,17,0.0923680781353194,1
805,542,17,0.0759032524981187,1
806,540,17,0.083635215059205,1
806,541,17,0.0885247480637787,1
806,542,17,0.074050976558025,1
816,580,17,0.0708802243830084,1
817,579,17,0.0723753362541912,1
817,580,17,0.0742915027150586,1
818,578,17,0.0719198651735531,1
818,579,17,0.080297114347891,1
818,580,17,0.0824773861896486,1
819,559,17,0.0703724229965946,1
819,560,17,0.0708105711332909,1
819,577,17,0.0792700278257086,1
819,578,17,0.0956748765927933,1
819,579,17,0.102356604396013,1
819,580,17,0.0978456945004575,1
819,581,17,0.0876740469266595,1
820,566,17,0.0716957860812731,1
820,567,17,0.0755657957109392,1
820,568,17,0.0735726005414769,1
820,574,17,0.0697910547098054,1
820,575,17,0.0728754354648878,1
820,576,17,0.0817289265691807,1
820,577,17,0.104319178551003,1
820,578,17,0.130568381083857,1
820,579,17,0.132586114773429,1
820,580,17,0.115074140809786,1
820,581,17,0.0982084892212917,1
821,566,17,0.0713787317180379,1
821,567,17,0.0811359146503279,1
821,568,17,0.0844289492919893,1
821,569,17,0.0771841493450203,1
821,570,17,0.072036586502496,1
821,571,17,0.0704069229046134,1
821,572,17,0.072228828081432,1
821,573,17,0.0758521803997479,1
821,574,17,0.0772144923026069,1
821,575,17,0.0774911032919043,1
821,576,17,0.0849444598055426,1
821,577,17,0.109224171518389,1
821,578,17,0.136745359174976,1
821,579,17,0.137500853634637,1
821,580,17,0.11775186337041,1
821,581,17,0.100012021789427,1
822,568,17,0.0802230677993889,1
822,569,17,0.0789991726139327,1
822,570,17,0.0786939078626257,1
822,576,17,0.0804608481446821,1
822,577,17,0.0946670246556377,1
822,578,17,0.11234710486059,1
822,579,17,0.117027038585175,1
822,580,17,0.108787955877044,1
823,578,17,0.0906105292245572,1
823,579,17,0.0979780426263429,1
791,547,18,0.0747261125778921,1
792,546,18,0.0838712992574991,1
792,547,18,0.106746941874766,1
792,548,18,0.0893611014656267,1
793,546,18,0.089880372698551,1
793,547,18,0.123171984523131,1
793,548,18,0.10419827246594,1
794,546,18,0.0705463336753804,1
794,547,18,0.0931141186608869,1
794,548,18,0.0829220686631448,1
798,573,18,0.0706184338256868,1
799,542,18,0.0712659935539741,1
800,540,18,0.070705785396141,1
800,541,18,0.0760287604246307,1
800,542,18,0.0749671809458516,1
801,540,18,0.0699709922715757,1
801,541,18,0.0723749539259741,1
802,540,18,0.0701531264827383,1
802,576,18,0.073378238778792,1
803,540,18,0.0793791651531104,1
803,541,18,0.0785055243229704,1
804,539,18,0.0835108402144998,1
804,540,18,0.110739776182003,1
804,541,18,0.111987076805763,1
804,542,18,0.0779322613943819,1
804,577,18,0.069956832224702,1
805,539,18,0.0937583834150858,1
805,540,18,0.130453001379385,1
805,541,18,0.133949538903829,1
805,542,18,0.0883552376351996,1
806,539,18,0.0834700909779884,1
806,540,18,0.10705693359312,1
806,541,18,0.110348577950356,1
806,542,18,0.0768959225293478,1
817,580,18,0.0722829449026945,1
818,579,18,0.0779425008391757,1
818,580,18,0.0827162718110601,1
819,576,18,0.0711477568150074,1
819,577,18,0.086292347507487,1
819,578,18,0.109602766821719,1
819,579,18,0.1147347028673,1
819,580,18,0.105620693315935,1
819,581,18,0.09800231004099,1
820,566,18,0.0725740357042836,1
820,567,18,0.0732338368869374,1
820,574,18,0.073479048302485,1
820,575,18,0.0762473339905857,1
820,576,18,0.0851061429328061,1
820,577,18,0.11728419949536,1
820,578,18,0.15917459536606,1
820,579,18,0.158854746531129,1
820,580,18,0.129011874252444,1
820,581,18,0.110104402296705,1
821,568,18,0.0705652693492557,1
821,573,18,0.0747521247994932,1
821,574,18,0.0762247071115607,1
821,575,18,0.0774822263258475,1
821,576,18,0.0851337400786523,1
821,577,18,0.114754778574405,1
821,578,18,0.153313003296865,1
821,579,18,0.15290570557157,1
821,580,18,0.125067540017391,1
821,581,18,0.106274363344272,1
822,577,18,0.0916890493190609,1
822,578,18,0.110936480573945,1
822,579,18,0.116765331444919,1
822,580,18,0.108859117585363,1
791,547,19,0.0738091852421642,1
791,565,19,0.0717384608617139,1
792,546,19,0.077106168291594,1
792,547,19,0.0958150033600394,1
792,548,19,0.083670924514674,1
793,546,19,0.0801645368250753,1
793,547,19,0.105376295216776,1
793,548,19,0.0915685881250135,1
794,547,19,0.0792007290985196,1
794,548,19,0.0714921511214702,1
797,573,19,0.0788472284290698,1
798,573,19,0.070855227069038,1
798,574,19,0.0813970726282359,1
799,541,19,0.0716170612256792,1
799,542,19,0.0741619490608684,1
799,574,19,0.0753457901520259,1
800,540,19,0.0713689163099938,1
800,541,19,0.0759578350646638,1
800,542,19,0.0748173917018483,1
800,575,19,0.0798760806124726,1
801,541,19,0.0714912474365936,1
801,576,19,0.0869202764196862,1
802,540,19,0.0707512476968548,1
802,541,19,0.0707615983644027,1
802,576,19,0.073384675795682,1
802,577,19,0.0863779195138765,1
803,539,19,0.074690236288292,1
803,540,19,0.0923245622328012,1
803,541,19,0.0907784686317355,1
803,577,19,0.0773377757740381,1
804,539,19,0.0950015479426794,1
804,540,19,0.143501543660603,1
804,541,19,0.140528225776852,1
804,542,19,0.0850557729280702,1
804,577,19,0.0705073222944008,1
804,578,19,0.0789112232211756,1
805,539,19,0.107599227936131,1
805,540,19,0.170481862015717,1
805,541,19,0.167822150589825,1
805,542,19,0.0960576775065104,1
805,578,19,0.0728284299484616,1
806,539,19,0.0860981595303553,1
806,540,19,0.123010377861511,1
806,541,19,0.121739352034031,1
806,542,19,0.0757741993463216,1
807,540,19,0.072559062341021,1
807,541,19,0.0709853090313099,1
817,580,19,0.0719364095582165,1
818,578,19,0.0717820810355639,1
818,579,19,0.0807600999158489,1
818,580,19,0.085883221558173,1
819,576,19,0.0747253687757244,1
819,577,19,0.0917112174042255,1
819,578,19,0.120263092419658,1
819,579,19,0.124145141912449,1
819,580,19,0.112482004158396,1
819,581,19,0.108834711142273,1
820,574,19,0.0736008928295358,1
820,575,19,0.0774910198748388,1
820,576,19,0.0874132643255463,1
820,577,19,0.123477499525635,1
820,578,19,0.173990119637868,1
820,579,19,0.17266257874849,1
820,580,19,0.137330724529489,1
820,581,19,0.119924794510401,1
821,574,19,0.0743762892107478,1
821,575,19,0.0769932215848664,1
821,576,19,0.0849381270599844,1
821,577,19,0.112804425019514,1
821,578,19,0.154400358648893,1
821,579,19,0.154834169098181,1
821,580,19,0.126450344712682,1
821,581,19,0.110222680744205,1
822,577,19,0.0890068291883208,1
822,578,19,0.107163137420384,1
822,579,19,0.114058002777455,1
822,580,19,0.107310771723528,1
788,552,20,0.0742737001229901,1
788,553,20,0.0746330538898712,1
789,551,20,0.0728707502063738,1
789,552,20,0.0770735522189718,1
789,553,20,0.0745789926799857,1
790,550,20,0.0711982032853867,1
790,551,20,0.0715384058843065,1
791,547,20,0.0702060685136614,1
791,548,20,0.0699140670757736,1
791,549,20,0.073253822225554,1
791,550,20,0.0725256120977434,1
792,547,20,0.0789802299886353,1
792,548,20,0.0758290321640634,1
792,549,20,0.0712986443837069,1
793,547,20,0.0820505132596431,1
793,548,20,0.0755154535118918,1
797,542,20,0.0729327290860626,1
797,543,20,0.0704553951711084,1
798,541,20,0.07060890342595,1
798,542,20,0.0750494996866855,1
798,574,20,0.0792247115048594,1
799,541,20,0.0723660143971182,1
799,542,20,0.0745952103478091,1
799,574,20,0.0721260999652318,1
799,575,20,0.0846757317289377,1
800,541,20,0.0712161101487871,1
800,542,20,0.0699219013285113,1
800,575,20,0.0778456675289396,1
800,576,20,0.096654769910152,1
801,576,20,0.08496503601504,1
801,577,20,0.0976324665781185,1
802,540,20,0.0750854663447732,1
802,541,20,0.0752578685649573,1
802,576,20,0.0701830523549972,1
802,577,20,0.0826335776934314,1
803,539,20,0.0803333312571753,1
803,540,20,0.108174256525939,1
803,541,20,0.10622766369042,1
803,542,20,0.0739398511238948,1
803,577,20,0.0737920499866199,1
803,578,20,0.0791717138625594,1
804,539,20,0.100801168083607,1
804,540,20,0.162995069161645,1
804,541,20,0.156923154864561,1
804,542,20,0.088286620147379,1
804,578,20,0.0745331271967884,1
805,539,20,0.10964809009399,1
805,540,20,0.183314604348409,1
805,541,20,0.175632643366686,1
805,542,20,0.0938825010571723,1
806,539,20,0.0817050762398612,1
806,540,20,0.12055239670576,1
806,541,20,0.115720901124529,1
807,540,20,0.0723149840072802,1
815,552,20,0.0768786065368282,1
815,553,20,0.0893819070720543,1
815,554,20,0.0712804108034665,1
816,552,20,0.0748276520009085,1
816,553,20,0.0871023897765824,1
816,554,20,0.0736831907161033,1
817,581,20,0.0726432023544522,1
818,578,20,0.077846070711423,1
818,579,20,0.0838926123177421,1
818,580,20,0.087483466737612,1
819,575,20,0.0725788877969286,1
819,576,20,0.0796478028612276,1
819,577,20,0.0968208185305116,1
819,578,20,0.127055132340618,1
819,579,20,0.12737001786015,1
819,580,20,0.115733914186751,1
819,581,20,0.112803556091748,1
820,574,20,0.0746329913270721,1
820,575,20,0.0799553407275703,1
820,576,20,0.0915160075680411,1
820,577,20,0.124672045806869,1
820,578,20,0.173683103128184,1
820,579,20,0.170270232920467,1
820,580,20,0.137559454123172,1
820,581,20,0.120830801161966,1
821,574,20,0.0743020063138933,1
821,577,20,0.10795981905615,1
821,578,20,0.144410108435512,1
821,579,20,0.145102789844829,1
821,580,20,0.121907645963737,1
822,578,20,0.101538074440499,1
822,579,20,0.107815194718788,1
787,552,21,0.0787146787119426,1
787,553,21,0.0794616993880302,1
788,551,21,0.0863804150744203,1
788,552,21,0.096897165999738,1
788,553,21,0.0929316299271958,1
788,554,21,0.0759778134518582,1
789,550,21,0.0793644142353558,1
789,551,21,0.0933616240457366,1
789,552,21,0.0967025053259016,1
789,553,21,0.0884280607334073,1
789,554,21,0.0710343096058866,1
790,549,21,0.0764542152645222,1
790,550,21,0.0835518744593184,1
790,551,21,0.0836462539175434,1
790,552,21,0.076066124318566,1
791,548,21,0.0729949790712144,1
791,549,21,0.0811096521775302,1
791,550,21,0.0788038724092606,1
791,566,21,0.0906253218508445,1
792,548,21,0.071670371681975,1
792,549,21,0.0736554058818596,1
795,571,21,0.0821614092968431,1
796,541,21,0.0747231026121109,1
796,542,21,0.0812669976173862,1
796,543,21,0.0761354091429108,1
796,571,21,0.0698586503385732,1
796,572,21,0.0811401689206699,1
797,540,21,0.0711834245619436,1
797,541,21,0.0831436313406146,1
797,542,21,0.0970514945223906,1
797,543,21,0.0892195844139551,1
797,573,21,0.0786883258706573,1
798,540,21,0.0710299510642127,1
798,541,21,0.0820066567374407,1
798,542,21,0.0920615760308737,1
798,543,21,0.0813491564755111,1
798,574,21,0.0773885420098352,1
799,540,21,0.0706843333074555,1
799,541,21,0.0757317817684996,1
799,542,21,0.0780789781098049,1
799,575,21,0.0822265649764441,1
800,575,21,0.0750120037157298,1
800,576,21,0.0948625055972851,1
801,576,21,0.0816970612501482,1
801,577,21,0.0942980709747985,1
802,539,21,0.0717659815419166,1
802,540,21,0.0815849209083874,1
802,541,21,0.0828374976615416,1
802,577,21,0.0789079491013535,1
802,578,21,0.0784369763493711,1
803,539,21,0.0861174358239148,1
803,540,21,0.117340339180462,1
803,541,21,0.11689763091085,1
803,542,21,0.0783819975517647,1
803,577,21,0.0715691103158437,1
803,578,21,0.0736493025332317,1
804,539,21,0.100805999321986,1
804,540,21,0.156912074297689,1
804,541,21,0.152759739609737,1
804,542,21,0.0876053321189292,1
804,578,21,0.0698523871072363,1
804,579,21,0.0701398006065199,1
805,539,21,0.101440879656313,1
805,540,21,0.16092962091059,1
805,541,21,0.154724114183059,1
805,542,21,0.0865983352066953,1
806,539,21,0.0761799955644366,1
806,540,21,0.105179403136437,1
806,541,21,0.100741747327262,1
807,540,21,0.0702454274657473,1
814,552,21,0.0698693346743832,1
814,553,21,0.0902251771389192,1
814,582,21,0.0706879758526503,1
815,552,21,0.090716726100399,1
815,553,21,0.126827083986304,1
815,554,21,0.0957859950755013,1
815,582,21,0.0719790356787024,1
816,552,21,0.0772960463870067,1
816,553,21,0.104515730011658,1
816,554,21,0.0821920581170032,1
817,580,21,0.0703845671310513,1
817,581,21,0.0746770981004711,1
818,577,21,0.0766970214880136,1
818,578,21,0.0891068671041577,1
818,579,21,0.0924076873386019,1
818,580,21,0.0918774537129826,1
819,574,21,0.0708264342785859,1
819,575,21,0.0772057960735254,1
819,576,21,0.0886895871366881,1
819,577,21,0.106772356274064,1
819,578,21,0.131884299195437,1
819,579,21,0.130697065810281,1
819,580,21,0.117979049748381,1
819,581,21,0.111315089780119,1
820,573,21,0.071365544870262,1
820,574,21,0.0779196028546877,1
820,575,21,0.0847294106106063,1
820,576,21,0.0972204071286667,1
820,577,21,0.122637489675748,1
820,578,21,0.158758274694844,1
820,579,21,0.156689044870151,1
820,580,21,0.131391929966146,1
820,581,21,0.114778211818396,1
821,577,21,0.104621037105468,1
821,578,21,0.129728607582322,1
821,579,21,0.131200932691771,1
821,580,21,0.11479005009028,1
822,578,21,0.0950855350248238,1
787,551,22,0.0828496417959983,1
787,552,22,0.0962956802973118,1
787,553,22,0.0943254456751366,1
787,554,22,0.0774980477626097,1
788,550,22,0.0817564333465392,1
788,551,22,0.106640564261949,1
788,552,22,0.119002048834352,1
788,553,22,0.110575277728778,1
788,554,22,0.0857233875091953,1
789,549,22,0.0796665230410169,1
789,550,22,0.0967055917573262,1
789,551,22,0.111309945727745,1
789,552,22,0.112684047242532,1
789,553,22,0.0998141773642565,1
789,554,22,0.0760044721557172,1
790,548,22,0.070693682970217,1
790,549,22,0.0866404747276322,1
790,550,22,0.0943024712250052,1
790,551,22,0.0901470848627389,1
790,552,22,0.0785734119114676,1
790,565,22,0.0972412683464713,1
790,566,22,0.177969906125771,1
791,548,22,0.0727807570955112,1
791,549,22,0.082403151952749,1
791,550,22,0.0785278800965325,1
791,566,22,0.0767269334574283,1
791,567,22,0.0886467524735384,1
792,568,22,0.0712173822590365,1
793,569,22,0.0750859181872115,1
794,570,22,0.0766532136257661,1
794,571,22,0.0945657841437728,1
795,542,22,0.0717130812195264,1
795,571,22,0.0814664895296012,1
795,572,22,0.0985683782476766,1
796,541,22,0.0783950870796308,1
796,542,22,0.0890783940791234,1
796,543,22,0.0793511856790472,1
796,572,22,0.0812142919348155,1
796,573,22,0.0978631425699975,1
797,540,22,0.0746890267408419,1
797,541,22,0.0927764950395764,1
797,542,22,0.112257932017538,1
797,543,22,0.0959894701525954,1
797,573,22,0.0767740432451863,1
797,574,22,0.0872026570893495,1
798,540,22,0.073305999600043,1
798,541,22,0.0877277119054838,1
798,542,22,0.0995380182173973,1
798,543,22,0.0824675568787603,1
798,574,22,0.0742805750794742,1
798,575,22,0.0848030748308914,1
799,541,22,0.0748047887735311,1
799,542,22,0.0754101047095496,1
799,575,22,0.0785704297513749,1
799,576,22,0.0910328072645364,1
800,575,22,0.0709339380217876,1
800,576,22,0.0905977733649532,1
800,577,22,0.101840913145484,1
801,576,22,0.0770489302817962,1
801,577,22,0.0885532141373908,1
802,539,22,0.0730046276451273,1
802,540,22,0.082579252329505,1
802,541,22,0.0824117369590765,1
802,577,22,0.0757864755577988,1
802,578,22,0.0750338659383208,1
803,539,22,0.0883109431734032,1
803,540,22,0.112995867184905,1
803,541,22,0.111135750040652,1
803,542,22,0.0729906830923396,1
803,577,22,0.0704664618351354,1
803,578,22,0.0711544023745613,1
804,539,22,0.0965919499083858,1
804,540,22,0.133094374953704,1
804,541,22,0.129065900705219,1
804,542,22,0.0774856603283785,1
805,539,22,0.0899784850704585,1
805,540,22,0.12365421857896,1
805,541,22,0.118418532558126,1
805,542,22,0.0724416945298203,1
806,539,22,0.0716534519205167,1
806,540,22,0.0873061637648279,1
806,541,22,0.082601663714444,1
814,552,22,0.0719183706177957,1
814,553,22,0.10065933821794,1
814,554,22,0.0715624578048677,1
814,582,22,0.0719411851852181,1
815,552,22,0.090862351442548,1
815,553,22,0.1378745898939,1
815,554,22,0.101388813504578,1
815,582,22,0.0732244594184874,1
816,553,22,0.0996939455671393,1
816,554,22,0.075502106781407,1
817,580,22,0.0728662665391016,1
818,576,22,0.0722454697860052,1
818,577,22,0.0847844867281224,1
818,578,22,0.0966522395924976,1
818,579,22,0.100475062968762,1
818,580,22,0.0965683428788408,1
819,574,22,0.0752366806303127,1
819,575,22,0.0841571486868041,1
819,576,22,0.095340700876858,1
819,577,22,0.112275998763648,1
819,578,22,0.129103841567191,1
819,579,22,0.130293772104132,1
819,580,22,0.117244061983996,1
820,574,22,0.0835562051953038,1
820,575,22,0.0933450796610731,1
820,576,22,0.101343559746528,1
820,577,22,0.116411531864318,1
820,578,22,0.136171950266523,1
820,579,22,0.137458005068643,1
820,580,22,0.120746647245691,1
821,577,22,0.0997036428010071,1
821,578,22,0.112853654991021,1
821,579,22,0.114610293265484,1
786,552,23,0.0740794148259486,1
786,553,23,0.0736416976774242,1
787,550,23,0.0737835205916695,1
787,551,23,0.0965509504206778,1
787,552,23,0.111232159314138,1
787,553,23,0.107468874868396,1
787,554,23,0.0869422637678754,1
788,549,23,0.0748423542587081,1
788,550,23,0.0964094333690062,1
788,551,23,0.121199198729035,1
788,552,23,0.132638014091033,1
788,553,23,0.122271956094595,1
788,554,23,0.0933205202866967,1
789,549,23,0.0912890019270454,1
789,550,23,0.111024589849411,1
789,551,23,0.120760327644438,1
789,552,23,0.118207779342064,1
789,553,23,0.103985121009244,1
789,554,23,0.0780210032492615,1
789,565,23,0.142732688567613,1
790,548,23,0.0728207972869656,1
790,549,23,0.0917150754435063,1
790,550,23,0.100339628411452,1
790,551,23,0.0913188999936158,1
790,552,23,0.0758753911982317,1
790,565,23,0.0874195831682602,1
790,566,23,0.14822399228292,1
791,548,23,0.0714058770214458,1
791,549,23,0.0779644325759879,1
791,550,23,0.0744408262137795,1
791,567,23,0.080480520669303,1
791,568,23,0.0833188627896046,1
792,568,23,0.0703335923525904,1
792,569,23,0.084344698055804,1
793,569,23,0.0736206557226443,1
793,570,23,0.0879382357246151,1
794,542,23,0.071487730016997,1
794,570,23,0.071884857811719,1
794,571,23,0.0886735571572621,1
795,541,23,0.0749429760940037,1
795,542,23,0.0738418152176307,1
795,571,23,0.0753532768336573,1
795,572,23,0.0947670000086754,1
796,541,23,0.0822896282779848,1
796,542,23,0.0906673918575601,1
796,543,23,0.078382609276912,1
796,572,23,0.0779529279723669,1
796,573,23,0.0953448717301345,1
797,540,23,0.077740082378245,1
797,541,23,0.0970285200722592,1
797,542,23,0.111882951453715,1
797,543,23,0.0917519110293599,1
797,573,23,0.0735105382447225,1
797,574,23,0.0849001931494347,1
798,540,23,0.0736530632526027,1
798,541,23,0.0879865967683561,1
798,542,23,0.0957918481729327,1
798,543,23,0.0773909680561577,1
798,574,23,0.0718191807754584,1
798,575,23,0.0839022817459214,1
799,541,23,0.0721372222406358,1
799,542,23,0.0711282372216734,1
799,575,23,0.0769148860089116,1
799,576,23,0.0908005185427239,1
800,576,23,0.0861976135267334,1
800,577,23,0.0951068967450216,1
801,576,23,0.0739223196372892,1
801,577,23,0.081861594460484,1
801,578,23,0.0771641640064038,1
802,539,23,0.0709557932929565,1
802,540,23,0.0764292109991296,1
802,541,23,0.074965234547656,1
802,577,23,0.0729249643475462,1
802,578,23,0.0726546513466962,1
803,539,23,0.0825128662481873,1
803,540,23,0.0948926330607857,1
803,541,23,0.091124218465513,1
803,578,23,0.0710413792021903,1
804,539,23,0.0873098480185555,1
804,540,23,0.102685378856955,1
804,541,23,0.0972561652440906,1
805,539,23,0.0796353737184636,1
805,540,23,0.0914355100998046,1
805,541,23,0.0855741682818064,1
806,540,23,0.0740233655093346,1
814,552,23,0.0796315921448263,1
814,553,23,0.102191341286353,1
814,554,23,0.0742785313613687,1
814,582,23,0.0754682603070682,1
815,552,23,0.0898445589717501,1
815,553,23,0.124743436912118,1
815,554,23,0.0942365022290152,1
817,579,23,0.0719656472396848,1
817,580,23,0.076609697723248,1
818,576,23,0.0732465301837422,1
818,577,23,0.0857739452023286,1
818,578,23,0.0977859539786937,1
818,579,23,0.103911317760517,1
819,573,23,0.0724190954564838,1
819,574,23,0.0807322942273389,1
819,575,23,0.0885117697586666,1
819,576,23,0.0953252478654685,1
819,577,23,0.108150579982173,1
819,578,23,0.119779231731051,1
819,579,23,0.123248505777911,1
819,580,23,0.113704953950443,1
820,573,23,0.0745789857285635,1
820,574,23,0.0884013116610607,1
820,575,23,0.0980848720815984,1
820,577,23,0.107001356973211,1
820,578,23,0.115019898862925,1
820,579,23,0.115881353850076,1
786,551,24,0.0707817227314618,1
786,552,24,0.0788166838802416,1
786,553,24,0.0775600474965649,1
787,550,24,0.0817869431382568,1
787,551,24,0.101829936849945,1
787,552,24,0.114343511587075,1
787,553,24,0.108249992270019,1
787,554,24,0.0853033061186084,1
788,549,24,0.0818064349259023,1
788,550,24,0.105379750073574,1
788,551,24,0.123265050162574,1
788,552,24,0.130022958600889,1
788,553,24,0.117381074514129,1
788,554,24,0.0869691796743531,1
789,549,24,0.0942055544977036,1
789,550,24,0.113265922983137,1
789,551,24,0.115122001351134,1
789,552,24,0.108433996413734,1
789,553,24,0.0935712719856799,1
789,565,24,0.114831473614737,1
789,566,24,0.18930299035721,1
790,549,24,0.0869107043114166,1
790,550,24,0.0943943412198422,1
790,551,24,0.0829357004019368,1
790,565,24,0.0746749918195664,1
790,566,24,0.110750981874473,1
790,567,24,0.116735773998033,1
791,567,24,0.0708480392985581,1
791,568,24,0.0777804770922279,1
792,569,24,0.0799718016951682,1
792,570,24,0.0946603095818625,1
793,570,24,0.0814245168427953,1
793,571,24,0.0965946262059049,1
794,571,24,0.0797588170726038,1
794,572,24,0.10015478314566,1
795,541,24,0.073716543639471,1
795,542,24,0.0709059794019908,1
795,572,24,0.0858132137859269,1
795,573,24,0.108149829228583,1
796,540,24,0.0734727503140375,1
796,541,24,0.0816836519568643,1
796,542,24,0.0830011758469557,1
796,543,24,0.0703201483021958,1
796,572,24,0.0702143476574152,1
796,573,24,0.0883107276793172,1
796,574,24,0.0999723917318784,1
797,540,24,0.0778169651069752,1
797,541,24,0.0930321891996922,1
797,542,24,0.0974285049014755,1
797,543,24,0.0783072906181605,1
797,574,24,0.0810891524336762,1
797,575,24,0.0884309038650574,1
798,540,24,0.0719252316714355,1
798,541,24,0.0823612487801644,1
798,542,24,0.0839207933830469,1
798,575,24,0.0813966763971747,1
798,576,24,0.0921676408296951,1
799,575,24,0.073229832867792,1
799,576,24,0.0870425866920195,1
799,577,24,0.091985103436049,1
800,576,24,0.0788816657742894,1
800,577,24,0.0860877810571189,1
801,577,24,0.0746025023896209,1
801,578,24,0.072660198581554,1
803,539,24,0.074692690140303,1
803,540,24,0.0770276797843524,1
803,541,24,0.069928811042106,1
804,539,24,0.0784924556493707,1
804,540,24,0.0812508911723167,1
804,541,24,0.0731963826245144,1
805,539,24,0.074065692718669,1
805,540,24,0.0761959212725307,1
809,581,24,0.0697752958358423,1
814,552,24,0.0845336516120737,1
814,553,24,0.0955964715026172,1
814,554,24,0.0756929024645405,1
815,553,24,0.0995149464473562,1
815,554,24,0.0812449407549756,1
816,581,24,0.0698154472500508,1
817,579,24,0.0739977217131062,1
817,580,24,0.0776292210981556,1
818,576,24,0.0727553426962131,1
818,577,24,0.0829016592877784,1
818,578,24,0.095035387465596,1
818,579,24,0.101426615338107,1
819,573,24,0.0740186524451321,1
819,574,24,0.0853434992413496,1
819,575,24,0.0897348933362666,1
819,576,24,0.0913585717596975,1
819,577,24,0.0987281219281666,1
819,578,24,0.108042339388226,1
819,579,24,0.111279408130339,1
786,551,25,0.0770718282662842,1
786,552,25,0.0848805345276581,1
786,553,25,0.0852413898017187,1
786,554,25,0.0736649084759079,1
787,550,25,0.0868328275293222,1
787,551,25,0.101969500551999,1
787,552,25,0.111170388977113,1
787,553,25,0.104239445739201,1
787,554,25,0.0814686166647722,1
788,549,25,0.0827364309352299,1
788,550,25,0.104937938537416,1
788,551,25,0.115270963375904,1
788,552,25,0.116115658484305,1
788,553,25,0.101210641604028,1
788,554,25,0.0732920898043658,1
788,565,25,0.0931367107828013,1
789,549,25,0.0885914191534035,1
789,550,25,0.104025105589322,1
789,551,25,0.100961697274798,1
789,552,25,0.0909184911276497,1
789,553,25,0.0749562046503123,1
789,565,25,0.0850444560128467,1
789,566,25,0.118754022092843,1
790,549,25,0.0763387173858738,1
790,550,25,0.0813452636791197,1
790,551,25,0.071353331221584,1
790,566,25,0.0792923835992706,1
790,567,25,0.0839481611319629,1
790,568,25,0.0822781375772081,1
791,568,25,0.0698869078695215,1
791,569,25,0.080678323385941,1
792,569,25,0.0735923912402738,1
792,570,25,0.0895200943925269,1
793,542,25,0.0733182410544095,1
793,570,25,0.0761028486816656,1
793,571,25,0.0904790778321262,1
794,541,25,0.0740403825907027,1
794,571,25,0.0729844615695355,1
794,572,25,0.0921633518022424,1
795,540,25,0.0724216327255603,1
795,541,25,0.0716925675728281,1
795,572,25,0.0768167875398483,1
795,573,25,0.0959129697520823,1
796,540,25,0.0727413981434253,1
796,541,25,0.0766524489693321,1
796,542,25,0.0708623105681859,1
796,573,25,0.0795301778474082,1
796,574,25,0.0915120452574284,1
797,539,25,0.0699781244306785,1
797,540,25,0.073963193999399,1
797,541,25,0.0804964533288192,1
797,542,25,0.0762957993056586,1
797,574,25,0.0778515275777931,1
797,575,25,0.0868670285261895,1
798,541,25,0.0717348947821625,1
798,575,25,0.0787236251922207,1
798,576,25,0.0888233324984212,1
799,575,25,0.0715698124094786,1
799,576,25,0.0822656736773335,1
799,577,25,0.0871585433645283,1
800,576,25,0.0744029896231395,1
800,577,25,0.0794024107087047,1
800,578,25,0.0775364404670199,1
801,577,25,0.0716685921179104,1
801,578,25,0.0714419201451768,1
804,539,25,0.0699575134640705,1
808,581,25,0.071316203676001,1
809,581,25,0.0704264355465253,1
810,542,25,0.0704492709682141,1
811,543,25,0.070765651043503,1
814,553,25,0.0792372310161111,1
817,579,25,0.0735068609424171,1
818,574,25,0.0711233364690735,1
818,576,25,0.0710011652251827,1
818,577,25,0.0768020713792044,1
785,552,26,0.0729913226231753,1
785,553,26,0.0747780466526066,1
786,550,26,0.0764713644229107,1
786,551,26,0.0811919014041428,1
786,552,26,0.0865955268321557,1
786,553,26,0.0882782992950924,1
786,554,26,0.0747737645765761,1
787,549,26,0.0715807539479073,1
787,550,26,0.08533686758464,1
787,551,26,0.0935749492879853,1
787,552,26,0.0981761581569767,1
787,553,26,0.0927439971411303,1
787,554,26,0.0718122293533309,1
788,549,26,0.0760900650163731,1
788,550,26,0.0910587847290269,1
788,551,26,0.0967179096773361,1
788,552,26,0.0934260011660594,1
788,553,26,0.0793518182584608,1
788,565,26,0.0703033745206021,1
788,566,26,0.0866763579686543,1
789,549,26,0.0744590597940199,1
789,550,26,0.0840692201483133,1
789,551,26,0.0819996288496698,1
789,552,26,0.0715739832627551,1
789,566,26,0.0784156424348618,1
789,567,26,0.0848760439089637,1
790,543,26,0.0729835439818146,1
790,568,26,0.0727364417794484,1
790,569,26,0.0791726523045466,1
791,569,26,0.0728717373083159,1
791,570,26,0.0884169871179582,1
792,542,26,0.0759037669033561,1
792,570,26,0.0806980306676724,1
792,571,26,0.0970196361547803,1
793,541,26,0.0801865589303752,1
793,542,26,0.0697419985238516,1
793,571,26,0.0830519003742201,1
793,572,26,0.101238023255788,1
794,572,26,0.0860673716817525,1
794,573,26,0.102071992319846,1
795,572,26,0.0700661155319684,1
795,573,26,0.0852561893794282,1
795,574,26,0.09299019565862,1
796,540,26,0.0735081539069328,1
796,541,26,0.0722264785007529,1
796,573,26,0.071745662535038,1
796,574,26,0.0835253339296356,1
796,575,26,0.09033186061431,1
797,540,26,0.070922287438302,1
797,541,26,0.0699943073413914,1
797,574,26,0.0728115379926918,1
797,575,26,0.0822194745258741,1
797,576,26,0.0878084387706504,1
798,575,26,0.0743181197103849,1
798,576,26,0.0829812808768268,1
799,576,26,0.0770215555814581,1
799,577,26,0.081442708714503,1
800,576,26,0.071092993511487,1
800,577,26,0.0745745090127134,1
800,578,26,0.0752041410233339,1
801,578,26,0.0701693858590946,1
806,581,26,0.0699002615514284,1
807,581,26,0.072277355959304,1
808,581,26,0.0709628628892602,1
818,574,26,0.0738393474627754,1
785,550,27,0.0740218014393559,1
785,551,27,0.0787717707418758,1
785,552,27,0.0825502996563439,1
785,553,27,0.0806830016930328,1
786,549,27,0.0725641229763298,1
786,550,27,0.0807848747843113,1
786,551,27,0.0820188217261638,1
786,552,27,0.0837714351272155,1
786,553,27,0.0831743357721517,1
787,549,27,0.0702110387804825,1
787,550,27,0.0779275761358679,1
787,551,27,0.0803151115797791,1
787,552,27,0.0801821100202136,1
787,553,27,0.0749177424316809,1
788,550,27,0.0736947092225685,1
788,551,27,0.0760126748338276,1
788,552,27,0.0702308920420787,1
789,543,27,0.104559044322935,1
789,567,27,0.0706904575103498,1
790,542,27,0.093744167756835,1
790,543,27,0.0728960116743852,1
791,542,27,0.0766960760946043,1
791,570,27,0.0811987068464056,1
792,541,27,0.0831317444087765,1
792,542,27,0.0711173165375111,1
792,570,27,0.0711449831975785,1
792,571,27,0.0887358766566351,1
793,541,27,0.0726601707758655,1
793,571,27,0.0765613783880397,1
793,572,27,0.0988620132697643,1
794,572,27,0.080425785171471,1
794,573,27,0.0958563712731201,1
795,540,27,0.0718594851209536,1
795,573,27,0.0789457648377271,1
795,574,27,0.0861795884891568,1
796,540,27,0.0724803166311607,1
796,574,27,0.0776535163184913,1
796,575,27,0.0851979364619997,1
797,574,27,0.0701839282341853,1
797,575,27,0.0785020833690173,1
797,576,27,0.0854915019698662,1
798,575,27,0.072508685384863,1
798,576,27,0.0789223593994238,1
798,577,27,0.0829938490480333,1
799,576,27,0.074872606847807,1
799,577,27,0.0773275988920434,1
800,576,27,0.0701030067291991,1
800,577,27,0.072678300084774,1
800,578,27,0.0730088888668915,1
805,580,27,0.0700995310181353,1
805,581,27,0.0703298246817973,1
806,580,27,0.0707081627825086,1
806,581,27,0.074915024425629,1
807,581,27,0.0767616627623773,1
808,581,27,0.0736468208755322,1
809,581,27,0.07030532787022,1
784,551,28,0.0735352714046522,1
784,552,28,0.0772094455701423,1
785,550,28,0.0786487653273297,1
785,551,28,0.0834896800855436,1
785,552,28,0.0863228642506267,1
785,553,28,0.0793732077843471,1
786,549,28,0.0730355336679062,1
786,550,28,0.0798870151994791,1
786,551,28,0.0781987441616396,1
786,552,28,0.0781205198084388,1
786,553,28,0.0740024208744644,1
788,543,28,0.142016553060038,1
788,544,28,0.0720097053531289,1
789,542,28,0.149106948018711,1
789,543,28,0.102479018939678,1
790,542,28,0.084410833885925,1
790,543,28,0.0697829006916498,1
790,569,28,0.0721159647917699,1
790,570,28,0.0842366521016763,1
791,541,28,0.0788966738946627,1
791,542,28,0.0707190765152488,1
791,570,28,0.0748421040075115,1
791,571,28,0.0917752956133968,1
792,541,28,0.0737458021752056,1
792,571,28,0.0801110664860706,1
792,572,28,0.103524644904674,1
793,571,28,0.069830615253133,1
793,572,28,0.0911680054734942,1
793,573,28,0.110812258660527,1
794,572,28,0.0727125288873298,1
794,573,28,0.0864063299761116,1
794,574,28,0.0869106973599945,1
795,540,28,0.0704589960077705,1
795,573,28,0.071362819912788,1
795,574,28,0.0786181790699687,1
795,575,28,0.0845886304096801,1
796,574,28,0.0713873653843202,1
796,575,28,0.0803486799972328,1
796,576,28,0.0865687777598091,1
797,575,28,0.0741023058590145,1
797,576,28,0.0805459752600555,1
798,576,28,0.0735215979573274,1
798,577,28,0.076944457358642,1
799,576,28,0.069800411323989,1
799,577,28,0.0725768162731346,1
799,578,28,0.0748294732735059,1
800,578,28,0.070517471370707,1
800,579,28,0.0718005926726895,1
805,581,28,0.071643490532608,1
806,581,28,0.0769664377554092,1
807,581,28,0.0780354622072867,1
808,581,28,0.0734488860818737,1
809,581,28,0.0700292590918484,1
784,551,29,0.0718138420832645,1
784,552,29,0.0746047546503902,1
785,550,29,0.0739903740599175,1
785,551,29,0.0779378711920388,1
785,552,29,0.078586299848092,1
785,553,29,0.0701967466565884,1
787,543,29,0.102712503306096,1
788,542,29,0.176792585468569,1
788,543,29,0.125357108457534,1
788,544,29,0.0723290814913548,1
789,542,29,0.119680187868578,1
789,543,29,0.0912215036181874,1
789,568,29,0.0709695849144575,1
789,569,29,0.0825178295635864,1
790,541,29,0.0717526070057433,1
790,542,29,0.0744968755303935,1
790,569,29,0.0701059819378696,1
790,570,29,0.0838065954203364,1
791,570,29,0.0735860237376051,1
791,571,29,0.0882498054157918,1
792,571,29,0.0773778159654925,1
792,572,29,0.0977402761838939,1
793,572,29,0.0841716980133169,1
793,573,29,0.10066979315682,1
794,573,29,0.078075057507725,1
794,574,29,0.08230310708549,1
795,574,29,0.0742541457725455,1
795,575,29,0.0827552970948839,1
796,575,29,0.0767371242422672,1
796,576,29,0.0839089759654302,1
797,575,29,0.0709906685777702,1
797,576,29,0.0771177563122806,1
797,577,29,0.0803902773072437,1
798,576,29,0.070393166040223,1
798,577,29,0.0738369492221414,1
799,577,29,0.0700725734031249,1
799,578,29,0.0732228814456645,1
800,578,29,0.0698022256451643,1
800,579,29,0.0718018925886273,1
806,581,29,0.0776083459775068,1
807,581,29,0.0759360423562941,1
808,581,29,0.0707010236719836,1
787,543,30,0.0846713662358416,1
788,542,30,0.122087103877381,1
788,543,30,0.0954192936554315,1
788,568,30,0.075270443687586,1
789,541,30,0.0747456877826031,1
789,542,30,0.0891462260562436,1
789,543,30,0.0752809611892649,1
789,569,30,0.0780144550096174,1
790,570,30,0.0796043217158201,1
791,570,30,0.070362906499702,1
791,571,30,0.0822982480414229,1
792,571,30,0.0734599318916343,1
792,572,30,0.0874384076193815,1
793,572,30,0.0743893578843475,1
793,573,30,0.0863074042878151,1
794,574,30,0.0775859276411456,1
795,575,30,0.079596028669222,1
796,575,30,0.0722928020192713,1
796,576,30,0.0795364549815893,1
797,576,30,0.0721906022111528,1
797,577,30,0.0771865197799658,1
798,577,30,0.0701164785852822,1
798,578,30,0.0755259918678371,1
799,578,30,0.0702598169095512,1
813,567,30,0.0719390928071578,1
788,542,31,0.0785162017073582,1
791,571,31,0.0764309488546615,1
791,572,31,0.0856910286391918,1
792,572,31,0.0781395249965354,1
792,573,31,0.0871022368452956,1
793,573,31,0.0761813232860629,1
793,574,31,0.0879532438449884,1
794,574,31,0.0758196964041461,1
794,575,31,0.0885622648890008,1
795,575,31,0.0788964792548431,1
795,576,31,0.086261928084257,1
796,575,31,0.0709421198456317,1
796,576,31,0.0778519377116986,1
796,577,31,0.0823678595826077,1
797,576,31,0.0705682237036599,1
797,577,31,0.0766796776898055,1
798,578,31,0.0752660086802686,1
799,578,31,0.069986327108789,1
799,579,31,0.0749496772649346,1
800,579,31,0.0708095075657054,1
803,580,31,0.0721929587432541,1
812,567,31,0.0771058693804425,1
812,568,31,0.0713638070147301,1
813,566,31,0.0698136329288755,1
813,567,31,0.0762943256041676,1
813,568,31,0.0724320529073294,1
789,569,32,0.071311351583356,1
790,571,32,0.081307281108615,1
791,571,32,0.0713090645654761,1
791,572,32,0.0797448099570169,1
792,572,32,0.071202311575864,1
792,573,32,0.0777826320330874,1
793,574,32,0.0851594325348355,1
794,574,32,0.0736283092384066,1
794,575,32,0.0914407167149781,1
795,575,32,0.0786060488383562,1
795,576,32,0.0867183376068823,1
796,575,32,0.06997067945758,1
796,576,32,0.0763349358122364,1
796,577,32,0.0809941612503039,1
797,577,32,0.0750354369597216,1
801,579,32,0.0699997364020729,1
812,566,32,0.0698355368599992,1
812,567,32,0.0777688960229635,1
812,568,32,0.0746132701424964,1
813,567,32,0.0740361630774713,1
813,568,32,0.073272250445614,1
788,569,33,0.0826736665448407,1
789,570,33,0.0829875580110079,1
793,574,33,0.0806118191304472,1
794,574,33,0.0703876327082096,1
794,575,33,0.0868543143751183,1
795,575,33,0.0770793010450712,1
795,576,33,0.0855641165254101,1
796,575,33,0.0697781181132261,1
796,576,33,0.0763475874005085,1
796,577,33,0.0808306429475987,1
797,576,33,0.0708015968473243,1
797,577,33,0.0754206361140727,1
799,578,33,0.0705017959138095,1
801,579,33,0.0728138806219487,1
802,539,33,0.069812736195421,1
802,579,33,0.0711768346137668,1
812,567,33,0.0719778400340964,1
812,568,33,0.0704719812643046,1
788,569,34,0.0739749905627493,1
789,570,34,0.0772261845946253,1
791,572,34,0.0736520761506606,1
794,575,34,0.0786609372674749,1
795,575,34,0.0726538380303073,1
795,576,34,0.0808229755289921,1
796,576,34,0.0745577838910747,1
796,577,34,0.0779820196739705,1
797,576,34,0.0707771695499683,1
797,577,34,0.0737217015946896,1
799,578,34,0.0701215322691689,1
800,579,34,0.0744176918809391,1
801,539,34,0.0702810882612614,1
801,579,34,0.0722470060502954,1
802,579,34,0.0702270200999537,1
784,561,35,0.0780440055050814,1
784,562,35,0.0734829410988764,1
785,560,35,0.0769140518382563,1
785,561,35,0.102806966181387,1
785,562,35,0.0915258438303515,1
786,561,35,0.0859829675142804,1
786,562,35,0.078543666776184,1
790,571,35,0.0709661092033937,1
790,572,35,0.0773626757680988,1
791,572,35,0.0708570691959017,1
791,573,35,0.0790660452947992,1
794,575,35,0.0738719148754428,1
795,575,35,0.0700772447587946,1
795,576,35,0.077281830728756,1
796,576,35,0.0736020537170311,1
796,577,35,0.0757638695330402,1
797,576,35,0.0712879322422085,1
797,577,35,0.0731941373151672,1
799,578,35,0.071975087270934,1
801,579,35,0.0723197943913924,1
784,561,36,0.089838504283077,1
784,562,36,0.0796061916483724,1
785,560,36,0.0861251310482099,1
785,561,36,0.127411976644111,1
785,562,36,0.107000300357047,1
786,561,36,0.100374121368049,1
786,562,36,0.0857133774613317,1
796,576,36,0.071564598842883,1
797,576,36,0.0702868926987378,1
797,577,36,0.0724931002964531,1
798,577,36,0.0699495401828902,1
799,578,36,0.0730074012625562,1
806,557,36,0.0716453604651602,1
807,556,36,0.0699632553387478,1
807,557,36,0.0713380589471699,1
784,561,37,0.0858661697196942,1
784,562,37,0.0769887796261269,1
785,560,37,0.0798536692275335,1
785,561,37,0.118351048152112,1
785,562,37,0.10112971314762,1
786,561,37,0.090462769795815,1
786,562,37,0.0777213691498778,1
796,576,37,0.0699489632148537,1
797,577,37,0.0732431517925883,1
798,577,37,0.0713314342418823,1
799,578,37,0.0742666444295307,1
800,578,37,0.0702494384363149,1
806,556,37,0.0739774027062276,1
806,557,37,0.0770285209064299,1
807,555,37,0.0705942706823716,1
807,556,37,0.0728480468617054,1
807,557,37,0.0746637235642978,1
784,561,38,0.0699713815512149,1
785,561,38,0.0866520696997408,1
785,562,38,0.0807831369287794,1
791,573,38,0.0745657988807877,1
792,574,38,0.0742364265975425,1
795,576,38,0.0706653211679368,1
797,577,38,0.0725178265049607,1
798,577,38,0.0714463412496499,1
798,578,38,0.0743708392957998,1
799,577,38,0.0710857223239416,1
799,578,38,0.072854129356067,1
800,577,38,0.0709997679893351,1
806,555,38,0.070720014957236,1
806,556,38,0.0760116390719306,1
806,557,38,0.0780677932716017,1
806,558,38,0.0706616855741641,1
807,555,38,0.0710239102783839,1
807,556,38,0.0732453345391363,1
807,557,38,0.0748700626273083,1
807,558,38,0.0707810206378269,1
790,573,39,0.0857839761044586,1
791,573,39,0.071235184851105,1
791,574,39,0.0858030716610429,1
792,574,39,0.071398584979634,1
792,575,39,0.0795836481864129,1
793,575,39,0.0731582957826779,1
795,576,39,0.0699668283697213,1
796,577,39,0.0709060211105236,1
797,577,39,0.0712630531024141,1
798,577,39,0.0701961001743305,1
798,578,39,0.07238748734007,1
799,577,39,0.0715523573885164,1
799,578,39,0.0708271016151101,1
800,576,39,0.0726346173481248,1
800,577,39,0.0744336871032545,1
801,577,39,0.0704392539689284,1
806,555,39,0.0707582199732487,1
806,556,39,0.0740486269773459,1
806,557,39,0.0758708449681603,1
806,558,39,0.0717148399293246,1
807,555,39,0.0704018553178824,1
807,556,39,0.0722741235480148,1
807,557,39,0.0729346407271477,1
807,558,39,0.0699490118748086,1
786,543,40,0.0712787146564674,1
790,573,40,0.081108004690486,1
791,574,40,0.0799968337662494,1
792,575,40,0.0762428711775798,1
793,575,40,0.0713923634568299,1
793,576,40,0.0785525298393966,1
794,576,40,0.0727742714186662,1
800,576,40,0.0717564233364913,1
800,577,40,0.0717302025722264,1
806,555,40,0.0718256525494591,1
806,556,40,0.0733277505998799,1
806,557,40,0.0737002495060041,1
806,558,40,0.0709509968116885,1
807,555,40,0.0709241156623215,1
807,556,40,0.0729239007799607,1
807,557,40,0.0721090967867079,1
785,543,41,0.0749726586664881,1
785,544,41,0.0719688587967077,1
786,543,41,0.0793904195055348,1
786,544,41,0.075521570763364,1
790,573,41,0.0761095359497522,1
791,574,41,0.0751802837425923,1
792,575,41,0.0735067914281958,1
793,575,41,0.0697462945027264,1
806,555,41,0.0708197470104992,1
806,556,41,0.0711384071522459,1
807,555,41,0.0701105976821623,1
807,556,41,0.0722452820976077,1
807,557,41,0.0705923868469751,1
785,543,42,0.0770332617763208,1
785,544,42,0.0773526726716573,1
786,543,42,0.0795478692167226,1
786,544,42,0.0781341376443866,1
806,555,42,0.0697671279148425,1
807,556,42,0.0703724855593937,1
784,544,43,0.0699799526546981,1
785,543,43,0.0734075251202151,1
785,544,43,0.0796927368538597,1
785,545,43,0.0751484184235598,1
786,543,43,0.0718767037935635,1
786,544,43,0.0749684808617895,1
784,545,44,0.0701807097257403,1
785,544,44,0.0759312528264482,1
785,545,44,0.0754030559675123,1
794,566,46,0.0719922225264782,1
793,566,47,0.071977763568453,1
794,565,47,0.0729961260558654,1
794,566,47,0.0896751389116587,1
794,567,47,0.0765361030171841,1
795,566,47,0.0732915962533948,1
793,566,48,0.0761796132362196,1
794,565,48,0.0795839401461422,1
794,566,48,0.0948956221723005,1
794,567,48,0.0796519320059713,1
795,566,48,0.0749480853892674,1
793,566,49,0.0729569756464433,1
794,565,49,0.0739031823721722,1
794,566,49,0.0837286352211765,1
794,567,49,0.0708705688576734,1
