x,y,z,signal,cytoplasm.p
267,294,14,0.13459315717577,1
267,295,14,0.123701377026673,1
268,293,14,0.141980628110483,1
270,299,14,0.126032258380245,1
276,275,14,0.0976441171616042,1
277,275,14,0.100142548642715,1
279,276,14,0.110980517833123,1
282,276,14,0.134677714274528,1
267,294,15,0.11400551258897,1
267,295,15,0.108935027114995,1
268,294,15,0.116076841743145,1
268,295,15,0.101514814982061,1
268,296,15,0.104823052383915,1
268,297,15,0.119218974913263,1
268,298,15,0.124627959887736,1
269,293,15,0.0993667421275979,1
269,294,15,0.102513261645078,1
269,295,15,0.0916063899585428,1
269,296,15,0.0889552565875569,1
269,297,15,0.0917775687284325,1
269,298,15,0.100142618156937,1
270,293,15,0.0724516698205732,1
270,294,15,0.0813272525443873,1
270,295,15,0.0823892630113383,1
270,296,15,0.0820904074712328,1
270,297,15,0.0844475582490246,1
270,298,15,0.0946963248999051,1
270,299,15,0.115151433672422,1
271,295,15,0.076590400575422,1
271,296,15,0.076697528941829,1
271,297,15,0.0780451177326218,1
271,298,15,0.0881689117164941,1
271,299,15,0.105173313690653,1
271,300,15,0.118919771802051,1
272,297,15,0.071284143717149,1
272,298,15,0.0807602945556684,1
272,299,15,0.0967258134442951,1
272,300,15,0.112453114048034,1
273,299,15,0.0806655049635378,1
273,300,15,0.0983658902725247,1
273,301,15,0.128950354166616,1
274,278,15,0.0930943488163563,1
274,300,15,0.0787969001328667,1
274,301,15,0.110232301512429,1
275,277,15,0.0977146254362434,1
275,301,15,0.0893731830372843,1
275,302,15,0.124975878565218,1
276,275,15,0.104769178862427,1
276,276,15,0.0905072728002753,1
276,277,15,0.0757042054769198,1
276,301,15,0.0730059831724422,1
276,302,15,0.0934524443758324,1
277,275,15,0.108497977302995,1
277,276,15,0.094133391784598,1
277,277,15,0.0785851181063303,1
278,275,15,0.122092984780501,1
278,276,15,0.101906409444769,1
278,277,15,0.0829195522483346,1
279,276,15,0.115395414686253,1
279,277,15,0.0893642087513177,1
279,278,15,0.0739267476931845,1
279,279,15,0.0711282650273619,1
280,277,15,0.0989696282357202,1
280,278,15,0.0837691620121798,1
280,279,15,0.0842610237876553,1
280,280,15,0.0818238412869095,1
280,281,15,0.0741349497373252,1
281,277,15,0.104202429416372,1
281,278,15,0.0913751856585822,1
281,279,15,0.0924725510584736,1
281,280,15,0.0900713560700819,1
281,281,15,0.0814316837590088,1
281,282,15,0.0716326393626669,1
282,276,15,0.12975065749331,1
282,277,15,0.105386346973173,1
282,278,15,0.0954782764721833,1
282,279,15,0.0933938508387197,1
282,280,15,0.0878405195837689,1
282,281,15,0.0788578641049249,1
283,275,15,0.133337591311101,1
283,276,15,0.114042897337172,1
283,277,15,0.102200732657648,1
283,278,15,0.0954866251301584,1
283,279,15,0.0891622838413581,1
283,280,15,0.0785308970137358,1
284,275,15,0.120545389672255,1
284,276,15,0.113387885684364,1
284,277,15,0.103537644064053,1
284,278,15,0.0937629018394686,1
284,279,15,0.0837169568320023,1
285,276,15,0.119120209107675,1
285,277,15,0.106576416538557,1
285,278,15,0.0932386255826126,1
285,279,15,0.0792953866136297,1
286,276,15,0.121757731594136,1
286,277,15,0.109194210889019,1
286,278,15,0.0937598293108883,1
286,279,15,0.0751759808122954,1
287,277,15,0.115185085506941,1
287,278,15,0.0910793956956349,1
288,278,15,0.086074211881126,1
266,295,16,0.10920721699982,1
267,294,16,0.0943965517720788,1
267,295,16,0.096807374480117,1
267,296,16,0.115528666497015,1
268,293,16,0.0884179325113675,1
268,294,16,0.08814458869047,1
268,295,16,0.0865167463651848,1
268,296,16,0.0933919113919461,1
268,297,16,0.102987689253858,1
268,298,16,0.110202403445859,1
269,293,16,0.076079971551444,1
269,294,16,0.0781558121785801,1
269,295,16,0.0779499041037415,1
269,296,16,0.0814096755565531,1
269,297,16,0.0856288690225277,1
269,298,16,0.0943315698780309,1
269,299,16,0.122583477125817,1
270,295,16,0.0716189311582315,1
270,296,16,0.0753064451027843,1
270,297,16,0.0788551530502952,1
270,298,16,0.0872124864002378,1
270,299,16,0.102575900909869,1
270,300,16,0.123209174631513,1
271,278,16,0.0852263191185463,1
271,297,16,0.0702381701810462,1
271,298,16,0.0762407648966752,1
271,299,16,0.0874711001576471,1
271,300,16,0.102630295788017,1
271,301,16,0.119794052163027,1
272,278,16,0.089386251710884,1
272,299,16,0.0762169632273106,1
272,300,16,0.0925307622673693,1
272,301,16,0.112853147537206,1
273,278,16,0.0928122740092666,1
273,300,16,0.0810547220398787,1
273,301,16,0.106050040952218,1
274,277,16,0.122113880755416,1
274,278,16,0.0788222867264763,1
274,301,16,0.0899593478053415,1
274,302,16,0.123731615712928,1
275,275,16,0.115854882834614,1
275,276,16,0.106510134728571,1
275,277,16,0.0861610838034534,1
275,301,16,0.0737144651642549,1
275,302,16,0.101163740358934,1
275,303,16,0.132834906171372,1
276,275,16,0.114054005709731,1
276,276,16,0.0950359574822105,1
276,277,16,0.0739166264225668,1
276,302,16,0.0798629910846065,1
276,303,16,0.105052393702746,1
277,275,16,0.118107748377649,1
277,276,16,0.099385232910457,1
277,277,16,0.074939451722985,1
278,275,16,0.131133934885306,1
278,276,16,0.108176341952578,1
278,277,16,0.0789442980876582,1
279,276,16,0.122301596958547,1
279,277,16,0.0834034337912078,1
280,277,16,0.0938745208245699,1
280,278,16,0.0712865906177378,1
281,277,16,0.0976899756933793,1
281,278,16,0.080042337775496,1
281,279,16,0.076771464267577,1
281,280,16,0.0725211075762048,1
282,276,16,0.124636273788601,1
282,277,16,0.0988900344523603,1
282,278,16,0.0853990967155253,1
282,279,16,0.07928264465687,1
282,280,16,0.0722079807664716,1
283,274,16,0.14153281749703,1
283,275,16,0.133370110063813,1
283,276,16,0.116288887923723,1
283,277,16,0.099746866743796,1
283,278,16,0.0885866574292462,1
283,279,16,0.0791883903242432,1
284,274,16,0.133446895472633,1
284,275,16,0.130838332610756,1
284,276,16,0.121024787547856,1
284,277,16,0.104577333514552,1
284,278,16,0.0911743104133638,1
284,279,16,0.0784005091888903,1
285,275,16,0.133098851669554,1
285,276,16,0.124549770291646,1
285,277,16,0.108745823307529,1
285,278,16,0.0938022468887103,1
285,279,16,0.0779897844124869,1
286,275,16,0.137073313368107,1
286,276,16,0.126620904806002,1
286,277,16,0.111233688627006,1
286,278,16,0.0933730174266035,1
286,279,16,0.0743035008696507,1
287,276,16,0.142675714711856,1
287,277,16,0.116568488024535,1
287,278,16,0.0894089411527082,1
288,277,16,0.123989054679998,1
288,278,16,0.0850649349024343,1
289,278,16,0.0755639813897639,1
266,295,17,0.0990874826464698,1
266,296,17,0.119403006862666,1
267,293,17,0.0781267899911978,1
267,294,17,0.0794541918521325,1
267,295,17,0.0862678298416433,1
267,296,17,0.0996029653543346,1
267,297,17,0.112518540833098,1
267,298,17,0.120643766198204,1
268,295,17,0.0753404723140984,1
268,296,17,0.0845885608954588,1
268,297,17,0.0925867212154956,1
268,298,17,0.100712579160015,1
268,299,17,0.13480429967147,1
269,284,17,0.0730730435417062,1
269,296,17,0.0756058776109263,1
269,297,17,0.0812531086759754,1
269,298,17,0.0897378824477815,1
269,299,17,0.110104138142665,1
269,300,17,0.143483483865916,1
270,279,17,0.0781734062279848,1
270,296,17,0.0706206165722348,1
270,297,17,0.074389114584573,1
270,298,17,0.0805951774258739,1
270,299,17,0.0920378855842631,1
270,300,17,0.109021815620257,1
270,301,17,0.126068795054947,1
271,278,17,0.0864673912680795,1
271,299,17,0.0781502301866118,1
271,300,17,0.0926322530304308,1
271,301,17,0.109731486305254,1
272,278,17,0.0862297082426961,1
272,300,17,0.0820130381429537,1
272,301,17,0.100373335857348,1
272,302,17,0.121717858236812,1
273,277,17,0.115255294870429,1
273,278,17,0.0815592284522041,1
273,300,17,0.0714371445181752,1
273,301,17,0.0901897665946017,1
273,302,17,0.116125689386435,1
274,276,17,0.120732786109969,1
274,277,17,0.097588220776277,1
274,278,17,0.0697652301766017,1
274,301,17,0.0754171882086975,1
274,302,17,0.0992555332764021,1
274,303,17,0.122460589885447,1
274,304,17,0.128590367820321,1
275,275,17,0.122850411735513,1
275,276,17,0.102532051339089,1
275,277,17,0.0798221167224968,1
275,302,17,0.0836672680666349,1
275,303,17,0.109508102355186,1
276,275,17,0.123444535881906,1
276,276,17,0.0989783731247566,1
276,277,17,0.0736661180233581,1
276,302,17,0.0705627737887119,1
276,303,17,0.0939252105947236,1
277,275,17,0.127945400972487,1
277,276,17,0.103566304777484,1
277,277,17,0.0736553502704826,1
277,303,17,0.0800699001642315,1
278,275,17,0.139759231655419,1
278,276,17,0.111132413358031,1
278,277,17,0.0759088066843985,1
279,276,17,0.126467389599738,1
279,277,17,0.0791806742456817,1
280,277,17,0.0891024877082173,1
281,276,17,0.138022516156773,1
281,277,17,0.091841000455346,1
281,278,17,0.0714574982821646,1
282,275,17,0.156000589925487,1
282,276,17,0.11977328131371,1
282,277,17,0.0938336673167266,1
282,278,17,0.077690143361681,1
283,273,17,0.14295986104274,1
283,274,17,0.144799985896955,1
283,275,17,0.143297783575202,1
283,276,17,0.122085101867808,1
283,277,17,0.100451831316012,1
283,278,17,0.0849012636684423,1
283,279,17,0.0731804430135761,1
284,274,17,0.147070417683706,1
284,275,17,0.14962211791258,1
284,276,17,0.131309360974116,1
284,277,17,0.109026111599132,1
284,278,17,0.0923232553654413,1
284,279,17,0.0766526505605738,1
285,274,17,0.143576118517187,1
285,275,17,0.145273224812551,1
285,276,17,0.131406889426564,1
285,277,17,0.113319761747514,1
285,278,17,0.0970035019040223,1
285,279,17,0.0787800846427403,1
286,275,17,0.143281684081555,1
286,276,17,0.130987134752817,1
286,277,17,0.114021292317199,1
286,278,17,0.0951026911346345,1
286,279,17,0.075460996070945,1
287,276,17,0.139002944733636,1
287,277,17,0.11525555902447,1
287,278,17,0.0884699986631025,1
288,277,17,0.117132157990587,1
288,278,17,0.082882827885235,1
289,278,17,0.0744298777239287,1
267,292,18,0.0700377884867989,1
267,295,18,0.0774747187899498,1
267,296,18,0.0882525303732658,1
267,297,18,0.0968335118273164,1
268,296,18,0.0772686647352465,1
268,297,18,0.0853780478093233,1
268,298,18,0.0940689590528982,1
268,299,18,0.116639149230461,1
269,279,18,0.0941572907738723,1
269,281,18,0.0788012030631636,1
269,282,18,0.0755389910272155,1
269,283,18,0.0751057019345863,1
269,297,18,0.0758244372740371,1
269,298,18,0.0841088710601286,1
269,299,18,0.0986131315033335,1
269,300,18,0.119147166722686,1
270,278,18,0.093528374759731,1
270,279,18,0.0812101419358053,1
270,280,18,0.0700872339523918,1
270,298,18,0.0732799665241755,1
270,299,18,0.0832548610460767,1
270,300,18,0.0975780647485487,1
270,301,18,0.112948576660172,1
270,302,18,0.123849136455415,1
270,304,18,0.111752508017492,1
271,278,18,0.089145322371367,1
271,279,18,0.0698770994128996,1
271,299,18,0.0712272324241911,1
271,300,18,0.085302958547502,1
271,301,18,0.103352611109863,1
271,302,18,0.118103786067037,1
271,304,18,0.114748744739998,1
272,277,18,0.112740367664609,1
272,278,18,0.0857858877455437,1
272,300,18,0.075268865714763,1
272,301,18,0.0941805224266225,1
272,302,18,0.113084129391658,1
272,303,18,0.125396453506776,1
273,277,18,0.104532323056277,1
273,278,18,0.0778440965075388,1
273,301,18,0.0816085140350881,1
273,302,18,0.102642245282654,1
273,303,18,0.121022604801308,1
273,304,18,0.118203956059894,1
274,276,18,0.115712517709443,1
274,277,18,0.0905296911366365,1
274,302,18,0.0870774411225668,1
274,303,18,0.107786096065762,1
274,304,18,0.115914046388341,1
275,275,18,0.13183944861987,1
275,276,18,0.10615875424287,1
275,277,18,0.0810804909617053,1
275,302,18,0.0747007885470816,1
275,303,18,0.0984106365767594,1
275,304,18,0.118387890689388,1
276,275,18,0.135784060911809,1
276,276,18,0.106981468954504,1
276,277,18,0.0782841840910087,1
276,303,18,0.0897970946614635,1
276,304,18,0.113178342015752,1
277,275,18,0.141887576373885,1
277,276,18,0.109402725747156,1
277,277,18,0.0761416862770919,1
277,303,18,0.0831686217031629,1
277,304,18,0.106743890200452,1
278,275,18,0.156555090965754,1
278,276,18,0.115311587486817,1
278,277,18,0.0758122861881582,1
278,303,18,0.0746316566540236,1
279,276,18,0.129324535316895,1
279,277,18,0.0780739591830288,1
280,277,18,0.0862721258205181,1
281,276,18,0.132344636271564,1
281,277,18,0.0875109943692369,1
282,275,18,0.14891988524926,1
282,276,18,0.114134134752595,1
282,277,18,0.0897639433293375,1
282,278,18,0.0722194089044492,1
283,273,18,0.146272728091731,1
283,274,18,0.14978150011912,1
283,275,18,0.150743771581385,1
283,276,18,0.123037544019185,1
283,277,18,0.0999152440905682,1
283,278,18,0.0816027095976117,1
284,274,18,0.160414798587827,1
284,275,18,0.164896227502139,1
284,276,18,0.136881176060503,1
284,277,18,0.112801282976712,1
284,278,18,0.0925545083253568,1
284,279,18,0.075178198315954,1
285,274,18,0.155769747099477,1
285,275,18,0.156970090866766,1
285,276,18,0.137014226280024,1
285,277,18,0.118420923847337,1
285,278,18,0.099289059985323,1
285,279,18,0.0789224775736,1
286,275,18,0.153589364034966,1
286,276,18,0.137772348377249,1
286,277,18,0.118811885730632,1
286,278,18,0.098026785998301,1
286,279,18,0.0771557319313631,1
287,276,18,0.13849134787074,1
287,277,18,0.115436275145518,1
287,278,18,0.090322705591368,1
288,277,18,0.112587582357669,1
288,278,18,0.0835181461591558,1
289,278,18,0.0760039229933691,1
267,296,19,0.0797621120466922,1
268,282,19,0.0802013654595068,1
268,283,19,0.0726700835038193,1
268,296,19,0.0705261397941,1
268,297,19,0.0796310985938552,1
268,298,19,0.090293537424121,1
269,279,19,0.0985966357786249,1
269,280,19,0.0868041251073578,1
269,281,19,0.0785259058926482,1
269,282,19,0.0716531808150537,1
269,297,19,0.0701745785714238,1
269,298,19,0.0789019083155247,1
269,299,19,0.0904761582348326,1
270,278,19,0.0993150304983914,1
270,279,19,0.084057917135934,1
270,280,19,0.0711642108311832,1
270,299,19,0.0777821315306943,1
270,300,19,0.0917492138775744,1
270,301,19,0.10897768104117,1
271,278,19,0.0917230417732644,1
271,279,19,0.0720209249484427,1
271,300,19,0.0810388102346288,1
271,301,19,0.100266158830987,1
271,302,19,0.117945210225464,1
271,304,19,0.112418746217036,1
272,277,19,0.112895912686134,1
272,278,19,0.0867859888470271,1
272,300,19,0.0714563582489356,1
272,301,19,0.0894800889581831,1
272,302,19,0.108623123755556,1
272,303,19,0.116325612286822,1
272,304,19,0.111718550320399,1
272,305,19,0.0952475935288822,1
273,277,19,0.104399543942219,1
273,278,19,0.0793326601390774,1
273,301,19,0.0752526410955174,1
273,302,19,0.0942478956098822,1
273,303,19,0.109519586104541,1
273,304,19,0.112332965667983,1
273,305,19,0.100859928454851,1
274,276,19,0.120513232393494,1
274,277,19,0.094280108500021,1
274,278,19,0.0719466768086989,1
274,302,19,0.0803830339253869,1
274,303,19,0.100451747898947,1
274,304,19,0.110197169024997,1
274,305,19,0.108777778995049,1
275,275,19,0.140870722345074,1
275,276,19,0.114718895333382,1
275,277,19,0.0882195111181602,1
275,302,19,0.0706464272025942,1
275,303,19,0.0932323414970093,1
275,304,19,0.107931950804841,1
275,305,19,0.120522797550341,1
276,275,19,0.146125274525563,1
276,276,19,0.113437915069415,1
276,277,19,0.0833662992942027,1
276,303,19,0.089609350652644,1
276,304,19,0.108306333546362,1
276,305,19,0.12797073195472,1
277,276,19,0.113488799479389,1
277,277,19,0.077332485741799,1
277,303,19,0.0864530991441854,1
277,304,19,0.108817242218467,1
278,276,19,0.121506395975694,1
278,277,19,0.0760123898255204,1
278,303,19,0.0815566355717506,1
279,276,19,0.131573000609723,1
279,277,19,0.0791000307975806,1
280,276,19,0.141466862403884,1
280,277,19,0.0859265219666051,1
281,276,19,0.124673755856712,1
281,277,19,0.0863126039515665,1
282,273,19,0.151370998399949,1
282,275,19,0.144459741589502,1
282,276,19,0.113341512747351,1
282,277,19,0.0889216742672589,1
282,278,19,0.0701786521047905,1
283,273,19,0.149361370068578,1
283,274,19,0.153581091842634,1
283,275,19,0.151548482109709,1
283,276,19,0.123231141125436,1
283,277,19,0.0995340350525183,1
283,278,19,0.079971189970021,1
284,274,19,0.164423113712142,1
284,275,19,0.164890040736446,1
284,276,19,0.137010180552346,1
284,277,19,0.11462978505313,1
284,278,19,0.0931160511562384,1
284,279,19,0.0736256259894654,1
285,274,19,0.164215266190529,1
285,275,19,0.162114546423599,1
285,276,19,0.141004884792135,1
285,277,19,0.123595089782344,1
285,278,19,0.103420019050233,1
285,279,19,0.0807095352712934,1
286,275,19,0.167503775456386,1
286,276,19,0.146573585641409,1
286,277,19,0.125913736632971,1
286,278,19,0.104742534061412,1
286,279,19,0.0825033845084054,1
287,276,19,0.144552445754995,1
287,277,19,0.119914853976758,1
287,278,19,0.0960979818520057,1
287,279,19,0.0754017212944638,1
288,277,19,0.113679525648301,1
288,278,19,0.0862556161929652,1
289,278,19,0.0784281480432692,1
267,296,20,0.0715334286660632,1
268,280,20,0.107168921003594,1
268,281,20,0.0969479947983342,1
268,282,20,0.0838737809151987,1
268,283,20,0.0749139817123099,1
268,297,20,0.0729387976775799,1
268,298,20,0.0847149725068474,1
269,279,20,0.103768632869927,1
269,280,20,0.089699580111859,1
269,281,20,0.0810369750591872,1
269,282,20,0.07197301574714,1
269,298,20,0.0733906818244002,1
269,299,20,0.0837680636874836,1
270,278,20,0.105283841302481,1
270,279,20,0.087510785826573,1
270,280,20,0.0726380791563443,1
270,299,20,0.0728719458509798,1
270,300,20,0.0867513916190985,1
270,304,20,0.114404114085183,1
271,278,20,0.0948647995665872,1
271,279,20,0.0751454571177335,1
271,300,20,0.0768136246427803,1
271,301,20,0.0985040845444194,1
271,302,20,0.121347416951638,1
271,303,20,0.123300418998359,1
271,304,20,0.111698266070631,1
272,277,20,0.116657348053591,1
272,278,20,0.0890429001177404,1
272,279,20,0.0703822314532165,1
272,301,20,0.0846772957989164,1
272,302,20,0.105474699548413,1
272,303,20,0.113173191011956,1
272,304,20,0.109831677152377,1
273,277,20,0.106719163991945,1
273,278,20,0.0827170225646499,1
273,301,20,0.0699268854981767,1
273,302,20,0.0877288032787578,1
273,303,20,0.103352235733068,1
273,304,20,0.109774334871247,1
273,305,20,0.102292706923817,1
274,276,20,0.127677868540488,1
274,277,20,0.0997008900378447,1
274,278,20,0.0763178561680691,1
274,302,20,0.0752976098452602,1
274,303,20,0.0958265844293038,1
274,304,20,0.108566003919935,1
274,305,20,0.107685821801573,1
275,276,20,0.123803549029103,1
275,277,20,0.09561494143121,1
275,278,20,0.0697612053031899,1
275,303,20,0.0913679353253032,1
275,304,20,0.107668297266389,1
275,305,20,0.116405303390092,1
276,276,20,0.119549250881385,1
276,277,20,0.0886512013837,1
276,303,20,0.0923017824224894,1
276,304,20,0.111920718530133,1
276,305,20,0.124734858857213,1
277,276,20,0.118261708474929,1
277,277,20,0.0795914407306178,1
277,303,20,0.0921496366463848,1
277,304,20,0.115838512235504,1
277,305,20,0.126248962013648,1
278,277,20,0.0789126760684002,1
279,277,20,0.0830334512998937,1
280,276,20,0.135435474897803,1
280,277,20,0.0888088943946624,1
281,275,20,0.16183227697669,1
281,276,20,0.122530771443246,1
281,277,20,0.0893010411784451,1
282,273,20,0.159315333858453,1
282,274,20,0.160667427170785,1
282,275,20,0.14758606027428,1
282,276,20,0.120008489632816,1
282,277,20,0.0931603595208791,1
282,278,20,0.0713315385132143,1
283,273,20,0.159673776989035,1
283,274,20,0.161556388935294,1
283,275,20,0.152325373046678,1
283,276,20,0.127364637459423,1
283,277,20,0.103148524307622,1
283,278,20,0.0809263640302944,1
284,274,20,0.166906453655814,1
284,275,20,0.160802437691345,1
284,276,20,0.137913517857814,1
284,277,20,0.117697350318086,1
284,278,20,0.0946295773446368,1
284,279,20,0.0729926225391132,1
285,274,20,0.177563122805714,1
285,275,20,0.170943353027917,1
285,276,20,0.148521582664199,1
285,277,20,0.130480403885411,1
285,278,20,0.109130209145491,1
285,279,20,0.0838952677609948,1
286,275,20,0.190648090538881,1
286,276,20,0.162243467498376,1
286,277,20,0.137131246520118,1
286,278,20,0.114510519503688,1
286,279,20,0.0897722780844683,1
287,276,20,0.161067717862575,1
287,277,20,0.130537502866766,1
287,278,20,0.104893261747403,1
287,279,20,0.0824252713779587,1
288,277,20,0.119582409164933,1
288,278,20,0.0907994619265605,1
288,279,20,0.070402321063165,1
289,278,20,0.0831024580673534,1
267,282,21,0.094878473013912,1
267,283,21,0.0858828392299559,1
267,284,21,0.080637219626901,1
267,285,21,0.0755785168134325,1
268,281,21,0.101046546333286,1
268,282,21,0.0864809117841175,1
268,283,21,0.0774696233975304,1
268,284,21,0.0726394972464583,1
268,298,21,0.0768933574545827,1
269,280,21,0.0929407919015598,1
269,281,21,0.0826313671411948,1
269,282,21,0.072669742884135,1
269,299,21,0.0769961759392706,1
270,279,21,0.0919538498421638,1
270,280,21,0.0751825985661607,1
270,300,21,0.084635295306422,1
270,305,21,0.0999964088953289,1
271,278,21,0.101790397160883,1
271,279,21,0.0803490414711834,1
271,300,21,0.0747530493386361,1
271,301,21,0.0982297744758461,1
271,302,21,0.12515386277737,1
271,304,21,0.112996465007208,1
272,277,21,0.122191764488933,1
272,278,21,0.0940429190256086,1
272,279,21,0.0764208762439987,1
272,301,21,0.0809464466888208,1
272,302,21,0.102186579562196,1
272,303,21,0.111619687194902,1
272,304,21,0.108882509120822,1
272,305,21,0.0999524481017946,1
273,277,21,0.112002773116926,1
273,278,21,0.0890713175313976,1
273,279,21,0.0733450526895553,1
273,302,21,0.0817070226380569,1
273,303,21,0.0979172732941043,1
273,304,21,0.105745659031521,1
273,305,21,0.102448967941821,1
274,276,21,0.137064346033563,1
274,277,21,0.108370251872824,1
274,278,21,0.0837898146873206,1
274,302,21,0.0703937847167924,1
274,303,21,0.0897646662772387,1
274,304,21,0.103448436463891,1
274,305,21,0.105964740051291,1
275,276,21,0.133745459053009,1
275,277,21,0.104152970047935,1
275,278,21,0.0771382421532903,1
275,303,21,0.0874770088664555,1
275,304,21,0.104758390255285,1
275,305,21,0.115116579241875,1
276,276,21,0.127517137758056,1
276,277,21,0.0941535439573456,1
276,303,21,0.0908018115072396,1
276,304,21,0.110715501815934,1
276,305,21,0.122929908198963,1
277,277,21,0.084407233049263,1
277,303,21,0.0929817010207802,1
277,304,21,0.116336366136853,1
277,305,21,0.125695350755414,1
278,277,21,0.0861878120215336,1
278,303,21,0.087573863030958,1
279,277,21,0.091027169661191,1
280,276,21,0.135286450310234,1
280,277,21,0.0948239877672766,1
281,275,21,0.153670431519817,1
281,276,21,0.127289186723651,1
281,277,21,0.0963454802854332,1
281,278,21,0.0697550115860743,1
282,273,21,0.176850602037645,1
282,274,21,0.170497057824487,1
282,275,21,0.153625650458471,1
282,276,21,0.130694660618225,1
282,277,21,0.101738178077862,1
282,278,21,0.0756270585941488,1
283,274,21,0.170571716098137,1
283,275,21,0.157423573840675,1
283,276,21,0.136453747016728,1
283,277,21,0.110596076383783,1
283,278,21,0.0852754378672992,1
284,274,21,0.171665897746694,1
284,275,21,0.163769499295181,1
284,276,21,0.144566070542364,1
284,277,21,0.123286682988235,1
284,278,21,0.0994047455523689,1
284,279,21,0.0756242502196093,1
285,275,21,0.18464627438253,1
285,276,21,0.161349917795262,1
285,277,21,0.139051827134037,1
285,278,21,0.116745005486618,1
285,279,21,0.0889373636270007,1
286,275,21,0.209891809734349,1
286,276,21,0.179779903516485,1
286,277,21,0.149350650975657,1
286,278,21,0.125745540023174,1
286,279,21,0.0973606312158226,1
287,276,21,0.180045294910469,1
287,277,21,0.142563115576235,1
287,278,21,0.11548022898763,1
287,279,21,0.0902104748811196,1
288,277,21,0.128274953992708,1
288,278,21,0.0992151872223741,1
288,279,21,0.0786308306582407,1
289,278,21,0.0918818609146114,1
289,279,21,0.0737657110481788,1
290,279,21,0.0728232441875545,1
266,285,22,0.0807626093792369,1
266,286,22,0.0741371324838733,1
266,287,22,0.0708120934947368,1
267,282,22,0.104624033168405,1
267,283,22,0.0935748172109649,1
267,284,22,0.089092985114169,1
267,285,22,0.0819950756681763,1
267,286,22,0.0727462780417588,1
268,281,22,0.106284220460849,1
268,282,22,0.0917302503980106,1
268,283,22,0.0812822142804233,1
268,284,22,0.0764115891440364,1
268,285,22,0.0700205072513899,1
268,299,22,0.0774427213938969,1
269,280,22,0.0997232388599846,1
269,281,22,0.0867724544281449,1
269,282,22,0.0767496437535188,1
269,299,22,0.0704930579761952,1
269,300,22,0.0838670866956899,1
270,279,22,0.0995592895691075,1
270,280,22,0.0820807588973198,1
270,281,22,0.0725948691163997,1
270,300,22,0.0804846428626246,1
270,301,22,0.105076230129221,1
271,278,22,0.115631804747121,1
271,279,22,0.0894998379484474,1
271,280,22,0.0740143217091467,1
271,300,22,0.0717422702410397,1
271,301,22,0.0934126196784639,1
271,302,22,0.120429203602816,1
271,305,22,0.0990488257880188,1
272,277,22,0.134339416365272,1
272,278,22,0.104470177342457,1
272,279,22,0.0849004225463649,1
272,301,22,0.076178271611749,1
272,302,22,0.0950512297566246,1
272,303,22,0.105293538536349,1
272,304,22,0.104635808877489,1
273,277,22,0.123846008315458,1
273,278,22,0.0989127030399181,1
273,279,22,0.0823050048237308,1
273,302,22,0.0765288596353273,1
273,303,22,0.0911267974431224,1
273,304,22,0.0988737889788483,1
273,305,22,0.0990739690818539,1
274,277,22,0.121446544231176,1
274,278,22,0.0946205822044038,1
274,279,22,0.0765127114817251,1
274,303,22,0.0845923146634077,1
274,304,22,0.0965910670777756,1
274,305,22,0.101597655079554,1
275,276,22,0.146697446080877,1
275,277,22,0.11607969877764,1
275,278,22,0.0885732828930729,1
275,279,22,0.0701651385401747,1
275,303,22,0.084702515558395,1
275,304,22,0.100657655973785,1
275,305,22,0.11171205074071,1
276,276,22,0.139283837798964,1
276,277,22,0.104407065380961,1
276,278,22,0.0788059717387431,1
276,303,22,0.0890599867133298,1
276,304,22,0.107982105315491,1
276,305,22,0.120102486762824,1
277,277,22,0.0975229538739219,1
277,278,22,0.0739809201258241,1
277,303,22,0.0914086984646589,1
277,304,22,0.1123993517493,1
278,277,22,0.099491005749549,1
278,278,22,0.0750284021205285,1
278,303,22,0.0848141414949183,1
279,277,22,0.103031358087663,1
279,278,22,0.0764338058891559,1
280,276,22,0.140703929922547,1
280,277,22,0.104105700377468,1
280,278,22,0.0744916272066872,1
281,275,22,0.158706514405682,1
281,276,22,0.139880645194298,1
281,277,22,0.10846097488301,1
281,278,22,0.0771742227142223,1
282,274,22,0.181419813510584,1
282,275,22,0.164891820300511,1
282,276,22,0.145671972288628,1
282,277,22,0.11500367424368,1
282,278,22,0.0846329874342757,1
283,274,22,0.178969868198812,1
283,275,22,0.167533513640247,1
283,276,22,0.149400298032492,1
283,277,22,0.122705627515442,1
283,278,22,0.0954142191172784,1
283,279,22,0.0709401803988581,1
284,275,22,0.173285120308541,1
284,276,22,0.1574975647778,1
284,277,22,0.13533064745212,1
284,278,22,0.110789047862043,1
284,279,22,0.0827580985180013,1
285,275,22,0.197046999732843,1
285,276,22,0.179188267979214,1
285,277,22,0.153923407673881,1
285,278,22,0.12825009570718,1
285,279,22,0.0960773013711764,1
286,276,22,0.197102221830224,1
286,277,22,0.163795678350914,1
286,278,22,0.136157018611793,1
286,279,22,0.103749439993433,1
286,280,22,0.0719768112236216,1
287,277,22,0.152735117672562,1
287,278,22,0.124631115833382,1
287,279,22,0.0982988229518385,1
287,280,22,0.0726849664985943,1
288,278,22,0.110330963046685,1
288,279,22,0.0908327731413955,1
288,280,22,0.072642208301088,1
289,279,22,0.088414957302697,1
289,280,22,0.0737604418702062,1
266,288,23,0.0708394403893864,1
267,282,23,0.109510027899116,1
267,283,23,0.0970081454540035,1
267,284,23,0.0900496189730892,1
267,285,23,0.0819217173104647,1
267,286,23,0.0736806395441825,1
268,281,23,0.110028152147389,1
268,282,23,0.0950916800819845,1
268,283,23,0.084506186543248,1
268,284,23,0.0778403774967006,1
268,285,23,0.0721189052433298,1
269,280,23,0.10611536346595,1
269,281,23,0.092103958851585,1
269,282,23,0.0807745866795626,1
269,283,23,0.0739793073958905,1
269,300,23,0.0761639169250557,1
270,279,23,0.112064209785689,1
270,280,23,0.091742102572738,1
270,281,23,0.0806606945794256,1
270,282,23,0.0710046339848243,1
270,300,23,0.0738483843115412,1
270,301,23,0.0944395880264701,1
271,278,23,0.136769133038652,1
271,279,23,0.105189510504211,1
271,280,23,0.0846209336683066,1
271,281,23,0.0742844053130665,1
271,301,23,0.0847124213349266,1
271,302,23,0.107356407809795,1
272,278,23,0.124451129611657,1
272,279,23,0.0990929881727948,1
272,280,23,0.0794013958010741,1
272,301,23,0.0722759865291449,1
272,302,23,0.0876600189568062,1
272,303,23,0.0992553525394268,1
272,304,23,0.10173820588355,1
273,277,23,0.143100154644117,1
273,278,23,0.114374494075498,1
273,279,23,0.0936827866994492,1
273,280,23,0.0751586022569766,1
273,302,23,0.0745606409255691,1
273,303,23,0.0875318555870415,1
273,304,23,0.0953837093255608,1
273,305,23,0.0979051708681803,1
274,277,23,0.139062532324113,1
274,278,23,0.108921881975752,1
274,279,23,0.0881993102854576,1
274,280,23,0.0703129188231832,1
274,303,23,0.0832495014996164,1
274,304,23,0.0938542574290682,1
274,305,23,0.100006189546262,1
275,277,23,0.131345647397621,1
275,278,23,0.102666610017211,1
275,279,23,0.0820099586629512,1
275,303,23,0.0841646423198575,1
275,304,23,0.0983749896840896,1
275,305,23,0.107752451182665,1
276,276,23,0.157474166290919,1
276,277,23,0.12158558657657,1
276,278,23,0.0935962414939618,1
276,279,23,0.0739090841295585,1
276,303,23,0.0874791916130035,1
276,304,23,0.104951062822393,1
276,305,23,0.11441269909151,1
277,277,23,0.120000704040033,1
277,278,23,0.0893333861456044,1
277,303,23,0.0876849745622439,1
277,304,23,0.106279854967753,1
278,277,23,0.12048185367401,1
278,278,23,0.0886954888940743,1
278,303,23,0.0816192678851193,1
278,304,23,0.099479883474145,1
279,276,23,0.168116501608392,1
279,277,23,0.120105461971494,1
279,278,23,0.0878400538384863,1
279,303,23,0.0740593808273772,1
280,276,23,0.152358322787563,1
280,277,23,0.118012903174142,1
280,278,23,0.0848556970963965,1
281,275,23,0.177478718638242,1
281,276,23,0.157398034315779,1
281,277,23,0.123289143791668,1
281,278,23,0.0879862144401391,1
282,275,23,0.184215147182183,1
282,276,23,0.162712007252613,1
282,277,23,0.129582266243694,1
282,278,23,0.0967873196272792,1
283,275,23,0.180707153714073,1
283,276,23,0.162616369586983,1
283,277,23,0.137332587510619,1
283,278,23,0.11065935517941,1
283,279,23,0.0813618358694716,1
284,275,23,0.183875486794189,1
284,276,23,0.172647591482384,1
284,277,23,0.153842632148759,1
284,278,23,0.128844692550278,1
284,279,23,0.0958347593017258,1
285,276,23,0.197158806406342,1
285,277,23,0.173935231208749,1
285,278,23,0.142898771945084,1
285,279,23,0.106459097387311,1
285,280,23,0.0745108756945583,1
286,277,23,0.175802244163753,1
286,278,23,0.143003335236725,1
286,279,23,0.110071438652977,1
286,280,23,0.0815091643100419,1
287,278,23,0.131481742340033,1
287,279,23,0.107740765842069,1
287,280,23,0.0851581465217419,1
288,279,23,0.104724057181397,1
288,280,23,0.085908413511963,1
268,282,24,0.0992722862037294,1
268,283,24,0.0886558796907918,1
268,284,24,0.0796727028552883,1
268,285,24,0.07553051029222,1
268,286,24,0.0724108024098856,1
269,279,24,0.135440062836407,1
269,280,24,0.113077476880682,1
269,281,24,0.0980714905940029,1
269,282,24,0.0862336705533087,1
269,283,24,0.0804647617953399,1
269,284,24,0.0757931489230412,1
269,285,24,0.0750621929834903,1
269,286,24,0.0727401885959751,1
270,279,24,0.12722501119457,1
270,280,24,0.103086976416105,1
270,281,24,0.088634239913709,1
270,282,24,0.0778642625831307,1
270,283,24,0.0744185469058608,1
270,284,24,0.0723344966491921,1
270,285,24,0.0709575380999105,1
270,301,24,0.0796168203728053,1
271,279,24,0.123659529465466,1
271,280,24,0.0975372181921275,1
271,281,24,0.0829204767874776,1
271,282,24,0.0720045265436439,1
271,301,24,0.0729963415499514,1
271,302,24,0.0892762176500278,1
272,278,24,0.149233755861161,1
272,279,24,0.113394941377823,1
272,280,24,0.090021910604489,1
272,281,24,0.0757858221241188,1
272,302,24,0.078263482755913,1
272,303,24,0.0895697414493615,1
273,278,24,0.133539293775552,1
273,279,24,0.104650038438584,1
273,280,24,0.0838381826824837,1
273,302,24,0.0719036822628403,1
273,303,24,0.0825807955452173,1
273,304,24,0.0902441962298601,1
274,277,24,0.159010013495769,1
274,278,24,0.124886483276658,1
274,279,24,0.0990339775503544,1
274,280,24,0.0781031064960094,1
274,303,24,0.081768202104201,1
274,304,24,0.0913606363320693,1
274,305,24,0.0977675188072116,1
274,306,24,0.102114548926111,1
275,277,24,0.148791923470737,1
275,278,24,0.118131397115727,1
275,279,24,0.0928423458613902,1
275,280,24,0.0720115752856812,1
275,303,24,0.0840425892501429,1
275,304,24,0.0962390818183497,1
275,305,24,0.103064245265748,1
276,277,24,0.145097006261619,1
276,278,24,0.111804164035322,1
276,279,24,0.0840847913338789,1
276,303,24,0.086858547791194,1
276,304,24,0.101821449163527,1
276,305,24,0.108538219085691,1
277,277,24,0.146953230609481,1
277,278,24,0.107605143596361,1
277,279,24,0.0767187655364285,1
277,303,24,0.0847850845504254,1
277,304,24,0.101645195855484,1
277,305,24,0.112492042011948,1
278,277,24,0.142739431447077,1
278,278,24,0.103025838658493,1
278,279,24,0.0718554532961197,1
278,303,24,0.0808888402536502,1
278,304,24,0.0992131991156456,1
279,276,24,0.176677456015294,1
279,277,24,0.135481368186689,1
279,278,24,0.0991196399252316,1
279,279,24,0.0702373846703458,1
279,303,24,0.0782162478425566,1
279,304,24,0.0936525827703052,1
280,276,24,0.162717401556184,1
280,277,24,0.132621024815354,1
280,278,24,0.097631618504619,1
280,279,24,0.0701891835093137,1
280,303,24,0.0755834801288315,1
281,275,24,0.194198028888108,1
281,276,24,0.170201608481224,1
281,277,24,0.138150742089337,1
281,278,24,0.102549881736846,1
281,279,24,0.073489517144209,1
282,276,24,0.175876652186206,1
282,277,24,0.145570189565838,1
282,278,24,0.114449492968831,1
282,279,24,0.0831253004404643,1
283,275,24,0.190606312491895,1
283,276,24,0.172561936058928,1
283,277,24,0.153658016279897,1
283,278,24,0.131825517969927,1
283,279,24,0.0990031201875305,1
284,276,24,0.185712288868627,1
284,277,24,0.171549475328902,1
284,278,24,0.148063372723242,1
284,279,24,0.112887550125315,1
284,280,24,0.0758919564371615,1
285,277,24,0.186191561618629,1
285,278,24,0.152772836089025,1
285,279,24,0.11706913639758,1
285,280,24,0.0854109488902527,1
286,278,24,0.143920895151867,1
286,279,24,0.115966425354072,1
286,280,24,0.0936265844515484,1
286,281,24,0.073599815359106,1
287,279,24,0.119011405448536,1
287,280,24,0.101063139377904,1
287,281,24,0.0805873223188699,1
288,281,24,0.0804690786284811,1
269,282,25,0.0957676294182405,1
269,283,25,0.0879562399079254,1
269,284,25,0.0834656629220931,1
269,285,25,0.0837421974457472,1
269,286,25,0.0850956393339714,1
269,287,25,0.0789507907159253,1
269,288,25,0.075422068107031,1
269,289,25,0.0780366022405156,1
269,290,25,0.0774602737347689,1
270,279,25,0.145219921307677,1
270,280,25,0.117918266513298,1
270,281,25,0.100783177803142,1
270,282,25,0.0903192993945256,1
270,283,25,0.0851588486153768,1
270,284,25,0.082528437433753,1
270,285,25,0.0809827539665927,1
270,286,25,0.0790627016607559,1
270,287,25,0.0733573010953439,1
270,288,25,0.0710342470430875,1
270,289,25,0.0738261953721102,1
270,290,25,0.0779354659999826,1
270,291,25,0.075206275109927,1
271,279,25,0.144330695389127,1
271,280,25,0.112592469207424,1
271,281,25,0.0944559099656255,1
271,282,25,0.0831551359442356,1
271,283,25,0.0767796182857326,1
271,284,25,0.073814899311153,1
271,285,25,0.0717178359922616,1
271,290,25,0.0768958877722372,1
271,291,25,0.0795232264252807,1
271,292,25,0.0708956704429758,1
271,302,25,0.0733634044439719,1
272,279,25,0.131809112613706,1
272,280,25,0.102590665730468,1
272,281,25,0.0863717744567158,1
272,282,25,0.0749636843805215,1
272,290,25,0.0712370478322352,1
272,291,25,0.0744843421162976,1
272,302,25,0.0706197754501574,1
273,278,25,0.152744488189589,1
273,279,25,0.120233548875616,1
273,280,25,0.0941895314696997,1
273,281,25,0.0783719736010569,1
273,302,25,0.070478105467199,1
273,303,25,0.0792767359480616,1
274,278,25,0.139548728690554,1
274,279,25,0.11212227501472,1
274,280,25,0.0869659333602196,1
274,281,25,0.0713891727540734,1
274,302,25,0.0707526935926573,1
274,303,25,0.0817515951567384,1
274,304,25,0.0903503235914806,1
275,278,25,0.133404575214721,1
275,279,25,0.103467872640159,1
275,280,25,0.0785913882890893,1
275,302,25,0.0704763189517122,1
275,303,25,0.0851776800179202,1
275,304,25,0.095396423476632,1
275,305,25,0.102797213336142,1
276,277,25,0.173723282348081,1
276,278,25,0.130358392524229,1
276,279,25,0.0940572876151461,1
276,302,25,0.0697714864565165,1
276,303,25,0.0878670879191402,1
276,304,25,0.100490265728955,1
276,305,25,0.109699363783602,1
276,306,25,0.114259705241906,1
277,277,25,0.173507690942219,1
277,278,25,0.124936338876156,1
277,279,25,0.0861096849882426,1
277,303,25,0.084660591531544,1
277,304,25,0.099462212959097,1
277,305,25,0.112633114172604,1
278,277,25,0.16066891477512,1
278,278,25,0.11697330409213,1
278,279,25,0.0808608746824312,1
278,303,25,0.0817410011894161,1
278,304,25,0.0993795396957346,1
278,305,25,0.114455575463193,1
279,276,25,0.175656806510001,1
279,277,25,0.147724379671773,1
279,278,25,0.111921177323994,1
279,279,25,0.079432850986201,1
279,303,25,0.0812673243342261,1
280,275,25,0.184169768298534,1
280,276,25,0.165180568472843,1
280,277,25,0.144423191011956,1
280,278,25,0.112748014228949,1
280,279,25,0.0816783549732031,1
281,276,25,0.173302790823589,1
281,277,25,0.149350650975657,1
281,278,25,0.120073429818331,1
281,279,25,0.088415179748205,1
282,277,25,0.158220387553462,1
282,278,25,0.13462328463927,1
282,279,25,0.103109394752466,1
283,276,25,0.178232586465125,1
283,277,25,0.165908646523633,1
283,278,25,0.15143677275612,1
283,279,25,0.12110262957284,1
283,280,25,0.0810854473256822,1
284,277,25,0.180115504273957,1
284,278,25,0.160673808576298,1
284,279,25,0.130269817503481,1
284,280,25,0.0913936764414413,1
285,277,25,0.185509515885167,1
285,278,25,0.15641408831932,1
285,279,25,0.126839930214395,1
285,280,25,0.0990245027619946,1
285,281,25,0.0763577642825031,1
286,278,25,0.147727994411279,1
286,279,25,0.124270489956252,1
286,280,25,0.106316760067828,1
286,281,25,0.0886378894103259,1
287,280,25,0.112838181125365,1
287,281,25,0.0933060474258272,1
287,282,25,0.0743737727959376,1
288,282,25,0.0741016663281788,1
269,291,26,0.0758950637228525,1
270,282,26,0.101235061949962,1
270,283,26,0.0932167633600216,1
270,284,26,0.0882745594299878,1
270,285,26,0.0860918545904856,1
270,286,26,0.0863060974204552,1
270,287,26,0.0828499129014613,1
270,288,26,0.0835908788888758,1
270,289,26,0.0856074099824201,1
270,290,26,0.0994205878433975,1
270,291,26,0.107425157374636,1
270,292,26,0.0877775188450273,1
271,280,26,0.125877116541204,1
271,281,26,0.104043506003693,1
271,282,26,0.0927796162281116,1
271,283,26,0.0835364353507732,1
271,284,26,0.0777279451952104,1
271,285,26,0.0759730169705903,1
271,286,26,0.0764961114856846,1
271,287,26,0.0736272317679769,1
271,288,26,0.0727114097083673,1
271,289,26,0.0779059433102072,1
271,290,26,0.112871659174331,1
271,291,26,0.136724115628955,1
271,292,26,0.10884960108847,1
272,280,26,0.113209115961511,1
272,281,26,0.0947306371195264,1
272,282,26,0.0832618402738927,1
272,283,26,0.0728236195643494,1
272,289,26,0.0713315037561036,1
272,290,26,0.101214499643309,1
272,291,26,0.121565330132491,1
272,292,26,0.097067163027866,1
273,279,26,0.139435601246852,1
273,280,26,0.102044047602894,1
273,281,26,0.0861110613698239,1
273,282,26,0.0747774488303037,1
273,291,26,0.0739019936789884,1
274,278,26,0.153362038628552,1
274,279,26,0.121990965709358,1
274,280,26,0.0927547579425837,1
274,281,26,0.0776141990749381,1
274,302,26,0.0728254269341025,1
274,303,26,0.0801757981289219,1
275,278,26,0.150226335523903,1
275,279,26,0.111934802111364,1
275,280,26,0.083982299566031,1
275,302,26,0.0742680277625341,1
275,303,26,0.0845826452352283,1
275,304,26,0.0938441500612949,1
276,278,26,0.148780231178719,1
276,279,26,0.102482870027537,1
276,280,26,0.074715205796574,1
276,302,26,0.074301283365992,1
276,303,26,0.0880692700317185,1
276,304,26,0.100418394975579,1
276,305,26,0.114989896525023,1
277,278,26,0.139954121726186,1
277,279,26,0.0957694228851494,1
277,280,26,0.0697392527121112,1
277,302,26,0.070101366193577,1
277,303,26,0.0856447877791997,1
277,304,26,0.0997611449648458,1
277,305,26,0.115138010476294,1
278,277,26,0.173743705626292,1
278,278,26,0.129082139227309,1
278,279,26,0.0915250374653847,1
278,303,26,0.0830487027200414,1
278,304,26,0.0992618868762267,1
278,305,26,0.11143039997037,1
279,276,26,0.174188666156673,1
279,277,26,0.158183392084899,1
279,278,26,0.12546691312146,1
279,279,26,0.0909972854974649,1
279,303,26,0.0832453097920735,1
279,304,26,0.100033216675494,1
279,305,26,0.106339651100894,1
280,275,26,0.178198997193405,1
280,276,26,0.165480550143333,1
280,277,26,0.154004155393314,1
280,278,26,0.128422351947499,1
280,279,26,0.0948117324100658,1
280,303,26,0.084918913329224,1
281,276,26,0.172451019167462,1
281,277,26,0.156961457200483,1
281,278,26,0.136444571139519,1
281,279,26,0.104450789826143,1
281,280,26,0.0725553780872934,1
282,277,26,0.164988987279009,1
282,278,26,0.148778048432171,1
282,279,26,0.120292622060855,1
282,280,26,0.0816067275196013,1
283,277,26,0.173693850026794,1
283,278,26,0.162994443533654,1
283,279,26,0.137988092714398,1
283,280,26,0.0949827026372917,1
284,277,26,0.1816102268655,1
284,278,26,0.167420997921692,1
284,279,26,0.143757620148936,1
284,280,26,0.105742426620232,1
284,281,26,0.0763452447712515,1
285,278,26,0.160115206196976,1
285,279,26,0.137582032342242,1
285,280,26,0.113204965962501,1
285,281,26,0.0912079900535716,1
285,282,26,0.0707558842954139,1
286,279,26,0.135174699248112,1
286,280,26,0.118145230445761,1
286,281,26,0.10152314278577,1
286,282,26,0.0821042199470001,1
287,281,26,0.102028316534619,1
287,282,26,0.0846826066854218,1
287,283,26,0.0735414512189235,1
288,283,26,0.0747891480737442,1
270,283,27,0.0977980772588841,1
270,284,27,0.0897207541436593,1
270,285,27,0.0892707051722807,1
270,286,27,0.091388532389067,1
270,287,27,0.0937442303196342,1
270,289,27,0.0949134108615248,1
270,290,27,0.109543700587901,1
270,291,27,0.130121627086567,1
270,292,27,0.10167321703808,1
271,281,27,0.112860585558882,1
271,282,27,0.101198740769346,1
271,283,27,0.0888371519256107,1
271,284,27,0.0799991972497727,1
271,285,27,0.0799856836851568,1
271,286,27,0.0871110721028197,1
271,287,27,0.0935982365521124,1
271,288,27,0.0930332388644335,1
271,289,27,0.0960063343026767,1
271,290,27,0.137283454859022,1
271,291,27,0.181863870356089,1
271,292,27,0.136938678224342,1
271,293,27,0.0781821789227097,1
272,280,27,0.125068499313644,1
272,281,27,0.104306631234063,1
272,282,27,0.0919140181933732,1
272,283,27,0.0787100768704942,1
272,286,27,0.0781011948549244,1
272,289,27,0.0879902879735058,1
272,290,27,0.116188370359759,1
272,291,27,0.150547435614816,1
272,292,27,0.113087799742542,1
273,279,27,0.152097561040716,1
273,280,27,0.111147859417998,1
273,281,27,0.0949016838123957,1
273,282,27,0.0824040278319371,1
273,283,27,0.0709093091331899,1
273,287,27,0.0726126856113125,1
273,288,27,0.0727954384990445,1
273,290,27,0.0728853412414194,1
273,291,27,0.0825288962276134,1
274,279,27,0.131038644790782,1
274,280,27,0.100627952547034,1
274,281,27,0.0851472884003788,1
274,282,27,0.0731465409278603,1
274,300,27,0.0719943635644935,1
274,301,27,0.0759901035661796,1
274,302,27,0.0781206796911478,1
275,279,27,0.120688283105508,1
275,280,27,0.0905559397065899,1
275,281,27,0.074749879490146,1
275,301,27,0.0740106791639519,1
275,302,27,0.0803648559565235,1
275,303,27,0.0857451037519217,1
276,279,27,0.111695520258891,1
276,280,27,0.0820828582268023,1
276,302,27,0.078915769451247,1
276,303,27,0.0884351372811331,1
276,304,27,0.097592203941156,1
277,278,27,0.149542732671884,1
277,279,27,0.104216867520131,1
277,280,27,0.0780656313793201,1
277,302,27,0.0742489461087941,1
277,303,27,0.0869099118492941,1
277,304,27,0.0984304967897777,1
277,305,27,0.114185199899544,1
278,277,27,0.178057813809995,1
278,278,27,0.137588928152993,1
278,279,27,0.100685433856607,1
278,280,27,0.075672319303621,1
278,303,27,0.08555026234111,1
278,304,27,0.100029601935988,1
279,275,27,0.174433689883823,1
279,276,27,0.171068270083548,1
279,277,27,0.162994707687695,1
279,278,27,0.135355547446181,1
279,279,27,0.100552341928554,1
279,280,27,0.0740312206163387,1
279,303,27,0.0859950977458929,1
279,304,27,0.103215654191107,1
280,275,27,0.176716133728011,1
280,276,27,0.164067270413435,1
280,277,27,0.157641417507307,1
280,278,27,0.138747521678983,1
280,279,27,0.105969376649851,1
280,280,27,0.0762101508336257,1
280,303,27,0.0884135878725378,1
280,304,27,0.105752853753423,1
281,276,27,0.172831136832238,1
281,277,27,0.159540212364278,1
281,278,27,0.145581826246479,1
281,279,27,0.116973053840933,1
281,280,27,0.0834444819388706,1
281,302,27,0.0710668075043327,1
281,303,27,0.0912511027736063,1
282,277,27,0.170029505172192,1
282,278,27,0.15639196889411,1
282,279,27,0.131777275100362,1
282,280,27,0.0944330189325596,1
282,302,27,0.0781796972650102,1
283,278,27,0.168007711852097,1
283,279,27,0.145499952396661,1
283,280,27,0.107662277334827,1
283,281,27,0.0780234362470062,1
283,301,27,0.0703354692365648,1
284,278,27,0.16977928178129,1
284,279,27,0.150200059148261,1
284,280,27,0.119176501724064,1
284,281,27,0.0934417878457109,1
284,282,27,0.0706051009980463,1
284,300,27,0.0724344024880085,1
285,279,27,0.145910183622094,1
285,280,27,0.125703386599393,1
285,281,27,0.107652413266828,1
285,282,27,0.0850245262856071,1
285,299,27,0.0736678697817342,1
286,280,27,0.127100288778759,1
286,281,27,0.112887835133622,1
286,282,27,0.0939883364590635,1
286,283,27,0.077352436323305,1
286,298,27,0.0760534310217612,1
287,282,27,0.0937606287244329,1
287,283,27,0.082514103601326,1
287,284,27,0.075530781397683,1
287,285,27,0.0705610428846022,1
287,297,27,0.0753261384816715,1
288,285,27,0.0754271356937619,1
288,286,27,0.0745313337298795,1
288,287,27,0.0750616577239865,1
288,288,27,0.0706398094487289,1
271,283,28,0.0924102524133669,1
271,284,28,0.0812734276828541,1
271,285,28,0.0806432395584635,1
271,290,28,0.137840819885205,1
272,283,28,0.0837337028079074,1
272,284,28,0.0732597587400508,1
272,285,28,0.0716926579413158,1
272,290,28,0.111215635783741,1
272,291,28,0.144082613036241,1
272,292,28,0.109560745474958,1
273,281,28,0.105766923431809,1
273,282,28,0.0902306548595557,1
273,283,28,0.0768637930562745,1
273,286,28,0.0715280691196029,1
273,289,28,0.0705961197606575,1
273,290,28,0.0703768580039119,1
273,291,28,0.0788978000250474,1
274,280,28,0.110415659173886,1
274,281,28,0.0934366994047136,1
274,282,28,0.0790769242704288,1
274,283,28,0.0705230811683639,1
274,300,28,0.0774488247425249,1
275,280,28,0.0991297681472714,1
275,281,28,0.0814539352612389,1
275,282,28,0.0699234375928015,1
275,300,28,0.071231750848574,1
275,301,28,0.0792016049777076,1
275,302,28,0.0831056904786427,1
276,280,28,0.0919019366217156,1
276,281,28,0.0749812853813484,1
276,301,28,0.0700837165327953,1
276,302,28,0.0791383122792367,1
276,303,28,0.0853161314924336,1
277,279,28,0.115107326899023,1
277,280,28,0.087814847981852,1
277,281,28,0.0718169493689555,1
277,302,28,0.0741783544170893,1
277,303,28,0.084501118956517,1
277,304,28,0.0959281725122751,1
277,305,28,0.113740169854941,1
278,277,28,0.178906429520476,1
278,279,28,0.11005743153739,1
278,280,28,0.0838160285001634,1
278,302,28,0.0701273297552232,1
278,303,28,0.0850408968847174,1
278,304,28,0.103304681054294,1
279,275,28,0.175243335921858,1
279,276,28,0.170809134969479,1
279,277,28,0.166576469647422,1
279,278,28,0.143901139210181,1
279,279,28,0.109754446852541,1
279,280,28,0.0809765602494771,1
279,303,28,0.0864191066899819,1
279,304,28,0.108627141677546,1
280,276,28,0.165781824778339,1
280,277,28,0.161849307960902,1
280,278,28,0.147336587636968,1
280,279,28,0.115838894563721,1
280,280,28,0.0836557356573254,1
280,302,28,0.0706365631345953,1
280,303,28,0.089917069255962,1
281,277,28,0.167407261911568,1
281,278,28,0.154259578447967,1
281,279,28,0.126600829098898,1
281,280,28,0.0922887554574225,1
281,302,28,0.0771343493568989,1
281,303,28,0.0954345798326898,1
282,278,28,0.16537105134198,1
282,279,28,0.138705701923464,1
282,280,28,0.104133506065978,1
282,281,28,0.0772933005752663,1
282,302,28,0.0877977474834184,1
283,279,28,0.149192102939773,1
283,280,28,0.117899122296759,1
283,281,28,0.0914805205580802,1
283,301,28,0.0944343605570303,1
283,302,28,0.111887873060581,1
284,279,28,0.157280263322095,1
284,280,28,0.131386591273952,1
284,281,28,0.109866017177687,1
284,282,28,0.0844672377250676,1
284,300,28,0.11373376064374,1
284,301,28,0.166370540718317,1
284,302,28,0.166789544638474,1
285,280,28,0.138106767392959,1
285,281,28,0.120948738989782,1
285,282,28,0.0983083603029975,1
285,283,28,0.0771135437504713,1
285,299,28,0.0855895031190197,1
285,300,28,0.155694449294992,1
285,301,28,0.213116755196271,1
286,281,28,0.120597998034916,1
286,282,28,0.103328392355171,1
286,283,28,0.0874868868372987,1
286,284,28,0.0767859162741801,1
286,297,28,0.070173174384154,1
286,298,28,0.0878885400078256,1
286,299,28,0.10748754638823,1
286,300,28,0.157017958359536,1
287,283,28,0.0907195831348934,1
287,284,28,0.0830867548047674,1
287,285,28,0.0772450716085457,1
287,286,28,0.0713348821472576,1
287,296,28,0.0732770052183492,1
287,297,28,0.0852466450768471,1
288,286,28,0.0819816941805808,1
288,287,28,0.0861240118692474,1
288,288,28,0.0852442329333689,1
288,289,28,0.0796722579642721,1
288,290,28,0.0777166560856753,1
288,291,28,0.0754886627310124,1
288,292,28,0.0708586054601919,1
289,288,28,0.0970701173822702,1
289,289,28,0.0970825812821448,1
278,305,29,0.119413712052743,1
279,276,29,0.171534001463247,1
279,277,29,0.167320883540211,1
279,304,29,0.110429673240895,1
280,303,29,0.0911516001172733,1
281,278,29,0.161542625119481,1
281,302,29,0.0816464479456379,1
281,303,29,0.0986904799773461,1
282,279,29,0.138884005901034,1
282,301,29,0.072731075281566,1
282,302,29,0.0934826691592427,1
283,279,29,0.149358005580268,1
283,280,29,0.124566759567326,1
283,300,29,0.0831991314948805,1
283,301,29,0.126844671084286,1
284,280,29,0.138418983566393,1
284,281,29,0.118299885685253,1
284,282,29,0.0960629327816388,1
284,299,29,0.0755629247736005,1
284,300,29,0.154156544469193,1
284,301,29,0.249991825127578,1
285,281,29,0.123233157037853,1
285,282,29,0.10544211128148,1
285,283,29,0.0883486685412891,1
285,298,29,0.0779759858395638,1
285,299,29,0.104670531231016,1
285,300,29,0.205163633140199,1
286,282,29,0.106916299372059,1
286,283,29,0.0938069877586012,1
286,284,29,0.083518048839246,1
286,285,29,0.0763886216453271,1
286,297,29,0.0847679910034139,1
286,298,29,0.102184640115423,1
286,299,29,0.122731723154108,1
287,284,29,0.0874123119807149,1
287,285,29,0.0813302555587464,1
287,286,29,0.0752958928439947,1
287,287,29,0.0758372487450181,1
287,288,29,0.0739434102520241,1
287,295,29,0.0735881856298867,1
287,296,29,0.0859924214483739,1
287,297,29,0.0992862307565172,1
287,298,29,0.111822689575291,1
288,288,29,0.0967076771839644,1
288,291,29,0.0999738237248367,1
288,292,29,0.0898582810790298,1
288,296,29,0.0945216426132631,1
283,300,30,0.102225305934868,1
284,300,30,0.177740550904096,1
285,282,30,0.110215159305463,1
285,299,30,0.120969106656615,1
286,285,30,0.0843947691493884,1
286,286,30,0.0755319075280676,1
286,298,30,0.121897510790275,1
287,288,30,0.0908674607378117,1
287,296,30,0.103976466488695,1
284,282,31,0.107348274645906,1
