x,y,z,signal,cytoplasm.p
904,717,27,0.101019665183919,1
907,715,27,0.070879654366394,1
902,716,28,0.0968179684474394,1
902,717,28,0.135974237918373,1
902,718,28,0.0969889595289316,1
903,716,28,0.0993197296597496,1
903,717,28,0.141637492011426,1
903,718,28,0.0992662801750112,1
904,717,28,0.0778161448391641,1
901,717,29,0.0765545173343999,1
902,716,29,0.0771177215551699,1
902,717,29,0.0998635116070954,1
902,718,29,0.0798580486234738,1
903,716,29,0.0748629374196277,1
903,717,29,0.0966953801182209,1
903,718,29,0.0760752723900858,1
899,728,30,0.0820033756661965,1
900,728,30,0.0767578047230965,1
904,726,31,0.0714279338838563,1
904,727,31,0.0729292811806874,1
905,727,31,0.069908311298252,1
936,716,31,0.0767819122550347,1
937,717,31,0.0773252979713192,1
904,726,32,0.0783518978939527,1
904,727,32,0.0789703867749027,1
905,726,32,0.0708492627488526,1
903,726,33,0.0741206089534762,1
903,727,33,0.0715621380394498,1
904,726,33,0.0754140600687401,1
904,727,33,0.0723893086126674,1
937,716,33,0.0706186006598179,1
903,726,34,0.0722297734748413,1
904,736,36,0.0762072659934428,1
904,737,36,0.0762041448049075,1
906,726,36,0.0736097628441705,1
903,736,37,0.0713540472180631,1
903,737,37,0.072925006056079,1
904,736,37,0.0926082845269351,1
904,737,37,0.0975971324994444,1
905,736,37,0.0709373511700522,1
905,737,37,0.0752651953638797,1
906,726,37,0.0757718636684868,1
903,737,38,0.0775226836026296,1
904,736,38,0.0864813427722894,1
904,737,38,0.0994587928594102,1
904,738,38,0.0721650765891007,1
905,737,38,0.0704086885658338,1
903,737,39,0.0700063958644711,1
904,737,39,0.0794954554938813,1
904,738,39,0.070292627621993,1
903,739,40,0.0707996295948622,1
916,708,45,0.0722225996072057,1
917,708,45,0.0701659240508751,1
897,707,46,0.0751506845871734,1
916,707,46,0.072721315484899,1
916,708,46,0.0804235537649681,1
916,709,46,0.0801602756033111,1
917,707,46,0.0706565067646791,1
917,708,46,0.0748951503097665,1
917,709,46,0.0764520742265069,1
917,710,46,0.0738649425990489,1
921,706,46,0.0699460783746707,1
897,707,47,0.074353238294973,1
909,701,47,0.0699070947993797,1
910,701,47,0.0719558526859072,1
910,702,47,0.0700512672943041,1
915,708,47,0.0733331866119836,1
915,709,47,0.0733341181025487,1
916,707,47,0.0744860035061861,1
916,708,47,0.0839187566163636,1
916,709,47,0.087350652866444,1
916,710,47,0.0811651870889068,1
917,707,47,0.0707438235780227,1
917,708,47,0.0766516495557874,1
917,709,47,0.0831390086448998,1
917,710,47,0.086617243074882,1
917,711,47,0.0726597050305829,1
918,709,47,0.069817205959849,1
918,710,47,0.0737100718654703,1
909,701,48,0.0729760712030276,1
909,702,48,0.0721352549881737,1
910,701,48,0.0777060899240415,1
910,702,48,0.0808476322232783,1
910,703,48,0.0725418506198333,1
911,701,48,0.0720973836404231,1
911,702,48,0.0759635977936075,1
915,708,48,0.0749030193196148,1
915,709,48,0.0758538974010134,1
916,707,48,0.0731899734133129,1
916,708,48,0.0819851976973331,1
916,709,48,0.0875937997096196,1
916,710,48,0.0849357357707726,1
917,707,48,0.070807088470805,1
917,708,48,0.0779459487445509,1
917,709,48,0.0877553229541742,1
917,710,48,0.0928619141146791,1
917,711,48,0.0763387104344516,1
918,708,48,0.070589223949907,1
918,709,48,0.0757703135013524,1
918,710,48,0.0792751857809272,1
922,710,48,0.0709754727689995,1
922,711,48,0.0699396900177356,1
923,710,48,0.0740634543607439,1
923,711,48,0.0726327682698389,1
924,708,48,0.0707078638713571,1
925,709,48,0.0698062644214203,1
926,713,48,0.0711377884756766,1
909,701,49,0.0744175041925417,1
909,702,49,0.0776287344986067,1
909,703,49,0.070010045361088,1
910,700,49,0.0697472746532464,1
910,701,49,0.0793719773826305,1
910,702,49,0.0876896389664915,1
910,703,49,0.08062800204116,1
911,701,49,0.0720239349142239,1
911,702,49,0.0788111714024945,1
911,703,49,0.0762626410221104,1
915,708,49,0.0701295125017712,1
915,709,49,0.0707504204776216,1
916,708,49,0.0749526177164945,1
916,709,49,0.0802132037313899,1
916,710,49,0.0780840248422695,1
917,707,49,0.0708689630791619,1
917,708,49,0.076389594844425,1
917,709,49,0.086594067033509,1
917,710,49,0.0881763636410148,1
917,711,49,0.07302995862736,1
918,708,49,0.0717272482178222,1
918,709,49,0.0799412780006064,1
918,710,49,0.0820838453287444,1
918,711,49,0.0709299965654414,1
919,709,49,0.070991315060028,1
919,710,49,0.0738279957904412,1
920,710,49,0.0703791797789025,1
920,711,49,0.071374213293655,1
921,711,49,0.0703053139673757,1
922,710,49,0.0726187472514077,1
922,711,49,0.0723088250472752,1
923,708,49,0.0722177475145607,1
923,709,49,0.0726116081408827,1
923,710,49,0.0748846467109318,1
923,711,49,0.0733781206046158,1
924,709,49,0.0737525172489808,1
924,710,49,0.0708077697101735,1
926,713,49,0.0711842795868653,1
926,714,49,0.0709040886151722,1
909,701,50,0.0733187276539584,1
909,702,50,0.0789818427185688,1
909,703,50,0.0743609613249566,1
910,701,50,0.07688263141024,1
910,702,50,0.0871737044161884,1
910,703,50,0.0849911455565509,1
910,704,50,0.0722250882163274,1
911,702,50,0.0766873590112564,1
911,703,50,0.077977793209317,1
911,704,50,0.0718091498733284,1
912,703,50,0.073468308355298,1
916,708,50,0.0711648712162853,1
916,709,50,0.0754046339403352,1
916,710,50,0.0733863163313041,1
917,707,50,0.072457981711865,1
917,708,50,0.0759910628624332,1
917,709,50,0.0850366356629532,1
917,710,50,0.0851933485233956,1
917,711,50,0.0729314291701248,1
918,707,50,0.0734027633960578,1
918,708,50,0.0742678122684481,1
918,709,50,0.0842742731982303,1
918,710,50,0.0884821914575141,1
918,711,50,0.0775693484993715,1
919,707,50,0.0744780302250059,1
919,708,50,0.0711521570652141,1
919,709,50,0.0761657729547637,1
919,710,50,0.0825942882555668,1
919,711,50,0.0784275085124335,1
920,707,50,0.0760970164385006,1
920,708,50,0.0701050017873497,1
920,709,50,0.0697362218920637,1
920,710,50,0.0752160696637047,1
920,711,50,0.0773160039199347,1
921,708,50,0.0698409937263693,1
921,710,50,0.0698610277249408,1
921,711,50,0.0723255084603812,1
922,708,50,0.0720289051810451,1
922,709,50,0.0709561061069522,1
922,710,50,0.0717150067634557,1
922,711,50,0.0723716102919308,1
923,709,50,0.0750635554622273,1
923,710,50,0.07261091299867,1
923,711,50,0.0711240524655526,1
925,713,50,0.0698874153233368,1
925,714,50,0.0712966076170236,1
926,714,50,0.0698825562792697,1
908,702,51,0.0701653818399491,1
909,701,51,0.0711563070642242,1
909,702,51,0.0766723925994159,1
909,703,51,0.0760643308516571,1
910,701,51,0.0718603123401868,1
910,702,51,0.0796123158512667,1
910,703,51,0.0818019234529415,1
910,704,51,0.0745515276111599,1
911,702,51,0.0722393664373773,1
911,703,51,0.0755425849124555,1
911,704,51,0.0729014268322225,1
916,708,51,0.0701573738016582,1
916,709,51,0.0727127235271494,1
916,710,51,0.0706887891690392,1
917,707,51,0.0754723825003898,1
917,708,51,0.0749919627657362,1
917,709,51,0.0807007069651915,1
917,710,51,0.0822731673103869,1
917,711,51,0.0740734713600296,1
918,707,51,0.0797551606245647,1
918,708,51,0.0771445123360493,1
918,709,51,0.083969321260919,1
918,710,51,0.0903571359851656,1
918,711,51,0.0826474388291536,1
919,707,51,0.0803900687645799,1
919,708,51,0.075754429501791,1
919,709,51,0.0778767751429602,1
919,710,51,0.0843552364117493,1
919,711,51,0.0808653027383265,1
920,708,51,0.0744904941248805,1
920,709,51,0.0724744287766187,1
920,710,51,0.0755816310505456,1
920,711,51,0.0758113616490152,1
920,730,51,0.0699541350729165,1
921,708,51,0.0734439158150526,1
921,709,51,0.0703473492169807,1
921,710,51,0.0697845829358047,1
921,711,51,0.0703610643728382,1
922,709,51,0.0739145827044613,1
922,710,51,0.0719890874350987,1
922,711,51,0.0708176407295946,1
923,711,51,0.073047462308277,1
925,714,51,0.0709806446270623,1
908,702,52,0.0722036778361747,1
908,703,52,0.0732189538921624,1
909,702,52,0.0739898248975694,1
909,703,52,0.0763842631036531,1
909,704,52,0.0711311637703891,1
910,702,52,0.0732817043797074,1
910,703,52,0.07663074662945,1
910,704,52,0.0739434102520241,1
911,703,52,0.0720427107053903,1
911,704,52,0.0714881471023247,1
913,706,52,0.0719617752975598,1
916,708,52,0.073086883823162,1
916,709,52,0.0751079333410893,1
916,710,52,0.0743338438272372,1
917,708,52,0.0778905181045062,1
917,709,52,0.0805836658708308,1
917,710,52,0.0839298232803906,1
917,711,52,0.0789765040263749,1
918,708,52,0.0825716266194311,1
918,709,52,0.0838576744701292,1
918,710,52,0.0892193828227134,1
918,711,52,0.085464773751786,1
918,712,52,0.0724115879205861,1
919,708,52,0.0816711115913462,1
919,709,52,0.0799007442581809,1
919,710,52,0.0827952538692728,1
919,711,52,0.0806485921535016,1
919,712,52,0.0723714712634883,1
920,708,52,0.0790946086883211,1
920,709,52,0.0759900618576469,1
920,710,52,0.0754428041992373,1
920,711,52,0.0739062688035969,1
920,729,52,0.0716677788015214,1
921,709,52,0.0729913226231753,1
921,710,52,0.0704429799311887,1
922,709,52,0.0760678274169872,1
922,710,52,0.0754759972398961,1
922,711,52,0.071875424731892,1
923,711,52,0.0841189714764798,1
923,712,52,0.0697837904736821,1
924,712,52,0.0737548807325042,1
924,713,52,0.0722964237101998,1
924,714,52,0.0755817700789882,1
924,715,52,0.0708343588998112,1
925,713,52,0.0715558052938917,1
925,714,52,0.0734995271920726,1
926,713,52,0.0697371186255181,1
926,725,52,0.07831042570954,1
927,725,52,0.0724392754349199,1
929,718,52,0.0743136360431126,1
929,719,52,0.0763978948424452,1
930,718,52,0.071800078267452,1
930,719,52,0.0718225035552353,1
902,705,53,0.0704187681279186,1
904,702,53,0.0752421235938385,1
905,701,53,0.0699075605446623,1
905,702,53,0.0767767751540824,1
905,703,53,0.071568310902299,1
906,702,53,0.0727385828174637,1
906,703,53,0.0707649072413354,1
906,704,53,0.0702963535842533,1
906,705,53,0.0707947914050615,1
907,702,53,0.0735340896628905,1
907,703,53,0.0739976313446186,1
907,704,53,0.072795083976516,1
908,702,53,0.0741756155567711,1
908,703,53,0.0769539599526903,1
908,704,53,0.0752405039124828,1
909,702,53,0.0699147205094536,1
909,703,53,0.0746602965131889,1
909,704,53,0.0749385341352642,1
910,703,53,0.0710199757734597,1
910,704,53,0.0724334779488656,1
911,704,53,0.0704957829336692,1
913,706,53,0.0757934825913033,1
913,707,53,0.0699399263660879,1
914,707,53,0.0723388273851775,1
915,708,53,0.0701687393768367,1
915,731,53,0.0723932361661695,1
916,708,53,0.075249617226892,1
916,709,53,0.0771812506019932,1
916,710,53,0.0782542651701719,1
916,711,53,0.0726876358446912,1
916,731,53,0.0723159502549559,1
917,708,53,0.080877655415447,1
917,709,53,0.0816905338647705,1
917,710,53,0.0846235056944938,1
917,711,53,0.0814027797458026,1
918,708,53,0.0876983838555279,1
918,709,53,0.0851583967729385,1
918,710,53,0.0859119378829817,1
918,711,53,0.084038779870817,1
918,712,53,0.0756207606057013,1
919,709,53,0.0827188160315588,1
919,710,53,0.0801644395051655,1
919,711,53,0.0783011386095777,1
919,712,53,0.0741879821367359,1
920,709,53,0.0786858164072693,1
920,710,53,0.0750337060556118,1
920,711,53,0.0725142604254092,1
921,710,53,0.0734204547653723,1
921,711,53,0.0707237895794512,1
922,711,53,0.0795070921745227,1
922,712,53,0.071315112302727,1
923,712,53,0.0828595406211079,1
923,713,53,0.0756150256824461,1
923,714,53,0.0765292558663885,1
924,713,53,0.0772944753656059,1
924,714,53,0.0783189342502241,1
924,715,53,0.0714404325408416,1
925,713,53,0.0746694376332866,1
925,714,53,0.0735039065880129,1
925,725,53,0.0726808304024284,1
926,724,53,0.0837976419886362,1
926,725,53,0.0993384150824283,1
926,726,53,0.0757835490090831,1
927,724,53,0.0780245901830793,1
927,725,53,0.0919769355150492,1
927,726,53,0.0712511661705761,1
928,718,53,0.080116975194879,1
928,719,53,0.0827907076392014,1
929,717,53,0.0719188294116561,1
929,718,53,0.0885254571088357,1
929,719,53,0.0925959109955482,1
929,720,53,0.0705798256271907,1
901,705,54,0.07489130617333,1
902,704,54,0.070278126955435,1
902,705,54,0.0766041087798575,1
902,706,54,0.0706287219304355,1
903,705,54,0.0731073071013726,1
904,701,54,0.0716747232722268,1
904,702,54,0.0789927286456205,1
904,703,54,0.0747797497510279,1
904,705,54,0.074170374184487,1
905,701,54,0.0733860104687305,1
905,702,54,0.0799002785128984,1
905,703,54,0.0757880048706669,1
905,704,54,0.0758282188476744,1
905,705,54,0.0775946794816041,1
905,706,54,0.0743504229690113,1
906,701,54,0.0733371002626414,1
906,702,54,0.0787878354784124,1
906,703,54,0.0780060785459538,1
906,704,54,0.0805700966948379,1
906,705,54,0.0805918685489412,1
906,706,54,0.075999988488445,1
907,701,54,0.0745411004779687,1
907,702,54,0.0824840804091574,1
907,703,54,0.0861047703327985,1
907,704,54,0.0884275463281698,1
907,705,54,0.080869313708894,1
908,702,54,0.0781107669631939,1
908,703,54,0.0867642934585672,1
908,704,54,0.0915511052983628,1
908,705,54,0.0809265169615812,1
909,703,54,0.0772851535085329,1
909,704,54,0.0835877368460742,1
909,705,54,0.0760436364679835,1
910,704,54,0.072512286221525,1
912,706,54,0.0708942036929069,1
913,707,54,0.0728345819570444,1
914,707,54,0.0755203890216024,1
914,708,54,0.0719911242017821,1
915,708,54,0.0737442520080712,1
915,709,54,0.0721231942707825,1
915,731,54,0.0980121324004562,1
915,732,54,0.0927886530768774,1
916,708,54,0.0791667922556931,1
916,709,54,0.080481181054405,1
916,710,54,0.0809853468470463,1
916,711,54,0.0756681623531887,1
916,731,54,0.0895903732702359,1
917,709,54,0.0873762062941846,1
917,710,54,0.0862338651931283,1
917,711,54,0.0818842004852426,1
917,712,54,0.0730938978080887,1
918,709,54,0.0925835652698498,1
918,710,54,0.0864564844867615,1
918,711,54,0.0817151766562125,1
918,712,54,0.0771843578876841,1
918,713,54,0.0721732097529898,1
919,710,54,0.08185275920296,1
919,711,54,0.0771229212189213,1
919,712,54,0.0749412868984267,1
919,713,54,0.0733769458142762,1
920,710,54,0.0761730024337763,1
920,711,54,0.0727987821330878,1
920,712,54,0.0701864655032618,1
921,711,54,0.0731692998839057,1
921,712,54,0.0709030111447424,1
922,712,54,0.0781262408288498,1
922,713,54,0.0749157612763745,1
922,714,54,0.0738424269427779,1
923,713,54,0.08301024050141,1
923,714,54,0.0824341691982819,1
923,715,54,0.0733445243814736,1
924,713,54,0.0829720146311309,1
924,714,54,0.0800687531795805,1
924,715,54,0.0732698452535579,1
925,713,54,0.0792730586457562,1
925,714,54,0.0747504008468056,1
925,715,54,0.0704057481142738,1
925,724,54,0.0732619553894431,1
925,725,54,0.0786810546831119,1
926,714,54,0.0701142054702465,1
926,724,54,0.0944911258701234,1
926,725,54,0.106130044869483,1
926,726,54,0.0797413342459531,1
927,718,54,0.0763737942619291,1
927,719,54,0.0730936684111585,1
927,724,54,0.0859489889629212,1
927,725,54,0.0969725333184443,1
927,726,54,0.0747843585438984,1
928,717,54,0.0772965746950884,1
928,718,54,0.0931237950404884,1
928,719,54,0.0932370267555233,1
928,720,54,0.070037142004541,1
900,705,55,0.0718305741563254,1
901,704,55,0.0706800373285807,1
901,705,55,0.0804277524239331,1
901,706,55,0.0730971719279108,1
902,704,55,0.0711731017000843,1
902,705,55,0.0778197665300925,1
902,706,55,0.0718078360545463,1
903,704,55,0.0726202626614315,1
903,705,55,0.0761033561354809,1
903,706,55,0.0703222962916332,1
904,701,55,0.071527582520054,1
904,702,55,0.0758256120643766,1
904,703,55,0.076573167999968,1
904,704,55,0.0792663088148704,1
904,705,55,0.0825639244437138,1
904,706,55,0.0758295535207229,1
905,701,55,0.0714847478569044,1
905,702,55,0.0761963105521698,1
905,703,55,0.0789288311734245,1
905,704,55,0.084294536593732,1
905,705,55,0.088970799967434,1
905,706,55,0.0820372221405353,1
906,701,55,0.0728040582624826,1
906,702,55,0.0787130798848533,1
906,703,55,0.0850721991385575,1
906,704,55,0.0910307496435867,1
906,705,55,0.0927544381771658,1
906,706,55,0.0828694394462175,1
907,701,55,0.0726578698551413,1
907,702,55,0.0818301114696686,1
907,703,55,0.0945152334020616,1
907,704,55,0.101346979846215,1
907,705,55,0.0942281674738843,1
907,706,55,0.0757337420695396,1
908,702,55,0.0755518859152621,1
908,703,55,0.0929193815214071,1
908,704,55,0.10370943455909,1
908,705,55,0.0939583202183169,1
908,706,55,0.0709267015913529,1
909,703,55,0.0779125054526955,1
909,704,55,0.0882090978878132,1
909,705,55,0.0827335878035797,1
910,704,55,0.0724743453595531,1
910,705,55,0.0717821088412524,1
912,707,55,0.070480670541964,1
912,708,55,0.0714368873155565,1
913,707,55,0.0737331505869336,1
913,708,55,0.0722038168646172,1
914,708,55,0.0751093166740926,1
914,709,55,0.0706562565134825,1
914,731,55,0.0807053644180169,1
914,732,55,0.0772168349318638,1
915,708,55,0.0772348460665962,1
915,709,55,0.0762734365806744,1
915,710,55,0.0731636831348267,1
915,731,55,0.105652176306751,1
915,732,55,0.104762067557591,1
916,709,55,0.0849563536888027,1
916,710,55,0.0829088609611025,1
916,711,55,0.0773486477982455,1
916,731,55,0.0893203383262711,1
916,732,55,0.0905755427169895,1
917,709,55,0.0940231769867665,1
917,710,55,0.088406942312984,1
917,711,55,0.0811769002351916,1
917,712,55,0.0750759289936143,1
917,713,55,0.0706684840650048,1
918,710,55,0.0892213431237533,1
918,711,55,0.0801177189970466,1
918,712,55,0.0767712557249132,1
918,713,55,0.0759814838027416,1
918,714,55,0.0720641905997643,1
919,710,55,0.0853234652427781,1
919,711,55,0.0770653634437056,1
919,712,55,0.0751183118143256,1
919,713,55,0.0758999505726081,1
919,714,55,0.0739324687135954,1
920,711,55,0.0751072173446101,1
920,712,55,0.0740061676909912,1
920,713,55,0.0748025156584954,1
920,714,55,0.0733260335986144,1
921,712,55,0.0781924878817248,1
921,713,55,0.077594512647473,1
921,714,55,0.0758506510868799,1
921,715,55,0.0700405968613384,1
922,712,55,0.0867031974094886,1
922,713,55,0.081718638464432,1
922,714,55,0.0785435694562742,1
922,715,55,0.0722831812510469,1
923,713,55,0.0859109855381502,1
923,714,55,0.0810847869405801,1
923,715,55,0.0747554058707374,1
924,713,55,0.0852238513636911,1
924,714,55,0.0786237680133592,1
924,715,55,0.0737910420304114,1
924,716,55,0.0698039495978519,1
925,714,55,0.0766525254349755,1
925,715,55,0.0730517999956846,1
925,716,55,0.0701649160946666,1
925,725,55,0.0769463203397722,1
926,715,55,0.0722261239782244,1
926,716,55,0.0700220226614137,1
926,717,55,0.070258822856187,1
926,718,55,0.0698488210276849,1
926,724,55,0.0889440091865546,1
926,725,55,0.0939403229864288,1
926,726,55,0.0771904334306236,1
927,716,55,0.0730742669920006,1
927,717,55,0.0775257005198329,1
927,718,55,0.0838024037127935,1
927,719,55,0.0788393385649551,1
927,724,55,0.0803190599875475,1
927,725,55,0.0853533841636149,1
927,726,55,0.0712915886902475,1
900,705,56,0.075805077563412,1
901,704,56,0.0712960584546755,1
901,705,56,0.0793202448991577,1
901,706,56,0.0717949411664998,1
902,705,56,0.0751767385173073,1
902,706,56,0.0703826763442326,1
903,704,56,0.074822063057518,1
903,705,56,0.0775062226350317,1
903,706,56,0.0722979043631129,1
904,703,56,0.0768080287479677,1
904,704,56,0.0847270262728165,1
904,705,56,0.0889136314718574,1
904,706,56,0.0805596278531139,1
905,702,56,0.073437235498388,1
905,703,56,0.0809250224058238,1
905,704,56,0.0901258413167172,1
905,705,56,0.0953135138649173,1
905,706,56,0.085373126202457,1
906,701,56,0.07010163729904,1
906,702,56,0.077053337483425,1
906,703,56,0.0899439156482185,1
906,704,56,0.0984409934371902,1
906,705,56,0.0992381616725055,1
906,706,56,0.0844200931801989,1
907,702,56,0.0780544743468054,1
907,703,56,0.0992289718924529,1
907,704,56,0.110174472631751,1
907,705,56,0.102426069957333,1
907,706,56,0.0785606282461751,1
908,702,56,0.0711732059714162,1
908,703,56,0.0948642643070833,1
908,704,56,0.109461409652756,1
908,705,56,0.100758493303167,1
908,706,56,0.0749816120981883,1
909,703,56,0.075890892869576,1
909,704,56,0.0872313386570475,1
909,705,56,0.0847708827950189,1
909,706,56,0.0698497316639836,1
910,704,56,0.0708326488499678,1
910,705,56,0.0734314241094895,1
910,709,56,0.0725501158607429,1
911,707,56,0.0712196067141173,1
911,708,56,0.0858519193043328,1
911,709,56,0.0934242494076832,1
911,710,56,0.0719308692747809,1
912,707,56,0.0747089078081265,1
912,708,56,0.0848197165354646,1
912,709,56,0.088573672172712,1
912,710,56,0.0718253883954182,1
913,708,56,0.076228759790661,1
913,709,56,0.0735323518073586,1
914,708,56,0.0774097994587011,1
914,709,56,0.0743064274183664,1
914,710,56,0.0698314841808989,1
914,731,56,0.0860399483214596,1
915,709,56,0.0813724715453267,1
915,710,56,0.0782657002595717,1
915,711,56,0.0721094026492815,1
915,731,56,0.0946207420871128,1
915,732,56,0.0941193916204332,1
916,710,56,0.0861464302056086,1
916,711,56,0.0789842201049364,1
916,712,56,0.0732968237228347,1
916,713,56,0.0719158194458749,1
917,710,56,0.0927310396902847,1
917,711,56,0.0818290270478167,1
917,712,56,0.0766248657263302,1
917,713,56,0.0772102797407976,1
917,714,56,0.074379521622037,1
918,711,56,0.0805481927637142,1
918,712,56,0.0757688119941728,1
918,713,56,0.0783133244525672,1
918,714,56,0.0796508962440743,1
918,715,56,0.074802981403778,1
919,711,56,0.0780684397538596,1
919,712,56,0.0750903601459509,1
919,713,56,0.078574906467225,1
919,714,56,0.0810268468371474,1
919,715,56,0.0756908239893244,1
920,712,56,0.0782751889507757,1
920,713,56,0.082192482153753,1
920,714,56,0.0839198410382155,1
920,715,56,0.0770953032188088,1
921,713,56,0.0867941498166048,1
921,714,56,0.0859955009283763,1
921,715,56,0.079335093136822,1
922,713,56,0.0887250602438047,1
922,714,56,0.0834327965982743,1
922,715,56,0.0778587570568057,1
922,716,56,0.0706712298767452,1
923,714,56,0.0810806160873036,1
923,715,56,0.0763327739199548,1
923,716,56,0.0735117755978612,1
923,717,56,0.0724113307179673,1
923,718,56,0.0707034219126176,1
924,715,56,0.0755422720984597,1
924,716,56,0.075466557208647,1
924,717,56,0.0757125471834728,1
924,718,56,0.0727062865102593,1
925,716,56,0.0754986449731875,1
925,717,56,0.0752990765953291,1
925,718,56,0.0717309880829268,1
926,717,56,0.0759181493957379,1
926,718,56,0.0745033194987057,1
926,725,56,0.0792147779226392,1
927,725,56,0.0735945670353998,1
901,705,57,0.0725704626733101,1
902,705,57,0.0719757824131467,1
903,704,57,0.0759162029975422,1
903,705,57,0.0782841632367423,1
903,706,57,0.0732282409921248,1
904,703,57,0.0732163957688195,1
904,704,57,0.0847563682256167,1
904,705,57,0.0889007713409215,1
904,706,57,0.0806842390461715,1
905,703,57,0.0778774980908614,1
905,704,57,0.089130328153838,1
905,705,57,0.092687822698918,1
905,706,57,0.0835611893649692,1
906,702,57,0.0725051610138443,1
906,703,57,0.0866032220564509,1
906,704,57,0.0980502818050919,1
906,705,57,0.096571241621868,1
906,706,57,0.0830238305316692,1
907,702,57,0.0718906066378184,1
907,703,57,0.0933019321839277,1
907,704,57,0.108398203541199,1
907,705,57,0.100677314595562,1
907,706,57,0.0805774165423382,1
908,703,57,0.08572353348906,1
908,704,57,0.100896638915107,1
908,705,57,0.0948533158172325,1
908,706,57,0.0770743446810943,1
909,704,57,0.0787693099384427,1
909,705,57,0.0794335530798359,1
909,706,57,0.0724428137087828,1
910,707,57,0.0723600570283549,1
910,708,57,0.0825778968021901,1
910,709,57,0.0957912712048961,1
910,710,57,0.0709260690119393,1
911,707,57,0.0786555151582155,1
911,708,57,0.103454873480781,1
911,709,57,0.125513487649714,1
911,710,57,0.0928396556610269,1
912,708,57,0.0923572130625341,1
912,709,57,0.107051143058488,1
912,710,57,0.0832850163152658,1
913,708,57,0.0779756452198796,1
913,709,57,0.0795862410668665,1
913,710,57,0.0711838694529598,1
914,709,57,0.0768083346105413,1
914,710,57,0.0741888649673461,1
914,711,57,0.0714584575784182,1
915,710,57,0.0823004933507701,1
915,711,57,0.07693954965462,1
915,712,57,0.0712919501641981,1
916,711,57,0.0820658967568112,1
916,712,57,0.0768427997614494,1
916,713,57,0.0795596796829173,1
916,714,57,0.0786963478117924,1
917,711,57,0.0844218588414193,1
917,712,57,0.0773106791305851,1
917,713,57,0.0810903758839706,1
917,714,57,0.0834750195362767,1
917,715,57,0.0761464549526714,1
918,712,57,0.0764979188554378,1
918,713,57,0.0802952305124944,1
918,714,57,0.0855720063895248,1
918,715,57,0.0810718225383123,1
919,712,57,0.0787312926108274,1
919,713,57,0.0831439928145652,1
919,714,57,0.0879339536485846,1
919,715,57,0.0818659877592686,1
920,713,57,0.0908344553855503,1
920,714,57,0.0932588959295364,1
920,715,57,0.0845049213844208,1
920,716,57,0.0703698509704074,1
921,714,57,0.0938753828009137,1
921,715,57,0.0853370205159268,1
921,716,57,0.074820867412912,1
922,714,57,0.0877484897062229,1
922,715,57,0.0809055445210225,1
922,716,57,0.0758946952974797,1
922,717,57,0.0739602952563718,1
922,718,57,0.0713328523319964,1
923,716,57,0.0765127879473685,1
923,717,57,0.0776691570182781,1
923,718,57,0.0748059218553379,1
924,718,57,0.0754732583795779,1
903,704,58,0.0740878121438786,1
903,705,58,0.0765410941382717,1
903,706,58,0.0725090260045472,1
904,703,58,0.0705612027673111,1
904,704,58,0.0797872553405274,1
904,705,58,0.0831727299936403,1
904,706,58,0.0769918243490188,1
905,703,58,0.0746321571564168,1
905,704,58,0.0841236636864159,1
905,705,58,0.0855843243095347,1
905,706,58,0.0789508463273023,1
906,703,58,0.0802397929210276,1
906,704,58,0.0916003978326689,1
906,705,58,0.0887923291557325,1
906,706,58,0.0798535649562016,1
907,703,58,0.0836079446301988,1
907,704,58,0.0985926943222786,1
907,705,58,0.0925227403262341,1
907,706,58,0.080336209145936,1
908,704,58,0.0863852671670653,1
908,705,58,0.0843057561890458,1
908,706,58,0.0772921744448817,1
909,705,58,0.0741477194997734,1
909,707,58,0.0715304465059706,1
909,708,58,0.0698163370320831,1
909,709,58,0.0729094765790461,1
910,707,58,0.0770892763358242,1
910,708,58,0.0904139430067915,1
910,709,58,0.114186096632998,1
910,710,58,0.0935213190662716,1
911,708,58,0.110492757396702,1
911,709,58,0.144948635107729,1
911,710,58,0.1165074684411,1
911,711,58,0.076419256562643,1
912,709,58,0.113855973596163,1
912,710,58,0.0933145281608228,1
912,711,58,0.0724719262646528,1
913,709,58,0.0822320218428142,1
913,710,58,0.0755613537521997,1
913,711,58,0.0711163224841469,1
914,710,58,0.077207304532127,1
914,711,58,0.0763438405839817,1
914,712,58,0.0718084616825378,1
915,711,58,0.0810804492531726,1
915,712,58,0.0768504185201012,1
915,713,58,0.0761993900321723,1
915,714,58,0.073083171763746,1
916,712,58,0.0803038155188219,1
916,713,58,0.083866057885215,1
916,714,58,0.0861002241027271,1
916,715,58,0.0767486149430439,1
917,712,58,0.0790146047710557,1
917,713,58,0.0832110809895177,1
917,714,58,0.0896947627763246,1
917,715,58,0.0830665956805976,1
918,713,58,0.081258920064874,1
918,714,58,0.0884619211105903,1
918,715,58,0.0836946149612845,1
919,714,58,0.0910997007996694,1
919,715,58,0.0843246640572326,1
919,716,58,0.0712590838403793,1
920,716,58,0.0766347923571283,1
902,706,59,0.069817365842558,1
903,706,59,0.0715176141807232,1
904,704,59,0.0736690306692295,1
904,705,59,0.0759495698237542,1
904,706,59,0.0730894836550377,1
905,704,59,0.07680826509632,1
905,705,59,0.0779401373556523,1
905,706,59,0.0749934990300264,1
906,704,59,0.0803194770728752,1
906,705,59,0.0800036392085122,1
906,706,59,0.076687498039699,1
906,707,59,0.0698231563771902,1
907,704,59,0.0825721201704022,1
907,705,59,0.08203802155408,1
907,706,59,0.077998237341794,1
907,707,59,0.0711372879732834,1
908,705,59,0.075501668841813,1
908,707,59,0.0721450217362628,1
909,707,59,0.0759354445339911,1
909,708,59,0.075803443979212,1
909,709,59,0.0828663252091043,1
909,710,59,0.0803438835159648,1
910,708,59,0.0917680452801178,1
910,709,59,0.117284421940868,1
910,710,59,0.113287437634621,1
910,711,59,0.0846789015774278,1
911,708,59,0.103482331598184,1
911,709,59,0.134855865320812,1
911,710,59,0.126914393848225,1
911,711,59,0.0919166110738268,1
911,712,59,0.070252823778891,1
912,709,59,0.104156987969924,1
912,710,59,0.0976676338226616,1
912,711,59,0.0816904852048156,1
912,712,59,0.0717794464465776,1
913,710,59,0.0792925921419345,1
913,711,59,0.0775907310738357,1
913,712,59,0.0733619237910587,1
914,711,59,0.0799442671121212,1
914,712,59,0.0776486086144692,1
914,713,59,0.0745382017349415,1
915,713,59,0.0812062630422582,1
915,714,59,0.0787577914319774,1
915,715,59,0.0713790375806115,1
916,714,59,0.0897023259235993,1
916,715,59,0.0827459474321224,1
898,705,60,0.0711627371296922,1
899,705,60,0.069887429226181,1
899,706,60,0.0726545331725201,1
899,707,60,0.0703390283646941,1
900,706,60,0.0739499237345576,1
900,707,60,0.0739658355398074,1
900,708,60,0.0700906053921236,1
901,706,60,0.0738983580852158,1
901,707,60,0.0728546715669929,1
901,708,60,0.0699495054257796,1
902,705,60,0.0710547398355193,1
902,706,60,0.0743763656763912,1
902,707,60,0.0712791178389508,1
903,706,60,0.0713170447980784,1
904,706,60,0.0715433552968613,1
905,705,60,0.0753344384796917,1
905,706,60,0.0736245763247242,1
905,707,60,0.0700582534735422,1
906,705,60,0.0756571165434281,1
906,706,60,0.0756850612603807,1
906,707,60,0.0729218014504782,1
907,706,60,0.0767613082398488,1
907,707,60,0.0752183288758961,1
907,708,60,0.0704676088197864,1
908,707,60,0.076496674550877,1
908,708,60,0.0728928070687844,1
908,709,60,0.0727755991402926,1
908,710,60,0.07035930566304,1
909,707,60,0.0798564150392739,1
909,708,60,0.0789767612289936,1
909,709,60,0.0874583303951989,1
909,710,60,0.0930855761216314,1
909,711,60,0.081717658313912,1
910,708,60,0.089420487464862,1
910,709,60,0.110933839033537,1
910,710,60,0.121159075120515,1
910,711,60,0.100266443839294,1
910,712,60,0.0798898930882399,1
910,713,60,0.0707033106898636,1
911,709,60,0.115033885124246,1
911,710,60,0.122000308420697,1
911,711,60,0.100814646891113,1
911,712,60,0.0828301361055086,1
911,713,60,0.0768850991650953,1
911,714,60,0.0712519030213216,1
912,710,60,0.095595428789298,1
912,711,60,0.0884740304879365,1
912,712,60,0.0816986670286597,1
912,713,60,0.0799498769097781,1
912,714,60,0.0758539391095462,1
913,711,60,0.0835237698596569,1
913,712,60,0.0814337830884913,1
913,713,60,0.0792483393886708,1
913,714,60,0.0751310051111304,1
914,713,60,0.0807618725284914,1
914,714,60,0.0763710345473445,1
914,715,60,0.0708213388861664,1
896,733,61,0.0755153353377157,1
897,733,61,0.0868996167931232,1
898,706,61,0.0735784327846418,1
898,707,61,0.07205381907795,1
899,705,61,0.0713109275466062,1
899,706,61,0.079325444562909,1
899,707,61,0.081753916931729,1
899,708,61,0.0783116978197893,1
900,705,61,0.0728213673035801,1
900,706,61,0.0822867642920683,1
900,707,61,0.0843711343141549,1
900,708,61,0.081209196542396,1
900,709,61,0.070974576035545,1
901,705,61,0.0719631655819853,1
901,706,61,0.0796712082995309,1
901,707,61,0.0792183161965021,1
901,708,61,0.0752716254293476,1
902,705,61,0.0720542778718104,1
902,706,61,0.0764749096481958,1
902,707,61,0.0740852540205357,1
903,706,61,0.072889463434741,1
904,706,61,0.0746520104180129,1
904,707,61,0.0705625374403596,1
905,706,61,0.0750379255688432,1
905,707,61,0.0726841948907381,1
905,708,61,0.0709387692601663,1
906,706,61,0.0745202045030534,1
906,707,61,0.0742539233270374,1
906,708,61,0.0725502687920297,1
907,707,61,0.0764315327741202,1
907,708,61,0.0747375198616033,1
907,709,61,0.0722610826801036,1
908,707,61,0.0783668295486825,1
908,708,61,0.0775189159318365,1
908,709,61,0.0785805301677261,1
908,710,61,0.080417116748078,1
908,711,61,0.077541299511087,1
908,712,61,0.0722984813311495,1
909,708,61,0.0815560447008697,1
909,709,61,0.0879759610925011,1
909,710,61,0.0976218795622183,1
909,711,61,0.0933939134015188,1
909,712,61,0.0823524830368617,1
909,713,61,0.0738406751844018,1
910,709,61,0.0988285699779089,1
910,710,61,0.112742355771338,1
910,711,61,0.106381707204765,1
910,712,61,0.0919895662490549,1
910,713,61,0.0834199573216048,1
910,714,61,0.0754261624946641,1
911,710,61,0.105456987324833,1
911,711,61,0.100299588219998,1
911,712,61,0.0910442493053583,1
911,713,61,0.0873612815908769,1
911,714,61,0.0830244074997058,1
911,715,61,0.0703499142917457,1
912,711,61,0.0905328748879709,1
912,712,61,0.0895535376843823,1
912,713,61,0.0900274369850804,1
912,714,61,0.089159718766593,1
912,715,61,0.0766660876595463,1
913,713,61,0.0867408115546205,1
913,714,61,0.085598081173925,1
913,715,61,0.0766728583446984,1
914,715,61,0.0793747231943709,1
896,733,62,0.0784235601046651,1
897,733,62,0.089873393470735,1
898,706,62,0.0776092357595391,1
898,707,62,0.083478682935738,1
898,708,62,0.0802113129445712,1
899,705,62,0.0726497227884078,1
899,706,62,0.0866919569599084,1
899,707,62,0.0948234177506622,1
899,708,62,0.0914049864052428,1
899,709,62,0.074379243565152,1
900,705,62,0.0762432674086411,1
900,706,62,0.090006374176034,1
900,707,62,0.0950498255693548,1
900,708,62,0.0890407938368358,1
900,709,62,0.074689200526395,1
901,706,62,0.0817978151624642,1
901,707,62,0.0833335441931379,1
901,708,62,0.0772305917962541,1
902,706,62,0.0753802831086226,1
902,707,62,0.07431545731571,1
903,706,62,0.0740288154242826,1
903,707,62,0.0703221433603464,1
904,706,62,0.0777813460199938,1
904,707,62,0.0735930446739538,1
905,707,62,0.074868352577465,1
905,708,62,0.0739300913272278,1
906,707,62,0.0754476145833496,1
906,708,62,0.0759139229310844,1
906,709,62,0.0723220953121166,1
907,708,62,0.0802253756715352,1
907,709,62,0.0789610162578749,1
907,710,62,0.0779053385364821,1
907,711,62,0.0763691368091037,1
907,712,62,0.0722715445704055,1
908,708,62,0.083772227589338,1
908,709,62,0.0841507047184919,1
908,710,62,0.0870364277320146,1
908,711,62,0.0873951419680599,1
908,712,62,0.0815337097815741,1
908,713,62,0.0756750164554065,1
909,709,62,0.0878688674832048,1
909,710,62,0.0957396499441773,1
909,711,62,0.0988857176192191,1
909,712,62,0.091269350256691,1
909,713,62,0.0828142590573694,1
909,714,62,0.0738906628609206,1
910,710,62,0.0998006220911079,1
910,711,62,0.103561758547413,1
910,712,62,0.0967214062426662,1
910,713,62,0.0890624753224514,1
910,714,62,0.0810942825832063,1
910,715,62,0.0737562501626633,1
911,711,62,0.0965575195145883,1
911,712,62,0.094374974557795,1
911,713,62,0.091266736521971,1
911,714,62,0.0872189303685499,1
911,715,62,0.0777904871400915,1
912,713,62,0.0942413543216602,1
912,714,62,0.093447244712081,1
912,715,62,0.083007682378067,1
912,716,62,0.0724103366646031,1
913,715,62,0.0827901654282755,1
913,716,62,0.07448490518149,1
897,707,63,0.0731203479692838,1
897,708,63,0.0702982304682278,1
897,733,63,0.0731513165548618,1
898,706,63,0.0788747074007398,1
898,707,63,0.0884748577071696,1
898,708,63,0.0859995536074767,1
898,709,63,0.0709461377676214,1
899,705,63,0.0731939774324583,1
899,706,63,0.0884551573768603,1
899,707,63,0.0999168220633912,1
899,708,63,0.0948629991482561,1
899,709,63,0.077387930284688,1
900,705,63,0.0755967086851402,1
900,706,63,0.0898712037727648,1
900,707,63,0.0981955526247124,1
900,708,63,0.0900038369069575,1
900,709,63,0.0739579039671599,1
901,706,63,0.0788997811803537,1
901,707,63,0.0823348959388791,1
901,708,63,0.0760701630948221,1
902,706,63,0.0741289993199841,1
902,707,63,0.073116434318626,1
903,706,63,0.0752815312058793,1
903,707,63,0.0726679077086934,1
903,712,63,0.072494073495551,1
903,713,63,0.0731276678167841,1
904,707,63,0.0766407705801579,1
904,708,63,0.0737903399367765,1
904,712,63,0.0715500912249029,1
904,713,63,0.0720980092684145,1
905,707,63,0.0762974954526577,1
905,708,63,0.0768398454070452,1
905,709,63,0.0727929498899228,1
905,711,63,0.0698028304188894,1
906,708,63,0.0779689996603257,1
906,709,63,0.0783249541817865,1
906,710,63,0.0786642391929855,1
906,711,63,0.0778051615922027,1
906,712,63,0.0718283149441339,1
907,708,63,0.0849229312512137,1
907,709,63,0.0873077139319624,1
907,710,63,0.089563610295045,1
907,711,63,0.092072552326413,1
907,712,63,0.0863850794786678,1
907,713,63,0.0784082600245624,1
908,709,63,0.0900203743401988,1
908,710,63,0.0918739571476524,1
908,711,63,0.0999296613400607,1
908,712,63,0.0986468876091846,1
908,713,63,0.0879133496333987,1
908,714,63,0.0733142370352641,1
908,718,63,0.0725301235707042,1
909,710,63,0.0912109652622421,1
909,711,63,0.099957863259632,1
909,712,63,0.100214836481419,1
909,713,63,0.0899902121195876,1
909,714,63,0.0774041549039336,1
909,715,63,0.0734762955393225,1
909,718,63,0.0705252430606455,1
910,711,63,0.0954165130865805,1
910,712,63,0.0948841523257901,1
910,713,63,0.0888833788827585,1
910,714,63,0.082320659426362,1
910,715,63,0.0789426992605689,1
910,716,63,0.0739693877165146,1
910,717,63,0.0698222665951578,1
911,713,63,0.0895923196684316,1
911,714,63,0.0864798760222205,1
911,715,63,0.0827985627462055,1
911,716,63,0.0778118558117114,1
911,717,63,0.0728865924974024,1
912,714,63,0.0911322126009597,1
912,715,63,0.0864929516472424,1
912,716,63,0.0800545583755961,1
912,717,63,0.0740324510180552,1
897,707,64,0.0780062036715521,1
897,708,64,0.0762816601130513,1
898,706,64,0.0789207258152239,1
898,707,64,0.090578295480152,1
898,708,64,0.0881722623019595,1
898,709,64,0.0754659315806555,1
899,705,64,0.0729763075513799,1
899,706,64,0.0868642340544943,1
899,707,64,0.10003352948949,1
899,708,64,0.0944199780646485,1
899,709,64,0.0788155021384799,1
900,705,64,0.0728183712406431,1
900,706,64,0.0854170939474134,1
900,707,64,0.0960370526370581,1
900,708,64,0.0885748469630516,1
900,709,64,0.0733468322536199,1
901,706,64,0.075049583103751,1
901,707,64,0.079593901534051,1
901,708,64,0.0750115310190251,1
902,706,64,0.0738210026597809,1
902,707,64,0.074161490267008,1
902,708,64,0.0713430431168353,1
902,712,64,0.0702371483219934,1
902,713,64,0.0713808449503646,1
903,706,64,0.0767665704663993,1
903,707,64,0.0781326291857849,1
903,708,64,0.0768844109743047,1
903,712,64,0.0742984332829198,1
903,713,64,0.0774402814447302,1
903,714,64,0.0716255767177854,1
904,706,64,0.0764110121759998,1
904,707,64,0.080788565989461,1
904,708,64,0.0816335391547471,1
904,709,64,0.0737311416259387,1
904,712,64,0.0703500255144998,1
904,713,64,0.070871257048464,1
905,706,64,0.0714509013825656,1
905,707,64,0.0771908644187955,1
905,708,64,0.0792449749003611,1
905,709,64,0.0775479311677967,1
905,710,64,0.0774133446839861,1
905,711,64,0.0749209539887038,1
906,706,64,0.0719638468213538,1
906,707,64,0.0784063900920101,1
906,708,64,0.0796717505104568,1
906,709,64,0.0875436173932812,1
906,710,64,0.0965990264561116,1
906,711,64,0.0919855066185324,1
906,712,64,0.0778518612460552,1
907,706,64,0.07796770669581,1
907,707,64,0.0893219023962497,1
907,708,64,0.0898660180118577,1
907,709,64,0.0987984494658305,1
907,710,64,0.11125899180355,1
907,711,64,0.115123252607117,1
907,712,64,0.105791600980362,1
907,713,64,0.0855579923225157,1
907,714,64,0.0702165860153403,1
907,718,64,0.0824078094055744,1
907,719,64,0.0750105022085502,1
908,706,64,0.0794330525774427,1
908,707,64,0.0963986378104422,1
908,708,64,0.0981095565815731,1
908,709,64,0.0973498078515701,1
908,710,64,0.103649172680666,1
908,711,64,0.119662656381973,1
908,712,64,0.126262656315239,1
908,713,64,0.103037252893627,1
908,714,64,0.0765976926172338,1
908,717,64,0.0758091928053115,1
908,718,64,0.0897537108359658,1
908,719,64,0.0820968861966556,1
909,706,64,0.0755872825567353,1
909,707,64,0.0907860665361208,1
909,708,64,0.0946186010490975,1
909,709,64,0.0899157415343357,1
909,710,64,0.089045221892731,1
909,711,64,0.10135526594139,1
909,712,64,0.112292598759688,1
909,713,64,0.0969111939695913,1
909,714,64,0.079372491787868,1
909,715,64,0.0751588594595953,1
909,716,64,0.0732021662077245,1
909,717,64,0.074066297492394,1
909,718,64,0.0789462792429645,1
909,719,64,0.073988928164115,1
910,707,64,0.0791796384837847,1
910,708,64,0.0835150041163541,1
910,709,64,0.0837682930844138,1
910,710,64,0.0842945157394656,1
910,711,64,0.0889858428449179,1
910,712,64,0.0928391829643222,1
910,713,64,0.0882474419322685,1
910,714,64,0.083718798958866,1
910,715,64,0.0831880161708987,1
910,716,64,0.0807768876002868,1
910,717,64,0.0752910963627268,1
910,718,64,0.0715831174314306,1
911,709,64,0.0791634486216498,1
911,710,64,0.083292933985069,1
911,711,64,0.0868894329597064,1
911,712,64,0.0885974321335438,1
911,713,64,0.0886357344694663,1
911,714,64,0.087505607017088,1
911,715,64,0.0872797970206983,1
911,716,64,0.0852749651705946,1
911,717,64,0.0789612873633378,1
911,718,64,0.0715013687072112,1
912,711,64,0.086677101770822,1
912,712,64,0.0891163975038945,1
912,713,64,0.0917740165517254,1
912,714,64,0.0911299672916125,1
912,715,64,0.0887151614186952,1
912,716,64,0.0849563189316921,1
912,717,64,0.078285129484418,1
912,718,64,0.0709840786295933,1
913,715,64,0.0892680705832944,1
913,716,64,0.0843432938685343,1
913,717,64,0.0773575595214129,1
913,718,64,0.0718909889660355,1
913,719,64,0.0715716197792317,1
896,707,65,0.0714417533110458,1
897,706,65,0.070606122857099,1
897,707,65,0.0793564270513313,1
897,708,65,0.0784184716636677,1
897,709,65,0.0716629197574543,1
898,706,65,0.0776605789633728,1
898,707,65,0.0874478546020528,1
898,708,65,0.0861720809532591,1
898,709,65,0.079636430334627,1
898,710,65,0.078266861147067,1
898,711,65,0.0821682981561714,1
898,712,65,0.0751390201008434,1
899,705,65,0.0719257808337836,1
899,706,65,0.082103448339144,1
899,707,65,0.0923185770583495,1
899,708,65,0.0894935399599999,1
899,709,65,0.0799121723961585,1
899,710,65,0.0783677401849812,1
899,711,65,0.0856864893605426,1
899,712,65,0.0819601100148749,1
900,705,65,0.0710864174661544,1
900,706,65,0.0803320800011923,1
900,707,65,0.0889492018988838,1
900,708,65,0.0858664130194687,1
900,709,65,0.0752724804542693,1
900,710,65,0.0698207720394004,1
900,711,65,0.073212224915543,1
900,712,65,0.0736282675298739,1
901,706,65,0.0754992984068675,1
901,707,65,0.0797900567636448,1
901,708,65,0.0780023525836935,1
901,709,65,0.0704853349462116,1
901,712,65,0.0706534967988979,1
901,713,65,0.0701176394727775,1
902,706,65,0.0774325445119023,1
902,707,65,0.081298285968382,1
902,708,65,0.0805516962804664,1
902,709,65,0.0722158706305863,1
902,712,65,0.0764668459985278,1
902,713,65,0.0810693895405677,1
902,714,65,0.081004199103856,1
903,706,65,0.0781029674675669,1
903,707,65,0.0856226961596785,1
903,708,65,0.0877532722846466,1
903,709,65,0.0773732141240441,1
903,710,65,0.0704959428163781,1
903,711,65,0.0700642525508383,1
903,712,65,0.07541187037077,1
903,713,65,0.0791405228314733,1
903,714,65,0.0807297082983074,1
903,715,65,0.0701980535239484,1
904,706,65,0.0735309267658225,1
904,707,65,0.0825555132229396,1
904,708,65,0.0869427503674244,1
904,709,65,0.0799169758288486,1
904,710,65,0.0755413267050504,1
904,711,65,0.0729297886345027,1
904,712,65,0.0725998393832209,1
904,713,65,0.0722925378652305,1
904,714,65,0.0739571254078816,1
905,707,65,0.0762829461261448,1
905,708,65,0.0805168696556076,1
905,709,65,0.0841940329326126,1
905,710,65,0.0909155854332004,1
905,711,65,0.084546532597276,1
905,712,65,0.0750923691069458,1
905,713,65,0.0707564612634504,1
905,714,65,0.072431594113469,1
905,715,65,0.0702980636340967,1
906,706,65,0.0701715964113311,1
906,707,65,0.0782145934040903,1
906,708,65,0.0813659928199039,1
906,709,65,0.0980356282072471,1
906,710,65,0.123214999923256,1
906,711,65,0.113284219126176,1
906,712,65,0.09083880002438,1
906,713,65,0.0739430001181186,1
906,714,65,0.0715132903961599,1
906,718,65,0.0737501885225681,1
907,706,65,0.0750365839443726,1
907,707,65,0.0896248384211441,1
907,708,65,0.0930837270433455,1
907,709,65,0.110881640804781,1
907,710,65,0.144267659893275,1
907,711,65,0.14534350369026,1
907,712,65,0.129781090819385,1
907,713,65,0.0932456673732277,1
907,714,65,0.0741470313089828,1
907,717,65,0.0813561704604377,1
907,718,65,0.0986784609684877,1
907,719,65,0.08765248361522,1
908,706,65,0.0776144979860896,1
908,707,65,0.097717329539451,1
908,708,65,0.101889267237803,1
908,709,65,0.104190695415821,1
908,710,65,0.12571856850532,1
908,711,65,0.145828712954759,1
908,712,65,0.156800448361166,1
908,713,65,0.118426359859441,1
908,714,65,0.0831775612320189,1
908,715,65,0.0725673414847748,1
908,716,65,0.0741397184129047,1
908,717,65,0.0851196773516883,1
908,718,65,0.101007458486663,1
908,719,65,0.0901577970042374,1
909,706,65,0.0738744451930972,1
909,707,65,0.0901445197879738,1
909,708,65,0.0957302168643503,1
909,709,65,0.0924847994642622,1
909,710,65,0.0963274969563893,1
909,711,65,0.109667004913599,1
909,712,65,0.126813931895638,1
909,713,65,0.104324162720669,1
909,714,65,0.0833546348078727,1
909,715,65,0.0781663366316812,1
909,716,65,0.0786248315809447,1
909,717,65,0.0800980256181594,1
909,718,65,0.0841301702175272,1
909,719,65,0.0780565528220216,1
910,706,65,0.0704961096505092,1
910,707,65,0.0782014760705357,1
910,708,65,0.0831888155844433,1
910,709,65,0.0860065814952476,1
910,710,65,0.0871100502437669,1
910,711,65,0.0904662802639894,1
910,712,65,0.0957366191241297,1
910,713,65,0.0906738427772945,1
910,714,65,0.0860215479070881,1
910,715,65,0.0856547769727969,1
910,716,65,0.0850241856659229,1
910,717,65,0.0803757071264645,1
910,718,65,0.0754526404615477,1
910,719,65,0.0709407434640505,1
911,707,65,0.0698585252129749,1
911,708,65,0.0747236448230368,1
911,709,65,0.0814174820036023,1
911,710,65,0.0845232453331489,1
911,711,65,0.0854176500611836,1
911,712,65,0.0867092938066944,1
911,713,65,0.0880757209514528,1
911,714,65,0.0887181366273657,1
911,715,65,0.0894259860397648,1
911,716,65,0.0891123656790605,1
911,717,65,0.0838557975861548,1
911,718,65,0.0754710756330299,1
912,708,65,0.0744258319962505,1
912,709,65,0.0821887631429148,1
912,710,65,0.0848306789281597,1
912,711,65,0.084301682655679,1
912,712,65,0.0855486357083321,1
912,713,65,0.0895310984937547,1
912,714,65,0.0913711468823261,1
912,715,65,0.0899914147156157,1
912,716,65,0.0881318745393988,1
912,717,65,0.0823002778566841,1
912,718,65,0.0746713214686831,1
912,719,65,0.0701953146636301,1
913,708,65,0.0746253725684203,1
913,709,65,0.0804949518216396,1
913,710,65,0.0824868123180535,1
913,711,65,0.0827236403185153,1
913,712,65,0.0846549608796207,1
913,713,65,0.0891771876903995,1
913,714,65,0.0922690134185804,1
913,715,65,0.0904449741551686,1
913,716,65,0.0868075799641551,1
913,717,65,0.0804423712646672,1
913,718,65,0.0746796631752361,1
913,719,65,0.0739642923240951,1
914,709,65,0.0787664668067925,1
914,710,65,0.082010924910627,1
914,711,65,0.084794003225015,1
914,712,65,0.0867416943852307,1
914,713,65,0.0888191964022553,1
914,714,65,0.0906235214325135,1
914,715,65,0.0892355240248934,1
914,716,65,0.0865470893227713,1
914,717,65,0.0804681818950266,1
914,718,65,0.0744563695936566,1
914,719,65,0.0733926282225959,1
896,707,66,0.0713504116242904,1
896,708,66,0.0699447019930895,1
897,706,66,0.0699629703304406,1
897,707,66,0.0771478559700926,1
897,708,66,0.0776357067750006,1
897,709,66,0.0751962928677519,1
897,710,66,0.0766195895969354,1
897,711,66,0.0778586944940065,1
897,712,66,0.0706583488915429,1
898,706,66,0.0745971011346278,1
898,707,66,0.0820717776599311,1
898,708,66,0.0833797433445972,1
898,709,66,0.0823636053122657,1
898,710,66,0.0881254792310415,1
898,711,66,0.0950127883922595,1
898,712,66,0.0880876565432457,1
898,713,66,0.0704977988460862,1
899,706,66,0.0763184678932164,1
899,707,66,0.0831055236445116,1
899,708,66,0.0843757570098697,1
899,709,66,0.0815056677447117,1
899,710,66,0.0852920100576512,1
899,711,66,0.0933966800675256,1
899,712,66,0.0916411192634918,1
899,713,66,0.0780053555980525,1
900,706,66,0.0768039621660231,1
900,707,66,0.0829391969672669,1
900,708,66,0.0833241389189994,1
900,709,66,0.0773254717568724,1
900,710,66,0.0744299611409942,1
900,711,66,0.0781077987059455,1
900,712,66,0.0832143759636061,1
900,713,66,0.0838032031263382,1
900,714,66,0.0824892244615317,1
900,715,66,0.0747884876886421,1
901,706,66,0.0781831312675412,1
901,707,66,0.084076400967371,1
901,708,66,0.0834593232251128,1
901,709,66,0.0754181057964183,1
901,710,66,0.0701778109827131,1
901,711,66,0.0714677585812248,1
901,712,66,0.0799217166987396,1
901,713,66,0.0912374154234373,1
901,714,66,0.103349649804037,1
901,715,66,0.0962144181726413,1
902,706,66,0.0809214493748503,1
902,707,66,0.0899279551830137,1
902,708,66,0.0895311958136645,1
902,709,66,0.0787712980451711,1
902,710,66,0.0723716033405087,1
902,711,66,0.0731167401811997,1
902,712,66,0.0809737032149827,1
902,713,66,0.0943162697979283,1
902,714,66,0.109797163341514,1
902,715,66,0.102382123066643,1
902,716,66,0.0743190998609048,1
903,706,66,0.0776306878482245,1
903,707,66,0.0897944044611002,1
903,708,66,0.0923645746185671,1
903,709,66,0.0821138476666467,1
903,710,66,0.0757928569633118,1
903,711,66,0.0747931798985782,1
903,712,66,0.0773874506365612,1
903,713,66,0.0831107372111072,1
903,714,66,0.0923975730194064,1
903,715,66,0.0879937150246147,1
903,716,66,0.0731313381676674,1
904,706,66,0.0704012922526901,1
904,707,66,0.0812021895088915,1
904,708,66,0.0854763270153619,1
904,709,66,0.0816813440847179,1
904,710,66,0.0812656907500262,1
904,711,66,0.079167765454791,1
904,712,66,0.0768709460696437,1
904,713,66,0.0761592316665417,1
904,714,66,0.080905023164363,1
904,715,66,0.0800470855968091,1
904,716,66,0.0734958915982999,1
905,707,66,0.0745421292884435,1
905,708,66,0.0795026710700496,1
905,709,66,0.0886077202382925,1
905,710,66,0.102922109537507,1
905,711,66,0.0955733927811539,1
905,712,66,0.0827950036180762,1
905,713,66,0.0755147583696791,1
905,714,66,0.0777198606912761,1
905,715,66,0.0779710086213206,1
905,716,66,0.0734423100365411,1
905,717,66,0.0720681390075327,1
905,718,66,0.0759509323024912,1
905,719,66,0.0720879783662846,1
906,707,66,0.0753857886349476,1
906,708,66,0.0821039001815823,1
906,709,66,0.106176508174984,1
906,710,66,0.144051053579782,1
906,711,66,0.133448925287895,1
906,712,66,0.104294146479922,1
906,713,66,0.0812368701538856,1
906,714,66,0.0765912625517658,1
906,715,66,0.0755998159708312,1
906,716,66,0.0736078025431305,1
906,717,66,0.0808094758672205,1
906,718,66,0.0955203395274768,1
906,719,66,0.0894586507723419,1
907,707,66,0.0831686078003187,1
907,708,66,0.0924157509882698,1
907,709,66,0.120255960260555,1
907,710,66,0.171109825685027,1
907,711,66,0.173014668279248,1
907,712,66,0.146544848462334,1
907,713,66,0.100870564130706,1
907,714,66,0.0798737796917484,1
907,715,66,0.0758860338255088,1
907,716,66,0.0776825524087178,1
907,717,66,0.091392293108438,1
907,718,66,0.109465504040389,1
907,719,66,0.0989811814992961,1
907,720,66,0.0725915949965777,1
908,706,66,0.0720988920990247,1
908,707,66,0.0886834976909044,1
908,708,66,0.0976083034348033,1
908,709,66,0.109317828028712,1
908,710,66,0.14651170408163,1
908,711,66,0.168902929896521,1
908,712,66,0.171035932067811,1
908,713,66,0.125285230752736,1
908,714,66,0.089177597824305,1
908,715,66,0.0794039400215728,1
908,716,66,0.0813095889807613,1
908,717,66,0.090160230001982,1
908,718,66,0.10148949095125,1
908,719,66,0.0914817301055304,1
908,720,66,0.0738904612696789,1
909,706,66,0.0704458925770601,1
909,707,66,0.0823901945019034,1
909,708,66,0.0901158034631651,1
909,709,66,0.0944625068652245,1
909,710,66,0.107311751874048,1
909,711,66,0.12158101254081,1
909,712,66,0.133602426591314,1
909,713,66,0.108720179511301,1
909,714,66,0.0877704005887688,1
909,715,66,0.0829684833086901,1
909,716,66,0.0837847540520118,1
909,717,66,0.0852329299209896,1
909,718,66,0.0871131992379907,1
909,719,66,0.0815519433618145,1
909,720,66,0.0729415504407424,1
910,707,66,0.0741549628816303,1
910,708,66,0.0798007967108317,1
910,709,66,0.087090481990478,1
910,710,66,0.0918461931676752,1
910,711,66,0.0947410781555619,1
910,712,66,0.0984989265892008,1
910,713,66,0.0934308254530158,1
910,714,66,0.08785715433692,1
910,715,66,0.0864927431045785,1
910,716,66,0.086178670901436,1
910,717,66,0.0841298156949987,1
910,718,66,0.0807202682670583,1
910,719,66,0.0761498263924032,1
910,720,66,0.0702240865998159,1
911,708,66,0.0754862575389563,1
911,709,66,0.0843788503927164,1
911,710,66,0.0872456099266753,1
911,711,66,0.0857758081834588,1
911,712,66,0.0858537336255081,1
911,713,66,0.0884376467445211,1
911,714,66,0.0896997191403015,1
911,715,66,0.0893539693065239,1
911,716,66,0.0880883377826142,1
911,717,66,0.0854295856529766,1
911,718,66,0.0799135904862726,1
911,719,66,0.0745173127114484,1
912,708,66,0.0780299636323839,1
912,709,66,0.0863359398756485,1
912,710,66,0.0861605693982159,1
912,711,66,0.0828518175911242,1
912,712,66,0.082911996052482,1
912,713,66,0.0881014064562139,1
912,714,66,0.0914217879925249,1
912,715,66,0.0902363550257002,1
912,716,66,0.0881002733744072,1
912,717,66,0.0845185461717907,1
912,718,66,0.0792960678529982,1
912,719,66,0.0747910805690957,1
913,709,66,0.081738978325577,1
913,710,66,0.0815795822161934,1
913,711,66,0.0813563929059458,1
913,712,66,0.083867149258489,1
913,713,66,0.0893123858993572,1
913,714,66,0.0922736986770943,1
913,715,66,0.0902842572755808,1
913,716,66,0.0872549665408589,1
913,717,66,0.0833976988679526,1
913,718,66,0.0788038098464614,1
913,719,66,0.076717159757917,1
913,720,66,0.07201663592099,1
914,711,66,0.0839891258625603,1
914,712,66,0.0864480176546102,1
914,713,66,0.0894091010354171,1
914,714,66,0.0903118752756934,1
914,715,66,0.087789058205759,1
914,716,66,0.0855228737379276,1
914,717,66,0.0820474615853291,1
914,718,66,0.0772746082011655,1
914,719,66,0.0750011316915224,1
914,720,66,0.0713140417837193,1
915,712,66,0.0873842838466968,1
915,713,66,0.0893450714862007,1
915,714,66,0.0882664888288978,1
915,715,66,0.0852603463298604,1
915,716,66,0.0841904529502169,1
915,717,66,0.0839392007488406,1
915,718,66,0.077861224811661,1
915,719,66,0.073148869654273,1
897,707,67,0.0730447303993809,1
897,708,67,0.0752848192285456,1
897,709,67,0.0760074543158099,1
897,710,67,0.0825863914400299,1
897,711,67,0.0860585920356055,1
897,712,67,0.0790248233615832,1
898,706,67,0.0701366029523413,1
898,707,67,0.0749384368153544,1
898,708,67,0.07832983408012,1
898,709,67,0.0809634776730331,1
898,710,67,0.0894448800051073,1
898,711,67,0.0954011365408344,1
898,712,67,0.0904371120967424,1
898,713,67,0.0775790387818172,1
899,706,67,0.0708154788373129,1
899,707,67,0.0748428339068349,1
899,708,67,0.0781288406607254,1
899,709,67,0.0792047261662429,1
899,710,67,0.0842801262956617,1
899,711,67,0.0911768059739076,1
899,712,67,0.0936931582212634,1
899,713,67,0.0886537942641536,1
899,714,67,0.0786155375295602,1
899,715,67,0.0705818484910298,1
900,706,67,0.0751992194164676,1
900,707,67,0.0822985191468859,1
900,708,67,0.0837112775201241,1
900,709,67,0.0776373403592006,1
900,710,67,0.0746059155378855,1
900,711,67,0.0807840753707666,1
900,712,67,0.0921604322049488,1
900,713,67,0.105012589859644,1
900,714,67,0.121284993180933,1
900,715,67,0.123829686376303,1
900,716,67,0.0841840298361711,1
901,706,67,0.0812525317079388,1
901,707,67,0.0938656647127795,1
901,708,67,0.0939510351279273,1
901,709,67,0.0811822667330741,1
901,710,67,0.0725575538824193,1
901,711,67,0.07644777129621,1
901,712,67,0.0880697079713125,1
901,713,67,0.111698683155959,1
901,714,67,0.153168761287719,1
901,715,67,0.164073610110415,1
901,716,67,0.10698243520218,1
902,706,67,0.0825129427138308,1
902,707,67,0.0984847943480155,1
902,708,67,0.0992080828689598,1
902,709,67,0.0853896219271656,1
902,710,67,0.075858617416638,1
902,711,67,0.076541163652493,1
902,712,67,0.0822545027419746,1
902,713,67,0.102068871131311,1
902,714,67,0.138219950448039,1
902,715,67,0.148759654969221,1
902,716,67,0.101895898894513,1
903,706,67,0.0760252638593005,1
903,707,67,0.0904076033098112,1
903,708,67,0.0937905684995361,1
903,709,67,0.0857293587808029,1
903,710,67,0.0807973386841859,1
903,711,67,0.0793414328338023,1
903,712,67,0.0791138432733479,1
903,713,67,0.0856574115617832,1
903,714,67,0.100131572347176,1
903,715,67,0.10415511108595,1
903,716,67,0.0858787448423228,1
903,717,67,0.0718842252323054,1
904,707,67,0.079533493675763,1
904,708,67,0.0843690627903609,1
904,709,67,0.0846340788075497,1
904,710,67,0.088136031489831,1
904,711,67,0.0858812751599772,1
904,712,67,0.0819015720891393,1
904,713,67,0.0804844343199607,1
904,714,67,0.0857391324803141,1
904,715,67,0.0878200059370706,1
904,716,67,0.0818782083593687,1
904,717,67,0.0785296179520643,1
904,718,67,0.0813551972613399,1
904,719,67,0.078033460197714,1
905,707,67,0.0726300711180534,1
905,708,67,0.0803893597195229,1
905,709,67,0.0933210485947784,1
905,710,67,0.111093276851453,1
905,711,67,0.104877106642379,1
905,712,67,0.0916668186710972,1
905,713,67,0.0809822604156216,1
905,714,67,0.0803505221240966,1
905,715,67,0.0823967566443917,1
905,716,67,0.0806775309238184,1
905,717,67,0.0878850573453398,1
905,718,67,0.110461656734104,1
905,719,67,0.112027325539881,1
905,720,67,0.0778763511062104,1
906,707,67,0.0716108953142521,1
906,708,67,0.0837187085903784,1
906,709,67,0.111053466056929,1
906,710,67,0.148786987961027,1
906,711,67,0.143094023489801,1
906,712,67,0.115282148214107,1
906,713,67,0.0894274597412558,1
906,714,67,0.0796637563750102,1
906,715,67,0.0806645734729728,1
906,716,67,0.0819939425863695,1
906,717,67,0.0961680660898951,1
906,718,67,0.125816764294293,1
906,719,67,0.12612500425427,1
906,720,67,0.0861915101781054,1
907,707,67,0.0742532629419353,1
907,708,67,0.0892367961351428,1
907,709,67,0.121427024637842,1
907,710,67,0.171581757733262,1
907,711,67,0.179230059929044,1
907,712,67,0.149475887796706,1
907,713,67,0.106338629241841,1
907,714,67,0.0843642941147814,1
907,715,67,0.0823858498630737,1
907,716,67,0.0848803954992155,1
907,717,67,0.0962942691586199,1
907,718,67,0.11342691791961,1
907,719,67,0.108359824739633,1
907,720,67,0.0806683619980322,1
908,707,67,0.077043848792221,1
908,708,67,0.0899398143091632,1
908,709,67,0.110225204110437,1
908,710,67,0.150576256210957,1
908,711,67,0.173491772185547,1
908,712,67,0.163497573564398,1
908,713,67,0.122918966660535,1
908,714,67,0.092658001097991,1
908,715,67,0.0849431251324941,1
908,716,67,0.0856767782238304,1
908,717,67,0.0903519363214142,1
908,718,67,0.0943964961607018,1
908,719,67,0.0873899562071528,1
908,720,67,0.0755042825765329,1
909,707,67,0.0736424762367025,1
909,708,67,0.0831023607474436,1
909,709,67,0.0951265901239088,1
909,710,67,0.113163090595605,1
909,711,67,0.127523491357881,1
909,712,67,0.128974489504242,1
909,713,67,0.108767991392694,1
909,714,67,0.0909973689145304,1
909,715,67,0.0863018848586459,1
909,716,67,0.0861756887413433,1
909,717,67,0.0874416330792487,1
909,718,67,0.0864412191637695,1
909,719,67,0.0810182965879306,1
909,720,67,0.0740960356762555,1
910,707,67,0.069819437366352,1
910,708,67,0.0768128599863463,1
910,709,67,0.0878007852548881,1
910,710,67,0.0956602021406821,1
910,711,67,0.0979072562948186,1
910,712,67,0.0982149123353375,1
910,713,67,0.0941206289735719,1
910,714,67,0.0883437260801565,1
910,715,67,0.086130643525957,1
910,716,67,0.0847095643004322,1
910,717,67,0.0841583165257215,1
910,718,67,0.0813364562272841,1
910,719,67,0.0764517475096669,1
910,720,67,0.0702215701850057,1
911,708,67,0.0760911007782701,1
911,709,67,0.0868284342305376,1
911,710,67,0.0899824682353376,1
911,711,67,0.0867208331674261,1
911,712,67,0.0848147532200656,1
911,713,67,0.0869637297594052,1
911,714,67,0.087858301321571,1
911,715,67,0.0874925522463326,1
911,716,67,0.0845922660034528,1
911,717,67,0.083023601134739,1
911,718,67,0.0790393309795633,1
911,719,67,0.0742342438509944,1
912,708,67,0.0786007935632278,1
912,709,67,0.0866515483430813,1
912,710,67,0.0854157106144101,1
912,711,67,0.0810700985856247,1
912,712,67,0.0799849190287228,1
912,713,67,0.084894923971462,1
912,714,67,0.0883362185442588,1
912,715,67,0.0885707178183078,1
912,716,67,0.0856411035254721,1
912,717,67,0.0831603495108312,1
912,718,67,0.0785452864575397,1
912,719,67,0.0738562116128567,1
913,711,67,0.0793679455577966,1
913,712,67,0.0815898772723643,1
913,713,67,0.086602082023222,1
913,714,67,0.0887053807677618,1
913,715,67,0.0878454968020121,1
913,716,67,0.0849829915383953,1
913,717,67,0.0829801199893315,1
913,718,67,0.0786649273837761,1
913,719,67,0.0750791614049035,1
913,720,67,0.0702858360825744,1
914,712,67,0.0840745032291302,1
914,713,67,0.0868603134524144,1
914,714,67,0.087539133726009,1
914,715,67,0.085615473632088,1
914,716,67,0.0829283875058587,1
914,717,67,0.0809136846363338,1
914,718,67,0.0772599267976322,1
914,719,67,0.0740418840978822,1
914,720,67,0.0700563487838793,1
915,713,67,0.0862667106626807,1
915,714,67,0.0859332439918024,1
915,715,67,0.0835567752119183,1
915,716,67,0.0811357339133526,1
915,717,67,0.0804536951313129,1
915,718,67,0.0779174757195167,1
915,719,67,0.0746051925899842,1
916,714,67,0.0866197316840037,1
916,715,67,0.0846210170853721,1
916,716,67,0.0829840405914114,1
916,717,67,0.0840386547452187,1
916,718,67,0.0814528647422313,1
916,719,67,0.0764940677675792,1
896,708,68,0.0701961349314412,1
896,710,68,0.0734062877670764,1
896,711,68,0.0789559903796767,1
896,712,68,0.0751942769553349,1
897,708,68,0.0750950801615755,1
897,709,68,0.0772059142477015,1
897,710,68,0.0840956355523978,1
897,711,68,0.0887707380386045,1
897,712,68,0.0843071256192049,1
897,713,68,0.0723107714454709,1
898,708,68,0.074799276295784,1
898,709,68,0.0785507224696434,1
898,710,68,0.0848482034633431,1
898,711,68,0.0876252062347917,1
898,712,68,0.0863053953268203,1
898,713,68,0.0801818389147507,1
899,707,68,0.0700714542241623,1
899,708,68,0.073835510277761,1
899,709,68,0.0755055824924708,1
899,710,68,0.0787182795486047,1
899,711,68,0.0822506447026938,1
899,712,68,0.0895139354325219,1
899,713,68,0.0955466437088073,1
899,714,68,0.0975859685155077,1
899,715,68,0.0974789027118999,1
899,716,68,0.0733207296635311,1
900,706,68,0.0736535081436188,1
900,707,68,0.0866494698678651,1
900,708,68,0.0888941605384783,1
900,709,68,0.0790804903499802,1
900,710,68,0.0739070473628751,1
900,711,68,0.0806606111623601,1
900,712,68,0.0973911201532738,1
900,713,68,0.124451560599829,1
900,714,68,0.168249120839741,1
900,715,68,0.19422701631838,1
900,716,68,0.126057672779543,1
901,706,68,0.0848428995282598,1
901,707,68,0.110748382042597,1
901,708,68,0.113641390146509,1
901,709,68,0.0916031575472535,1
901,710,68,0.0754634985829109,1
901,711,68,0.0783297089545217,1
901,712,68,0.0916015587201642,1
901,713,68,0.129338604995281,1
901,714,68,0.208916288861508,1
901,715,68,0.255453390659024,1
901,716,68,0.163439251132748,1
901,717,68,0.0766418619534319,1
902,706,68,0.0837408141127438,1
902,707,68,0.109596948481398,1
902,708,68,0.113927920815183,1
902,709,68,0.0943115984422586,1
902,710,68,0.0781939198746831,1
902,711,68,0.0772363545251979,1
902,712,68,0.0809118425094701,1
902,713,68,0.103175315088501,1
902,714,68,0.15791520621922,1
902,715,68,0.196819076504126,1
902,716,68,0.133377561988334,1
902,717,68,0.0785312723905307,1
903,706,68,0.0732512501993668,1
903,707,68,0.0888185082114647,1
903,708,68,0.0941802999811144,1
903,709,68,0.0873486995168261,1
903,710,68,0.0815603545825888,1
903,711,68,0.0810135835237281,1
903,712,68,0.0810753191036425,1
903,713,68,0.0857227271240932,1
903,714,68,0.0998704213206901,1
903,715,68,0.114644918299102,1
903,716,68,0.0943864861128381,1
903,717,68,0.077469442660555,1
903,718,68,0.071464498364247,1
904,707,68,0.073965432357324,1
904,708,68,0.081263716546142,1
904,709,68,0.085690493379688,1
904,710,68,0.0902658846668979,1
904,711,68,0.0896654277749465,1
904,712,68,0.0880359657683056,1
904,713,68,0.0845185809289013,1
904,714,68,0.0843369263658655,1
904,715,68,0.0877340237967756,1
904,716,68,0.0842770537670813,1
904,717,68,0.0844855199652629,1
904,718,68,0.0959187185781817,1
904,719,68,0.0977058527415185,1
904,720,68,0.0732206291848952,1
905,708,68,0.0824448882912025,1
905,709,68,0.0981460306934761,1
905,710,68,0.111124808502223,1
905,711,68,0.106489377782098,1
905,712,68,0.0985139972723732,1
905,713,68,0.0861261251015742,1
905,714,68,0.0802874935796665,1
905,715,68,0.0832333324917478,1
905,716,68,0.0873809888726084,1
905,717,68,0.101016279841343,1
905,718,68,0.140502477709292,1
905,719,68,0.150849196849371,1
905,720,68,0.100368400347638,1
906,708,68,0.0870737360145729,1
906,709,68,0.115084971125461,1
906,710,68,0.13809667392803,1
906,711,68,0.134309038650574,1
906,712,68,0.116963113307291,1
906,713,68,0.0940951937200074,1
906,714,68,0.0820031045607335,1
906,715,68,0.0868086713374291,1
906,716,68,0.0957134500341787,1
906,717,68,0.110840133863258,1
906,718,68,0.149961847814795,1
906,719,68,0.159328027155258,1
906,720,68,0.106276692070685,1
907,708,68,0.0858767080756395,1
907,709,68,0.118480719980478,1
907,710,68,0.150042678951294,1
907,711,68,0.156029660772825,1
907,712,68,0.134194520922446,1
907,713,68,0.104889980676159,1
907,714,68,0.0872865607544284,1
907,715,68,0.0879888907376582,1
907,716,68,0.094036231757522,1
907,717,68,0.0991030051720805,1
907,718,68,0.112439218155202,1
907,719,68,0.113147727952703,1
907,720,68,0.0855009072440047,1
908,708,68,0.0796076653498634,1
908,709,68,0.104897133689528,1
908,710,68,0.135233730724819,1
908,711,68,0.1513909628843,1
908,712,68,0.137604499338558,1
908,713,68,0.113841674520847,1
908,714,68,0.0948613516612119,1
908,715,68,0.0882014652263172,1
908,716,68,0.0882672395824876,1
908,717,68,0.0897066427567405,1
908,718,68,0.088040400775623,1
908,719,68,0.0822632406795888,1
908,720,68,0.0736042434150012,1
909,708,68,0.0733608046120962,1
909,709,68,0.0884967616382934,1
909,710,68,0.10469792678562,1
909,711,68,0.115531217668936,1
909,712,68,0.112048450911726,1
909,713,68,0.103650271005362,1
909,714,68,0.0931021205062949,1
909,715,68,0.0875941125236154,1
909,716,68,0.0863208413867876,1
909,717,68,0.0887995655861673,1
909,718,68,0.0858893457610673,1
909,719,68,0.0787728273580392,1
909,720,68,0.0720462698335196,1
910,708,68,0.0740302960771957,1
910,709,68,0.0854703626951765,1
910,710,68,0.0921002954521238,1
910,711,68,0.0918813812664846,1
910,712,68,0.0912124111580446,1
910,713,68,0.0908224363766919,1
910,714,68,0.0878571821426085,1
910,715,68,0.0859946806605653,1
910,716,68,0.0838740798263501,1
910,717,68,0.0840595854772446,1
910,718,68,0.08103538318352,1
910,719,68,0.075452438870306,1
911,708,68,0.0784105470424424,1
911,709,68,0.0890976217127281,1
911,710,68,0.0909415003348917,1
911,711,68,0.0843049011641241,1
911,712,68,0.0818055242896036,1
911,713,68,0.083164047667403,1
911,714,68,0.0846403281360423,1
911,715,68,0.0852902235421644,1
911,716,68,0.081828554351112,1
911,717,68,0.0797401177470808,1
911,718,68,0.076422363848334,1
911,719,68,0.0724441970417862,1
912,707,68,0.0698652055296394,1
912,708,68,0.0787304653915942,1
912,709,68,0.0852186795056282,1
912,710,68,0.0844939867974142,1
912,711,68,0.0790137288918677,1
912,712,68,0.0777609505474718,1
912,713,68,0.0808479172315856,1
912,714,68,0.0838333514441051,1
912,715,68,0.0848323403180481,1
912,716,68,0.0815539106142766,1
912,717,68,0.0790245731103866,1
912,718,68,0.0754794659995378,1
912,719,68,0.0711837443273615,1
913,708,68,0.0723824475590276,1
913,709,68,0.0762585466344773,1
913,710,68,0.0778317646846846,1
913,711,68,0.0784935539740669,1
913,712,68,0.0802563095000026,1
913,713,68,0.0834609985178456,1
913,714,68,0.0839593876786988,1
913,715,68,0.0825761102867033,1
913,716,68,0.0797866714210687,1
913,717,68,0.0787570823869204,1
913,718,68,0.0758245623996354,1
913,719,68,0.071332720254976,1
914,711,68,0.0808685768581485,1
914,712,68,0.0820938970851408,1
914,713,68,0.0835841916207891,1
914,714,68,0.0831129686176102,1
914,715,68,0.0805210613631505,1
914,716,68,0.0778824961633711,1
914,717,68,0.0771843856933727,1
914,718,68,0.0754317027780997,1
914,719,68,0.0715275686172098,1
915,712,68,0.0825960608682093,1
915,713,68,0.0820249737347466,1
915,714,68,0.081565874011758,1
915,715,68,0.0795379703916131,1
915,716,68,0.0766749090142261,1
915,717,68,0.0762504482276988,1
915,718,68,0.0764779474196655,1
915,719,68,0.0739412344568982,1
896,709,69,0.0718591097441588,1
896,710,69,0.0754893509218031,1
896,711,69,0.0817548831794048,1
896,712,69,0.0773631067562707,1
897,708,69,0.072229321632403,1
897,709,69,0.0762632527472576,1
897,710,69,0.0804554121325784,1
897,711,69,0.0853576245311127,1
897,712,69,0.0826945555683338,1
897,713,69,0.0758807229390034,1
898,708,69,0.0712816481566052,1
898,709,69,0.075532964144231,1
898,710,69,0.0788964862062653,1
898,711,69,0.0816399553173708,1
898,712,69,0.0840058092756663,1
898,713,69,0.086576187975797,1
898,714,69,0.0806696480111258,1
899,708,69,0.0723242711072425,1
899,709,69,0.0736219695414264,1
899,710,69,0.0752259267802814,1
899,711,69,0.0784859352154151,1
899,712,69,0.0897318347105305,1
899,713,69,0.106161110774971,1
899,714,69,0.116831064092557,1
899,715,69,0.125578539057983,1
899,716,69,0.0957882542876928,1
900,706,69,0.0705042011058656,1
900,707,69,0.0863916902811111,1
900,708,69,0.0897795284177473,1
900,709,69,0.0800294081303388,1
900,710,69,0.0754962953925084,1
900,711,69,0.0819513720772607,1
900,712,69,0.101371309823661,1
900,713,69,0.135593021928901,1
900,714,69,0.187435768859542,1
900,715,69,0.227806722881612,1
900,716,69,0.154826049837137,1
901,706,69,0.0822895587637635,1
901,707,69,0.111638289200515,1
901,708,69,0.116280824274055,1
901,709,69,0.0936187432473885,1
901,710,69,0.0785712708734523,1
901,711,69,0.0812993703902339,1
901,712,69,0.0979945939624285,1
901,713,69,0.139889431791868,1
901,714,69,0.224601547264221,1
901,715,69,0.288276754689096,1
901,716,69,0.195825579253664,1
901,717,69,0.104878788886533,1
902,706,69,0.0795637115077512,1
902,707,69,0.105569092909483,1
902,708,69,0.111503473319775,1
902,709,69,0.0935592946853542,1
902,710,69,0.080973995174712,1
902,711,69,0.0817131746466398,1
902,712,69,0.0902517802314012,1
902,713,69,0.111504383956073,1
902,714,69,0.162551582332755,1
902,715,69,0.210765659107153,1
902,716,69,0.152414518084041,1
902,717,69,0.0986476036056637,1
903,706,69,0.0699567627104807,1
903,707,69,0.0841344036336029,1
903,708,69,0.0908234304300561,1
903,709,69,0.0871697282027315,1
903,710,69,0.0843724967928919,1
903,711,69,0.0866363386314663,1
903,712,69,0.0920626048413485,1
903,713,69,0.0966988002179076,1
903,714,69,0.107247618053499,1
903,715,69,0.124404026775321,1
903,716,69,0.10825369042659,1
903,717,69,0.0924261294615061,1
903,718,69,0.0823144518064021,1
904,707,69,0.0718169493689555,1
904,708,69,0.0815517834791056,1
904,709,69,0.0892872843140548,1
904,710,69,0.0927568920291768,1
904,711,69,0.0938258817239438,1
904,712,69,0.094832405939473,1
904,713,69,0.0916078358543454,1
904,714,69,0.0896003972209438,1
904,715,69,0.0926072279107718,1
904,716,69,0.093380073120063,1
904,717,69,0.0954951475736867,1
904,718,69,0.105919333361955,1
904,719,69,0.106542736898349,1
905,707,69,0.0702281114732277,1
905,708,69,0.0870619464026446,1
905,709,69,0.103796793080966,1
905,710,69,0.108304296779679,1
905,711,69,0.105214827583599,1
905,712,69,0.100344404038454,1
905,713,69,0.0901128213030724,1
905,714,69,0.0844067673039805,1
905,715,69,0.0862856810936667,1
905,716,69,0.095701034794259,1
905,717,69,0.109596705181623,1
905,718,69,0.146040494981296,1
905,719,69,0.157205938716707,1
905,720,69,0.10828593807384,1
906,708,69,0.0902864052650182,1
906,709,69,0.115198466994537,1
906,710,69,0.123058592925388,1
906,711,69,0.119800781139646,1
906,712,69,0.111251407802009,1
906,713,69,0.0951949990690655,1
906,714,69,0.0873143942486269,1
906,715,69,0.0917894000488935,1
906,716,69,0.105735398732461,1
906,717,69,0.116481317191056,1
906,718,69,0.148940113887651,1
906,719,69,0.16006081827025,1
906,720,69,0.111810802643453,1
907,708,69,0.0855202182946749,1
907,709,69,0.112465856004794,1
907,710,69,0.125905909331656,1
907,711,69,0.126398570520676,1
907,712,69,0.115472040212364,1
907,713,69,0.0993302124043178,1
907,714,69,0.0907827785134545,1
907,715,69,0.0908115713039066,1
907,716,69,0.0999177813596448,1
907,717,69,0.100147199144119,1
907,718,69,0.10872527490372,1
907,719,69,0.111019835076676,1
907,720,69,0.0875570127837209,1
908,708,69,0.0754152070533912,1
908,709,69,0.0975161484316591,1
908,710,69,0.115799702445766,1
908,711,69,0.122436635284796,1
908,712,69,0.113735394227939,1
908,713,69,0.103115852623622,1
908,714,69,0.0956774069104477,1
908,715,69,0.0895991042564281,1
908,716,69,0.0908987212831191,1
908,717,69,0.0910338360750113,1
908,718,69,0.0884654941415639,1
908,719,69,0.082416178917816,1
908,720,69,0.073653793151926,1
909,709,69,0.0819332497197743,1
909,710,69,0.093322063502409,1
909,711,69,0.0986100242176425,1
909,712,69,0.0966395115385822,1
909,713,69,0.0961856879449883,1
909,714,69,0.0932914841964701,1
909,715,69,0.0882452869914089,1
909,716,69,0.086620350360573,1
909,717,69,0.0883744791716485,1
909,718,69,0.0846251670843823,1
909,719,69,0.0759339291239673,1
910,708,69,0.0717094734314422,1
910,709,69,0.0802410233227442,1
910,710,69,0.0843436136339521,1
910,711,69,0.0833141566768243,1
910,712,69,0.0836286112081839,1
910,713,69,0.0860487349190287,1
910,714,69,0.0861681186426464,1
910,715,69,0.0852873317505594,1
910,716,69,0.0830791986089148,1
910,717,69,0.0831381675228224,1
910,718,69,0.0795128896605771,1
911,708,69,0.0770075137087605,1
911,709,69,0.0848111315291371,1
911,710,69,0.085324111725036,1
911,711,69,0.0791916783469096,1
911,712,69,0.0775555221207599,1
911,713,69,0.0788613398159886,1
911,714,69,0.0809187522230648,1
911,715,69,0.0828459088823159,1
911,716,69,0.0802916922386315,1
911,717,69,0.0781307314475441,1
911,718,69,0.0745600987146431,1
912,708,69,0.0757806224603674,1
912,709,69,0.0798127323026247,1
912,710,69,0.079854732795119,1
912,711,69,0.0756191965357226,1
912,712,69,0.0748795721727788,1
912,713,69,0.0762307339945452,1
912,714,69,0.0783648483933762,1
912,715,69,0.0799719893835657,1
912,716,69,0.0776416432894975,1
912,717,69,0.0756815785978948,1
912,718,69,0.0728269492955484,1
913,709,69,0.0724285354877329,1
913,710,69,0.0750650569694069,1
913,711,69,0.0756249523132442,1
913,712,69,0.0766187554262801,1
913,713,69,0.0780095959655503,1
913,714,69,0.0780224143879534,1
913,715,69,0.0768534980001037,1
913,716,69,0.0745842271008477,1
913,717,69,0.0744315043567065,1
913,718,69,0.0730541843334743,1
914,710,69,0.073945474824396,1
914,711,69,0.0766141883419423,1
914,712,69,0.0776588619621073,1
914,713,69,0.078543173225213,1
914,714,69,0.0779705567788823,1
914,715,69,0.0753309558172058,1
914,716,69,0.0725631150201213,1
914,717,69,0.0728414916706392,1
914,718,69,0.0730091947294651,1
914,719,69,0.0711664630919525,1
899,715,70,0.132564370725014,1
900,714,70,0.180241742099792,1
900,715,70,0.212307957231737,1
900,716,70,0.15725822731395,1
901,713,70,0.138922099694293,1
901,714,70,0.205983303128941,1
901,715,70,0.255853987213387,1
901,716,70,0.190061835402336,1
902,714,70,0.156754638489346,1
902,715,70,0.193670985965246,1
906,709,70,0.112745588182627,1
906,710,70,0.114673050704452,1
907,710,70,0.115382561506739,1
907,711,70,0.112107107011638,1
