x,y,z,signal,cytoplasm.p
984,470,3,0.070363177605165,1
985,469,3,0.0712218728777308,1
985,470,3,0.0724232593583381,1
984,470,4,0.0716945695824008,1
984,471,4,0.0702645716822864,1
984,480,4,0.0699266143927137,1
984,481,4,0.0704460594111912,1
985,469,4,0.0709621607956253,1
985,470,4,0.0721988744034846,1
985,481,4,0.0702469706814596,1
985,482,4,0.0712266206990439,1
986,482,4,0.0699873837249524,1
986,483,4,0.0710607319613932,1
987,484,4,0.0708012770819064,1
996,469,4,0.0710240354039822,1
996,470,4,0.0721208863986361,1
981,475,5,0.0700508085004437,1
981,476,5,0.0705761552763074,1
981,477,5,0.070479308063227,1
982,477,5,0.0702622638101401,1
982,478,5,0.0708230836931204,1
982,479,5,0.0710917283526598,1
983,479,5,0.0713855302088786,1
983,480,5,0.0718483906512381,1
983,481,5,0.0700948596624656,1
984,470,5,0.071338830555026,1
984,471,5,0.0704252399019193,1
984,480,5,0.0709504337464962,1
984,481,5,0.0734424560164058,1
984,482,5,0.0720687924412127,1
985,470,5,0.0699017004958088,1
985,481,5,0.0705271060417757,1
985,482,5,0.0741445079427505,1
985,483,5,0.0727096301443026,1
986,482,5,0.0698948881021238,1
986,483,5,0.0740741734536645,1
986,484,5,0.0734637760280708,1
987,483,5,0.0700700986968475,1
987,484,5,0.0768988699323298,1
987,485,5,0.0749721581640949,1
988,484,5,0.0702918768684032,1
988,485,5,0.0721184603523136,1
990,485,5,0.0716521937131116,1
990,486,5,0.0699009566936411,1
995,470,5,0.0702701675770991,1
996,469,5,0.0733564808275329,1
996,470,5,0.0811575822330993,1
996,471,5,0.0757323309308477,1
997,469,5,0.0738697529831611,1
997,470,5,0.0800185430575535,1
997,471,5,0.0735113793668,1
980,477,6,0.0704581131771603,1
980,478,6,0.0699119538434469,1
981,475,6,0.0709610485680849,1
981,476,6,0.0717905826248258,1
981,477,6,0.0725287541405451,1
981,478,6,0.0719678786461877,1
981,479,6,0.0718505247378313,1
982,475,6,0.0705461876955157,1
982,476,6,0.07153554189839,1
982,477,6,0.0726220978368732,1
982,478,6,0.0726117193636368,1
982,479,6,0.0740348214530007,1
982,480,6,0.0724854328778465,1
983,479,6,0.0716408976521544,1
983,480,6,0.0729345016987051,1
983,481,6,0.0743755662628465,1
983,482,6,0.0706659815530389,1
984,481,6,0.0723126969894003,1
984,482,6,0.0740991846704792,1
984,483,6,0.0711451291774432,1
985,482,6,0.0714633513795959,1
985,483,6,0.0743317444977547,1
986,483,6,0.07099622276405,1
986,484,6,0.0748481447933403,1
986,485,6,0.0725482945881455,1
987,484,6,0.0754428041992373,1
987,485,6,0.079146612277257,1
988,485,6,0.0718450192115063,1
989,485,6,0.071428788908778,1
989,486,6,0.071001179128027,1
990,485,6,0.0754849506715964,1
990,486,6,0.0790768964647403,1
991,485,6,0.070363288827919,1
991,486,6,0.0742432250883832,1
995,470,6,0.0754777976582272,1
995,471,6,0.077084959502683,1
996,469,6,0.0721495957720227,1
996,470,6,0.0938889450254845,1
996,471,6,0.0942148346462438,1
996,472,6,0.079532131197026,1
997,469,6,0.0721897610890754,1
997,470,6,0.090669240935846,1
997,471,6,0.0906453071894611,1
997,472,6,0.0789905598019167,1
998,471,6,0.0713381701699239,1
1005,469,6,0.0728709935061483,1
980,476,7,0.0710744540686729,1
980,477,7,0.072464905328304,1
980,478,7,0.0725844072260978,1
980,479,7,0.0718299902368666,1
981,475,7,0.0737026616494824,1
981,476,7,0.0755169619704935,1
981,477,7,0.0746093634432607,1
981,478,7,0.0732589037151292,1
981,479,7,0.0731873179700602,1
981,480,7,0.0703081849047144,1
982,474,7,0.0713798369941561,1
982,475,7,0.0752567841431054,1
982,476,7,0.0774797307653037,1
982,477,7,0.0760643378030792,1
982,478,7,0.0735200547416151,1
982,479,7,0.0738741184762572,1
982,480,7,0.0738657906725484,1
982,481,7,0.075005636213061,1
982,482,7,0.0708692550388913,1
983,475,7,0.0703027419411885,1
983,476,7,0.0711079043119505,1
983,477,7,0.0703456808756701,1
983,479,7,0.0702392546028981,1
983,480,7,0.0721904979398209,1
983,481,7,0.0767981299228581,1
983,482,7,0.0775163230513829,1
983,483,7,0.072112426517907,1
984,481,7,0.0708728002641763,1
984,482,7,0.0759289380028798,1
984,483,7,0.0767281012963457,1
984,484,7,0.0700089053278591,1
985,483,7,0.0755001673346335,1
985,484,7,0.0779070207806369,1
985,485,7,0.0739710908149358,1
986,484,7,0.0791971352132796,1
986,485,7,0.0835114727939134,1
986,486,7,0.0744046232073395,1
987,484,7,0.0757383300081437,1
987,485,7,0.0854670955267765,1
987,486,7,0.0803575986718224,1
988,485,7,0.0767645684568266,1
988,486,7,0.0773083225984839,1
989,485,7,0.0752610175591811,1
989,486,7,0.0804208149046498,1
989,487,7,0.0717099044196141,1
990,485,7,0.0762838706652878,1
990,486,7,0.085404748221715,1
990,487,7,0.0758356499179287,1
991,479,7,0.0710450912616064,1
991,480,7,0.0700371767616516,1
991,485,7,0.0700598523006315,1
991,486,7,0.0785247519565751,1
991,487,7,0.0727930194041441,1
995,470,7,0.077669205678233,1
995,471,7,0.0854578640381912,1
995,472,7,0.0731975713176982,1
996,469,7,0.0732901086490595,1
996,470,7,0.105725221850466,1
996,471,7,0.118435688667936,1
996,472,7,0.0920061731965175,1
997,469,7,0.0724897358081434,1
997,470,7,0.102831664584206,1
997,471,7,0.115243345375792,1
997,472,7,0.0918199793548324,1
998,470,7,0.0763966644407286,1
998,471,7,0.084815378848057,1
998,472,7,0.0760193621019143,1
1000,474,7,0.0706696171468116,1
1001,474,7,0.0707158232496931,1
1001,475,7,0.069928915313438,1
1004,468,7,0.0718325344573653,1
1004,469,7,0.0890098669597905,1
1004,470,7,0.0811720828996573,1
1005,468,7,0.0822564699944366,1
1005,469,7,0.103141086285945,1
1005,470,7,0.0892571498991321,1
1006,469,7,0.08302866872147,1
1006,470,7,0.0726453225382011,1
981,474,8,0.0708289576448181,1
981,475,8,0.0744750828220238,1
981,476,8,0.0762910653871898,1
981,477,8,0.0727327158171881,1
981,478,8,0.0698447196886297,1
981,479,8,0.0699832962887414,1
981,480,8,0.0701356853646204,1
981,481,8,0.0715623952420685,1
982,473,8,0.0701066840315045,1
982,474,8,0.0746985710434229,1
982,475,8,0.0784967377254012,1
982,476,8,0.0803007986016186,1
982,477,8,0.07514832110365,1
982,478,8,0.0699358389298769,1
982,481,8,0.07412179764666,1
982,482,8,0.0741915968762422,1
982,483,8,0.0698151135817887,1
983,474,8,0.0705826618074187,1
983,475,8,0.0718323259147015,1
983,476,8,0.0717458432720133,1
983,481,8,0.0719835054431304,1
983,482,8,0.0772236542769709,1
983,483,8,0.0767855895573401,1
984,482,8,0.0722596854442559,1
984,483,8,0.0774269486170896,1
984,484,8,0.0779692777172108,1
984,485,8,0.0749112984633687,1
985,483,8,0.0722680758107638,1
985,484,8,0.0826266679798366,1
985,485,8,0.0882310365760476,1
985,486,8,0.078080347539964,1
986,484,8,0.0784288640397483,1
986,485,8,0.0922018904865172,1
986,486,8,0.0863259715363177,1
986,487,8,0.0714227203172607,1
987,484,8,0.0721062188979471,1
987,485,8,0.0910945845529835,1
987,486,8,0.0932251467751074,1
987,487,8,0.0825485478979678,1
988,485,8,0.0853188286442191,1
988,486,8,0.0950582020330185,1
988,487,8,0.0880428754819004,1
989,485,8,0.0829755250993052,1
989,486,8,0.0958773576165231,1
989,487,8,0.0885356548450967,1
990,485,8,0.076565806443935,1
990,486,8,0.0892698223416705,1
990,487,8,0.0836474982221043,1
991,479,8,0.0709126875243439,1
991,486,8,0.0773371849031572,1
991,487,8,0.0766297803817743,1
992,487,8,0.0702179206883888,1
995,470,8,0.0704115873088609,1
995,471,8,0.0804715672376027,1
996,469,8,0.0702924121279071,1
996,470,8,0.103572568008821,1
996,471,8,0.12110132270548,1
996,472,8,0.0906994101078794,1
997,469,8,0.0738622593501077,1
997,470,8,0.111085081124765,1
997,471,8,0.127333508991136,1
997,472,8,0.0942848910784447,1
997,473,8,0.0708078948357718,1
998,470,8,0.0857020396918418,1
998,471,8,0.0955322125564706,1
998,472,8,0.0807047735471361,1
998,473,8,0.0718401601674392,1
999,471,8,0.0712849431306936,1
999,472,8,0.0735684018825118,1
999,473,8,0.07489065273965,1
999,474,8,0.0711004801931183,1
1000,473,8,0.0739799677809926,1
1000,474,8,0.0740216485080691,1
1001,474,8,0.0703881888219798,1
1004,468,8,0.0728798565693608,1
1004,469,8,0.0966117336557607,1
1004,470,8,0.0871603924428143,1
1004,471,8,0.0712630113938814,1
1005,468,8,0.0857282326504182,1
1005,469,8,0.117649941619176,1
1005,470,8,0.102000149372159,1
1005,471,8,0.0749245756796322,1
1006,469,8,0.0887722047886734,1
1006,470,8,0.0791195642937589,1
981,474,9,0.071969964072826,1
981,475,9,0.0745975738313325,1
981,476,9,0.0737806983142857,1
981,481,9,0.0725630872144328,1
981,482,9,0.0716307068673155,1
982,473,9,0.0716540080342869,1
982,474,9,0.0791729303614317,1
982,475,9,0.0820217343720352,1
982,476,9,0.0789090752317382,1
982,481,9,0.0705134743029837,1
982,482,9,0.0738704898339066,1
982,483,9,0.074302534621975,1
983,474,9,0.0750446684483069,1
983,475,9,0.0759662115283274,1
983,476,9,0.0716299352594593,1
983,482,9,0.0722314070590413,1
983,483,9,0.0774106961921555,1
983,484,9,0.0773100117940608,1
983,485,9,0.0725881818483131,1
984,483,9,0.0733798654115698,1
984,484,9,0.0798486642036017,1
984,485,9,0.0824292406399935,1
984,486,9,0.0732954751469419,1
985,484,9,0.078403984899954,1
985,485,9,0.0900144239228577,1
985,486,9,0.0850137585327316,1
985,487,9,0.0706014167443187,1
986,484,9,0.0722554867852909,1
986,485,9,0.0948443623855323,1
986,486,9,0.0992773398876161,1
986,487,9,0.0837525550647172,1
987,485,9,0.10347535932179,1
987,486,9,0.120757213407325,1
987,487,9,0.104595914665899,1
987,488,9,0.072304883590929,1
988,485,9,0.100146490099062,1
988,486,9,0.123243403434069,1
988,487,9,0.110752087150591,1
988,488,9,0.0783808297128473,1
989,485,9,0.0886051204064168,1
989,486,9,0.108907492531948,1
989,487,9,0.102143911733178,1
989,488,9,0.078527692408135,1
990,485,9,0.0759072565172641,1
990,486,9,0.0898496474127474,1
990,487,9,0.0884719172556097,1
990,488,9,0.0754616356017807,1
991,478,9,0.0709306708533877,1
991,486,9,0.0780515825552004,1
991,487,9,0.0799126728985517,1
991,488,9,0.0738307972135586,1
992,477,9,0.0705978437133452,1
992,478,9,0.0750406991862721,1
992,479,9,0.0701804525231215,1
992,486,9,0.0699821354012461,1
992,487,9,0.0734998122003798,1
992,488,9,0.0718243734877876,1
993,478,9,0.0706464619597049,1
993,487,9,0.0719344631600208,1
993,488,9,0.0697791747293895,1
995,471,9,0.0697784726357546,1
995,483,9,0.0709657338265988,1
995,484,9,0.070195418934962,1
996,470,9,0.092765678626746,1
996,471,9,0.102734608828462,1
996,472,9,0.0817156145958065,1
997,469,9,0.0728702358011364,1
997,470,9,0.109706370817107,1
997,471,9,0.116590899409474,1
997,472,9,0.0894902588887557,1
997,473,9,0.0744904454649256,1
997,474,9,0.0718612785878625,1
998,470,9,0.0911547143543864,1
998,471,9,0.0955195540167764,1
998,472,9,0.0853442569463615,1
998,473,9,0.0823653501192197,1
998,474,9,0.0772119063735754,1
999,471,9,0.074627040909731,1
999,472,9,0.0816638612580673,1
999,473,9,0.0862238899023753,1
999,474,9,0.0791221085142575,1
1000,472,9,0.0730706105439616,1
1000,473,9,0.0774227360552804,1
1000,474,9,0.0736733822594813,1
1004,469,9,0.0883965916454361,1
1004,470,9,0.0855264120117905,1
1004,471,9,0.0751598326586932,1
1005,468,9,0.0764048810216833,1
1005,469,9,0.108519839525586,1
1005,470,9,0.105460178027589,1
1005,471,9,0.0860380783889073,1
1006,469,9,0.0825857102006614,1
1006,470,9,0.0846185979904718,1
1006,471,9,0.0767213653683041,1
981,474,10,0.0697365277546373,1
981,475,10,0.0725566432461206,1
982,473,10,0.0703820507162412,1
982,474,10,0.0783750113725266,1
982,475,10,0.082252507683824,1
982,476,10,0.0727824323882439,1
983,474,10,0.073679575976597,1
983,475,10,0.075856872609684,1
983,484,10,0.0737170580447084,1
983,485,10,0.0742651220680848,1
984,484,10,0.0723836223493671,1
984,485,10,0.0787716942762324,1
984,486,10,0.0739827413984215,1
985,485,10,0.0811247089578584,1
985,486,10,0.0825265814040449,1
985,487,10,0.0730979643900333,1
986,485,10,0.0903386730079949,1
986,486,10,0.103486064511867,1
986,487,10,0.0875167431953363,1
987,484,10,0.0730593909486478,1
987,485,10,0.116955091366156,1
987,486,10,0.143149050947362,1
987,487,10,0.11375862588069,1
987,488,10,0.0796995701018111,1
988,484,10,0.0733978209349251,1
988,485,10,0.117556319865963,1
988,486,10,0.14476190600654,1
988,487,10,0.116627637675418,1
988,488,10,0.0849875169142003,1
989,485,10,0.0939358532220008,1
989,486,10,0.113862848552647,1
989,487,10,0.100612256235871,1
989,488,10,0.0836424723439061,1
990,485,10,0.0739928974261498,1
990,486,10,0.0870834054427522,1
990,487,10,0.0857547940343674,1
990,488,10,0.0791710882345679,1
990,489,10,0.0698666792311304,1
991,485,10,0.0712948767129138,1
991,486,10,0.0809026735836839,1
991,487,10,0.0815395837332718,1
991,488,10,0.0777929757492132,1
991,489,10,0.072477445693822,1
992,477,10,0.0710022565984567,1
992,478,10,0.0750844583885647,1
992,486,10,0.0730963377572555,1
992,487,10,0.0756496715703296,1
992,488,10,0.0746965620824281,1
992,489,10,0.0712091517752375,1
993,477,10,0.0703761002989,1
993,478,10,0.0709114015112503,1
993,487,10,0.0716994703350007,1
993,488,10,0.0701844356880006,1
994,476,10,0.0713559241020375,1
995,476,10,0.0714120707385613,1
995,482,10,0.0720889098568496,1
995,483,10,0.0727811950351052,1
995,484,10,0.0714923735669782,1
995,485,10,0.0698654279751475,1
996,470,10,0.0772841455523244,1
996,471,10,0.0810481251402797,1
996,472,10,0.0751990664851808,1
996,473,10,0.0727728116200195,1
996,474,10,0.0727530348240667,1
996,475,10,0.0711959579760395,1
996,476,10,0.0703780397456736,1
996,482,10,0.0723214349270145,1
996,483,10,0.0722204446663462,1
996,484,10,0.0703209407643183,1
997,470,10,0.0947622174302516,1
997,471,10,0.0967854288404605,1
997,472,10,0.0872353913361479,1
997,473,10,0.08518519450524,1
997,474,10,0.0818020277242735,1
997,475,10,0.0723547044333167,1
997,482,10,0.0702858499854187,1
998,470,10,0.0852193676964188,1
998,471,10,0.089260417067532,1
998,472,10,0.0909432103847351,1
998,473,10,0.0972106681862661,1
998,474,10,0.0893572086692353,1
998,475,10,0.072604587204534,1
998,482,10,0.0703173121219678,1
999,471,10,0.0743700051251445,1
999,472,10,0.0858740039724319,1
999,473,10,0.0949350575900298,1
999,474,10,0.0848744589847187,1
999,482,10,0.0705289829257501,1
1000,472,10,0.0729761407172489,1
1000,473,10,0.0773427738465478,1
1000,474,10,0.0711498700473342,1
1004,469,10,0.0754654797382172,1
1004,470,10,0.0810471310869155,1
1004,471,10,0.0752629917630653,1
1005,469,10,0.091824595099125,1
1005,470,10,0.104626577388903,1
1005,471,10,0.0927536943749982,1
1005,472,10,0.0702127140732153,1
1006,469,10,0.0759039615431757,1
1006,470,10,0.0913202277152422,1
1006,471,10,0.0866156372963706,1
982,474,11,0.0713388514092924,1
982,475,11,0.0750040860459265,1
983,485,11,0.070710581877409,1
984,485,11,0.0708090348690007,1
984,486,11,0.0709409937152471,1
985,485,11,0.0721798761668101,1
985,486,11,0.0771512969240458,1
985,487,11,0.0750805794950175,1
986,485,11,0.0873177587369366,1
986,486,11,0.0998649783571643,1
986,487,11,0.088664666288361,1
986,488,11,0.0760483564836081,1
987,484,11,0.0803756654179317,1
987,485,11,0.1285829158958,1
987,486,11,0.146062934171923,1
987,487,11,0.112699110974282,1
987,488,11,0.0861043880045815,1
987,489,11,0.0700407150355145,1
988,484,11,0.0857618497278268,1
988,485,11,0.137064540673383,1
988,486,11,0.150468954058997,1
988,487,11,0.112434053248561,1
988,488,11,0.0864568181550236,1
988,489,11,0.0721896220606329,1
989,484,11,0.0707014616115777,1
989,485,11,0.10190775106924,1
989,486,11,0.112327905032674,1
989,487,11,0.0944080980842325,1
989,488,11,0.0830250400791194,1
989,489,11,0.0723160475748657,1
990,485,11,0.0728344429286019,1
990,486,11,0.0855826559682241,1
990,487,11,0.0844492196389131,1
990,488,11,0.080171828866887,1
990,489,11,0.0712859580383242,1
991,485,11,0.0705518113960169,1
991,486,11,0.0854292867418251,1
991,487,11,0.0861941308642475,1
991,488,11,0.0818890456264655,1
991,489,11,0.0732239311104057,1
992,477,11,0.0702118103883387,1
992,478,11,0.0707343626925071,1
992,486,11,0.077130970965745,1
992,487,11,0.0792300988570082,1
992,488,11,0.0780060298859989,1
992,489,11,0.0719265454902176,1
993,476,11,0.0733916758777644,1
993,477,11,0.0760083788549528,1
993,478,11,0.0725592013694635,1
993,487,11,0.0707715041409344,1
993,488,11,0.0701273923180223,1
994,476,11,0.0767180078314166,1
994,477,11,0.0784672984526913,1
994,478,11,0.0732785692883279,1
995,476,11,0.0733604083810349,1
995,477,11,0.0740457282343188,1
995,478,11,0.0704412559785011,1
995,482,11,0.0710565263510061,1
995,483,11,0.0727353504061744,1
995,484,11,0.0706883651322895,1
996,472,11,0.0788107404143226,1
996,473,11,0.0871430277903398,1
996,474,11,0.0802403212291093,1
996,475,11,0.071409053821358,1
996,482,11,0.0735544920868347,1
996,483,11,0.0741376190834222,1
996,484,11,0.070660100649919,1
997,470,11,0.0749642265914475,1
997,471,11,0.0817549040336711,1
997,472,11,0.0948322669110305,1
997,473,11,0.106401080818235,1
997,474,11,0.0927854623741209,1
997,475,11,0.0736065095786148,1
997,482,11,0.0725520344532501,1
997,483,11,0.071463844930567,1
998,470,11,0.0733800044400123,1
998,471,11,0.0811806748574069,1
998,472,11,0.0946597951766251,1
998,473,11,0.107559799469823,1
998,474,11,0.0930882732734169,1
998,475,11,0.0728870165341522,1
998,481,11,0.0714933328632318,1
998,482,11,0.0734976155509875,1
998,483,11,0.0697970398842572,1
999,471,11,0.071538920289544,1
999,472,11,0.0825900756937575,1
999,473,11,0.0914271961989401,1
999,474,11,0.0808011202578232,1
999,480,11,0.0700781901522039,1
999,481,11,0.0732690458400132,1
999,482,11,0.0733301766462024,1
1000,472,11,0.0703816197280693,1
1000,473,11,0.0724008827305097,1
1000,480,11,0.0699353036703731,1
1000,481,11,0.069974224682865,1
1004,470,11,0.0764570305904838,1
1004,471,11,0.0738553496365129,1
1005,469,11,0.0764298296756989,1
1005,470,11,0.100645164268222,1
1005,471,11,0.0943039518779183,1
1005,472,11,0.0717132619565017,1
1005,477,11,0.0713964091845081,1
1006,469,11,0.070114073393226,1
1006,470,11,0.0949453665490449,1
1006,471,11,0.091282272950426,1
1006,472,11,0.0703586730836264,1
1006,477,11,0.0698858164962474,1
985,487,12,0.0710557130346172,1
985,488,12,0.0705338697755058,1
986,485,12,0.0824221710436899,1
986,486,12,0.0873840335955002,1
986,487,12,0.0831016656052309,1
986,488,12,0.080416678808484,1
986,489,12,0.0755456643924579,1
987,484,12,0.0818239594610857,1
987,485,12,0.122264921255402,1
987,486,12,0.123325986328944,1
987,487,12,0.0994284081932909,1
987,488,12,0.087688575398906,1
987,489,12,0.081275436643849,1
988,484,12,0.0881253888625538,1
988,485,12,0.135353587145141,1
988,486,12,0.132094218240843,1
988,487,12,0.0991040339825554,1
988,488,12,0.0831700189390106,1
988,489,12,0.0780980945206555,1
989,485,12,0.0959717023176375,1
989,486,12,0.0991797141152575,1
989,487,12,0.0853697339084588,1
989,488,12,0.0776251336619447,1
989,489,12,0.0721628312797535,1
990,486,12,0.0844496923356178,1
990,487,12,0.0903517972929716,1
990,488,12,0.0821645235339562,1
991,486,12,0.0924248643026789,1
991,487,12,0.103951809794409,1
991,488,12,0.0923886265391283,1
991,489,12,0.0717446476274073,1
992,486,12,0.082028046263327,1
992,487,12,0.0918553064820844,1
992,488,12,0.0852803455713213,1
992,489,12,0.0710985268435005,1
993,476,12,0.0751092054513386,1
993,477,12,0.0825032315771186,1
993,478,12,0.0762430588659773,1
993,487,12,0.0713303498200305,1
994,476,12,0.0809994373796987,1
994,477,12,0.0896114499821265,1
994,478,12,0.081571268315329,1
994,479,12,0.0700742208901691,1
995,476,12,0.0745884396626569,1
995,477,12,0.0795970157711641,1
995,478,12,0.0752702559991885,1
995,483,12,0.070735662608445,1
996,472,12,0.0853836089470253,1
996,473,12,0.0981078951916846,1
996,474,12,0.0811240068642235,1
996,481,12,0.0700503566580054,1
996,482,12,0.0741555259468226,1
996,483,12,0.075397696421052,1
996,484,12,0.0717781465306398,1
997,471,12,0.0764590743085893,1
997,472,12,0.105809320155365,1
997,473,12,0.124203909235114,1
997,474,12,0.0968000963411496,1
997,475,12,0.0723605783850145,1
997,481,12,0.0712766570355177,1
997,482,12,0.074623224578983,1
997,483,12,0.0734372494012323,1
998,471,12,0.0750692486769497,1
998,472,12,0.0963657714866234,1
998,473,12,0.111344091113235,1
998,474,12,0.0902473174183953,1
998,475,12,0.0711085438427862,1
998,479,12,0.0704747757359999,1
998,480,12,0.0729149960082154,1
998,481,12,0.0760962239763781,1
998,482,12,0.0777990095836198,1
998,483,12,0.073104762880874,1
999,472,12,0.0767013800296876,1
999,473,12,0.0834630422359511,1
999,474,12,0.0745100484753251,1
999,480,12,0.0727632186574835,1
999,481,12,0.0785724804209025,1
999,482,12,0.0796942661667278,1
999,483,12,0.073062838854023,1
1000,480,12,0.0705452840106391,1
1000,481,12,0.0749309570851452,1
1000,482,12,0.0735967358791035,1
1004,470,12,0.0700791911569903,1
1004,471,12,0.070087247855236,1
1004,478,12,0.0701976920499977,1
1005,470,12,0.0904563675360356,1
1005,471,12,0.0898718502550227,1
1005,472,12,0.0713914528205312,1
1005,477,12,0.0711573984374983,1
1005,478,12,0.0724615199857279,1
1006,470,12,0.0911882132576188,1
1006,471,12,0.0920717390100241,1
1006,472,12,0.0730589738633201,1
985,488,13,0.0705511023509598,1
985,489,13,0.0708735093092333,1
986,485,13,0.0730818509935417,1
986,486,13,0.0740573718663823,1
986,487,13,0.0737725442961301,1
986,488,13,0.078709791862187,1
986,489,13,0.0811300406986302,1
987,484,13,0.0763176337225611,1
987,485,13,0.100290864185228,1
987,486,13,0.0953982656034958,1
987,487,13,0.0823962213848879,1
987,488,13,0.081899215557038,1
987,489,13,0.0845969165048561,1
987,490,13,0.0799433425729782,1
988,484,13,0.0809099378198071,1
988,485,13,0.112553708077641,1
988,486,13,0.106147235736405,1
988,487,13,0.0842583196844477,1
988,488,13,0.0763983466848835,1
988,489,13,0.0781583703019231,1
988,490,13,0.0759127481407448,1
989,485,13,0.0830527067391869,1
989,486,13,0.0856394768926943,1
989,487,13,0.0785652648447342,1
989,488,13,0.0725090607616579,1
989,489,13,0.0715102943332229,1
990,486,13,0.0806274945873447,1
990,487,13,0.0965600359293985,1
990,488,13,0.0840988332065765,1
991,486,13,0.0929242544683185,1
991,487,13,0.120216976685264,1
991,488,13,0.101796312821114,1
991,489,13,0.0718729778313031,1
992,486,13,0.0812156266078639,1
992,487,13,0.100952208583594,1
992,488,13,0.087574356581929,1
993,476,13,0.0756035071759809,1
993,477,13,0.0862712707955964,1
993,478,13,0.0793211624868785,1
993,487,13,0.069845776304793,1
994,476,13,0.0820604676961297,1
994,477,13,0.0951531376050137,1
994,478,13,0.0863835501657998,1
994,479,13,0.0704539145181953,1
995,476,13,0.073820731554318,1
995,477,13,0.0812614642853727,1
995,478,13,0.0769792770320786,1
995,479,13,0.0701631851905568,1
996,472,13,0.0924589679796364,1
996,473,13,0.101426803026505,1
996,474,13,0.078539523728596,1
996,479,13,0.0707198828802155,1
996,480,13,0.0701016720561506,1
996,481,13,0.0701790552872739,1
996,482,13,0.0724220220051994,1
996,483,13,0.071543772382189,1
997,471,13,0.0771777748909294,1
997,472,13,0.113904522328302,1
997,473,13,0.128903473775788,1
997,474,13,0.0944056581350658,1
997,479,13,0.0723303953101369,1
997,480,13,0.0735819988641932,1
997,481,13,0.073007171865626,1
997,482,13,0.0756596538125047,1
997,483,13,0.0724064091111011,1
998,471,13,0.0703363103586422,1
998,472,13,0.0939477332024167,1
998,473,13,0.106293549269344,1
998,474,13,0.0836732254353982,1
998,479,13,0.0733717322476806,1
998,480,13,0.0769822661435935,1
998,481,13,0.0772428888619977,1
998,482,13,0.0805855636090716,1
998,483,13,0.0735184976230585,1
999,472,13,0.0707825777563835,1
999,473,13,0.0754274902162904,1
999,479,13,0.0698975504967987,1
999,480,13,0.074872822341893,1
999,481,13,0.0803737398740024,1
999,482,13,0.0862912561342129,1
999,483,13,0.0764011828651115,1
1000,480,13,0.0711087176283394,1
1000,481,13,0.076067326914594,1
1000,482,13,0.0792279508675709,1
1001,480,13,0.0697442438331988,1
1001,481,13,0.0703878690565619,1
1002,478,13,0.0712281291576456,1
1002,479,13,0.0703466332205016,1
1003,478,13,0.0734984497216428,1
1003,479,13,0.0711321091637984,1
1004,477,13,0.0700642595022604,1
1004,478,13,0.0751257984959569,1
1004,479,13,0.0730421097132388,1
1005,470,13,0.0749462849709364,1
1005,471,13,0.0819554039020946,1
1005,472,13,0.0723950157302341,1
1005,477,13,0.069837267764109,1
1005,478,13,0.0758335714427126,1
1005,479,13,0.0754443404635275,1
1006,470,13,0.0790531365039085,1
1006,471,13,0.0878253098721539,1
1006,472,13,0.0776554210081542,1
1006,478,13,0.0699769913488717,1
1007,471,13,0.0698433015985157,1
986,488,14,0.0707195909204862,1
986,489,14,0.0772424300681373,1
987,485,14,0.0747718876926017,1
987,486,14,0.0731234830606633,1
987,488,14,0.0708639093952752,1
987,489,14,0.0773906830478505,1
987,490,14,0.0779850087854853,1
988,485,14,0.080293138134434,1
988,486,14,0.0796793345119979,1
988,487,14,0.0703590484604213,1
988,489,14,0.0705284963262012,1
989,486,14,0.0697763037920508,1
990,487,14,0.0897171880641079,1
990,488,14,0.0772409216095356,1
991,486,14,0.0840806204806024,1
991,487,14,0.119246321807913,1
991,488,14,0.100037311063127,1
992,486,14,0.0717519188149527,1
992,487,14,0.095949541183895,1
992,488,14,0.0812722111839818,1
993,476,14,0.0729213426566178,1
993,477,14,0.085157875416279,1
993,478,14,0.0794365978027278,1
994,476,14,0.0794394409343779,1
994,477,14,0.0939154368952124,1
994,478,14,0.0862373617584584,1
994,479,14,0.0711888536226252,1
995,476,14,0.0712414341795976,1
995,477,14,0.0791770942632861,1
995,478,14,0.0756676688022177,1
995,479,14,0.0763651953527574,1
995,480,14,0.0781872951693956,1
995,481,14,0.070695212283085,1
996,472,14,0.0925750914862763,1
996,473,14,0.0919625738769338,1
996,474,14,0.0710940570790725,1
996,479,14,0.0827221457627579,1
996,480,14,0.0903212805498319,1
996,481,14,0.0816801136830014,1
997,471,14,0.0738579355655443,1
997,472,14,0.105846440749526,1
997,473,14,0.110070590579477,1
997,474,14,0.0814887618860977,1
997,479,14,0.0803594477501083,1
997,480,14,0.088608672583124,1
997,481,14,0.0813385972652994,1
997,482,14,0.0727847333089681,1
998,472,14,0.0824428654273634,1
998,473,14,0.0884353041152641,1
998,474,14,0.0722734701143348,1
998,479,14,0.0741107587883215,1
998,480,14,0.0802686621771231,1
998,481,14,0.0771990462426396,1
998,482,14,0.078440896951451,1
998,483,14,0.0711682704617057,1
999,479,14,0.0701477599848559,1
999,480,14,0.0755823887555575,1
999,481,14,0.0796983536029388,1
999,482,14,0.088449964664531,1
999,483,14,0.0779406795665783,1
1000,478,14,0.0707552725702666,1
1000,479,14,0.0705593884461358,1
1000,480,14,0.0724392476292314,1
1000,481,14,0.0754765742079327,1
1000,482,14,0.0815842674747074,1
1000,483,14,0.0702932393471402,1
1001,478,14,0.0725104023861285,1
1001,479,14,0.0719392735441331,1
1001,480,14,0.0721991385575254,1
1001,481,14,0.0720714548358875,1
1001,482,14,0.071593551516044,1
1002,478,14,0.0746439120112344,1
1002,479,14,0.0728163205711155,1
1002,480,14,0.0707542090026811,1
1003,477,14,0.0730677882665778,1
1003,478,14,0.0786814370113289,1
1003,479,14,0.0747172564661016,1
1004,477,14,0.071808197528497,1
1004,478,14,0.0781076179689702,1
1004,479,14,0.0764933517711,1
1005,471,14,0.0720685491414382,1
1005,472,14,0.0715851124895812,1
1005,478,14,0.0776877242667807,1
1005,479,14,0.0804579076931222,1
1006,462,14,0.0858328654562813,1
1006,471,14,0.078431790588464,1
1006,472,14,0.0798851105098162,1
1006,478,14,0.0706378978076438,1
1006,479,14,0.0721340384893014,1
1007,461,14,0.0819622093443574,1
1007,462,14,0.108992633550166,1
1007,463,14,0.0861274736774669,1
1008,462,14,0.084981337099929,1
1008,463,14,0.0719993963941138,1
986,489,15,0.0700837929984387,1
990,487,15,0.0770515231622498,1
991,486,15,0.0750293753196264,1
991,487,15,0.10381533252378,1
991,488,15,0.0913751648043158,1
992,487,15,0.0845527680229243,1
992,488,15,0.0749610289372688,1
993,477,15,0.0767599805182224,1
993,478,15,0.0732309450953324,1
994,476,15,0.0715169746498875,1
994,477,15,0.0828412514294904,1
994,478,15,0.0782795405410275,1
995,477,15,0.071116711763786,1
995,479,15,0.0761936829146056,1
995,480,15,0.0852746801622873,1
995,481,15,0.0721619136920326,1
996,472,15,0.0819406390814958,1
996,473,15,0.075692165613795,1
996,479,15,0.0883359821959064,1
996,480,15,0.109799902201832,1
996,481,15,0.0925454228166362,1
997,472,15,0.084016535320009,1
997,473,15,0.0814568965670652,1
997,479,15,0.0807161947336916,1
997,480,15,0.0995986971811483,1
997,481,15,0.087553585732612,1
997,482,15,0.070461748770933,1
998,479,15,0.0714299289420069,1
998,480,15,0.0799431618360029,1
998,481,15,0.0780952583404275,1
998,482,15,0.0770304325475149,1
998,483,15,0.0728224030654771,1
999,479,15,0.0705961128092354,1
999,480,15,0.0737242527666104,1
999,481,15,0.0786271185988246,1
999,482,15,0.0853639155681381,1
999,483,15,0.0784051735931378,1
1000,478,15,0.0749865684621652,1
1000,479,15,0.0741348107088827,1
1000,480,15,0.0725824747307464,1
1000,481,15,0.0745177993109973,1
1000,482,15,0.0786592758775865,1
1000,483,15,0.0697481435810123,1
1001,477,15,0.0705203214537793,1
1001,478,15,0.0768810186803064,1
1001,479,15,0.0753811867934992,1
1001,480,15,0.0730519529269714,1
1001,481,15,0.071266042213929,1
1001,482,15,0.0708953228718694,1
1002,477,15,0.0720047350863077,1
1002,478,15,0.0774991947472607,1
1002,479,15,0.0750850562108677,1
1002,480,15,0.0729556131677063,1
1003,477,15,0.0751637810664616,1
1003,478,15,0.0803607615688904,1
1003,479,15,0.0760604797637985,1
1003,480,15,0.070955494381805,1
1004,477,15,0.0726290353561564,1
1004,478,15,0.0783676011565387,1
1004,479,15,0.0765985615449997,1
1005,478,15,0.0767689756584554,1
1005,479,15,0.0795582615928033,1
1006,461,15,0.071514659826319,1
1006,462,15,0.106238063017923,1
1006,463,15,0.0764297532100555,1
1006,472,15,0.0759726068366847,1
1006,479,15,0.0722281537934856,1
1007,461,15,0.0957852026133788,1
1007,462,15,0.141758724813329,1
1007,463,15,0.101910295289739,1
1008,462,15,0.0963415388290869,1
1008,463,15,0.0731514277776159,1
980,487,16,0.0711846758179266,1
980,488,16,0.0790599419461713,1
981,488,16,0.0750214089898683,1
985,460,16,0.0723228391142843,1
991,487,16,0.0813688985143532,1
991,488,16,0.075824597156746,1
992,487,16,0.0718746253183473,1
995,480,16,0.0818433261231329,1
996,479,16,0.083942224617466,1
996,480,16,0.111894622891467,1
996,481,16,0.0892696137990067,1
997,479,16,0.0746457263324097,1
997,480,16,0.0978932283249653,1
997,481,16,0.0831716594746326,1
998,480,16,0.0754993609696667,1
998,481,16,0.0762858031606393,1
998,482,16,0.074444725961593,1
998,483,16,0.0721570963564983,1
999,478,16,0.0707158302011152,1
999,479,16,0.0720055205970082,1
999,480,16,0.0718359476056299,1
999,481,16,0.0787105078586661,1
999,482,16,0.0818419636443959,1
999,483,16,0.0760327922494646,1
1000,477,16,0.0701519794980873,1
1000,478,16,0.0796833524339876,1
1000,479,16,0.0790415693374883,1
1000,480,16,0.0732364436702352,1
1000,481,16,0.0760185070769926,1
1000,482,16,0.0772209501737633,1
1001,477,16,0.072818093183758,1
1001,478,16,0.081268408756078,1
1001,479,16,0.0804146698474891,1
1001,480,16,0.0742004390851884,1
1001,481,16,0.0713537622097559,1
1001,482,16,0.0701795627410892,1
1002,477,16,0.0727898634584982,1
1002,478,16,0.0784927893176328,1
1002,479,16,0.0781071452722655,1
1002,480,16,0.0746769938291392,1
1003,477,16,0.0734173474796813,1
1003,478,16,0.0776859377512939,1
1003,479,16,0.0758762392717312,1
1003,480,16,0.0723688992373011,1
1004,477,16,0.070484813589552,1
1004,478,16,0.0750689497657982,1
1004,479,16,0.0736579153452477,1
1005,478,16,0.0732068306119721,1
1005,479,16,0.0740755428838236,1
1006,462,16,0.103773596185326,1
1006,463,16,0.0717473239249264,1
1006,479,16,0.0704571955894394,1
1007,461,16,0.0900119492165803,1
1007,462,16,0.139162549385683,1
1007,463,16,0.097908153028273,1
1008,462,16,0.0875090618738854,1
980,488,17,0.0805030710826845,1
981,488,17,0.0723773104580754,1
996,480,17,0.0900589269273179,1
996,481,17,0.0732084294390614,1
997,480,17,0.0810911405404047,1
997,481,17,0.070518180415764,1
998,481,17,0.0698343968267703,1
999,478,17,0.0746695488560406,1
999,479,17,0.0734735497275821,1
999,480,17,0.0705235469136464,1
999,481,17,0.0749539801952315,1
999,482,17,0.0745849709030153,1
1000,477,17,0.0738500596042739,1
1000,478,17,0.0854168436962168,1
1000,479,17,0.0823231271812172,1
1000,480,17,0.0724077576869938,1
1000,481,17,0.0729183883022136,1
1000,482,17,0.0715807330936409,1
1001,477,17,0.0743824829278634,1
1001,478,17,0.0828636697658516,1
1001,479,17,0.0809695115074398,1
1001,480,17,0.071511496929251,1
1002,477,17,0.0719433192718113,1
1002,478,17,0.076000099711199,1
1002,479,17,0.0770776813637155,1
1002,480,17,0.0715729196951696,1
1003,478,17,0.0719408584683782,1
1003,479,17,0.0731264513179118,1
1004,478,17,0.0699445490618027,1
1004,479,17,0.070198630491985,1
1006,462,17,0.0815874998859967,1
1007,461,17,0.0718311928328947,1
1007,462,17,0.102945362044523,1
1007,463,17,0.0788670886420881,1
1009,481,17,0.071372308603992,1
980,488,18,0.0732618441666891,1
981,489,18,0.070055354730515,1
999,478,18,0.0719500343455864,1
999,479,18,0.0697927717110709,1
1000,477,18,0.0712000384608283,1
1000,478,18,0.0834526707141368,1
1000,479,18,0.078701450155634,1
1000,480,18,0.0702542766261156,1
1001,477,18,0.071675494880083,1
1001,478,18,0.0786584208526648,1
1001,479,18,0.0755195965594798,1
1002,477,18,0.0711201944262719,1
1002,478,18,0.0728809340397906,1
1002,479,18,0.0735764655321798,1
1003,479,18,0.070736642758965,1
1005,484,18,0.0700456574966472,1
1006,481,18,0.0711304825310206,1
1007,462,18,0.0698577188480081,1
1008,481,18,0.0705744243721976,1
1009,481,18,0.0772419712742769,1
1009,482,18,0.0721657022170921,1
1010,481,18,0.0800471481596082,1
980,489,19,0.0795701276703749,1
981,489,19,0.0749916708060068,1
1000,478,19,0.0760933599904615,1
1000,479,19,0.0732026110987407,1
1001,478,19,0.07098008156187,1
1002,477,19,0.0699120928718894,1
1004,483,19,0.0709133826665566,1
1004,484,19,0.0773075718448941,1
1004,485,19,0.0703205167275685,1
1005,483,19,0.0699628104477316,1
1005,484,19,0.074176262039029,1
1009,481,19,0.0770222646265151,1
1009,482,19,0.0721898723118295,1
1010,481,19,0.0785681079763843,1
980,489,20,0.0756791595029944,1
981,489,20,0.0731761470347013,1
981,490,20,0.0700946511198018,1
982,490,20,0.0714009206574688,1
1004,483,20,0.0717170018216063,1
1004,484,20,0.0780529589367817,1
1004,485,20,0.069797575143761,1
1005,484,20,0.0707404938468236,1
1009,481,20,0.0709556403616697,1
1010,481,20,0.0742586294398177,1
982,490,21,0.0795047773509543,1
982,491,21,0.0949657411673006,1
983,490,21,0.0784007802943532,1
983,491,21,0.0954915675912911,1
1004,484,21,0.0701464392146517,1
976,482,22,0.0704449263293844,1
976,483,22,0.0701053076499233,1
982,490,22,0.0709542431258221,1
982,491,22,0.0953959160228167,1
983,490,22,0.0710244107807771,1
983,491,22,0.10206533980887,1
984,491,22,0.0792645292508058,1
984,492,22,0.0812991687989922,1
1011,462,22,0.0730179813270343,1
975,480,23,0.0721182031496949,1
975,481,23,0.0758189317477121,1
975,482,23,0.070881183679262,1
976,480,23,0.0724548535719076,1
976,481,23,0.0804031791467124,1
976,482,23,0.0748865861577054,1
976,483,23,0.0709075782290802,1
982,491,23,0.0773441432767069,1
983,491,23,0.0866503596498975,1
983,492,23,0.093211063193877,1
984,491,23,0.0778837196136655,1
984,492,23,0.0989825370266109,1
985,492,23,0.0921010948656685,1
986,492,23,0.071978034673916,1
999,451,23,0.0699659663933775,1
999,452,23,0.074921948042068,1
1000,451,23,0.0701810155883139,1
1000,452,23,0.0788781066461602,1
1011,462,23,0.0784776838773498,1
973,477,24,0.08457379607486,1
973,478,24,0.0778747731333874,1
974,477,24,0.0751073841787412,1
974,478,24,0.071772599295782,1
974,480,24,0.0720980301226809,1
975,479,24,0.0722061247367635,1
975,480,24,0.0916769538445591,1
975,481,24,0.0886785969383045,1
975,482,24,0.0721336075011295,1
976,480,24,0.083854720115725,1
976,481,24,0.0874213071209479,1
976,482,24,0.0743358944967649,1
983,492,24,0.0799936291606486,1
984,492,24,0.0962635925327712,1
985,492,24,0.0962147726951698,1
986,492,24,0.0780859503861988,1
998,451,24,0.0701055579011199,1
999,451,24,0.090646391611313,1
999,452,24,0.0938297189089582,1
1000,451,24,0.0816368688859462,1
1000,452,24,0.0899933263567007,1
1011,462,24,0.0735053038238605,1
973,476,25,0.0736897111500588,1
973,477,25,0.0965562335014947,1
973,478,25,0.0897549273348381,1
973,479,25,0.0727062030931938,1
974,477,25,0.0834570709643435,1
974,478,25,0.0836527117886999,1
974,479,25,0.0813571436595356,1
974,480,25,0.0797535131375205,1
975,479,25,0.0841104837900622,1
975,480,25,0.0974929445845975,1
975,481,25,0.0859738055399164,1
976,480,25,0.080350327484277,1
976,481,25,0.077263569342827,1
984,492,25,0.0740025460000627,1
985,492,25,0.07919246385761,1
986,492,25,0.0731462698223973,1
998,451,25,0.0781642373021987,1
998,452,25,0.0722639744717086,1
999,450,25,0.0701862708634423,1
999,451,25,0.0958102416358821,1
999,452,25,0.0941193360090562,1
1000,451,25,0.0764405487686195,1
1000,452,25,0.0809259121878561,1
973,477,26,0.0868332376632277,1
973,478,26,0.0886713048964928,1
973,479,26,0.0764856565468049,1
974,477,26,0.0767089779340729,1
974,478,26,0.0870606534381289,1
974,479,26,0.0860983402673306,1
974,480,26,0.0746173992872401,1
975,479,26,0.0823476309442167,1
975,480,26,0.082470539038853,1
998,451,26,0.0745094715072885,1
998,452,26,0.0699437913567908,1
999,451,26,0.0829065113804234,1
999,452,26,0.0828051944029151,1
973,478,27,0.0768324212882131,1
973,479,27,0.0698117212877904,1
974,478,27,0.0790252752040215,1
974,479,27,0.0766047135535826,1
990,493,27,0.0698059377045804,1
999,452,27,0.071657177882777,1
988,493,28,0.0738865615218654,1
989,493,28,0.0850709756882631,1
989,494,28,0.0940269863660924,1
990,493,28,0.0796798211115469,1
990,494,28,0.090004247040863,1
988,493,29,0.0889712726641387,1
989,493,29,0.0962364472293633,1
989,494,29,0.0966340199151014,1
990,493,29,0.0823146255919553,1
990,494,29,0.0876423484417581,1
1002,492,29,0.0703970240795038,1
1002,493,29,0.0722170732266144,1
1003,492,29,0.072510645685903,1
979,465,30,0.0773268828955643,1
979,466,30,0.0948820321420412,1
979,467,30,0.0731348138787312,1
980,466,30,0.074191805418906,1
988,493,30,0.0909011125723309,1
988,494,30,0.0850109779638806,1
989,493,30,0.0916341886956307,1
989,494,30,0.0898096697840922,1
990,493,30,0.0746860862892819,1
990,494,30,0.0778913036152066,1
1001,492,30,0.0777933094174753,1
1001,493,30,0.0897201632727785,1
1002,492,30,0.0933147297520645,1
1002,493,30,0.110460092664125,1
1003,492,30,0.0864133231067718,1
979,465,31,0.0822650410979198,1
979,466,31,0.108810763493044,1
979,467,31,0.0796124131711765,1
980,466,31,0.073258243330027,1
988,493,31,0.0789216781600553,1
989,493,31,0.0764009256624928,1
1001,492,31,0.0800200237104667,1
1001,493,31,0.100563359932626,1
1002,492,31,0.101122275125943,1
1002,493,31,0.13082436025228,1
1003,492,31,0.0826157403442522,1
978,466,32,0.102373225246319,1
979,465,32,0.0878203743624434,1
979,466,32,0.110038196952363,1
979,467,32,0.0747999644865746,1
995,447,32,0.0698033934840817,1
996,447,32,0.0700778981924745,1
1001,492,32,0.0773201330646785,1
1002,492,32,0.0957546719673948,1
1005,455,32,0.0697766166060466,1
1005,456,32,0.0746858568923517,1
1006,456,32,0.0698456303249284,1
978,464,33,0.0739726618363366,1
978,465,33,0.105909955893505,1
978,466,33,0.0981325310317045,1
979,464,33,0.0703402518149885,1
979,465,33,0.104369284401698,1
979,466,33,0.103392783378338,1
995,447,33,0.07640349768868,1
995,448,33,0.0707628218146971,1
996,447,33,0.0745681832185774,1
1005,456,33,0.0750127683721638,1
1005,457,33,0.0730937379253798,1
978,465,34,0.0994411988100055,1
978,466,34,0.0787084363348721,1
979,464,34,0.071316912721058,1
979,465,34,0.10613388900592,1
979,466,34,0.0854679575031203,1
989,448,34,0.0751129105593326,1
994,447,34,0.0732388210566028,1
995,447,34,0.0780087826491614,1
996,447,34,0.071665901917547,1
1005,456,34,0.0701410310082365,1
1005,457,34,0.0710214147178401,1
973,478,35,0.0767867156877248,1
979,465,35,0.0805716190562838,1
988,448,35,0.0848435529619398,1
989,447,35,0.0761025914790469,1
989,448,35,0.0969924560942617,1
989,449,35,0.072705779056444,1
990,448,35,0.0759519124530112,1
993,447,35,0.0739212004583267,1
994,447,35,0.0753916834409117,1
995,447,35,0.0709736097878693,1
987,448,36,0.0786773148180073,1
988,447,36,0.0784450121933505,1
988,448,36,0.11108558857858,1
988,449,36,0.0856952203467347,1
989,447,36,0.0817351967519397,1
989,448,36,0.11087493963385,1
989,449,36,0.0797713087781669,1
990,448,36,0.073982331264516,1
993,447,36,0.0715865514339616,1
1005,458,36,0.0776935078499908,1
1006,457,36,0.0784081001418535,1
1006,458,36,0.09374225611575,1
1006,459,36,0.0753190549825236,1
1007,458,36,0.0714392299448135,1
987,448,37,0.0894470627516554,1
987,449,37,0.0773905092622973,1
988,447,37,0.0777087940272491,1
988,448,37,0.11863063435008,1
988,449,37,0.0935727387357488,1
989,447,37,0.0713002988221733,1
989,448,37,0.100519482556157,1
989,449,37,0.0751687374304385,1
1003,452,37,0.0705298240478276,1
1003,453,37,0.0744196243762906,1
1003,454,37,0.0723267597163642,1
1005,458,37,0.0891305714536124,1
1006,457,37,0.0832828335687178,1
1006,458,37,0.110556835605874,1
1006,459,37,0.0819974113460111,1
1007,458,37,0.0749235468691573,1
987,448,38,0.0876768274955105,1
987,449,38,0.0768942472366151,1
988,448,38,0.106326943901245,1
988,449,38,0.0880458159334603,1
989,448,38,0.076470398175235,1
989,491,38,0.0832103788958828,1
990,491,38,0.0740876870182803,1
990,492,38,0.0740674305742008,1
997,451,38,0.0731707735853967,1
998,450,38,0.0839974258605805,1
998,451,38,0.104428218558495,1
998,452,38,0.0702099056986758,1
999,450,38,0.0731291693239636,1
999,451,38,0.0873203933259229,1
1002,453,38,0.0728470110998084,1
1002,454,38,0.0719315991741043,1
1002,455,38,0.0725602301799384,1
1003,452,38,0.0705465700237327,1
1003,453,38,0.0808996914235912,1
1003,454,38,0.0845862669261568,1
1003,455,38,0.0887126867124178,1
1003,456,38,0.0714668827020367,1
1004,455,38,0.0769620722623131,1
1005,458,38,0.0889639389137941,1
1006,457,38,0.0761981665818778,1
1006,458,38,0.105068312459418,1
1006,459,38,0.0788082239995124,1
987,448,39,0.0731880339665393,1
988,448,39,0.0787341148882111,1
988,449,39,0.0712058637525712,1
989,490,39,0.0698620426325714,1
989,491,39,0.103090132361751,1
990,491,39,0.0794117881771547,1
997,450,39,0.0728933006197554,1
997,451,39,0.0947792345116198,1
998,450,39,0.102333477014594,1
998,451,39,0.130503315772743,1
998,452,39,0.081822451002484,1
999,450,39,0.0827098625998586,1
999,451,39,0.0996857220347624,1
1002,453,39,0.0737491805663596,1
1002,454,39,0.0775755144107986,1
1002,455,39,0.0835845391918955,1
1003,453,39,0.0757419795047607,1
1003,454,39,0.0866736399626025,1
1003,455,39,0.0995065630322704,1
1003,456,39,0.0769533343246988,1
1004,455,39,0.0785634435721367,1
1005,458,39,0.0744448649900356,1
1006,458,39,0.0785776522789653,1
988,490,40,0.0700208131139635,1
989,490,40,0.0735580998749189,1
989,491,40,0.0998621352255141,1
990,491,40,0.0733463873626038,1
997,450,40,0.0724473807931206,1
997,451,40,0.0942008275306569,1
998,450,40,0.0963622471156047,1
998,451,40,0.119488537160523,1
998,452,40,0.0757131658600422,1
999,450,40,0.0835983864247735,1
999,451,40,0.094651557741404,1
1002,454,40,0.0762864774485856,1
1002,455,40,0.0805750461073927,1
1003,454,40,0.0731814162126739,1
1003,455,40,0.085397880216653,1
1003,456,40,0.0715460733029132,1
989,490,41,0.0710706724950356,1
989,491,41,0.0849000263153036,1
997,451,41,0.0793227613139678,1
998,450,41,0.0761152986786959,1
998,451,41,0.0875970251694868,1
999,450,41,0.0725826485162996,1
999,451,41,0.0771832178544552,1
1001,469,41,0.0782682305772261,1
1000,469,42,0.0721000946950528,1
1001,468,42,0.0710991872286026,1
1001,469,42,0.0962746870024867,1
990,485,43,0.071233384432774,1
993,490,43,0.0822075180798148,1
1000,469,43,0.070809215605976,1
1001,469,43,0.0932934236432437,1
1006,472,43,0.0778357617524079,1
988,484,44,0.073175695192263,1
989,484,44,0.0927424261197295,1
989,485,44,0.0754464328415879,1
990,484,44,0.0827560269942073,1
990,485,44,0.0745075112062486,1
993,490,44,0.0783437716814856,1
1001,469,44,0.0729771486734573,1
1005,472,44,0.0705070928974706,1
1006,471,44,0.0804631560168284,1
1006,472,44,0.0891890259622826,1
985,462,45,0.0809563246596639,1
988,483,45,0.0864021382685687,1
988,484,45,0.100119344795654,1
988,485,45,0.0698223430608012,1
989,463,45,0.0741804885036825,1
989,483,45,0.0865584548979498,1
989,484,45,0.109648521082162,1
989,485,45,0.0783304805623778,1
990,463,45,0.0840549141215749,1
990,484,45,0.0764275774149296,1
1006,471,45,0.0755632723447069,1
1006,472,45,0.0771494408943377,1
981,482,46,0.0697647991884298,1
984,462,46,0.0707404590897129,1
985,462,46,0.0873180993566209,1
987,483,46,0.0771810281564851,1
987,484,46,0.0785676630853681,1
988,483,46,0.103627004595502,1
988,484,46,0.110013004998573,1
989,462,46,0.0783033422103921,1
989,463,46,0.103450640064705,1
989,483,46,0.0851978530449342,1
989,484,46,0.0985681071422136,1
990,462,46,0.0888266622296203,1
990,463,46,0.114701509826642,1
990,464,46,0.0719705827493953,1
990,476,46,0.0750966928915091,1
981,481,47,0.0697464265797468,1
987,483,47,0.0767894893051536,1
987,484,47,0.0757842232970295,1
988,463,47,0.0705132310032092,1
988,483,47,0.0939367012955004,1
988,484,47,0.094068729655968,1
989,462,47,0.0858055116102096,1
989,463,47,0.116241812893075,1
989,464,47,0.0731765780228732,1
989,484,47,0.0711092737421096,1
990,462,47,0.0899436445427555,1
990,463,47,0.118119760435086,1
990,464,47,0.0727087681679588,1
988,483,48,0.0708524047916542,1
988,484,48,0.0704094949308005,1
989,462,48,0.0770674766760324,1
989,463,48,0.103468227162688,1
990,462,48,0.0732991802549359,1
990,463,48,0.0946829017037769,1
989,463,49,0.0711292243236155,1
986,475,50,0.0702825133027975,1
987,475,50,0.0701457162667504,1
986,474,51,0.082233537252838,1
986,475,51,0.0948353116339223,1
987,474,51,0.0742125484625345,1
987,475,51,0.0881022406268692,1
993,484,51,0.069994835649473,1
985,475,52,0.0716322917915606,1
986,474,52,0.0924722799530106,1
986,475,52,0.106605536045849,1
987,474,52,0.0814404425508894,1
987,475,52,0.0968343181922832,1
986,474,53,0.0860068943092433,1
986,475,53,0.0969773506539787,1
987,474,53,0.0781589333671154,1
987,475,53,0.09013330019266,1
