x,y,z,signal,cytoplasm.p
222,337,30,0.135107284356319,1
221,337,31,0.153679051283255,1
222,336,31,0.136126905051137,1
222,337,31,0.156045454403898,1
222,338,31,0.13935080779974,1
223,336,31,0.129615855515414,1
223,337,31,0.132665736362478,1
220,337,32,0.143059627853114,1
221,336,32,0.140445503853535,1
221,337,32,0.180140612810681,1
221,338,32,0.159920010263636,1
222,335,32,0.113625068207354,1
222,336,32,0.166361587286616,1
222,337,32,0.205512677948065,1
222,338,32,0.170741233478138,1
222,339,32,0.110719860357608,1
223,335,32,0.117683419668142,1
223,336,32,0.160269889242157,1
223,337,32,0.182407415955082,1
223,338,32,0.14412201369686,1
224,336,32,0.124117127681275,1
224,337,32,0.121702439982534,1
220,337,33,0.142318689671388,1
221,336,33,0.147991522824133,1
221,337,33,0.197129735559004,1
221,338,33,0.169453287889199,1
222,335,33,0.113651101283221,1
222,336,33,0.192092345805779,1
222,337,33,0.257962492573101,1
222,338,33,0.206346973728963,1
222,339,33,0.119032968759975,1
223,335,33,0.117266417757558,1
223,336,33,0.18027192517467,1
223,337,33,0.228100420466499,1
223,338,33,0.176582402269122,1
223,339,33,0.103697359938854,1
224,336,33,0.127628151969432,1
224,337,33,0.135370520809444,1
224,338,33,0.108609450308232,1
220,337,34,0.12407336152756,1
221,336,34,0.144222211495406,1
221,337,34,0.191217787387918,1
221,338,34,0.162500294740298,1
222,335,34,0.110897177233236,1
222,336,34,0.194653305328927,1
222,337,34,0.27151843305825,1
222,338,34,0.218877913118568,1
222,339,34,0.122314762952057,1
222,345,34,0.0824449369511574,1
222,346,34,0.0839239423772707,1
223,336,34,0.172898384889899,1
223,337,34,0.230302992470442,1
223,338,34,0.183505671137006,1
223,339,34,0.106873471660331,1
224,337,34,0.131948794489936,1
224,338,34,0.111250983765259,1
224,339,34,0.085444927441612,1
224,340,34,0.0733770709398745,1
225,337,34,0.088411850017006,1
225,338,34,0.0842364296561682,1
225,339,34,0.0823051090950628,1
225,340,34,0.075813474881342,1
225,341,34,0.0750795506845427,1
226,336,34,0.0921630528910909,1
226,337,34,0.0830373440962851,1
226,338,34,0.0804925466295835,1
226,339,34,0.0809382718163988,1
226,340,34,0.074551478951205,1
227,335,34,0.0939008667144331,1
227,336,34,0.0883368928322051,1
227,337,34,0.0793246103922537,1
236,336,34,0.122600452498653,1
236,340,34,0.108484116167273,1
237,340,34,0.131913898350856,1
237,341,34,0.127202321752746,1
220,345,35,0.0864697199944923,1
220,346,35,0.0867955818095631,1
220,347,35,0.0874461097950988,1
220,348,35,0.105882129350728,1
220,349,35,0.118124751556173,1
221,336,35,0.134881363137176,1
221,337,35,0.170567058645311,1
221,338,35,0.148723674408289,1
221,341,35,0.0733786350098532,1
221,342,35,0.0778186403997079,1
221,343,35,0.0806502396405459,1
221,344,35,0.0835715539353613,1
221,345,35,0.0892796864096694,1
221,346,35,0.0918236219000272,1
221,347,35,0.091133540322586,1
221,348,35,0.0975338606552399,1
221,349,35,0.102560030813152,1
221,350,35,0.102066083611038,1
222,335,35,0.110826397853134,1
222,336,35,0.1754277571509,1
222,337,35,0.238019140546188,1
222,338,35,0.202618508956657,1
222,339,35,0.124419069652805,1
222,340,35,0.0807649867656045,1
222,341,35,0.0757709321779217,1
222,342,35,0.0800741961431063,1
222,343,35,0.0807069980022169,1
222,344,35,0.0805122678141592,1
222,345,35,0.0824589023582116,1
222,346,35,0.083421764691358,1
222,347,35,0.0825038363508437,1
222,348,35,0.082712886468484,1
222,349,35,0.0849426871929001,1
222,350,35,0.0897170976956203,1
222,351,35,0.0999730660198248,1
223,336,35,0.152887312108621,1
223,337,35,0.196260640958936,1
223,338,35,0.167692145093197,1
223,339,35,0.108417521543291,1
223,340,35,0.0781098910840059,1
223,341,35,0.0760744173651641,1
223,342,35,0.0789569010159754,1
223,343,35,0.0803226608242096,1
223,344,35,0.0816299939294621,1
223,345,35,0.0803490970825604,1
223,346,35,0.078039403663633,1
223,347,35,0.0771160393110151,1
223,348,35,0.0794272550913884,1
223,349,35,0.0835687733665103,1
223,350,35,0.0871947602738126,1
224,337,35,0.121907270586942,1
224,338,35,0.109433722138422,1
224,339,35,0.0891425209482496,1
224,340,35,0.077530288458437,1
224,341,35,0.0768934686773368,1
224,342,35,0.0787095277081462,1
224,343,35,0.0816085835493094,1
224,344,35,0.0843932884964752,1
224,345,35,0.08062800204116,1
224,346,35,0.0745754196490121,1
224,347,35,0.0734340517470537,1
224,348,35,0.0798668143667766,1
224,349,35,0.0877003302537236,1
224,350,35,0.0879464940141026,1
225,337,35,0.0913924112826141,1
225,338,35,0.0867948241045512,1
225,339,35,0.0839629259525617,1
225,340,35,0.0782403762287612,1
225,341,35,0.0761666488339518,1
225,342,35,0.0766595046627915,1
225,343,35,0.0779739977328354,1
225,344,35,0.0786301216131837,1
225,345,35,0.0734270655678155,1
225,348,35,0.0736680366158653,1
225,349,35,0.083805323310087,1
226,337,35,0.0852620077197489,1
226,338,35,0.079472592266504,1
226,339,35,0.0787354634641039,1
226,340,35,0.0742945057294177,1
226,341,35,0.070319015220389,1
226,349,35,0.0738649982104259,1
227,336,35,0.0908535509421346,1
227,337,35,0.0782265498501496,1
227,338,35,0.0697700405607139,1
228,334,35,0.0916817433744049,1
228,335,35,0.0848038811958581,1
228,336,35,0.0758002393736112,1
229,335,35,0.0780386181529326,1
230,334,35,0.0816471430878506,1
230,335,35,0.0759313153892474,1
231,334,35,0.0803008959215283,1
231,335,35,0.0739238002902024,1
232,335,35,0.0728704582466445,1
233,335,35,0.0755465819801788,1
233,336,35,0.0701400647605608,1
234,335,35,0.0823310587538647,1
234,336,35,0.0774847914006126,1
235,335,35,0.0929213626767135,1
235,336,35,0.0939506736539767,1
235,337,35,0.0801429179022588,1
235,338,35,0.0721978455930097,1
235,339,35,0.0719065879572896,1
235,340,35,0.0753275982803183,1
236,335,35,0.100959556236783,1
236,336,35,0.113374337362637,1
236,337,35,0.096515359139385,1
236,338,35,0.0825416103786846,1
236,339,35,0.0869649254040111,1
236,340,35,0.103096166196157,1
236,341,35,0.0924226120419096,1
236,351,35,0.0752505904259898,1
237,336,35,0.116796876998534,1
237,337,35,0.10082071548263,1
237,338,35,0.0834867952453607,1
237,339,35,0.0886207333005152,1
237,340,35,0.111368045713887,1
237,341,35,0.105279593983561,1
237,342,35,0.0740691545268884,1
238,337,35,0.0834589200426295,1
238,338,35,0.0743560953294674,1
238,339,35,0.0763000049160457,1
238,340,35,0.0912785678424321,1
238,341,35,0.0894717124945195,1
238,351,35,0.0826255835579848,1
239,340,35,0.0697831509428464,1
219,345,36,0.0810140145119001,1
219,346,36,0.0799124435016215,1
219,347,36,0.0904215617654432,1
219,348,36,0.153546306926308,1
219,349,36,0.193346576997399,1
219,350,36,0.149862776146634,1
220,341,36,0.0720149536768352,1
220,342,36,0.074013849012442,1
220,343,36,0.0778532167733701,1
220,344,36,0.083486266937279,1
220,345,36,0.0904439940046487,1
220,346,36,0.0918447333690284,1
220,347,36,0.0978986434828026,1
220,348,36,0.146631602210485,1
220,349,36,0.17912601104264,1
220,350,36,0.140756997079068,1
221,337,36,0.139765557449555,1
221,338,36,0.129990008860005,1
221,339,36,0.102050811336624,1
221,340,36,0.080449607695102,1
221,341,36,0.0771716715423015,1
221,342,36,0.0818141927129966,1
221,343,36,0.0838595930626364,1
221,344,36,0.0856333596412221,1
221,345,36,0.0903376372460979,1
221,346,36,0.0922084595804277,1
221,347,36,0.0908335030407189,1
221,348,36,0.105794736071741,1
221,349,36,0.117918850432757,1
221,350,36,0.106441030641201,1
221,351,36,0.101968541255745,1
222,336,36,0.140955738237693,1
222,337,36,0.178080531057508,1
222,338,36,0.165384328558244,1
222,339,36,0.118855832621322,1
222,340,36,0.0842995833261965,1
222,341,36,0.0779438980750233,1
222,342,36,0.0816727729812347,1
222,343,36,0.0814759017551618,1
222,344,36,0.0802509151964316,1
222,345,36,0.0813629898055448,1
222,346,36,0.0814627635673408,1
222,347,36,0.0787989021424394,1
222,348,36,0.0798698799439348,1
222,349,36,0.0832961246878255,1
222,350,36,0.0857955710765673,1
222,351,36,0.0951744923737894,1
223,336,36,0.127754139544071,1
223,337,36,0.150183292318089,1
223,338,36,0.139122064303213,1
223,339,36,0.103976536002917,1
223,340,36,0.0804234912021689,1
223,341,36,0.0777617638638607,1
223,342,36,0.080735519687206,1
223,343,36,0.0816880730613374,1
223,344,36,0.0818215959775624,1
223,345,36,0.0802149207326554,1
223,346,36,0.076421001369597,1
223,347,36,0.0732851870421932,1
223,348,36,0.0751645040143629,1
223,349,36,0.0794923690624567,1
223,350,36,0.0823307945998239,1
223,351,36,0.0874361066986573,1
224,337,36,0.112315455035644,1
224,338,36,0.104007059697479,1
224,339,36,0.0891620266387394,1
224,340,36,0.0792158484416469,1
224,341,36,0.0782530208656111,1
224,342,36,0.0794578830572822,1
224,343,36,0.0815046319828148,1
224,344,36,0.0831262388824516,1
224,345,36,0.07973560627412,1
224,346,36,0.0724494175598039,1
224,348,36,0.0732138863054315,1
224,349,36,0.0794467955389888,1
224,350,36,0.0792309191248193,1
225,338,36,0.0883689527910572,1
225,339,36,0.0839597352498052,1
225,340,36,0.0789889262177168,1
225,341,36,0.0765887044284229,1
225,342,36,0.0748130053544858,1
225,343,36,0.0748849108649727,1
225,344,36,0.0752925144528408,1
225,345,36,0.071442149542107,1
225,349,36,0.072356845471332,1
226,337,36,0.0869246558156265,1
226,338,36,0.0780116118779673,1
226,339,36,0.0767114943488831,1
226,340,36,0.0741650911036701,1
226,341,36,0.071019009525784,1
227,336,36,0.0926226739707391,1
227,337,36,0.0756276286107633,1
228,333,36,0.0933245451601085,1
228,334,36,0.0901158799288085,1
228,335,36,0.0842597655802502,1
228,336,36,0.0734557957954685,1
229,334,36,0.0813271065645227,1
229,335,36,0.0761530170951597,1
230,333,36,0.0867237944732524,1
230,334,36,0.0794729328861882,1
230,335,36,0.0751218500881885,1
231,333,36,0.0823091965312737,1
231,334,36,0.0760853310979043,1
231,335,36,0.0730971371708001,1
232,334,36,0.0718723869604223,1
232,335,36,0.0722757988407475,1
233,334,36,0.0703216498093753,1
233,335,36,0.0739525444206996,1
234,334,36,0.0708508337702534,1
234,335,36,0.0769044310700319,1
234,336,36,0.0743699981737224,1
235,334,36,0.0711719477640111,1
235,335,36,0.0803789117320653,1
235,336,36,0.0843472700819912,1
235,337,36,0.0745453825539992,1
236,335,36,0.0843016965585233,1
236,336,36,0.0981192260097525,1
236,337,36,0.086133368483431,1
236,338,36,0.0747925056106318,1
236,339,36,0.0752804954439823,1
236,340,36,0.0847455726670527,1
236,341,36,0.0753826674464123,1
236,352,36,0.0846258344209065,1
237,335,36,0.0835892939646307,1
237,336,36,0.10008031951183,1
237,337,36,0.0878300298877785,1
237,338,36,0.0733190474193763,1
237,339,36,0.0727596317236657,1
237,340,36,0.0837850460117411,1
237,341,36,0.0781939059718388,1
237,352,36,0.0872438442654549,1
238,336,36,0.0792466362902496,1
238,337,36,0.0720088850853179,1
238,340,36,0.0700183175534197,1
238,351,36,0.0759890956099712,1
238,352,36,0.0951086485033977,1
239,351,36,0.0826972527201193,1
241,349,36,0.0770307592643549,1
242,342,36,0.0761618036927289,1
242,343,36,0.0792341028761537,1
242,344,36,0.0787074700871964,1
242,345,36,0.074790552261014,1
242,346,36,0.0748368834894938,1
242,347,36,0.0765306600536583,1
242,348,36,0.0817650461585551,1
218,347,37,0.0886240421774479,1
218,348,37,0.147782632589201,1
218,349,37,0.192367788956159,1
218,350,37,0.137715263298738,1
219,342,37,0.0698625014264318,1
219,343,37,0.0739779240628871,1
219,344,37,0.0779190884494503,1
219,345,37,0.0835338563731639,1
219,346,37,0.0855315421613206,1
219,347,37,0.112132417139604,1
219,348,37,0.21354785459093,1
219,349,37,0.283553291159148,1
219,350,37,0.196231917682705,1
219,351,37,0.11823276275319,1
220,339,37,0.0891432299933066,1
220,340,37,0.0785347828587051,1
220,341,37,0.074876207684469,1
220,342,37,0.0773125212574489,1
220,343,37,0.0811297904474336,1
220,344,37,0.0846557463903211,1
220,345,37,0.0906200943814046,1
220,346,37,0.0925797280848354,1
220,347,37,0.106336745406445,1
220,348,37,0.17495832761463,1
220,349,37,0.230223329172861,1
220,350,37,0.165195291584909,1
220,351,37,0.116993115645193,1
221,338,37,0.11432598010047,1
221,339,37,0.100263023739607,1
221,340,37,0.0837505391523002,1
221,341,37,0.0795197368113727,1
221,342,37,0.0822058636413484,1
221,343,37,0.0828144815028774,1
221,344,37,0.082345906991529,1
221,345,37,0.0851483867250749,1
221,346,37,0.0877861386084654,1
221,347,37,0.0901052025444207,1
221,348,37,0.110046795861535,1
221,349,37,0.130138421722427,1
221,350,37,0.11154825438112,1
221,351,37,0.105938567946981,1
221,352,37,0.116028063614077,1
222,337,37,0.124956567514547,1
222,338,37,0.127825572357853,1
222,339,37,0.108625515044768,1
222,340,37,0.0858786822795237,1
222,341,37,0.0790188590413978,1
222,342,37,0.0809427971922038,1
222,343,37,0.0802683354602831,1
222,344,37,0.0783189133959577,1
222,345,37,0.0784088856525539,1
222,346,37,0.0783264904460766,1
222,347,37,0.0766607698216187,1
222,348,37,0.0792321634293801,1
222,349,37,0.0835909414516749,1
222,350,37,0.0847858005469045,1
222,351,37,0.0926702425523575,1
222,352,37,0.1040731329648,1
223,337,37,0.113991999024354,1
223,338,37,0.111503820890881,1
223,339,37,0.0965603070348614,1
223,340,37,0.0821245598081452,1
223,341,37,0.0790055192623351,1
223,342,37,0.0811456744469949,1
223,343,37,0.0808531099439148,1
223,344,37,0.0795280854693478,1
223,345,37,0.077176447169303,1
223,346,37,0.073423659370973,1
223,347,37,0.070302602912746,1
223,348,37,0.0732077690539593,1
223,349,37,0.0771972875328413,1
223,350,37,0.0792862037849993,1
223,351,37,0.0824976495851503,1
224,338,37,0.0970923341273896,1
224,339,37,0.0876820827706389,1
224,340,37,0.0810307396335388,1
224,341,37,0.079304562490838,1
224,342,37,0.0794075061011242,1
224,343,37,0.0789982689290561,1
224,344,37,0.0789357547898635,1
224,345,37,0.0758943199206848,1
224,349,37,0.0721803419120926,1
224,350,37,0.0725700872965152,1
224,351,37,0.0729886046171234,1
225,338,37,0.0884027784111296,1
225,339,37,0.0834989880397724,1
225,340,37,0.0797628002374828,1
225,341,37,0.0771064254942127,1
225,342,37,0.0739926680292196,1
225,343,37,0.0716423365965348,1
225,344,37,0.0711721354524086,1
226,337,37,0.0875887599285772,1
226,338,37,0.0776074283897859,1
226,339,37,0.0761825745420459,1
226,340,37,0.0746351462679316,1
226,341,37,0.0729336953337383,1
227,336,37,0.091323432320843,1
227,337,37,0.0726567923847115,1
228,333,37,0.0923583322414966,1
228,334,37,0.0874771617977423,1
228,335,37,0.0827175230670431,1
228,336,37,0.0721030073409242,1
229,333,37,0.0871840481323141,1
229,334,37,0.0786655460603455,1
229,335,37,0.0744859061862763,1
230,333,37,0.081965511269868,1
230,334,37,0.0753515598323918,1
230,335,37,0.0735438703138239,1
231,333,37,0.0714766216444373,1
231,335,37,0.0707943673683117,1
232,335,37,0.0701521463322184,1
233,335,37,0.0704900827675247,1
234,335,37,0.0710900043999722,1
234,336,37,0.071099263694246,1
235,335,37,0.0697379527961734,1
235,336,37,0.0738801523106638,1
235,352,37,0.0783052955600099,1
236,336,37,0.0786616046039992,1
236,337,37,0.072551867619119,1
236,352,37,0.0804209956416252,1
236,353,37,0.0984628000484041,1
237,336,37,0.0764887012696967,1
237,337,37,0.070251628134285,1
237,352,37,0.0841666095723196,1
237,353,37,0.102353573575965,1
238,351,37,0.0720158643131339,1
238,352,37,0.0952638459538163,1
238,353,37,0.115270706173285,1
239,351,37,0.0802506718966572,1
239,352,37,0.107400069692178,1
240,351,37,0.0904813857042725,1
241,349,37,0.0709900707554672,1
241,350,37,0.0851379665433058,1
242,341,37,0.069864148913476,1
242,342,37,0.0751891050972721,1
242,343,37,0.0780711021485344,1
242,344,37,0.0777085785331632,1
242,345,37,0.0731311782849585,1
242,346,37,0.0710074979707409,1
242,347,37,0.0707419258397818,1
242,348,37,0.0760621828622197,1
242,349,37,0.0878257200060594,1
243,342,37,0.0879989842025874,1
243,343,37,0.0906149642318745,1
243,344,37,0.0899122936289604,1
243,345,37,0.0846967875865619,1
243,346,37,0.0824710117355577,1
243,347,37,0.0840281580978062,1
243,348,37,0.0916040056207531,1
217,349,38,0.119020178143261,1
218,344,38,0.0726605183469718,1
218,345,38,0.0771234356241587,1
218,346,38,0.0783999113665873,1
218,347,38,0.104908116936489,1
218,348,38,0.182017955578967,1
218,349,38,0.23753073362751,1
218,350,38,0.163271193551394,1
219,341,38,0.0712814118082529,1
219,342,38,0.0738673964510599,1
219,343,38,0.0785316269130592,1
219,344,38,0.082031480265858,1
219,345,38,0.0858051570876811,1
219,346,38,0.0877961138992184,1
219,347,38,0.125271133268661,1
219,348,38,0.239682504638545,1
219,349,38,0.32620885786911,1
219,350,38,0.223449015378325,1
219,351,38,0.137616094310667,1
220,339,38,0.0894081069820529,1
220,340,38,0.0809862783376113,1
220,341,38,0.0782445053735049,1
220,342,38,0.0798546354752092,1
220,343,38,0.082193789021113,1
220,344,38,0.0828930325729182,1
220,345,38,0.0855301032169402,1
220,346,38,0.087494484741684,1
220,347,38,0.10639234288062,1
220,348,38,0.176026260693234,1
220,349,38,0.242105492335306,1
220,350,38,0.175402690322708,1
220,351,38,0.129048105064573,1
220,352,38,0.126053710468931,1
221,338,38,0.10489896886497,1
221,339,38,0.0965242013483312,1
221,340,38,0.0853110152457478,1
221,341,38,0.0802421355502846,1
221,342,38,0.0796513202808241,1
221,343,38,0.078263482755913,1
221,344,38,0.0760660756586111,1
221,345,38,0.0768537969112551,1
221,346,38,0.0794202063493511,1
221,347,38,0.0851706243244608,1
221,348,38,0.104379558603603,1
221,349,38,0.128380893665931,1
221,350,38,0.110613246396438,1
221,351,38,0.10721014293681,1
221,352,38,0.114342559242244,1
221,353,38,0.121980441256257,1
222,337,38,0.0990296885229018,1
222,338,38,0.104355374606021,1
222,339,38,0.0971909678559567,1
222,340,38,0.08499088140251,1
222,341,38,0.0788450873910545,1
222,342,38,0.0781279300244267,1
222,343,38,0.0760738334457054,1
222,344,38,0.073180714119039,1
222,345,38,0.0723028051157128,1
222,346,38,0.0716951882589702,1
222,347,38,0.0719934737824612,1
222,348,38,0.0755778147197976,1
222,349,38,0.0801192622127589,1
222,350,38,0.0808448168973167,1
222,351,38,0.0880871351865862,1
222,352,38,0.0967098738333567,1
222,353,38,0.104359343868056,1
223,337,38,0.0989803681829071,1
223,338,38,0.095844748495323,1
223,339,38,0.0904197613471122,1
223,340,38,0.0838614977522994,1
223,341,38,0.080595511094136,1
223,342,38,0.0803151741425782,1
223,343,38,0.0775432459092827,1
223,344,38,0.0740822788118652,1
223,345,38,0.071419849379922,1
223,349,38,0.0722627232157256,1
223,350,38,0.0740992194275899,1
223,351,38,0.0774075958578867,1
223,352,38,0.0828656022612031,1
224,338,38,0.0922206523748394,1
224,339,38,0.086488134311708,1
224,340,38,0.0834849948270297,1
224,341,38,0.0811606408588354,1
224,342,38,0.0793560238688479,1
224,343,38,0.0753256310278562,1
224,344,38,0.0724603451953884,1
224,345,38,0.070310562291082,1
224,352,38,0.0725255425835222,1
225,338,38,0.087998309914641,1
225,339,38,0.0836532261939373,1
225,340,38,0.081340703546204,1
225,341,38,0.0790321640633498,1
225,342,38,0.0760524161141306,1
225,343,38,0.0709713158185672,1
226,337,38,0.0910157484746355,1
226,338,38,0.0785644862854559,1
226,339,38,0.0771455341951021,1
226,340,38,0.0758485517573974,1
226,341,38,0.075314063861436,1
226,342,38,0.0738743965331423,1
227,336,38,0.0917409069281321,1
227,337,38,0.0738232201634396,1
228,334,38,0.083425476750774,1
228,335,38,0.0803837151647554,1
228,336,38,0.0723839560176292,1
229,334,38,0.0760136271786591,1
229,335,38,0.0733013699529061,1
230,333,38,0.0745309722559289,1
230,334,38,0.0705513943106892,1
230,335,38,0.0717501114451995,1
230,336,38,0.0697742878796338,1
235,352,38,0.0762200566101573,1
236,352,38,0.0785826920600078,1
236,353,38,0.101323748193464,1
237,352,38,0.0825986259429743,1
237,353,38,0.10439000659106,1
238,352,38,0.0944481521785312,1
238,353,38,0.115506491460428,1
238,354,38,0.129671717143631,1
239,351,38,0.0774598914065519,1
239,352,38,0.109470516015743,1
239,353,38,0.128872470433099,1
240,351,38,0.0882447656347494,1
240,352,38,0.116492488126415,1
241,350,38,0.081010524897992,1
241,351,38,0.0987352471358472,1
242,341,38,0.0706832627884479,1
242,342,38,0.0745930971154824,1
242,343,38,0.0767893085681783,1
242,344,38,0.0762025598806624,1
242,345,38,0.0719806345057917,1
242,348,38,0.0723523687554819,1
242,349,38,0.0854627091794141,1
242,350,38,0.100888033054513,1
243,341,38,0.0854083421069549,1
243,342,38,0.0887743666809551,1
243,343,38,0.0905095320124667,1
243,344,38,0.0900428204822485,1
243,345,38,0.0854850162930212,1
243,346,38,0.0800050364443598,1
243,347,38,0.0807984231060378,1
243,348,38,0.0896258602801968,1
243,349,38,0.105964183937521,1
244,344,38,0.112361730652746,1
244,345,38,0.107721997002324,1
244,346,38,0.102339879274374,1
244,347,38,0.106489593276184,1
217,345,39,0.0725746613322751,1
217,348,39,0.125266892901163,1
217,349,39,0.142480908058155,1
218,343,39,0.0735414581703457,1
218,344,39,0.0789263703699914,1
218,345,39,0.0828406536071875,1
218,346,39,0.0880797736305532,1
218,347,39,0.117442010680499,1
218,348,39,0.192040655030839,1
218,349,39,0.235827384955076,1
218,350,39,0.173697353543546,1
219,339,39,0.0810990443073636,1
219,340,39,0.0759375855720064,1
219,341,39,0.0750759011879257,1
219,342,39,0.0780251323940053,1
219,343,39,0.081994568214361,1
219,344,39,0.085156026337993,1
219,345,39,0.0869292507056528,1
219,346,39,0.0924450720868036,1
219,347,39,0.127650674577126,1
219,348,39,0.223370130640022,1
219,349,39,0.294208291967737,1
219,350,39,0.221496068942981,1
219,351,39,0.148731001207212,1
219,352,39,0.133353662999059,1
220,338,39,0.0995832997811359,1
220,339,39,0.0886364365631012,1
220,340,39,0.0825036695167127,1
220,341,39,0.0796672668431846,1
220,342,39,0.0793948962213849,1
220,343,39,0.0797230311514914,1
220,344,39,0.0792033428332395,1
220,345,39,0.0797780655604748,1
220,346,39,0.0843643288718921,1
220,347,39,0.103124076155999,1
220,348,39,0.160146140025443,1
220,349,39,0.216120575920318,1
220,350,39,0.176747901727134,1
220,351,39,0.13700189445717,1
220,352,39,0.131664884507404,1
220,353,39,0.135766640647957,1
221,337,39,0.100680421881253,1
221,338,39,0.100394037192444,1
221,339,39,0.0922756033667572,1
221,340,39,0.0846666184145285,1
221,341,39,0.0790204300627986,1
221,342,39,0.0756232144577123,1
221,343,39,0.0731203827263945,1
221,344,39,0.0707026503047615,1
221,345,39,0.0702893952107037,1
221,346,39,0.0730494504150055,1
221,347,39,0.0807058093090331,1
221,348,39,0.0983357002462249,1
221,349,39,0.121483637019648,1
221,350,39,0.11355529678346,1
221,351,39,0.10886878006212,1
221,352,39,0.112986288125214,1
221,353,39,0.120499510286214,1
221,354,39,0.126192599883038,1
221,355,39,0.130977291539085,1
222,337,39,0.0953177403295708,1
222,338,39,0.0948798076869604,1
222,339,39,0.0901788528618616,1
222,340,39,0.0835840456409245,1
222,341,39,0.0776895455393781,1
222,342,39,0.0741947250161996,1
222,343,39,0.0716633994055811,1
222,348,39,0.07335294255367,1
222,349,39,0.0782271685267189,1
222,350,39,0.0799840153438463,1
222,351,39,0.085491439407067,1
222,352,39,0.0922267418206231,1
222,353,39,0.0995029343899198,1
222,354,39,0.106672957889063,1
223,337,39,0.0996229020329962,1
223,338,39,0.0911574323604382,1
223,339,39,0.0881013160877263,1
223,340,39,0.0847375020659627,1
223,341,39,0.0798043280332725,1
223,342,39,0.076090551615922,1
223,343,39,0.0724109483897503,1
223,350,39,0.0701910464904439,1
223,351,39,0.0741678577696768,1
223,352,39,0.0784984269209782,1
223,353,39,0.0836293480589294,1
224,338,39,0.0898855097995032,1
224,339,39,0.0858264006337028,1
224,340,39,0.0843396582747616,1
224,341,39,0.0802745569830872,1
224,342,39,0.0764600892162199,1
224,343,39,0.0719112662643814,1
224,352,39,0.0705101584746289,1
225,338,39,0.0870548281463861,1
225,339,39,0.0830762929144655,1
225,340,39,0.0817200426517017,1
225,341,39,0.0779938648972758,1
225,342,39,0.0756530847185942,1
225,343,39,0.0721356373163907,1
226,337,39,0.0934563024151131,1
226,338,39,0.0800803133945785,1
226,339,39,0.0784803462720246,1
226,340,39,0.0774646253250207,1
226,341,39,0.0750548453303015,1
226,342,39,0.0751323189299125,1
226,343,39,0.0737348884424655,1
227,333,39,0.0990573551829692,1
227,336,39,0.0921010392542915,1
227,337,39,0.0767757393921854,1
227,338,39,0.0709243033507189,1
227,339,39,0.0703361991358882,1
228,334,39,0.0842462798213229,1
228,335,39,0.0807744685053864,1
228,336,39,0.0751313735365032,1
229,334,39,0.0737135197708455,1
229,335,39,0.0723939869197592,1
229,336,39,0.07135965701572,1
230,336,39,0.0719299169299495,1
231,336,39,0.0719330589727511,1
234,352,39,0.0711805188674943,1
235,352,39,0.0755217654031836,1
235,353,39,0.100601926422589,1
236,352,39,0.0783574659830768,1
236,353,39,0.103640344374564,1
237,352,39,0.0834673104091374,1
237,353,39,0.10770378427635,1
237,354,39,0.129319349555988,1
238,352,39,0.0935008888366389,1
238,353,39,0.115065409823594,1
238,354,39,0.129780395677172,1
239,351,39,0.0761480259740722,1
239,352,39,0.107395975304545,1
239,353,39,0.124606813661624,1
240,351,39,0.0865975496959948,1
240,352,39,0.112979781594102,1
241,350,39,0.079465891095573,1
241,351,39,0.097657352669335,1
241,352,39,0.114762355624524,1
242,341,39,0.071302898654049,1
242,342,39,0.0738277177335561,1
242,343,39,0.074843709786023,1
242,344,39,0.0746302733210202,1
242,345,39,0.0709345427955127,1
242,348,39,0.0717438690681291,1
242,349,39,0.0833634978710853,1
242,350,39,0.0989480927299692,1
242,351,39,0.113743589954628,1
243,341,39,0.0876259430855372,1
243,342,39,0.0898001532871996,1
243,343,39,0.0895092084654752,1
243,344,39,0.0894314985175119,1
243,345,39,0.0859437267363707,1
243,346,39,0.0805059211657568,1
243,347,39,0.0800281012629789,1
243,348,39,0.0891372170131663,1
243,349,39,0.10545825248366,1
244,343,39,0.114467344220855,1
244,344,39,0.112711296817272,1
244,345,39,0.109015802640117,1
244,346,39,0.104258881915469,1
244,347,39,0.105593061412978,1
217,344,40,0.072266066849769,1
217,345,40,0.0759132764488265,1
217,346,40,0.0812913832062094,1
217,347,40,0.0973068480628222,1
217,348,40,0.129267909032244,1
217,349,40,0.145058231228991,1
218,342,40,0.071874660075458,1
218,343,40,0.0757580581441416,1
218,344,40,0.0811731951271977,1
218,345,40,0.0842676206872543,1
218,346,40,0.0911555485250417,1
218,347,40,0.115777965348773,1
218,348,40,0.167791786777972,1
218,349,40,0.193875955598097,1
218,350,40,0.157593258054807,1
218,351,40,0.12034432673864,1
218,352,40,0.115004626588511,1
219,338,40,0.0929102751584201,1
219,339,40,0.0816696656955437,1
219,340,40,0.0778448820182392,1
219,341,40,0.0767700183717745,1
219,342,40,0.0789512564612078,1
219,343,40,0.0809666683757897,1
219,344,40,0.0833357686482187,1
219,345,40,0.0839618623849762,1
219,346,40,0.0909303989137541,1
219,347,40,0.116858828072534,1
219,348,40,0.177154337476084,1
219,349,40,0.22081578887074,1
219,350,40,0.188906217085016,1
219,351,40,0.140815903430176,1
219,352,40,0.129287567654021,1
219,353,40,0.129150652443797,1
220,337,40,0.110056423581181,1
220,338,40,0.0985500195418379,1
220,339,40,0.0852063268285076,1
220,340,40,0.0805509524782988,1
220,341,40,0.0776746764474474,1
220,342,40,0.0766943521419167,1
220,343,40,0.0757669837701533,1
220,344,40,0.0755770222576751,1
220,345,40,0.0753932336080461,1
220,346,40,0.0803778759701683,1
220,347,40,0.0942873379790336,1
220,348,40,0.132236347017662,1
220,349,40,0.170100201135228,1
220,350,40,0.159852609274688,1
220,351,40,0.130165490560191,1
220,352,40,0.126863134061457,1
220,353,40,0.130505859993242,1
220,354,40,0.12956068902941,1
221,337,40,0.103498153034946,1
221,338,40,0.0950888439017565,1
221,339,40,0.0848785950808845,1
221,340,40,0.0796247241397643,1
221,341,40,0.0749286839701096,1
221,342,40,0.0716730479794941,1
221,347,40,0.07453659595643,1
221,348,40,0.0879596252505015,1
221,349,40,0.105991106795421,1
221,350,40,0.107501609115194,1
221,351,40,0.101737330004362,1
221,352,40,0.106045411305081,1
221,353,40,0.112722029813037,1
221,354,40,0.116100865858018,1
221,355,40,0.118137820229773,1
221,356,40,0.120273964443865,1
222,337,40,0.0977703410845954,1
222,338,40,0.089735129684619,1
222,339,40,0.0839137446410096,1
222,340,40,0.0794388014035422,1
222,341,40,0.0738487457854918,1
222,349,40,0.0730246060323218,1
222,350,40,0.0761946769679698,1
222,351,40,0.0804559265378158,1
222,352,40,0.0864881690688186,1
222,353,40,0.0928939045593099,1
222,354,40,0.0992615462565424,1
222,355,40,0.104549986619903,1
223,338,40,0.0886629492870955,1
223,339,40,0.085183991909212,1
223,340,40,0.0819951868909303,1
223,341,40,0.075633391339707,1
223,342,40,0.0700149600165322,1
223,351,40,0.0702828330682154,1
223,352,40,0.0736600146747302,1
223,353,40,0.0783386762890662,1
223,354,40,0.0856479159191571,1
224,338,40,0.0871848753515473,1
224,339,40,0.0833605991280581,1
224,340,40,0.0814001590596606,1
224,341,40,0.0758411623956758,1
224,342,40,0.0709249220272883,1
224,353,40,0.0705563159175555,1
225,338,40,0.0851381889888139,1
225,339,40,0.0805403724138207,1
225,340,40,0.0791549261781215,1
225,341,40,0.0742901263334774,1
225,342,40,0.0722978418003138,1
225,343,40,0.0703462578437067,1
226,337,40,0.0930103269771012,1
226,338,40,0.0807844298932951,1
226,339,40,0.0776298536775692,1
226,340,40,0.0766098019945799,1
226,341,40,0.0721547259215528,1
226,342,40,0.0717539486302139,1
226,343,40,0.0723056691016293,1
227,333,40,0.0952676136246094,1
227,334,40,0.105485620232576,1
227,335,40,0.102453041475187,1
227,336,40,0.0904102935101745,1
227,337,40,0.0792917927283898,1
227,338,40,0.0733825903690438,1
227,339,40,0.070467309908635,1
228,334,40,0.0862422208025256,1
228,335,40,0.081995826421766,1
228,336,40,0.0777894513781945,1
228,337,40,0.0714209824617288,1
229,334,40,0.0723171737052504,1
229,335,40,0.0724676233343558,1
229,336,40,0.073667417939296,1
229,353,40,0.0703511864019951,1
230,336,40,0.0744545483210592,1
230,337,40,0.0715065475166962,1
230,353,40,0.0712744325804369,1
231,336,40,0.0737112953157647,1
231,337,40,0.0727555859959875,1
233,353,40,0.074285739986115,1
234,353,40,0.0875111542519458,1
235,352,40,0.0741642499815926,1
235,353,40,0.0987076152328904,1
236,352,40,0.0787979150404973,1
236,353,40,0.104908436701907,1
237,352,40,0.0850765229231208,1
237,353,40,0.111518842914098,1
237,354,40,0.130824540989255,1
238,352,40,0.0916382274718868,1
238,353,40,0.114960895191907,1
238,354,40,0.128268127696179,1
238,355,40,0.132444069413676,1
239,351,40,0.0740348492586892,1
239,352,40,0.100584791167045,1
239,353,40,0.117787857834186,1
239,354,40,0.125208862429243,1
240,351,40,0.0853009912950399,1
240,352,40,0.106758439526965,1
240,353,40,0.118687427468862,1
241,350,40,0.0792588985988825,1
241,351,40,0.0977763957732684,1
241,352,40,0.112302970281503,1
242,341,40,0.072532076920322,1
242,342,40,0.0743171048027542,1
242,343,40,0.074507316566429,1
242,344,40,0.0748848065936408,1
242,345,40,0.071484344674421,1
242,348,40,0.0726422430581986,1
242,349,40,0.0828205014344399,1
242,350,40,0.0990596978122262,1
242,351,40,0.115318761354453,1
243,341,40,0.089982002490055,1
243,342,40,0.0919202883761322,1
243,343,40,0.0903400215838877,1
243,344,40,0.0901774208689033,1
243,345,40,0.0875931949358945,1
243,346,40,0.0834686659364522,1
243,347,40,0.0821667271347706,1
243,348,40,0.0914236857307657,1
244,342,40,0.119586969297849,1
244,343,40,0.11713314509253,1
244,344,40,0.114668497522958,1
244,345,40,0.112154043013843,1
244,346,40,0.10977349374917,1
244,347,40,0.10850237060178,1
216,344,41,0.0708265663556063,1
216,345,41,0.07487418482063,1
216,346,41,0.0796872243761126,1
217,343,41,0.0711269303543134,1
217,344,41,0.0752464334755576,1
217,345,41,0.0787428041658705,1
217,346,41,0.084875897929099,1
217,347,41,0.098879058156821,1
217,348,41,0.119784806771597,1
217,349,41,0.130845687215367,1
217,350,41,0.113930186978796,1
218,338,41,0.0781484228168586,1
218,339,41,0.0727166163235408,1
218,340,41,0.0715311346967612,1
218,341,41,0.0724887626090456,1
218,342,41,0.0744712942969643,1
218,343,41,0.0771971554558209,1
218,344,41,0.0810451012716542,1
218,345,41,0.0833457578418159,1
218,346,41,0.0895116692689084,1
218,347,41,0.107196010695625,1
218,348,41,0.133619401964149,1
218,349,41,0.147317332197675,1
218,350,41,0.131262800348706,1
218,351,41,0.111730263466684,1
218,352,41,0.108282712613973,1
218,353,41,0.110972384669234,1
219,337,41,0.104924167770182,1
219,338,41,0.0928494085062717,1
219,339,41,0.0821184634109394,1
219,340,41,0.0781219796070856,1
219,341,41,0.07698709043055,1
219,342,41,0.0772728981513221,1
219,343,41,0.0778024505375729,1
219,344,41,0.0790303427907524,1
219,345,41,0.0793479115592251,1
219,346,41,0.0846708587820263,1
219,347,41,0.101862052420174,1
219,348,41,0.131161893505103,1
219,349,41,0.15461024988861,1
219,350,41,0.147034172968733,1
219,351,41,0.123509656804397,1
219,352,41,0.117038967225546,1
219,353,41,0.11874120367044,1
219,354,41,0.117852186294554,1
220,336,41,0.114901356261385,1
220,337,41,0.110372504745319,1
220,338,41,0.0949562316218302,1
220,339,41,0.0817575247198132,1
220,340,41,0.0769205514179455,1
220,341,41,0.0743824690250191,1
220,342,41,0.0727324864202578,1
220,343,41,0.0714714289321081,1
220,344,41,0.0715087928260434,1
220,345,41,0.0712409823371593,1
220,346,41,0.0742111790323754,1
220,347,41,0.0839343556076177,1
220,348,41,0.10559009315573,1
220,349,41,0.129675526522956,1
220,350,41,0.13347308843121,1
220,351,41,0.116804495757186,1
220,352,41,0.114605760938257,1
220,353,41,0.118227660409349,1
220,354,41,0.118563108235533,1
220,355,41,0.117173352118115,1
221,337,41,0.105033082652075,1
221,338,41,0.0906996395048096,1
221,339,41,0.0803817548637154,1
221,340,41,0.0756446387407093,1
221,341,41,0.0713918490515925,1
221,348,41,0.0776001641536627,1
221,349,41,0.0904666973493171,1
221,350,41,0.0965673835825872,1
221,351,41,0.0931459700770751,1
221,352,41,0.0971511431585883,1
221,353,41,0.103021250719889,1
221,354,41,0.107149950572608,1
221,355,41,0.109426040816971,1
222,337,41,0.101884658444932,1
222,338,41,0.0888980394320254,1
222,339,41,0.0820307295122682,1
222,340,41,0.076935295384278,1
222,341,41,0.070538137948692,1
222,350,41,0.0732342192151544,1
222,351,41,0.0769014211042506,1
222,352,41,0.0819115751855807,1
222,353,41,0.0874294541876813,1
222,354,41,0.0950668635049893,1
222,355,41,0.1020876538739,1
223,338,41,0.0893898247418576,1
223,339,41,0.0838385928163893,1
223,340,41,0.0786295515965693,1
223,341,41,0.0708174252355086,1
223,352,41,0.0699991177255036,1
223,353,41,0.0748608937015222,1
223,354,41,0.083976627205575,1
224,338,41,0.087244066710963,1
224,339,41,0.081466969177728,1
224,340,41,0.0771074125961548,1
224,341,41,0.0705479533567361,1
224,354,41,0.0762714276196796,1
225,337,41,0.101343587552216,1
225,338,41,0.0848789078948803,1
225,339,41,0.0782789844272573,1
225,340,41,0.0749026647970863,1
225,354,41,0.0716306373530942,1
226,336,41,0.105787374515708,1
226,337,41,0.0910438044143421,1
226,338,41,0.081594659850788,1
226,339,41,0.0760711293424978,1
226,340,41,0.0731466730048807,1
227,334,41,0.0971589704599039,1
227,335,41,0.0927495165702996,1
227,336,41,0.0869917231363126,1
227,337,41,0.0815234981424688,1
227,338,41,0.0756848249120284,1
227,339,41,0.070053227595344,1
228,334,41,0.0862542120056955,1
228,335,41,0.0816870651051289,1
228,336,41,0.0801268601171442,1
228,337,41,0.0774961152672583,1
228,338,41,0.0706192888506085,1
228,354,41,0.0726851750412581,1
229,334,41,0.0723023046133196,1
229,335,41,0.0743641659305574,1
229,336,41,0.0784769539780264,1
229,337,41,0.0780096654797716,1
229,354,41,0.0760063768453801,1
230,335,41,0.0712896700977403,1
230,336,41,0.079619635698767,1
230,337,41,0.0812387956978149,1
230,354,41,0.0769776643021451,1
231,336,41,0.0764607635041663,1
231,337,41,0.0805886569919183,1
231,354,41,0.0756595147840621,1
232,337,41,0.0722714333476514,1
232,354,41,0.0813703652644221,1
233,353,41,0.0727107910317979,1
234,353,41,0.084684907606146,1
235,352,41,0.0728392046527592,1
235,353,41,0.0955583012437151,1
236,352,41,0.0788038515549942,1
236,353,41,0.10352593786919,1
236,354,41,0.126359058637303,1
237,352,41,0.0857033952191567,1
237,353,41,0.111183103128184,1
237,354,41,0.126742596401766,1
238,352,41,0.0907081410940715,1
238,353,41,0.113279561673351,1
238,354,41,0.123769737311875,1
238,355,41,0.127806247404339,1
239,351,41,0.0735707236575024,1
239,352,41,0.0948407267917596,1
239,353,41,0.111440062447127,1
239,354,41,0.120083801340145,1
239,355,41,0.12400794864534,1
240,351,41,0.0853576523368012,1
240,352,41,0.101959490504135,1
240,353,41,0.1137562415429,1
240,354,41,0.123679563464037,1
241,350,41,0.080965542245405,1
241,351,41,0.0996525567997922,1
241,352,41,0.111723444121577,1
241,353,41,0.121801650679137,1
242,341,41,0.0751871100391215,1
242,342,41,0.0760208914147824,1
242,343,41,0.0746982790836936,1
242,344,41,0.074888087664885,1
242,345,41,0.0724036493965165,1
242,347,41,0.0700369682189878,1
242,348,41,0.0753833417343587,1
242,349,41,0.0846756969718271,1
242,350,41,0.101505284582324,1
242,351,41,0.120017860149844,1
243,340,41,0.0818191560283956,1
243,341,41,0.0932116749190243,1
243,342,41,0.0954133084809797,1
243,343,41,0.0925845245661034,1
243,344,41,0.0909341735359693,1
243,345,41,0.0888226790647412,1
243,346,41,0.0862639161909855,1
243,347,41,0.0871536773690391,1
243,348,41,0.0976836081907105,1
244,341,41,0.119420677377714,1
244,342,41,0.124584430082374,1
244,343,41,0.121073683851101,1
244,344,41,0.117292096310897,1
244,345,41,0.115026467956836,1
244,346,41,0.114259573164886,1
244,347,41,0.115462301269964,1
215,344,42,0.0758432200166256,1
215,345,42,0.0800077127418789,1
215,346,42,0.0822218936207744,1
216,344,42,0.0725396470190189,1
216,345,42,0.0773617164718452,1
216,346,42,0.0828070295783568,1
216,347,42,0.0901661039536797,1
216,348,42,0.100468104595213,1
217,342,42,0.0707072521462099,1
217,343,42,0.0723826004903144,1
217,344,42,0.0763155691501892,1
217,345,42,0.0799596506092894,1
217,346,42,0.0862276158646357,1
217,347,42,0.0959909438540864,1
217,348,42,0.108277012447828,1
217,349,42,0.114435583173154,1
217,350,42,0.104900880506055,1
217,351,42,0.0949724770953422,1
218,337,42,0.0887916826734747,1
218,338,42,0.0799624172752961,1
218,339,42,0.0742143627837098,1
218,340,42,0.0726174959954247,1
218,341,42,0.0742848223983941,1
218,342,42,0.0753131393222931,1
218,343,42,0.0765838175786673,1
218,344,42,0.0797386440455898,1
218,345,42,0.0816730788438083,1
218,346,42,0.0870174851067171,1
218,347,42,0.0981972904802443,1
218,348,42,0.111484975585493,1
218,349,42,0.11931486283009,1
218,350,42,0.114566554917458,1
218,351,42,0.105208175072623,1
218,352,42,0.102517390789822,1
218,353,42,0.105043370756824,1
219,337,42,0.103079392414564,1
219,338,42,0.0911709181193656,1
219,339,42,0.0811891416895582,1
219,340,42,0.0759826029817041,1
219,341,42,0.0750818237995784,1
219,342,42,0.0747923943878778,1
219,343,42,0.0744493139001972,1
219,344,42,0.0758186119822942,1
219,345,42,0.0759563961202834,1
219,346,42,0.0795397986156326,1
219,347,42,0.0901744248059663,1
219,348,42,0.105364755856045,1
219,349,42,0.119191405573105,1
219,350,42,0.120981424576625,1
219,351,42,0.111593765341789,1
219,352,42,0.106806195796981,1
219,353,42,0.107861560704378,1
219,354,42,0.108546519083711,1
220,336,42,0.120047278568287,1
220,337,42,0.10672176382382,1
220,338,42,0.0903892098468618,1
220,339,42,0.0788304755017425,1
220,340,42,0.0729009263298293,1
220,341,42,0.0707472506291315,1
220,347,42,0.0755619307202363,1
220,348,42,0.0885553968839388,1
220,349,42,0.104506609745827,1
220,350,42,0.111528359410991,1
220,351,42,0.105035049904538,1
220,352,42,0.102435357057295,1
220,353,42,0.104927469695692,1
220,354,42,0.107004936955606,1
221,337,42,0.104675035752554,1
221,338,42,0.0865658929196262,1
221,339,42,0.0770025364905173,1
221,340,42,0.0718139672088628,1
221,348,42,0.0697673295060842,1
221,349,42,0.0792071452611432,1
221,350,42,0.085598845830359,1
221,351,42,0.0853541974800038,1
221,352,42,0.0878386496512166,1
221,353,42,0.0927220306472074,1
221,354,42,0.0987966003875446,1
222,337,42,0.10371498874537,1
222,338,42,0.0870866865139964,1
222,339,42,0.0789159293339559,1
222,340,42,0.0727618770330129,1
222,351,42,0.0718916493511376,1
222,352,42,0.0756316187270645,1
222,353,42,0.0806377965949376,1
222,354,42,0.0901556003548451,1
222,355,42,0.100681339468974,1
223,338,42,0.0891060468363466,1
223,339,42,0.0803156259850165,1
223,340,42,0.0729157259075387,1
223,353,42,0.070350748462401,1
223,354,42,0.080809392450155,1
223,355,42,0.0918373996186839,1
224,337,42,0.102721331612198,1
224,338,42,0.087748878985862,1
224,339,42,0.0787268367492436,1
224,340,42,0.0713420560148932,1
224,354,42,0.0735395187235721,1
224,355,42,0.0837001135361873,1
225,336,42,0.113226279022744,1
225,337,42,0.0956432684763795,1
225,338,42,0.0849179679358147,1
225,339,42,0.0757153138494796,1
226,334,42,0.103447929010075,1
226,335,42,0.100723061904583,1
226,336,42,0.0945542169773526,1
226,337,42,0.0891261712034057,1
226,338,42,0.0814118304974126,1
226,339,42,0.0729242553024892,1
227,335,42,0.0874260132337282,1
227,336,42,0.085172487305591,1
227,337,42,0.0844898367984041,1
227,338,42,0.0771689396334053,1
228,335,42,0.0801443081866843,1
228,336,42,0.0824662569628225,1
228,337,42,0.0850741733424417,1
228,338,42,0.0752400103615118,1
229,335,42,0.07697411907686,1
229,336,42,0.0856963047685866,1
229,337,42,0.0901790753073696,1
229,338,42,0.0753757924899282,1
229,354,42,0.072473302646234,1
230,335,42,0.0748767290411286,1
230,336,42,0.0865698204731283,1
230,337,42,0.091847597354945,1
230,338,42,0.0741185096239937,1
231,336,42,0.0783206860086002,1
231,337,42,0.0854030659775601,1
231,338,42,0.070860628324031,1
231,354,42,0.0733151129144521,1
232,337,42,0.0705739864326036,1
232,354,42,0.0818560750313148,1
233,353,42,0.0723600222712443,1
234,353,42,0.0836620753543056,1
235,352,42,0.0705515402905539,1
235,353,42,0.0926979509209578,1
236,352,42,0.0777465332979793,1
236,353,42,0.101325360923398,1
236,354,42,0.121685325581256,1
237,352,42,0.0862826641764634,1
237,353,42,0.109543200085508,1
237,354,42,0.122145189960678,1
237,355,42,0.129493357554683,1
238,352,42,0.0917675308748804,1
238,353,42,0.112689976805607,1
238,354,42,0.120928371322948,1
238,355,42,0.124346760959835,1
239,351,42,0.0743504924832326,1
239,352,42,0.0934099850894776,1
239,353,42,0.110156329419998,1
239,354,42,0.119347020108851,1
240,351,42,0.0862592934952707,1
240,352,42,0.101083687781713,1
240,353,42,0.115171154856998,1
240,354,42,0.127898437164594,1
241,350,42,0.0831021174476691,1
241,351,42,0.101194430887627,1
241,352,42,0.115012738898134,1
242,340,42,0.0730136088825161,1
242,341,42,0.0768459974156281,1
242,342,42,0.075861995807792,1
242,343,42,0.0734820165597334,1
242,344,42,0.0731931502132251,1
242,345,42,0.0717676707374936,1
242,346,42,0.070943989778184,1
242,347,42,0.0728815596677821,1
242,348,42,0.0781791620055064,1
242,349,42,0.0893641322856743,1
242,350,42,0.105832836816422,1
243,340,42,0.0851022223307262,1
243,341,42,0.0947099357844307,1
243,342,42,0.097080356827064,1
243,343,42,0.0934195015863701,1
243,344,42,0.0904039121046615,1
243,345,42,0.0885694665623249,1
243,346,42,0.0881473553564767,1
243,347,42,0.0909555561104335,1
243,348,42,0.104233161653598,1
244,341,42,0.121363321805466,1
244,342,42,0.128760677662445,1
244,343,42,0.124610053024336,1
244,344,42,0.119523363785382,1
244,345,42,0.116888079656847,1
244,346,42,0.117483482864911,1
244,347,42,0.120907836821983,1
213,342,43,0.0720553900993508,1
213,343,43,0.077625258787543,1
213,344,43,0.0858593295203207,1
214,343,43,0.0737418468160151,1
214,344,43,0.0809732513725444,1
214,345,43,0.0846253408699355,1
214,346,43,0.083797635037214,1
215,344,43,0.0752047110399483,1
215,345,43,0.0795396248300794,1
215,346,43,0.0815975446909709,1
215,347,43,0.0841566342815666,1
215,348,43,0.0873571037861783,1
216,344,43,0.0735921757461879,1
216,345,43,0.0784251728345986,1
216,346,43,0.082820508385862,1
216,347,43,0.0875579651285524,1
216,348,43,0.0937067134944121,1
216,349,43,0.0961063791699357,1
216,350,43,0.0901680781575639,1
217,337,43,0.0781404981956333,1
217,338,43,0.0714708658669157,1
217,341,43,0.0723312572864807,1
217,342,43,0.0727980244280759,1
217,343,43,0.0725107360543906,1
217,344,43,0.0759018344080047,1
217,345,43,0.0795250755035666,1
217,346,43,0.0842803904497025,1
217,347,43,0.0897632968470796,1
217,348,43,0.0961031676129128,1
217,349,43,0.099445258440528,1
217,350,43,0.0958805830763902,1
217,351,43,0.0904900958361982,1
217,352,43,0.0908502837737347,1
218,336,43,0.0998992141111422,1
218,337,43,0.0893892338709767,1
218,338,43,0.0807963029222889,1
218,339,43,0.0754474686034849,1
218,340,43,0.0734385493171701,1
218,341,43,0.0746203536416443,1
218,342,43,0.0744780858363829,1
218,343,43,0.0738832317906663,1
218,344,43,0.0763873842921884,1
218,345,43,0.0787432073483539,1
218,346,43,0.0827276512890828,1
218,347,43,0.0887723785742266,1
218,348,43,0.0956110486348185,1
218,349,43,0.100608606739254,1
218,350,43,0.101067915004906,1
218,351,43,0.0977282363207691,1
218,352,43,0.0964745681943409,1
218,353,43,0.0983074288124324,1
219,336,43,0.109767077586546,1
219,337,43,0.0984401314608464,1
219,338,43,0.087767084760414,1
219,339,43,0.079547890070989,1
219,340,43,0.0739989451634007,1
219,341,43,0.0726438140795995,1
219,342,43,0.0715273322688574,1
219,343,43,0.0699025902778411,1
219,344,43,0.0710136082707909,1
219,345,43,0.0716958973040272,1
219,346,43,0.0741823445333905,1
219,347,43,0.0798687190564395,1
219,348,43,0.0882848683890029,1
219,349,43,0.0967387778465629,1
219,350,43,0.101454699083502,1
219,351,43,0.100137216901944,1
219,352,43,0.0974995484356186,1
219,353,43,0.0977401510582956,1
219,354,43,0.0996183001915478,1
220,337,43,0.10089759821136,1
220,338,43,0.0857883972089317,1
220,339,43,0.0766445104452625,1
220,340,43,0.0702390530116564,1
220,348,43,0.0751502953075343,1
220,349,43,0.0844057941048826,1
220,350,43,0.0910134753595998,1
220,351,43,0.0919621359373398,1
220,352,43,0.0910300545013739,1
220,353,43,0.0930284006746327,1
220,354,43,0.0974114252573083,1
221,337,43,0.102651136151555,1
221,338,43,0.0838601908849394,1
221,339,43,0.0752721745916957,1
221,349,43,0.0699551638833914,1
221,350,43,0.0751701068605976,1
221,351,43,0.0776072963127655,1
221,352,43,0.0793673963954485,1
221,353,43,0.0834005141939142,1
221,354,43,0.0915573129183227,1
222,337,43,0.102306463788207,1
222,338,43,0.084630603096486,1
222,339,43,0.0754894065331801,1
222,352,43,0.0700814503691817,1
222,353,43,0.0747189039531459,1
222,354,43,0.0852101431592556,1
222,355,43,0.0981246342161677,1
223,337,43,0.10232689401784,1
223,338,43,0.0867798159841779,1
223,339,43,0.0758533760443539,1
223,354,43,0.0780127727654626,1
223,355,43,0.0910254387570813,1
223,356,43,0.09991381209761,1
224,336,43,0.112937079007973,1
224,337,43,0.0966474917711845,1
224,338,43,0.0851405524723372,1
224,339,43,0.074412610391364,1
224,354,43,0.0717969223218061,1
224,355,43,0.083913980989362,1
224,356,43,0.0923436160808527,1
225,335,43,0.1065536853882,1
225,336,43,0.0965524241221689,1
225,337,43,0.0898703765535316,1
225,338,43,0.0819311364874475,1
225,339,43,0.0715102248190017,1
225,355,43,0.0753300173752186,1
226,334,43,0.0982685773141618,1
226,335,43,0.0910270375841706,1
226,336,43,0.087706190302577,1
226,337,43,0.0871933908436535,1
226,338,43,0.0793262300736094,1
226,355,43,0.0709004669242437,1
227,335,43,0.0840940575795749,1
227,336,43,0.083970245800062,1
227,337,43,0.08700553561208,1
227,338,43,0.0781581548078371,1
227,355,43,0.073995580675091,1
228,335,43,0.0792021749943221,1
228,336,43,0.0852956943113788,1
228,337,43,0.0926075824333003,1
228,338,43,0.0805193235076186,1
229,335,43,0.080651393576619,1
229,336,43,0.0932151645329323,1
229,337,43,0.101025038633224,1
229,338,43,0.0832948525775762,1
230,335,43,0.0802256745826867,1
230,336,43,0.0941381118002226,1
230,337,43,0.0998685791938263,1
230,338,43,0.0801140416947411,1
231,336,43,0.0789937991646281,1
231,337,43,0.0853241881906794,1
231,338,43,0.073029743133274,1
231,354,43,0.0739725992735375,1
233,353,43,0.0736859365278436,1
234,353,43,0.0833987763383823,1
235,353,43,0.0897840955020851,1
235,354,43,0.115699303055979,1
236,352,43,0.076460638378568,1
236,353,43,0.0973261452106481,1
236,354,43,0.116380507667363,1
236,355,43,0.130425209593719,1
237,352,43,0.0861742428455407,1
237,353,43,0.105040353839621,1
237,354,43,0.117236123459926,1
237,355,43,0.12582054586793,1
238,351,43,0.0705086013560723,1
238,352,43,0.0934279406128329,1
238,353,43,0.110286348819471,1
238,354,43,0.117997053931691,1
238,355,43,0.12164969259143,1
239,351,43,0.0770774936753181,1
239,352,43,0.0959152845756507,1
239,353,43,0.111735400567636,1
239,354,43,0.120819817915005,1
240,350,43,0.0735659480305008,1
240,351,43,0.0900065271073208,1
240,352,43,0.105879877089959,1
240,353,43,0.122438692905746,1
240,354,43,0.13484814924225,1
241,340,43,0.0713009105473205,1
241,341,43,0.0698239905478455,1
241,349,43,0.0739902350314749,1
241,350,43,0.088967859515874,1
241,351,43,0.107437231994871,1
242,338,43,0.0705978089562345,1
242,339,43,0.073744947150284,1
242,340,43,0.0783088407852949,1
242,341,43,0.0798485946893804,1
242,342,43,0.077562779405461,1
242,343,43,0.0732519870501123,1
242,344,43,0.0718836482642688,1
242,345,43,0.0703447076765722,1
242,346,43,0.0720051382687911,1
242,347,43,0.0753699741496075,1
242,348,43,0.0841236914921044,1
242,349,43,0.0997330542680286,1
243,339,43,0.0829794178956966,1
243,340,43,0.0898534776463397,1
243,341,43,0.0971352800132933,1
243,342,43,0.099328696994294,1
243,343,43,0.0937964007427011,1
243,344,43,0.0895560262935039,1
243,345,43,0.0873884616513954,1
243,346,43,0.0892891194894965,1
243,347,43,0.0948852854075969,1
244,341,43,0.122409566447031,1
244,342,43,0.130638089944951,1
244,343,43,0.125045559620624,1
244,344,43,0.119353874211069,1
244,345,43,0.117057221660053,1
244,346,43,0.120322902455643,1
212,341,44,0.0749765862199901,1
212,342,44,0.0766972300306775,1
212,343,44,0.0791267381613945,1
212,344,44,0.0830793098316688,1
213,339,44,0.0699396344063586,1
213,341,44,0.0707359823738628,1
213,342,44,0.0727944652999466,1
213,343,44,0.0754580139108523,1
213,344,44,0.0804690577742147,1
213,345,44,0.0846004478272969,1
213,346,44,0.0836343044229063,1
214,342,44,0.0706957475425889,1
214,343,44,0.0726487148321993,1
214,344,44,0.0774558873874064,1
214,345,44,0.0817908220318039,1
214,346,44,0.0818744545914199,1
214,347,44,0.0829873703226105,1
214,348,44,0.0829242583611149,1
215,343,44,0.069860603688191,1
215,344,44,0.0745341560072633,1
215,345,44,0.0793610358442018,1
215,346,44,0.0817038736438331,1
215,347,44,0.0847814141995421,1
215,348,44,0.0871599058432653,1
215,349,44,0.0868878341326171,1
215,350,44,0.0828879580347651,1
216,336,44,0.0801719122839526,1
216,337,44,0.0714077121968874,1
216,341,44,0.0698580038563153,1
216,342,44,0.0700865040530684,1
216,344,44,0.0741853962077045,1
216,345,44,0.0793765722726568,1
216,346,44,0.0829822471245025,1
216,347,44,0.0865256372340859,1
216,348,44,0.0902077290693792,1
216,349,44,0.0914466393266308,1
216,350,44,0.087764630908403,1
216,351,44,0.0836272139723362,1
217,336,44,0.0917019511585296,1
217,337,44,0.0810750549496016,1
217,338,44,0.0745008447924283,1
217,339,44,0.0714973299309551,1
217,340,44,0.0718390131827881,1
217,341,44,0.0736427960021204,1
217,342,44,0.0732867789178604,1
217,343,44,0.0713195612128886,1
217,344,44,0.074629223656279,1
217,345,44,0.0786745968119555,1
217,346,44,0.0820251405688777,1
217,347,44,0.0855897811759048,1
217,348,44,0.090112849108761,1
217,349,44,0.0937715285543289,1
217,350,44,0.0928979294327217,1
217,351,44,0.0901599519450969,1
217,352,44,0.0904249262537529,1
217,353,44,0.0925025533963759,1
218,336,44,0.0996567763130235,1
218,337,44,0.088403508310453,1
218,338,44,0.0799060551446863,1
218,339,44,0.0747957519247654,1
218,340,44,0.0726303630777827,1
218,341,44,0.0732674887214566,1
218,342,44,0.0725830169416723,1
218,343,44,0.0700482851342114,1
218,344,44,0.0722158497763199,1
218,345,44,0.0755197216850781,1
218,346,44,0.0784527908347112,1
218,347,44,0.0820282895631014,1
218,348,44,0.0867652179977101,1
218,349,44,0.0922054635174908,1
218,350,44,0.094864354675571,1
218,351,44,0.0943943481712644,1
218,352,44,0.0935307312918323,1
218,353,44,0.0941282963921786,1
218,354,44,0.09633429544723,1
219,335,44,0.121728480009823,1
219,336,44,0.108294863699852,1
219,337,44,0.0936984065449697,1
219,338,44,0.0830742283420936,1
219,339,44,0.0758428098827201,1
219,340,44,0.0709001193531374,1
219,347,44,0.0728349712366836,1
219,348,44,0.0779674494931913,1
219,349,44,0.0846626422010716,1
219,350,44,0.0904328717292447,1
219,351,44,0.0928688724882287,1
219,352,44,0.0919609959041109,1
219,353,44,0.0918281542272543,1
219,354,44,0.0949568363955553,1
219,355,44,0.0989062243144952,1
220,336,44,0.119012656704519,1
220,337,44,0.0965099787386583,1
220,338,44,0.0825163072021405,1
220,339,44,0.0740481890377519,1
220,349,44,0.0725348296834845,1
220,350,44,0.0787774431023318,1
220,351,44,0.0832522820684674,1
220,352,44,0.0844432414158835,1
220,353,44,0.0864534258610254,1
220,354,44,0.0924432091056734,1
221,337,44,0.100875659523126,1
221,338,44,0.0830912801805724,1
221,339,44,0.0736549470879992,1
221,351,44,0.0719075889620759,1
221,352,44,0.0741570483082685,1
221,353,44,0.0778593548791087,1
221,354,44,0.0866746340159667,1
222,337,44,0.101199609697112,1
222,338,44,0.084208776898945,1
222,339,44,0.0730181342583211,1
222,353,44,0.0709425925423364,1
222,354,44,0.0813378743173982,1
222,355,44,0.0948143809018964,1
223,337,44,0.100138947806053,1
223,338,44,0.0856252612344436,1
223,339,44,0.0722487161001387,1
223,354,44,0.0759210064302323,1
223,355,44,0.0898990789754961,1
223,356,44,0.0990895472188417,1
224,336,44,0.100520858937738,1
224,337,44,0.0929444135924883,1
224,338,44,0.0831495191951566,1
224,339,44,0.0704150352142362,1
224,354,44,0.0703586800350485,1
224,355,44,0.0836260461334188,1
224,356,44,0.0922719816758288,1
225,335,44,0.0949398193141872,1
225,336,44,0.0889493478787485,1
225,337,44,0.0870616892000259,1
225,338,44,0.0795595893144296,1
225,355,44,0.0742221483764926,1
226,335,44,0.0862131708094547,1
226,336,44,0.0847816157907838,1
226,337,44,0.0863072652593726,1
226,338,44,0.0779849045141534,1
226,355,44,0.0701635327616632,1
227,335,44,0.0810390396315591,1
227,336,44,0.0830129098475069,1
227,337,44,0.0885958194036102,1
227,338,44,0.0793728393589743,1
227,355,44,0.0747641299055074,1
228,335,44,0.0766606168903319,1
228,336,44,0.0852661924758697,1
228,337,44,0.0953735532978325,1
228,338,44,0.0842424982476855,1
229,335,44,0.0801797187310018,1
229,336,44,0.0937457735353465,1
229,337,44,0.102369617458235,1
229,338,44,0.0873218114160369,1
230,335,44,0.0794595861557034,1
230,336,44,0.0937085834269644,1
230,337,44,0.0981304942650211,1
230,338,44,0.0822017623022932,1
230,354,44,0.0715296192867374,1
231,336,44,0.0738960780187579,1
231,337,44,0.0784727275133729,1
231,338,44,0.0719179118239353,1
231,354,44,0.0766670469557999,1
232,353,44,0.070712820235334,1
233,353,44,0.0779330538565044,1
234,353,44,0.0854759585899891,1
235,353,44,0.0893096748447275,1
235,354,44,0.110445557240457,1
236,352,44,0.0771536256504585,1
236,353,44,0.0954389036172531,1
236,354,44,0.112208132029417,1
236,355,44,0.125029918920837,1
237,352,44,0.086737134252315,1
237,353,44,0.102360719637912,1
237,354,44,0.114058176563008,1
237,355,44,0.122827569362402,1
238,351,44,0.0736465150129586,1
238,352,44,0.0945551693221841,1
238,353,44,0.109222037431795,1
238,354,44,0.117621204440101,1
239,351,44,0.0809059407520838,1
239,352,44,0.100941948284534,1
239,353,44,0.116545235517518,1
239,354,44,0.12473864043085,1
240,340,44,0.0710624767683472,1
240,350,44,0.077838493661304,1
240,351,44,0.102502612066379,1
241,339,44,0.072068590849971,1
241,340,44,0.0758991720133298,1
241,341,44,0.0735046990501354,1
241,349,44,0.0809658759136671,1
241,350,44,0.0957996754742483,1
242,338,44,0.0755836400115405,1
242,339,44,0.0795418284308939,1
242,340,44,0.083415932448193,1
242,341,44,0.083865842391129,1
242,342,44,0.0822660768598168,1
242,343,44,0.0774935223868047,1
242,344,44,0.0741600235169391,1
242,345,44,0.0716004264725281,1
242,346,44,0.0740599647468359,1
242,347,44,0.0785495407278817,1
242,348,44,0.0907508158745123,1
243,339,44,0.0898434536956318,1
243,340,44,0.0945776710756108,1
243,341,44,0.10042271180872,1
243,342,44,0.103423480858453,1
243,343,44,0.0983846521608468,1
243,344,44,0.0925981284992069,1
243,345,44,0.0894920384528203,1
243,346,44,0.0923969334885706,1
243,347,44,0.100673456556281,1
244,341,44,0.122343889410771,1
244,342,44,0.130781122406647,1
244,343,44,0.126692921539243,1
244,344,44,0.121017752708663,1
244,345,44,0.119034108793204,1
244,346,44,0.1245164868825,1
212,339,45,0.0754459392906168,1
212,340,45,0.0743240353706154,1
212,341,45,0.0753254989508358,1
212,342,45,0.0766996769312663,1
212,343,45,0.0770083617822601,1
212,344,45,0.0796032164397018,1
212,345,45,0.0816697421611871,1
213,338,45,0.0713443638870395,1
213,339,45,0.0705471539431914,1
213,340,45,0.0707711148612952,1
213,341,45,0.073001012905621,1
213,342,45,0.0743038275864907,1
213,343,45,0.0746896662716776,1
213,344,45,0.0785995284044006,1
213,345,45,0.0825836664825559,1
213,346,45,0.0829245294665779,1
213,347,45,0.0830527067391869,1
214,341,45,0.0709340700988081,1
214,342,45,0.0718515604997283,1
214,343,45,0.0721510347164031,1
214,344,45,0.0766342988061572,1
214,345,45,0.0815172279597098,1
214,346,45,0.0827033074087923,1
214,347,45,0.0840296457021415,1
214,348,45,0.0834303079891527,1
214,349,45,0.0818213526777879,1
215,341,45,0.0708179187864797,1
215,342,45,0.0706456834004266,1
215,343,45,0.0704468310190473,1
215,344,45,0.0749588531421429,1
215,345,45,0.0804973570136957,1
215,346,45,0.0832524141454878,1
215,347,45,0.0864809882497609,1
215,348,45,0.0874831747778826,1
215,349,45,0.0867451422906059,1
215,350,45,0.0840692410025797,1
215,351,45,0.081232038915507,1
216,336,45,0.0824809314149336,1
216,337,45,0.0751154756340976,1
216,338,45,0.0724097805508329,1
216,339,45,0.0712907892767029,1
216,340,45,0.0712697959818778,1
216,341,45,0.0721767897353855,1
216,342,45,0.0712550728698118,1
216,343,45,0.0701346913112562,1
216,344,45,0.0745191548383121,1
216,345,45,0.0805336086800907,1
216,346,45,0.0838556098977574,1
216,347,45,0.0870479253842134,1
216,348,45,0.0898555074616009,1
216,349,45,0.0916381092977106,1
216,350,45,0.0896965562432335,1
216,351,45,0.0867326227793543,1
216,352,45,0.0860329551907993,1
217,336,45,0.0922493339425374,1
217,337,45,0.0832273403658739,1
217,338,45,0.0776529463018768,1
217,339,45,0.0746075143649748,1
217,340,45,0.0734307289672767,1
217,341,45,0.0744133472421095,1
217,342,45,0.0731708778567286,1
217,343,45,0.0705152469156262,1
217,344,45,0.0732096667922001,1
217,345,45,0.0786507951425909,1
217,346,45,0.0823857733974303,1
217,347,45,0.0858477693053227,1
217,348,45,0.0907673533077536,1
217,349,45,0.0959284853262708,1
217,350,45,0.09604686109368,1
217,351,45,0.0934763850736395,1
217,352,45,0.0927536179093548,1
217,353,45,0.0937771731090964,1
218,335,45,0.105857646441995,1
218,336,45,0.0975952486640479,1
218,337,45,0.0868322575127078,1
218,338,45,0.0792486869597772,1
218,339,45,0.0745074625462937,1
218,340,45,0.0713502447901594,1
218,341,45,0.0714168116084523,1
218,342,45,0.0702922939537309,1
218,345,45,0.0729135431609907,1
218,346,45,0.0768178511074338,1
218,347,45,0.0801894507219803,1
218,348,45,0.0849915973989892,1
218,349,45,0.0911076879836939,1
218,350,45,0.0939115788559316,1
218,351,45,0.0934775251068684,1
218,352,45,0.0927825636310937,1
218,353,45,0.0937434378575116,1
218,354,45,0.0960398471087534,1
219,335,45,0.118200341320388,1
219,336,45,0.105703658539027,1
219,337,45,0.0903742573378656,1
219,338,45,0.0801697086831382,1
219,339,45,0.073929556067724,1
219,347,45,0.0698949367620787,1
219,348,45,0.0744650449684717,1
219,349,45,0.0803581061256377,1
219,350,45,0.085246964842265,1
219,351,45,0.0877506585499267,1
219,352,45,0.0883151626866346,1
219,353,45,0.0899176323211544,1
219,354,45,0.0945047089489605,1
219,355,45,0.0993784552738827,1
220,336,45,0.114699751116843,1
220,337,45,0.0938470696585884,1
220,338,45,0.0806814306716319,1
220,339,45,0.0725303807733229,1
220,350,45,0.0741951490529494,1
220,351,45,0.0783728772859335,1
220,352,45,0.0806415851199971,1
220,353,45,0.0837656515440054,1
220,354,45,0.091071658762807,1
221,337,45,0.0987966281932331,1
221,338,45,0.0828187844331744,1
221,339,45,0.0723073791514727,1
221,352,45,0.0721106400024202,1
221,353,45,0.0762537710074757,1
221,354,45,0.0848971692808092,1
222,337,45,0.0996911928039768,1
222,338,45,0.0845049839472199,1
222,339,45,0.0713302385972764,1
222,353,45,0.0705454856018808,1
222,354,45,0.0800700600469404,1
222,355,45,0.0917854794468136,1
223,337,45,0.0973740752662172,1
223,338,45,0.0848696625034507,1
223,339,45,0.0699929935226093,1
223,354,45,0.0747540572948446,1
223,355,45,0.0873513549600788,1
223,356,45,0.0976983591084651,1
224,336,45,0.0950204001994891,1
224,337,45,0.090139841480882,1
224,338,45,0.0813950080558641,1
224,355,45,0.0812058459569305,1
225,335,45,0.0917446537446588,1
225,336,45,0.0872453596754787,1
225,337,45,0.0854926837116279,1
225,338,45,0.078069496370023,1
225,355,45,0.073249192578417,1
226,335,45,0.0858064361493526,1
226,336,45,0.0852320401389573,1
226,337,45,0.0862606073140528,1
226,338,45,0.0780727982955335,1
226,355,45,0.0711639466771424,1
227,335,45,0.0826079408486252,1
227,336,45,0.08546749870926,1
227,337,45,0.0902980280428154,1
227,338,45,0.0816972072300129,1
228,335,45,0.0797650872553628,1
228,336,45,0.0877463417167855,1
228,337,45,0.0957135334512443,1
228,338,45,0.0871334765363366,1
229,335,45,0.0823758537180543,1
229,336,45,0.0931021413605613,1
229,337,45,0.0982624739655339,1
229,338,45,0.0878919879132009,1
230,336,45,0.0898726566199894,1
230,337,45,0.0912830445582822,1
230,338,45,0.0810369681077651,1
230,354,45,0.0723477182540786,1
231,336,45,0.0699215259517164,1
231,337,45,0.0722579892972568,1
232,353,45,0.0735560978653462,1
233,353,45,0.0803418815063921,1
234,353,45,0.0862460927446506,1
234,354,45,0.106040295058395,1
235,352,45,0.0713743731763639,1
235,353,45,0.0890135512135181,1
235,354,45,0.106103128963006,1
235,355,45,0.119339929658281,1
236,352,45,0.0785048361321798,1
236,353,45,0.0940858857657787,1
236,354,45,0.107624969052269,1
236,355,45,0.118216176659994,1
237,352,45,0.0866416981779266,1
237,353,45,0.0999632436603586,1
237,354,45,0.110775847111423,1
237,355,45,0.118258594237816,1
238,351,45,0.0766466445318556,1
238,352,45,0.0939055867300577,1
238,353,45,0.106918906155356,1
238,354,45,0.11699009872799,1
239,351,45,0.089962482896721,1
239,352,45,0.118319766752538,1
240,340,45,0.071994224536051,1
240,349,45,0.0705924841668849,1
240,350,45,0.0842584100529354,1
240,351,45,0.130542813753272,1
241,339,45,0.0738448668919447,1
241,340,45,0.0768393866131848,1
241,341,45,0.0743015127629223,1
241,342,45,0.0703222059231455,1
241,348,45,0.0767902331073213,1
241,349,45,0.089839317599466,1
241,350,45,0.106886095442915,1
242,338,45,0.0780827110234874,1
242,339,45,0.0831212060528313,1
242,340,45,0.086176654989019,1
242,341,45,0.086125735821935,1
242,342,45,0.0855283097500313,1
242,343,45,0.0816340813656731,1
242,344,45,0.0773913364815305,1
242,345,45,0.0753076198931238,1
242,346,45,0.0788216193899521,1
242,347,45,0.0855868268215006,1
242,348,45,0.100273721978261,1
243,340,45,0.0979614912902574,1
243,341,45,0.102486811483883,1
243,342,45,0.106210472823499,1
243,343,45,0.103172353782675,1
243,344,45,0.0968626382860307,1
243,345,45,0.0942383582587233,1
243,346,45,0.0990280479872797,1
243,347,45,0.110910774214918,1
244,341,45,0.120226555744956,1
244,342,45,0.127894919744997,1
244,343,45,0.126254078260334,1
244,344,45,0.121497484252526,1
244,345,45,0.121455942553892,1
244,346,45,0.130542563502075,1
245,345,45,0.148791701025229,1
212,338,46,0.0794337963796104,1
212,339,46,0.0779927109612026,1
212,340,46,0.0775916417101344,1
212,341,46,0.0782303522780533,1
212,342,46,0.0785692063010804,1
212,343,46,0.0766555006436461,1
212,344,46,0.0777969728169365,1
212,345,46,0.0791357750101602,1
212,346,46,0.0793510396991825,1
213,337,46,0.0741656958773952,1
213,338,46,0.0744239968208088,1
213,339,46,0.0747864787276473,1
213,340,46,0.0760987681968767,1
213,341,46,0.0773972938502937,1
213,342,46,0.0772074991719466,1
213,343,46,0.0752458773617874,1
213,344,46,0.0775721985824438,1
213,345,46,0.0802481832875355,1
213,346,46,0.0805914375607693,1
213,347,46,0.080295098435474,1
213,348,46,0.0791900934226645,1
214,336,46,0.0736699691112167,1
214,337,46,0.0715632433155681,1
214,338,46,0.0728566874794099,1
214,339,46,0.073997819033016,1
214,340,46,0.0749174713262179,1
214,341,46,0.075356043499664,1
214,342,46,0.0743738006016261,1
214,343,46,0.0725395705533755,1
214,344,46,0.075676246857123,1
214,345,46,0.0799295231457888,1
214,346,46,0.08170915672465,1
214,347,46,0.0830763485258425,1
214,348,46,0.0824831558700144,1
214,349,46,0.0807230766415978,1
215,336,46,0.0768967636514252,1
215,337,46,0.0732502909031132,1
215,338,46,0.0743639295822051,1
215,339,46,0.0758377770530997,1
215,340,46,0.0758442418756783,1
215,341,46,0.075181249990268,1
215,342,46,0.0731292249353407,1
215,343,46,0.0715308705427203,1
215,344,46,0.074985358914715,1
215,345,46,0.0806231916570477,1
215,346,46,0.084006504417879,1
215,347,46,0.0871253572752917,1
215,348,46,0.0880488676077743,1
215,349,46,0.086986676403848,1
215,350,46,0.086720610721918,1
216,336,46,0.0851996882203759,1
216,337,46,0.0792157928302698,1
216,338,46,0.0779200129885932,1
216,339,46,0.0777692157883814,1
216,340,46,0.0768279793294736,1
216,341,46,0.0756070524012659,1
216,342,46,0.0731378794558894,1
216,343,46,0.0709132158324256,1
216,344,46,0.0744101426365087,1
216,345,46,0.0814336996714257,1
216,346,46,0.0860623527549765,1
216,347,46,0.0897804112483575,1
216,348,46,0.0940834388651898,1
216,349,46,0.0962604643928139,1
216,350,46,0.0969305606316385,1
216,351,46,0.095029986210603,1
217,335,46,0.101632912692585,1
217,336,46,0.0933124983455615,1
217,337,46,0.0849737461469657,1
217,338,46,0.0804929915205997,1
217,339,46,0.0779757564426336,1
217,340,46,0.0759959288579225,1
217,341,46,0.0755680827288191,1
217,342,46,0.0734965033234471,1
217,343,46,0.070120343575985,1
217,344,46,0.0720880339776616,1
217,345,46,0.0796817605583204,1
217,346,46,0.0858381763427867,1
217,347,46,0.0903509075109393,1
217,348,46,0.0976319174157705,1
217,349,46,0.103606602171558,1
217,350,46,0.105730581396927,1
217,351,46,0.102700741499857,1
217,352,46,0.0999521769963316,1
218,335,46,0.108204536920727,1
218,336,46,0.0984402843921332,1
218,337,46,0.0868732778546821,1
218,338,46,0.0795163097602638,1
218,339,46,0.0751642468117441,1
218,340,46,0.0714611060702487,1
218,341,46,0.0704968395498326,1
218,345,46,0.0721571033079204,1
218,346,46,0.0785064349592691,1
218,347,46,0.082603408521398,1
218,348,46,0.0885369408581903,1
218,349,46,0.094417503358371,1
218,350,46,0.0979336925531695,1
218,351,46,0.0968058729729375,1
218,352,46,0.0957968879539751,1
218,353,46,0.0949489326285963,1
219,335,46,0.119500201646853,1
219,336,46,0.106052147233123,1
219,337,46,0.0900406863956554,1
219,338,46,0.0793956191692861,1
219,339,46,0.0736996864408118,1
219,348,46,0.0737447942189972,1
219,349,46,0.0787003726852042,1
219,350,46,0.0836243291321533,1
219,351,46,0.0857665071806522,1
219,352,46,0.0874668319844608,1
219,353,46,0.0897392101694078,1
219,354,46,0.0951927676625626,1
220,336,46,0.113127179548894,1
220,337,46,0.093742749666721,1
220,338,46,0.0804958902636268,1
220,339,46,0.0724484652149724,1
220,350,46,0.0731272924399892,1
220,351,46,0.077063479608309,1
220,352,46,0.0797790526624169,1
220,353,46,0.0834852728839148,1
220,354,46,0.0914692383999673,1
220,355,46,0.101059079747382,1
221,337,46,0.0972707215220256,1
221,338,46,0.0828247348505155,1
221,339,46,0.0713881995549755,1
221,352,46,0.0721289709025704,1
221,353,46,0.0766588929376443,1
221,354,46,0.0854525531516858,1
221,355,46,0.0954214555477131,1
222,337,46,0.097907117266376,1
222,338,46,0.084770778523687,1
222,339,46,0.0700479445145271,1
222,353,46,0.071127451710973,1
222,354,46,0.0806520053017662,1
222,355,46,0.0907272922620328,1
222,356,46,0.099688148081085,1
223,336,46,0.102619896460514,1
223,337,46,0.094271440076628,1
223,338,46,0.0838576188587522,1
223,354,46,0.0739163900742145,1
223,355,46,0.0849508898710105,1
223,356,46,0.0958387494180269,1
224,335,46,0.0979892135617018,1
224,336,46,0.0919838869371767,1
224,337,46,0.088282692593877,1
224,338,46,0.0802920189554715,1
224,355,46,0.0789827116463348,1
225,335,46,0.0884375146675007,1
225,336,46,0.0867261231996651,1
225,337,46,0.084632841454411,1
225,338,46,0.0771504975105011,1
225,355,46,0.0737239747097253,1
226,334,46,0.0972613718592641,1
226,335,46,0.0847154034950193,1
226,336,46,0.0862090138590225,1
226,337,46,0.0858569590853753,1
226,338,46,0.0773408065940857,1
227,334,46,0.0903103320599811,1
227,335,46,0.0835048689428922,1
227,336,46,0.0881739654003808,1
227,337,46,0.0901524652634656,1
227,338,46,0.0809465857172633,1
228,335,46,0.084761512277991,1
228,336,46,0.0917094030830503,1
228,337,46,0.0941082345879186,1
228,338,46,0.0853719653149617,1
229,335,46,0.086615984867477,1
229,336,46,0.0936276897276666,1
229,337,46,0.0924098978908384,1
229,338,46,0.0834695696213288,1
230,336,46,0.0857101937099973,1
230,337,46,0.0829960456974256,1
230,338,46,0.0759678590153716,1
230,354,46,0.0768958947236593,1
231,353,46,0.0703111184048522,1
232,353,46,0.0784539517222065,1
233,353,46,0.0841814161014512,1
233,354,46,0.10032171459663,1
234,352,46,0.071556695075924,1
234,353,46,0.0880296399741696,1
234,354,46,0.103295491274241,1
234,355,46,0.115652165462532,1
235,352,46,0.0752024101192241,1
235,353,46,0.090132751030312,1
235,354,46,0.103061596773917,1
235,355,46,0.112523768302538,1
236,352,46,0.0821692505010029,1
236,353,46,0.0953052764296962,1
236,354,46,0.104949165084152,1
237,351,46,0.0743741898812653,1
237,352,46,0.0883147038927741,1
237,353,46,0.0994250923649361,1
237,354,46,0.108308279944558,1
238,351,46,0.0818521961377676,1
238,352,46,0.0952779295350466,1
238,353,46,0.105984871369773,1
238,354,46,0.116111007982902,1
239,350,46,0.0763757545629691,1
239,351,46,0.104893456387222,1
240,340,46,0.0711157385646882,1
240,341,46,0.0700104346407271,1
240,348,46,0.0702705220996276,1
240,349,46,0.078925696082045,1
240,350,46,0.0925656166979165,1
241,339,46,0.0743427625018268,1
241,340,46,0.0769816822241348,1
241,341,46,0.0760069468619946,1
241,342,46,0.0736201552202511,1
241,343,46,0.071031111951708,1
241,346,46,0.0706510220926205,1
241,347,46,0.0756918527997993,1
241,348,46,0.086952162592985,1
241,349,46,0.0998632961130094,1
242,339,46,0.0856843483225273,1
242,340,46,0.0888153731200852,1
242,341,46,0.0890049592557685,1
242,342,46,0.0896194719232616,1
242,343,46,0.0881647895231725,1
242,344,46,0.0842450980795612,1
242,345,46,0.0825801073544267,1
242,346,46,0.0864639225084379,1
242,347,46,0.0952653683152622,1
242,348,46,0.11081266184301,1
243,340,46,0.101326167288365,1
243,341,46,0.104634550670084,1
243,342,46,0.109182977390861,1
243,343,46,0.109322666218513,1
243,344,46,0.104000525360679,1
243,345,46,0.101513925200029,1
243,346,46,0.108259599135399,1
243,347,46,0.12376619208659,1
244,342,46,0.126468974523983,1
244,343,46,0.127767430663179,1
244,344,46,0.12494579281025,1
244,345,46,0.125883470141028,1
244,346,46,0.138188780271219,1
245,344,46,0.145081240436233,1
245,345,46,0.14904100682841,1
212,339,47,0.0786882911135466,1
212,340,47,0.0786658519229191,1
212,341,47,0.0793491697666302,1
212,342,47,0.0795572397337505,1
212,343,47,0.0782612374465658,1
212,344,47,0.0787672314632265,1
213,338,47,0.0762949651350033,1
213,339,47,0.0780294700814128,1
213,340,47,0.0793172140791101,1
213,341,47,0.0798209488835794,1
213,342,47,0.0788375798551568,1
213,343,47,0.0770656275977464,1
213,344,47,0.0787416988897522,1
213,345,47,0.0807098550367113,1
213,346,47,0.0804911215880474,1
214,337,47,0.0747828709395631,1
214,338,47,0.0769750297131587,1
214,339,47,0.0794909857294533,1
214,340,47,0.0798217413457019,1
214,341,47,0.0788437318637397,1
214,342,47,0.0763524325417313,1
214,343,47,0.0740385752209496,1
214,344,47,0.0768791556991763,1
214,345,47,0.0811659378424966,1
214,346,47,0.0829902482113713,1
214,347,47,0.0834772787484682,1
214,348,47,0.0820514725558967,1
215,336,47,0.0809015196476107,1
215,337,47,0.0774995075612565,1
215,338,47,0.0792398586536752,1
215,339,47,0.0816696100841667,1
215,340,47,0.0807923128059877,1
215,341,47,0.0783496178274948,1
215,342,47,0.0750966442315542,1
215,343,47,0.0731467216648356,1
215,344,47,0.076737277173554,1
215,345,47,0.0827183850433869,1
215,346,47,0.0867299464818352,1
215,347,47,0.0893515919201563,1
215,348,47,0.0897714647680794,1
215,349,47,0.0899556287945033,1
216,336,47,0.0882181903479559,1
216,337,47,0.0819927677960299,1
216,338,47,0.0809227214850996,1
216,339,47,0.0811827602840451,1
216,340,47,0.0795332086674558,1
216,341,47,0.0769020745379306,1
216,342,47,0.0740999979868682,1
216,343,47,0.0719861330806946,1
216,344,47,0.0756145321314751,1
216,345,47,0.0829311750261318,1
216,346,47,0.089214892204019,1
216,347,47,0.0938323326436781,1
216,348,47,0.0980819316300384,1
216,349,47,0.102562860041958,1
216,350,47,0.111380106431278,1
217,336,47,0.0943609187822532,1
217,337,47,0.0858616304410449,1
217,338,47,0.0812539637008971,1
217,339,47,0.0788381915803041,1
217,340,47,0.0763029870761384,1
217,341,47,0.0746274997035914,1
217,342,47,0.0727939161375986,1
217,343,47,0.0698436769753105,1
217,344,47,0.0719719660823987,1
217,345,47,0.0798878007101795,1
217,346,47,0.0883917534556354,1
217,347,47,0.0947330840201153,1
217,348,47,0.101930287579777,1
217,349,47,0.108680625919395,1
217,350,47,0.116493899265107,1
217,351,47,0.118491925672948,1
218,335,47,0.111095188492538,1
218,336,47,0.0997197422946544,1
218,337,47,0.0880397960018979,1
218,338,47,0.0799619028700587,1
218,339,47,0.0754287275694291,1
218,340,47,0.0710197116194189,1
218,345,47,0.0707430172130559,1
218,346,47,0.0783029320764866,1
218,347,47,0.0831951344271572,1
218,348,47,0.0889131935322634,1
218,349,47,0.0938363505656678,1
218,350,47,0.0986599771370507,1
218,351,47,0.100877724095498,1
218,352,47,0.0986455042761812,1
219,336,47,0.107582641842934,1
219,337,47,0.0921316811230295,1
219,338,47,0.0807422347609812,1
219,339,47,0.0743677320101088,1
219,348,47,0.0721857223128193,1
219,349,47,0.077039816967387,1
219,350,47,0.0822558999778222,1
219,351,47,0.0856306624894366,1
219,352,47,0.0872006967883095,1
219,353,47,0.0896517821333103,1
220,337,47,0.0960386167070368,1
220,338,47,0.0825740874228642,1
220,339,47,0.0730735579469436,1
220,350,47,0.0731664984607883,1
220,351,47,0.0774110854717947,1
220,352,47,0.0797178662448507,1
220,353,47,0.0834411452562494,1
220,354,47,0.0911167804438366,1
221,337,47,0.0979995572778275,1
221,338,47,0.0845037813511919,1
221,339,47,0.0711845437409061,1
221,351,47,0.0700108030660999,1
221,352,47,0.0727304983135294,1
221,353,47,0.0774182940965409,1
221,354,47,0.0861160385880672,1
222,337,47,0.0973625080997971,1
222,338,47,0.0850404797993897,1
222,353,47,0.0716236789795446,1
222,354,47,0.0809475241592505,1
222,355,47,0.0886878214754677,1
223,336,47,0.0998148655550471,1
223,337,47,0.0931262071839667,1
223,338,47,0.0830754448409659,1
223,354,47,0.0728997932480225,1
223,355,47,0.0820893647579137,1
224,335,47,0.0947271544570405,1
224,336,47,0.0915327465925241,1
224,337,47,0.0883222600886267,1
224,338,47,0.0799952488420043,1
224,355,47,0.0775695500906132,1
225,335,47,0.0885274452155642,1
225,336,47,0.087647520299821,1
225,337,47,0.0856428761381146,1
225,338,47,0.0782662980818746,1
225,355,47,0.0755638145556328,1
226,335,47,0.0862080267570804,1
226,336,47,0.0881446512532691,1
226,337,47,0.0865498629402002,1
226,338,47,0.0788744641009654,1
227,335,47,0.0889670531509072,1
227,336,47,0.0929063476049181,1
227,337,47,0.0901466747288334,1
227,338,47,0.0810919677596378,1
228,335,47,0.0962750415250152,1
228,336,47,0.09932923920522,1
228,337,47,0.0920045743694282,1
228,338,47,0.0818962542512117,1
229,335,47,0.0967506925840894,1
229,336,47,0.0989404114085183,1
229,337,47,0.0876926628351169,1
229,338,47,0.0773805548258107,1
230,336,47,0.0849351796570024,1
230,337,47,0.0764931293255919,1
230,338,47,0.0698572391998813,1
231,353,47,0.075834516836122,1
232,353,47,0.0824397025302954,1
233,352,47,0.072053763466573,1
233,353,47,0.0868146773661473,1
233,354,47,0.10000399289687,1
234,352,47,0.0751907525843163,1
234,353,47,0.0893289997982419,1
234,354,47,0.10144322228557,1
235,352,47,0.0786552092956419,1
235,353,47,0.0908298674469462,1
235,354,47,0.100945959255101,1
236,351,47,0.0719095840202265,1
236,352,47,0.0853159299011919,1
236,353,47,0.095701632616562,1
237,351,47,0.0805042041644913,1
237,352,47,0.0913417771238374,1
237,353,47,0.0999994605696429,1
238,350,47,0.077252662561509,1
238,351,47,0.0920719336498436,1
238,352,47,0.105114038914172,1
239,340,47,0.0698153082216082,1
239,349,47,0.0751149264717495,1
239,350,47,0.0893908744065988,1
239,351,47,0.127411698587226,1
240,340,47,0.0713772719193911,1
240,341,47,0.0705701422961671,1
240,347,47,0.0713051161577076,1
240,348,47,0.0807518624806278,1
240,349,47,0.0908366520349426,1
240,350,47,0.1096921690617,1
241,339,47,0.0749001553336983,1
241,340,47,0.0780767119461913,1
241,341,47,0.0774831647678347,1
241,342,47,0.076713016710329,1
241,343,47,0.0751017674296622,1
241,344,47,0.0741559708378388,1
241,345,47,0.0750790293278831,1
241,346,47,0.0791773167087941,1
241,347,47,0.0859673754744485,1
241,348,47,0.0992542333604643,1
241,349,47,0.114601054825477,1
242,340,47,0.09027494236993,1
242,341,47,0.09073858832299,1
242,342,47,0.0929218701305288,1
242,343,47,0.0932202946824624,1
242,344,47,0.0918440938381927,1
242,345,47,0.0917806134513244,1
242,346,47,0.097125881690577,1
242,347,47,0.107536637331295,1
243,341,47,0.105684493468221,1
243,342,47,0.111777248128844,1
243,343,47,0.114005310997728,1
243,344,47,0.111712175866308,1
243,345,47,0.110952322864974,1
243,346,47,0.119685665589215,1
244,344,47,0.130255108294259,1
244,345,47,0.132563731194179,1
213,339,48,0.081129707030368,1
213,340,48,0.0816433406599469,1
213,341,48,0.0818543371757829,1
213,342,48,0.0810801920505539,1
213,343,48,0.0799778494324192,1
213,344,48,0.0802348087513622,1
214,338,48,0.0802815640165918,1
214,339,48,0.0840959414149714,1
214,340,48,0.0838789527732615,1
214,341,48,0.082402769624532,1
214,342,48,0.0798989090827393,1
214,343,48,0.0779544294795465,1
214,344,48,0.0796709232912237,1
214,345,48,0.0832012377757852,1
214,346,48,0.0837068981241838,1
215,337,48,0.080417387853541,1
215,338,48,0.0818764635524147,1
215,339,48,0.0853683158183448,1
215,340,48,0.0845710780688082,1
215,341,48,0.0816666070698076,1
215,342,48,0.078513733952503,1
215,343,48,0.0769774835651697,1
215,344,48,0.0800785755390466,1
215,345,48,0.0857914905917785,1
215,346,48,0.0890558992771188,1
215,347,48,0.0904724878839493,1
215,348,48,0.0940318801672701,1
216,337,48,0.0842202745511439,1
216,338,48,0.0823180317887978,1
216,339,48,0.082939961623701,1
216,340,48,0.0815107700885533,1
216,341,48,0.0785632836894278,1
216,342,48,0.0761296186082786,1
216,343,48,0.0746137914991559,1
216,344,48,0.077611578388796,1
216,345,48,0.084925781334286,1
216,346,48,0.09205581330193,1
216,347,48,0.0972661405348435,1
216,348,48,0.104642051254559,1
216,349,48,0.138675796905472,1
217,337,48,0.0871571808857914,1
217,338,48,0.0818354918703952,1
217,339,48,0.0790802400987836,1
217,340,48,0.0764994759739943,1
217,341,48,0.0739641950041853,1
217,342,48,0.0724416319670211,1
217,343,48,0.0703199884194868,1
217,344,48,0.0719771031833509,1
217,345,48,0.0797446987342628,1
217,346,48,0.0895147835060215,1
217,347,48,0.0969982049203612,1
217,348,48,0.103442103718332,1
217,349,48,0.123707522083834,1
217,350,48,0.146750888614193,1
218,336,48,0.102582921846218,1
218,337,48,0.0901298522872848,1
218,338,48,0.0815357534996796,1
218,339,48,0.0757408742286424,1
218,340,48,0.0715340890511654,1
218,346,48,0.0770499451894268,1
218,347,48,0.0819535478723866,1
218,348,48,0.0856451979131052,1
218,349,48,0.0914589989551735,1
218,350,48,0.0988269850536639,1
218,351,48,0.105229411667222,1
219,336,48,0.111614612656749,1
219,337,48,0.0952075255317393,1
219,338,48,0.0833686697291481,1
219,339,48,0.0741228820685119,1
219,348,48,0.0697383420758125,1
219,349,48,0.0745777205697363,1
219,350,48,0.079220109663411,1
219,351,48,0.0842164026090189,1
219,352,48,0.0862250507898706,1
220,337,48,0.0990060884447789,1
220,338,48,0.0857126406105862,1
220,339,48,0.0724379060047608,1
220,350,48,0.0717786470330329,1
220,351,48,0.076858044230175,1
220,352,48,0.0796123088998446,1
221,337,48,0.0988117127792497,1
221,338,48,0.0859951464058478,1
221,339,48,0.070108234198639,1
221,351,48,0.069802753953246,1
221,352,48,0.0731705233342001,1
221,353,48,0.0789478224586768,1
222,336,48,0.108107126642454,1
222,337,48,0.0965815783865716,1
222,338,48,0.0847654954428701,1
222,353,48,0.0721881900676746,1
222,354,48,0.081454540034964,1
223,336,48,0.0972920832422234,1
223,337,48,0.0928598217366187,1
223,338,48,0.0828084476684708,1
224,336,48,0.0904909300068535,1
224,337,48,0.0891146526969405,1
224,338,48,0.080837198138665,1
225,336,48,0.0869213191330053,1
225,337,48,0.0858784459311714,1
225,338,48,0.0801673173939263,1
226,336,48,0.0910955090921265,1
226,337,48,0.084149787130771,1
226,338,48,0.0799339720559504,1
227,336,48,0.106853840844243,1
227,337,48,0.0859697737150825,1
227,338,48,0.0785430480996147,1
228,336,48,0.117316759956605,1
228,337,48,0.0868082751063679,1
228,338,48,0.0758684953874812,1
229,336,48,0.109304773257957,1
229,337,48,0.0827124276746236,1
229,338,48,0.070844709567359,1
230,337,48,0.0720463602020072,1
232,352,48,0.0716260911230228,1
232,353,48,0.0871821990540282,1
233,352,48,0.0768456706987881,1
233,353,48,0.0906814128759913,1
234,352,48,0.0798369163002062,1
234,353,48,0.0930725422051424,1
235,352,48,0.0821875327411982,1
235,353,48,0.0941541765367592,1
236,351,48,0.0771780042878596,1
236,352,48,0.0892357951303564,1
237,350,48,0.0745196831463938,1
237,351,48,0.087374315507366,1
237,352,48,0.0973186029176398,1
238,340,48,0.0704059358026713,1
238,341,48,0.0701231032905697,1
238,349,48,0.0735142433527165,1
238,350,48,0.087026473295528,1
238,351,48,0.104965834594414,1
239,340,48,0.0715693605670403,1
239,341,48,0.0713669907660645,1
239,347,48,0.0714346420062093,1
239,348,48,0.0780005174082518,1
239,349,48,0.0861584005545122,1
239,350,48,0.103182461150448,1
240,340,48,0.0736161998610605,1
240,341,48,0.0728367994607031,1
240,342,48,0.071310204598705,1
240,344,48,0.0705590269721852,1
240,345,48,0.0720201185834759,1
240,346,48,0.0761321072174002,1
240,347,48,0.0824885640764296,1
240,348,48,0.0922916472490275,1
240,349,48,0.101863359287534,1
241,340,48,0.0807665994955381,1
241,341,48,0.079665000679571,1
241,342,48,0.0799929757269686,1
241,343,48,0.0801328313887518,1
241,344,48,0.0823759023780092,1
241,345,48,0.0849781185914839,1
241,346,48,0.0902672332427906,1
241,347,48,0.0986889298102117,1
241,348,48,0.112073072848902,1
242,341,48,0.0918858579823347,1
242,342,48,0.0953480832871574,1
242,343,48,0.0976970939496379,1
242,344,48,0.100280708157499,1
242,345,48,0.103071857072977,1
242,346,48,0.110402771237262,1
242,347,48,0.122598089015129,1
243,344,48,0.120603503561241,1
243,345,48,0.122683521993076,1
243,346,48,0.132618550109076,1
216,347,49,0.103394416962538,1
216,348,49,0.12537042738233,1
217,348,49,0.107802591790471,1
221,337,49,0.100312059071294,1
222,337,49,0.0959669197392138,1
232,353,49,0.0901376170258012,1
233,352,49,0.0817683689383321,1
234,352,49,0.084951077559408,1
242,346,49,0.125580443747646,1
