x,y,z,signal,cytoplasm.p
146,417,34,0.173510749567955,1
148,418,34,0.131065936074055,1
149,418,34,0.115935157857343,1
150,419,34,0.115088036702619,1
151,420,34,0.131509812182584,1
153,422,34,0.15951274034403,1
155,423,34,0.151464147456458,1
156,423,34,0.145635532933836,1
145,415,35,0.142117209652444,1
146,416,35,0.147430292807247,1
148,416,35,0.121704803466057,1
148,417,35,0.122479038959774,1
149,416,35,0.113079374618923,1
149,417,35,0.113796080143113,1
150,417,35,0.109085754800986,1
150,418,35,0.112026296729406,1
151,417,35,0.108730717867246,1
151,418,35,0.116783905644844,1
151,419,35,0.12842085044032,1
152,418,35,0.122943143706694,1
152,419,35,0.136250153765457,1
152,420,35,0.145841573085695,1
153,418,35,0.123396612777759,1
153,419,35,0.137519900531267,1
153,421,35,0.153674046259323,1
154,419,35,0.131499426757926,1
155,419,35,0.120058956957462,1
155,420,35,0.127314281357532,1
155,421,35,0.130605807540591,1
155,422,35,0.135277274433025,1
156,419,35,0.109046673905785,1
156,420,35,0.114073580914442,1
156,421,35,0.119151712952757,1
156,422,35,0.127784517258768,1
157,420,35,0.103872097836873,1
157,421,35,0.112519583546418,1
151,418,36,0.123704811029204,1
153,419,36,0.137582963832807,1
153,420,36,0.144725967154141,1
154,420,36,0.134474677137028,1
155,420,36,0.1236284705114,1
156,420,36,0.115131045151322,1
156,421,36,0.115912218164322,1
157,421,36,0.115333588737851,1
157,420,37,0.12129988312713,1
149,413,38,0.0959236123793595,1
149,414,38,0.101890490688097,1
150,411,38,0.070553347660307,1
150,412,38,0.0834879908899667,1
150,413,38,0.0936993171812684,1
150,414,38,0.101324804809628,1
151,411,38,0.0716514846680546,1
151,412,38,0.0826404109413827,1
151,413,38,0.091743082723258,1
151,414,38,0.10144060855085,1
151,415,38,0.108918204673447,1
152,411,38,0.0721531618515741,1
152,412,38,0.0817941865201136,1
152,413,38,0.0896719551603243,1
152,414,38,0.102386273065653,1
152,415,38,0.112148356750543,1
152,416,38,0.123153646671559,1
153,412,38,0.0760055982861018,1
153,413,38,0.0836047330731759,1
153,414,38,0.0986549999188074,1
153,415,38,0.112875058419752,1
153,416,38,0.126895041089022,1
153,417,38,0.133404547409033,1
154,413,38,0.0742602213154849,1
154,414,38,0.0917556022345096,1
154,415,38,0.111827173242564,1
154,416,38,0.130240260056595,1
154,417,38,0.136841942234016,1
155,414,38,0.0828304767251928,1
155,415,38,0.106295356639098,1
155,416,38,0.127696734700142,1
155,417,38,0.1347915229576,1
156,414,38,0.0720593385071193,1
156,415,38,0.0941721807200695,1
156,416,38,0.116345868730902,1
156,417,38,0.126888673586353,1
156,418,38,0.127310541492427,1
157,415,38,0.0813844001856975,1
157,416,38,0.103266642872412,1
157,417,38,0.119112506931958,1
157,418,38,0.124846373570982,1
158,415,38,0.0734377638064697,1
158,416,38,0.0930190579632934,1
158,417,38,0.112293731841495,1
159,416,38,0.0836733505609965,1
159,417,38,0.103633253923994,1
160,416,38,0.0766209590270945,1
160,417,38,0.0959417903482229,1
161,396,38,0.0981431110961825,1
161,416,38,0.0716172558654988,1
161,417,38,0.0914460206500614,1
162,396,38,0.090697644446659,1
162,417,38,0.0883126462718244,1
162,418,38,0.113794877547084,1
163,396,38,0.0864751351523296,1
163,417,38,0.0824358444910147,1
163,418,38,0.108055797341465,1
164,396,38,0.083703040084903,1
164,417,38,0.0772188786499693,1
164,418,38,0.10384496643631,1
165,396,38,0.0768499458233965,1
165,417,38,0.073570264863642,1
165,418,38,0.10228294712715,1
166,417,38,0.0703966695569753,1
166,418,38,0.098719529970417,1
167,395,38,0.0959412620401412,1
167,418,38,0.0910229084394269,1
168,395,38,0.08270503136148,1
168,418,38,0.08580858413879,1
169,395,38,0.0718803810958689,1
169,418,38,0.0849837422919851,1
170,417,38,0.0711371976047957,1
170,418,38,0.0867480062765225,1
172,394,38,0.0827308002833066,1
173,394,38,0.0811859857439123,1
148,413,39,0.109951033070306,1
148,414,39,0.110657102918641,1
149,412,39,0.0999969441548327,1
149,413,39,0.104080376346657,1
149,414,39,0.106042449999255,1
149,415,39,0.107180036327576,1
150,410,39,0.0833284557521405,1
150,411,39,0.0901290876308508,1
150,412,39,0.0969764261148357,1
150,413,39,0.100967181946856,1
150,414,39,0.105173258079276,1
150,415,39,0.108704399783071,1
151,410,39,0.0831463841037771,1
151,411,39,0.0920228009982465,1
151,412,39,0.0963563801153291,1
151,413,39,0.0992175159487868,1
151,414,39,0.106288113257241,1
151,415,39,0.112369745642459,1
151,416,39,0.122802460825678,1
152,410,39,0.077977028552883,1
152,411,39,0.0897598211360159,1
152,412,39,0.0942233292840836,1
152,413,39,0.0975500157602642,1
152,414,39,0.108730544081693,1
152,415,39,0.118893189563836,1
152,416,39,0.131289062821503,1
152,417,39,0.137132469970413,1
153,411,39,0.0772764294737629,1
153,412,39,0.0846915809713884,1
153,413,39,0.0921079142107756,1
153,414,39,0.107803530232458,1
153,415,39,0.123718811193369,1
153,416,39,0.138101317478011,1
153,417,39,0.142515470528973,1
153,418,39,0.141966071832548,1
154,412,39,0.0720571557605712,1
154,413,39,0.083328045618235,1
154,414,39,0.103173354787461,1
154,415,39,0.12585086797125,1
154,416,39,0.142267610621595,1
154,417,39,0.144151696269344,1
154,418,39,0.13892682666134,1
155,413,39,0.0744845228532729,1
155,414,39,0.0948311546834901,1
155,415,39,0.120292385712503,1
155,416,39,0.137455711099341,1
155,417,39,0.137818005317782,1
155,418,39,0.130836650366601,1
156,414,39,0.083409933370897,1
156,415,39,0.107231247454389,1
156,416,39,0.126586050375455,1
156,417,39,0.131909741400423,1
156,418,39,0.127695858820954,1
156,419,39,0.123091348026452,1
157,414,39,0.0741671626274641,1
157,415,39,0.0944726420386864,1
157,416,39,0.115379975577708,1
157,417,39,0.128716216366517,1
157,418,39,0.131669055360681,1
157,419,39,0.13244735048492,1
158,414,39,0.0699629633790184,1
158,415,39,0.0876174971076523,1
158,416,39,0.106513666051012,1
158,417,39,0.124230505376174,1
158,418,39,0.135857148164057,1
159,415,39,0.0821314417160514,1
159,416,39,0.0976398281341515,1
159,417,39,0.115293027189737,1
159,418,39,0.134167896975698,1
160,396,39,0.11479335201579,1
160,415,39,0.0754794312424271,1
160,416,39,0.0915171615041142,1
160,417,39,0.10872644969406,1
160,418,39,0.128752892069662,1
161,396,39,0.110078271900928,1
161,416,39,0.0864176051828024,1
161,417,39,0.104894207140812,1
161,418,39,0.124875110750057,1
161,419,39,0.140624808835891,1
162,396,39,0.104457595268406,1
162,416,39,0.0797326797254044,1
162,417,39,0.101262346281812,1
162,418,39,0.123379651307768,1
162,419,39,0.139228782535714,1
163,396,39,0.101157908115769,1
163,416,39,0.0730753027538976,1
163,417,39,0.0939298263390163,1
163,418,39,0.118051330635663,1
164,396,39,0.0988827007020158,1
164,416,39,0.0705334179330675,1
164,417,39,0.0889370160558943,1
164,418,39,0.116369885894352,1
165,396,39,0.0923753910313975,1
165,417,39,0.0848651857876006,1
165,418,39,0.115733427587203,1
166,396,39,0.081600930033547,1
166,417,39,0.0805734125231927,1
166,418,39,0.11095071013504,1
167,395,39,0.10826041940321,1
167,396,39,0.0704939060496948,1
167,417,39,0.0765948494855836,1
167,418,39,0.102053292994323,1
168,395,39,0.0968031897239963,1
168,417,39,0.0750043710542338,1
168,418,39,0.0956623570815416,1
169,395,39,0.087997767703715,1
169,417,39,0.077003064798599,1
169,418,39,0.0935265465357115,1
170,395,39,0.0795839540489865,1
170,417,39,0.0808884579254332,1
170,418,39,0.0950982978358499,1
170,419,39,0.109560140701233,1
171,395,39,0.070544783508246,1
171,416,39,0.0739613240668466,1
171,417,39,0.0859320692014629,1
171,418,39,0.100025451936978,1
173,394,39,0.0952847558315758,1
147,413,40,0.12754142602697,1
148,413,40,0.116848039465392,1
149,412,40,0.118655256287255,1
149,413,40,0.109083641568659,1
149,414,40,0.108825875884749,1
150,411,40,0.133999060835065,1
150,412,40,0.121492576548504,1
150,413,40,0.106263623397085,1
150,414,40,0.108560185579614,1
150,415,40,0.110653578547622,1
151,410,40,0.114653218297122,1
151,411,40,0.128596943865654,1
151,412,40,0.116379652642441,1
151,413,40,0.104886303373853,1
151,414,40,0.110444577089937,1
151,415,40,0.116675213208458,1
152,410,40,0.0944097316684325,1
152,411,40,0.107680476157957,1
152,412,40,0.104504308825103,1
152,413,40,0.103709177356471,1
152,414,40,0.113827674356682,1
152,415,40,0.125325354361255,1
152,416,40,0.138160196023431,1
153,410,40,0.0741743434465218,1
153,411,40,0.0858363620216115,1
153,412,40,0.0917907138676756,1
153,413,40,0.10030491996077,1
153,414,40,0.115404569709195,1
153,415,40,0.132697420944535,1
153,416,40,0.145454517901636,1
153,417,40,0.149627734661659,1
154,411,40,0.0698733317421065,1
154,412,40,0.0796646809141532,1
154,413,40,0.0919513403787758,1
154,414,40,0.111596684939082,1
154,415,40,0.133851537754675,1
154,416,40,0.145488107173356,1
154,417,40,0.144078108514702,1
155,412,40,0.0706929600223157,1
155,413,40,0.0827566943307315,1
155,414,40,0.103093079764733,1
155,415,40,0.126358266175181,1
155,416,40,0.137852234120338,1
155,417,40,0.134700695676082,1
155,418,40,0.127602848792888,1
156,413,40,0.0734568385087876,1
156,414,40,0.0918467631842897,1
156,415,40,0.113719002774563,1
156,416,40,0.129839232514059,1
156,417,40,0.133589010346608,1
156,418,40,0.130217806963123,1
157,414,40,0.0846714913614399,1
157,415,40,0.103909232333878,1
157,416,40,0.123142468784778,1
157,417,40,0.135582177710382,1
157,418,40,0.139919378518393,1
158,414,40,0.0822379166487783,1
158,415,40,0.0996368535372061,1
158,416,40,0.116333279705429,1
158,417,40,0.13146585138905,1
158,418,40,0.143481940650204,1
158,419,40,0.149820859071205,1
159,396,40,0.12698044626128,1
159,397,40,0.0755678672347332,1
159,414,40,0.0794566943640984,1
159,415,40,0.0959334764473584,1
159,416,40,0.109544979649573,1
159,417,40,0.122702415958419,1
159,418,40,0.139182819732607,1
160,396,40,0.122438261917574,1
160,397,40,0.0706202759525506,1
160,414,40,0.0727345718468961,1
160,415,40,0.0900085708254263,1
160,416,40,0.105367480813519,1
160,417,40,0.117859332356501,1
160,418,40,0.13342120301645,1
161,396,40,0.119252828339024,1
161,415,40,0.0825930926109608,1
161,416,40,0.100032841298699,1
161,417,40,0.11433343202499,1
161,418,40,0.129323200643846,1
161,419,40,0.139329897921981,1
162,396,40,0.119326902693214,1
162,415,40,0.0750701315075599,1
162,416,40,0.0912638725360545,1
162,417,40,0.108863851503832,1
162,418,40,0.126441141029785,1
162,419,40,0.135957637922332,1
163,396,40,0.118890895594533,1
163,415,40,0.073183327853759,1
163,416,40,0.0849731761303513,1
163,417,40,0.101457750757816,1
163,418,40,0.121743300441799,1
164,415,40,0.0749728533063077,1
164,416,40,0.0835131202809576,1
164,417,40,0.0977959779294016,1
165,415,40,0.0732884055506383,1
165,416,40,0.0813603065566036,1
165,417,40,0.0956115769429002,1
166,396,40,0.0973893544920535,1
166,416,40,0.0762306297232133,1
166,417,40,0.0920304823196973,1
167,396,40,0.0869629651029711,1
167,416,40,0.0730364582070492,1
167,417,40,0.0889051993968168,1
167,418,40,0.114393930251766,1
168,395,40,0.109543123619865,1
168,396,40,0.0753222456852801,1
168,416,40,0.0724382674787114,1
168,417,40,0.0872982391436026,1
168,418,40,0.107177742358274,1
169,416,40,0.0753094620199876,1
169,417,40,0.0886992496134453,1
169,418,40,0.103638189433705,1
170,395,40,0.0926844025992313,1
170,416,40,0.0795266117678568,1
170,417,40,0.0919737170066042,1
170,418,40,0.10351129817419,1
171,395,40,0.0818129762141243,1
171,415,40,0.0746198739935175,1
171,416,40,0.0851766790131338,1
172,395,40,0.0763679064073872,1
173,395,40,0.0775694388678591,1
149,412,41,0.148387128257409,1
149,413,41,0.113487763717492,1
150,411,41,0.209736334227045,1
150,412,41,0.16089247251074,1
150,413,41,0.111811977433793,1
150,414,41,0.109677578026655,1
151,410,41,0.148351926255755,1
151,411,41,0.174969727946919,1
151,412,41,0.138553298944741,1
151,413,41,0.108611035232477,1
151,414,41,0.112804035739875,1
151,415,41,0.120707844407375,1
152,409,41,0.079265578915547,1
152,410,41,0.106648857308547,1
152,411,41,0.120083356449129,1
152,412,41,0.109932347647628,1
152,413,41,0.107425928982492,1
152,414,41,0.117851171386923,1
152,415,41,0.129220500333335,1
153,410,41,0.0833517708219562,1
153,411,41,0.0926367297462809,1
153,412,41,0.0976993740160957,1
153,413,41,0.106795636586769,1
153,414,41,0.120861582059147,1
153,415,41,0.13502367265097,1
153,416,41,0.144218596755899,1
154,410,41,0.0698601796514412,1
154,411,41,0.0787894621111903,1
154,412,41,0.0880171482686065,1
154,413,41,0.0990678240246932,1
154,414,41,0.11601987483881,1
154,415,41,0.132527653313337,1
154,416,41,0.139438326204326,1
154,417,41,0.137306700414616,1
155,412,41,0.0793863251179017,1
155,413,41,0.0899387994015326,1
155,414,41,0.107494490858936,1
155,415,41,0.124396713879243,1
155,416,41,0.132444333567717,1
155,417,41,0.130874994411057,1
156,412,41,0.0714353440998442,1
156,413,41,0.081271675924478,1
156,414,41,0.097797743590622,1
156,415,41,0.114686960500129,1
156,416,41,0.128402596005813,1
156,417,41,0.134618126684052,1
156,418,41,0.135364695517701,1
157,413,41,0.0758304641570216,1
157,414,41,0.0927739716733441,1
157,415,41,0.108538358114134,1
157,416,41,0.124980341378223,1
157,417,41,0.137913351023683,1
158,396,41,0.131681971102994,1
158,397,41,0.0864989020645835,1
158,413,41,0.0719447721190359,1
158,414,41,0.0908705888777691,1
158,415,41,0.106086459452744,1
158,416,41,0.119805243952652,1
158,417,41,0.132695961145888,1
158,418,41,0.144740759780428,1
159,396,41,0.13283970265264,1
159,397,41,0.0848678203765869,1
159,414,41,0.0878479784597117,1
159,415,41,0.103882212156069,1
159,416,41,0.115815516931106,1
159,417,41,0.12539320024122,1
159,418,41,0.138358547902417,1
160,396,41,0.125381466240669,1
160,397,41,0.0785292981866465,1
160,414,41,0.0821567657468619,1
160,415,41,0.099931802378076,1
160,416,41,0.113787432573986,1
160,417,41,0.122066388639441,1
160,418,41,0.132038273195561,1
161,396,41,0.125093162959353,1
161,397,41,0.0770337553272919,1
161,414,41,0.0773367400121411,1
161,415,41,0.0932977821849176,1
161,416,41,0.108059599769368,1
161,417,41,0.117674118665336,1
161,418,41,0.12711202277931,1
162,396,41,0.131971094652121,1
162,397,41,0.0793856647327996,1
162,414,41,0.0754541211144609,1
162,415,41,0.0864984015621903,1
162,416,41,0.0990752898520582,1
162,417,41,0.110649929051005,1
162,418,41,0.122172801009369,1
162,419,41,0.12919268074198,1
163,397,41,0.0820216787606582,1
163,413,41,0.070374515374655,1
163,414,41,0.0773662905076051,1
163,415,41,0.0840965392372744,1
163,416,41,0.0933197417274184,1
163,417,41,0.104957110559644,1
163,418,41,0.119164767723513,1
164,397,41,0.078240202443208,1
164,413,41,0.0715741292426198,1
164,414,41,0.078676153930512,1
164,415,41,0.0837610844596676,1
164,416,41,0.0913976178977876,1
164,417,41,0.10379125279753,1
165,397,41,0.071245924798292,1
165,414,41,0.0745486844795098,1
165,415,41,0.0802955224722238,1
165,416,41,0.0898999896117948,1
165,417,41,0.104678580977839,1
166,415,41,0.0754095764014679,1
166,416,41,0.087094680649443,1
166,417,41,0.102984477696835,1
167,396,41,0.0997888463820239,1
167,415,41,0.0735159186454492,1
167,416,41,0.084874041899391,1
167,417,41,0.0999056302737659,1
167,418,41,0.120308971805699,1
168,396,41,0.0884357420548582,1
168,415,41,0.073668293818484,1
168,416,41,0.0835459031877109,1
168,417,41,0.0975637865274988,1
168,418,41,0.114018303205684,1
169,396,41,0.0775610554527734,1
169,414,41,0.0699243412776781,1
169,415,41,0.0763908252461415,1
169,416,41,0.0860161188464065,1
169,417,41,0.0983908458779624,1
169,418,41,0.111495778095479,1
170,414,41,0.0731007102017737,1
170,415,41,0.0802767327782132,1
170,416,41,0.0902848968064166,1
171,395,41,0.0938057921139953,1
171,413,41,0.0710954543149201,1
171,414,41,0.0792950877024782,1
171,415,41,0.0864616007334473,1
172,413,41,0.0765094582161694,1
172,414,41,0.0854570507218023,1
150,412,42,0.195695476437126,1
150,413,42,0.116325417647003,1
151,411,42,0.208975514978035,1
151,412,42,0.150042275768811,1
151,413,42,0.109328533218789,1
151,414,42,0.112568208744199,1
152,410,42,0.112913471978428,1
152,411,42,0.124781391676934,1
152,412,42,0.11092084682558,1
152,413,42,0.10849573894507,1
152,414,42,0.11974612905888,1
152,415,42,0.130982449494304,1
153,409,42,0.0793310752148323,1
153,410,42,0.0914484327935396,1
153,411,42,0.0980090807261422,1
153,412,42,0.102398597937085,1
153,413,42,0.110542494822025,1
153,414,42,0.123441032365154,1
153,415,42,0.134805300676257,1
154,409,42,0.0706383079415493,1
154,410,42,0.0796488733802352,1
154,411,42,0.0875028055939707,1
154,412,42,0.0956415306208476,1
154,413,42,0.104350689347507,1
154,414,42,0.118092872334296,1
154,415,42,0.130213413664338,1
154,416,42,0.13480776147969,1
155,411,42,0.0779976047623804,1
155,412,42,0.0873378900554179,1
155,413,42,0.0967890574828111,1
155,414,42,0.111110175758645,1
155,415,42,0.123680995456995,1
155,416,42,0.131064879457891,1
156,411,42,0.0697777635906976,1
156,412,42,0.0789735983319256,1
156,413,42,0.0890379020452307,1
156,414,42,0.103813038554478,1
156,415,42,0.117490517704104,1
156,416,42,0.130260808460403,1
156,417,42,0.140500586922473,1
157,412,42,0.0719603780617122,1
157,413,42,0.0834814009417898,1
157,414,42,0.0996313549623033,1
157,415,42,0.113796024531736,1
157,416,42,0.127799671359006,1
158,396,42,0.13501563680699,1
158,397,42,0.0923038469948613,1
158,413,42,0.0785077974380061,1
158,414,42,0.0962978074324828,1
158,415,42,0.11148111059479,1
158,416,42,0.123698638166355,1
158,417,42,0.135345273244277,1
159,396,42,0.133888908600033,1
159,397,42,0.0900266862314906,1
159,413,42,0.074496194291025,1
159,414,42,0.0923931519149333,1
159,415,42,0.109094888969661,1
159,416,42,0.12105476208007,1
159,417,42,0.129356261607485,1
159,418,42,0.138627595744439,1
160,396,42,0.126154811952353,1
160,397,42,0.0843821245125385,1
160,413,42,0.0712924576180135,1
160,414,42,0.087852573349738,1
160,415,42,0.105608799432675,1
160,416,42,0.118564081434631,1
160,417,42,0.125340425044428,1
160,418,42,0.131352126123044,1
161,396,42,0.127646392501095,1
161,397,42,0.0840151867441163,1
161,413,42,0.0706269423663709,1
161,414,42,0.0843402004856875,1
161,415,42,0.0996739602285227,1
161,416,42,0.111513664104613,1
161,417,42,0.11812575256096,1
161,418,42,0.124112720479646,1
162,397,42,0.0870703715262631,1
162,413,42,0.0755367735235569,1
162,414,42,0.0852363778263648,1
162,415,42,0.095281822331438,1
162,416,42,0.104111928851694,1
162,417,42,0.110559637028991,1
162,418,42,0.117972529314425,1
163,397,42,0.091996385594162,1
163,412,42,0.0747520691881162,1
163,413,42,0.0835057726277688,1
163,414,42,0.0892403274575835,1
163,415,42,0.0934503311435056,1
163,416,42,0.0998799656232712,1
163,417,42,0.107356963923565,1
163,418,42,0.117875042570509,1
164,412,42,0.0770133111948149,1
164,413,42,0.0858359240820174,1
164,414,42,0.0900565286866839,1
164,415,42,0.09149097549696,1
164,416,42,0.0980294205872873,1
164,417,42,0.108827481663261,1
165,397,42,0.0821527825819828,1
165,412,42,0.0714463899096048,1
165,413,42,0.0783275123051294,1
165,414,42,0.0834082094182093,1
165,415,42,0.0869275545586537,1
165,416,42,0.0970051493910665,1
165,417,42,0.111557812586545,1
166,397,42,0.0732259053142899,1
166,413,42,0.0717267199097405,1
166,414,42,0.0777322064169746,1
166,415,42,0.0841827090659669,1
166,416,42,0.0962347232766757,1
166,417,42,0.110832904384245,1
167,396,42,0.109109493907551,1
167,414,42,0.0757744148404076,1
167,415,42,0.0831256897201035,1
167,416,42,0.0938467290389042,1
167,417,42,0.106404876294716,1
168,396,42,0.098140900543946,1
168,414,42,0.0758507623096339,1
168,415,42,0.0830019126977012,1
168,416,42,0.091806437984528,1
168,417,42,0.103291063218346,1
169,396,42,0.0876858017814771,1
169,413,42,0.0716087473248147,1
169,414,42,0.0790692916089328,1
169,415,42,0.085517715782709,1
169,416,42,0.0931822634520028,1
169,417,42,0.103309894620889,1
170,396,42,0.0784273069211918,1
170,413,42,0.0754826775565607,1
170,414,42,0.0829874954482088,1
170,415,42,0.0895075748812753,1
170,416,42,0.0974104659610547,1
171,396,42,0.0722681522764072,1
171,412,42,0.0712222899630585,1
171,413,42,0.0812376139560532,1
171,414,42,0.0889543737569467,1
171,415,42,0.095647112612816,1
172,396,42,0.0727706149706272,1
172,412,42,0.0757936563768565,1
172,413,42,0.0863934281366429,1
172,414,42,0.0948559156491082,1
173,396,42,0.0751077873612246,1
173,411,42,0.0744687292221993,1
173,412,42,0.0849949410330325,1
173,413,42,0.0949908079954924,1
151,412,43,0.150977839867262,1
151,413,43,0.11212181622086,1
152,411,43,0.124714088007896,1
152,412,43,0.112459745704744,1
152,413,43,0.111087034474382,1
153,410,43,0.0968826236246472,1
153,411,43,0.101797160894614,1
153,412,43,0.105810376771528,1
153,413,43,0.112789326530653,1
153,414,43,0.123463415944405,1
154,409,43,0.0773383249363861,1
154,410,43,0.0862786810115843,1
154,411,43,0.0933645158373416,1
154,412,43,0.100695263167495,1
154,413,43,0.107747467012999,1
154,414,43,0.118175177172286,1
154,415,43,0.127112259127662,1
155,410,43,0.0762535207562791,1
155,411,43,0.0842580207732962,1
155,412,43,0.0931182686598971,1
155,413,43,0.101689302628883,1
155,414,43,0.112697741544123,1
155,415,43,0.122286957263547,1
155,416,43,0.130329947304884,1
156,411,43,0.0763542468629066,1
156,412,43,0.0854692574190582,1
156,413,43,0.0955135966480131,1
156,414,43,0.107843674695244,1
156,415,43,0.118969182510533,1
156,416,43,0.131619269275404,1
157,411,43,0.0697884965864625,1
157,412,43,0.078392751401796,1
157,413,43,0.0894092539667039,1
157,414,43,0.10359788508821,1
157,415,43,0.116400923994151,1
157,416,43,0.128866158541807,1
158,397,43,0.0931251088592705,1
158,412,43,0.0724073614559325,1
158,413,43,0.0835513391998146,1
158,414,43,0.0988903055578233,1
158,415,43,0.11374918584944,1
158,416,43,0.125451814632599,1
158,417,43,0.135790581345764,1
159,396,43,0.132291457892289,1
159,397,43,0.0894673122443128,1
159,413,43,0.0797899663951571,1
159,414,43,0.0948290623054297,1
159,415,43,0.110734215044301,1
159,416,43,0.122994097630889,1
159,417,43,0.130931648501396,1
160,396,43,0.127536615642858,1
160,397,43,0.0862589181184758,1
160,413,43,0.0777397139528723,1
160,414,43,0.0916070364408007,1
160,415,43,0.107007196167798,1
160,416,43,0.118426665722015,1
160,417,43,0.124975378062824,1
160,418,43,0.129201634173681,1
161,396,43,0.128524857618191,1
161,397,43,0.0867228699341094,1
161,413,43,0.0779304053646738,1
161,414,43,0.0900412911693805,1
161,415,43,0.103086017119851,1
161,416,43,0.111525669210628,1
161,417,43,0.116100205472916,1
161,418,43,0.119908973073639,1
162,397,43,0.0901516102385439,1
162,412,43,0.0755139520047123,1
162,413,43,0.0842432559526974,1
162,414,43,0.0937255379455333,1
162,415,43,0.102180691707654,1
162,416,43,0.107063050844592,1
162,417,43,0.109869631917193,1
162,418,43,0.114189440267041,1
163,411,43,0.071244833425018,1
163,412,43,0.0828113603143422,1
163,413,43,0.0931080778750581,1
163,414,43,0.0984484870702436,1
163,415,43,0.100973320052595,1
163,416,43,0.104157307735342,1
163,417,43,0.108758127324695,1
163,418,43,0.117135202713479,1
164,411,43,0.0733941436326197,1
164,412,43,0.0854572453616219,1
164,413,43,0.0952463631271656,1
164,414,43,0.0979323370258546,1
164,415,43,0.0977236831392756,1
164,416,43,0.102543208371603,1
164,417,43,0.111093805159535,1
165,411,43,0.0719168969163047,1
165,412,43,0.0804920391757682,1
165,413,43,0.0869837429037102,1
165,414,43,0.090364900723682,1
165,415,43,0.0930995693343741,1
165,416,43,0.102013350122779,1
165,417,43,0.113924966460779,1
166,397,43,0.0791118899237301,1
166,411,43,0.070790620551785,1
166,412,43,0.0763245503875779,1
166,413,43,0.0805738921713195,1
166,414,43,0.0862875162691083,1
166,415,43,0.0925405012097699,1
166,416,43,0.102185258791992,1
166,417,43,0.11300940855521,1
167,397,43,0.0759552908441651,1
167,412,43,0.072142088236125,1
167,413,43,0.0768553470783896,1
167,414,43,0.084409193350303,1
167,415,43,0.0917545456183462,1
167,416,43,0.0995942899795194,1
167,417,43,0.108186560543105,1
168,396,43,0.101865757528168,1
168,397,43,0.0734056899447735,1
168,413,43,0.0758019216177661,1
168,414,43,0.0841572877152466,1
168,415,43,0.0914078781968478,1
168,416,43,0.0978716580621037,1
169,396,43,0.0938460756052242,1
169,412,43,0.0701574850244123,1
169,413,43,0.0793092129922413,1
169,414,43,0.0877207048719793,1
169,415,43,0.0936581578108515,1
170,396,43,0.0872607709783354,1
170,412,43,0.0727711015701761,1
170,413,43,0.0839712537562705,1
170,414,43,0.0922904446529995,1
170,415,43,0.0984137021539176,1
171,412,43,0.0764674716265193,1
171,413,43,0.0879958352083636,1
171,414,43,0.0960738048058462,1
172,411,43,0.0710481637901867,1
172,412,43,0.0816851256583553,1
172,413,43,0.093179385563242,1
173,409,43,0.0730375495803232,1
173,410,43,0.0746884080642725,1
173,411,43,0.0796474344358548,1
173,412,43,0.0901784844364888,1
151,412,44,0.140397191469749,1
152,411,44,0.120667484450503,1
152,412,44,0.112317519608015,1
152,413,44,0.112188063273735,1
153,410,44,0.101102060390396,1
153,411,44,0.105768960198493,1
153,412,44,0.108677337896729,1
153,413,44,0.113919502642986,1
153,414,44,0.121735042152312,1
154,409,44,0.083182420276086,1
154,410,44,0.0916823411967079,1
154,411,44,0.0980628013163435,1
154,412,44,0.104131886384622,1
154,413,44,0.109910972024586,1
154,414,44,0.117437033462255,1
154,415,44,0.123992516488217,1
155,408,44,0.069986215886035,1
155,409,44,0.0761799677587481,1
155,410,44,0.0831014848682555,1
155,411,44,0.089756832024501,1
155,412,44,0.0974554416622196,1
155,413,44,0.105120427271107,1
155,414,44,0.113587982370304,1
155,415,44,0.121097555034687,1
156,409,44,0.0706644244344823,1
156,410,44,0.0765157909617276,1
156,411,44,0.0826283432725694,1
156,412,44,0.0908190510341158,1
156,413,44,0.100096620596719,1
156,414,44,0.110515787458211,1
156,415,44,0.120435404271354,1
157,410,44,0.070883908636736,1
157,411,44,0.0766816240880012,1
157,412,44,0.0841984957456184,1
157,413,44,0.0935959912427652,1
157,414,44,0.106041254354649,1
157,415,44,0.118810300806387,1
158,411,44,0.0714618776781049,1
158,412,44,0.0782801175090641,1
158,413,44,0.087172098637677,1
158,414,44,0.100609712015372,1
158,415,44,0.116031393345276,1
158,416,44,0.128753045000949,1
159,397,44,0.0909358905372348,1
159,412,44,0.0753172684670368,1
159,413,44,0.0838303831868567,1
159,414,44,0.0964680825174959,1
159,415,44,0.111449134053004,1
159,416,44,0.124136563857543,1
159,417,44,0.132190036643449,1
160,396,44,0.130943660558832,1
160,397,44,0.0907812492005865,1
160,412,44,0.0749726864721766,1
160,413,44,0.0830515110945809,1
160,414,44,0.0944930583654748,1
160,415,44,0.107193035486954,1
160,416,44,0.1168059138473,1
160,417,44,0.123497033021813,1
161,396,44,0.131421946206893,1
161,397,44,0.0917173902670747,1
161,412,44,0.0770675044817209,1
161,413,44,0.0848368100824761,1
161,414,44,0.0954629485863922,1
161,415,44,0.105395043202254,1
161,416,44,0.110270812391016,1
161,417,44,0.113763345896314,1
162,397,44,0.0946433064033386,1
162,411,44,0.0741849374138441,1
162,412,44,0.0823838061449682,1
162,413,44,0.0914933389804833,1
162,414,44,0.100866657431471,1
162,415,44,0.10666765395398,1
162,416,44,0.107714691057668,1
162,417,44,0.109461082935916,1
163,410,44,0.0702515238629531,1
163,411,44,0.0783894216705969,1
163,412,44,0.0885353350796789,1
163,413,44,0.0993433853492495,1
163,414,44,0.105224017363651,1
163,415,44,0.105936607645941,1
163,416,44,0.105883881109104,1
163,417,44,0.11002966060599,1
164,410,44,0.0717950245835653,1
164,411,44,0.0805296533209001,1
164,412,44,0.0914451030623406,1
164,413,44,0.100981939816033,1
164,414,44,0.103663645541536,1
164,415,44,0.102438700691338,1
164,416,44,0.104992729646625,1
164,417,44,0.112631675228224,1
165,410,44,0.0707677086644527,1
165,411,44,0.0792001034705281,1
165,412,44,0.0877056898001839,1
165,413,44,0.0934943684026833,1
165,414,44,0.0963848461889412,1
165,415,44,0.0983694772063425,1
165,416,44,0.104462781029313,1
165,417,44,0.113947927008066,1
166,397,44,0.0866293246465396,1
166,410,44,0.070238872274681,1
166,411,44,0.0771773786598681,1
166,412,44,0.0833263703255023,1
166,413,44,0.0875258495583233,1
166,414,44,0.0930203092192763,1
166,415,44,0.098150660340613,1
166,416,44,0.104145587637635,1
167,397,44,0.0844324875658522,1
167,411,44,0.0727256740265729,1
167,412,44,0.0772087990878844,1
167,413,44,0.0824222266550669,1
167,414,44,0.0902616860079329,1
167,415,44,0.0968710217011164,1
167,416,44,0.101523782316605,1
168,396,44,0.104058152650116,1
168,397,44,0.0819842314496574,1
168,412,44,0.0734515484765486,1
168,413,44,0.0805807949334921,1
168,414,44,0.0892781501453793,1
168,415,44,0.0961524462443746,1
169,396,44,0.0977359523993306,1
169,397,44,0.0774937726380013,1
169,412,44,0.0737033220345845,1
169,413,44,0.0837538271749665,1
169,414,44,0.0925718868806756,1
169,415,44,0.0982391380414518,1
170,397,44,0.0732427625129491,1
170,412,44,0.0760883966750625,1
170,413,44,0.0881032277288113,1
170,414,44,0.0968309119954408,1
171,397,44,0.0715932526048925,1
171,411,44,0.0705465908779991,1
171,412,44,0.0792633266547777,1
171,413,44,0.0907336180561688,1
172,397,44,0.0733515939777773,1
172,410,44,0.0699013946332352,1
172,411,44,0.0749033668907212,1
172,412,44,0.0846001906246781,1
173,407,44,0.0714777616776662,1
173,410,44,0.0812329634546499,1
173,411,44,0.0837637190486539,1
152,411,45,0.114463041290558,1
152,412,45,0.111654583333982,1
153,411,45,0.106663934943142,1
153,412,45,0.109964066986795,1
153,413,45,0.113907865962345,1
154,410,45,0.0945538137948692,1
154,411,45,0.100741177310647,1
154,412,45,0.106203695186924,1
154,413,45,0.110962499746968,1
154,414,45,0.117077130533026,1
155,408,45,0.0757270478500308,1
155,409,45,0.0818647434547078,1
155,410,45,0.0884136643381812,1
155,411,45,0.0945676540763251,1
155,412,45,0.10117425090919,1
155,413,45,0.107321615942047,1
155,414,45,0.114829617585029,1
156,408,45,0.0732691014513902,1
156,409,45,0.0776758164806763,1
156,410,45,0.0835191541153642,1
156,411,45,0.0893333930970265,1
156,412,45,0.0962632936216197,1
156,413,45,0.103301740602734,1
156,414,45,0.11288988580315,1
156,415,45,0.122656619989443,1
157,409,45,0.0722914882004893,1
157,410,45,0.0777093014810644,1
157,411,45,0.0829824973756991,1
157,412,45,0.0894991497576567,1
157,413,45,0.0967004059964191,1
157,414,45,0.108411515514573,1
157,415,45,0.122026584796339,1
158,410,45,0.0722724760609705,1
158,411,45,0.0768146604046773,1
158,412,45,0.0829443757767519,1
158,413,45,0.0900959571529911,1
158,414,45,0.102725711008139,1
158,415,45,0.118883346350103,1
158,416,45,0.132550871063243,1
159,397,45,0.093497948385079,1
159,411,45,0.0739267476931845,1
159,412,45,0.0803964849272036,1
159,413,45,0.0869882821823595,1
159,414,45,0.0984713363947767,1
159,415,45,0.112522871569084,1
159,416,45,0.124621133591207,1
160,396,45,0.130937042804967,1
160,397,45,0.0947661310809094,1
160,411,45,0.0737729127215029,1
160,412,45,0.0807178283178915,1
160,413,45,0.0873233198746386,1
160,414,45,0.0977415760998318,1
160,415,45,0.108044904462991,1
160,416,45,0.115581052414168,1
161,397,45,0.0965313265560119,1
161,410,45,0.0711912171061485,1
161,411,45,0.0773159552599798,1
161,412,45,0.084215102693081,1
161,413,45,0.091306971353245,1
161,414,45,0.101083277647808,1
161,415,45,0.107405498752859,1
161,416,45,0.109874004361712,1
162,397,45,0.0977382463686327,1
162,410,45,0.074254555906451,1
162,411,45,0.0817476189432815,1
162,412,45,0.0894861227925898,1
162,413,45,0.098165870052228,1
162,414,45,0.107001405633166,1
162,415,45,0.109234466574559,1
162,416,45,0.108163822441326,1
163,410,45,0.0764533810938669,1
163,411,45,0.0853457375992746,1
163,412,45,0.0944966244450263,1
163,413,45,0.104091728018992,1
163,414,45,0.109946744042854,1
163,415,45,0.108668884967422,1
163,416,45,0.106928603389224,1
164,409,45,0.0700247406674655,1
164,410,45,0.0768942402851929,1
164,411,45,0.086516760268029,1
164,412,45,0.0963112653857216,1
164,413,45,0.104588692138309,1
164,414,45,0.107903123257278,1
164,415,45,0.106534221406243,1
164,416,45,0.10697416996127,1
165,409,45,0.0705356145824598,1
165,410,45,0.0763146654653126,1
165,411,45,0.0850262432868726,1
165,412,45,0.093178349801345,1
165,413,45,0.0988329076653165,1
165,414,45,0.102432173305961,1
165,415,45,0.10416396719774,1
165,416,45,0.106585307407458,1
166,397,45,0.0920324912806922,1
166,409,45,0.0722453446604069,1
166,410,45,0.0768404154236597,1
166,411,45,0.0828620500844959,1
166,412,45,0.0887887352704926,1
166,413,45,0.0935528715713084,1
166,414,45,0.0992385579035668,1
166,415,45,0.103454018455859,1
167,397,45,0.090441991995076,1
167,398,45,0.0719512577958809,1
167,409,45,0.0699707976317561,1
167,410,45,0.073949346766521,1
167,411,45,0.0778124953425472,1
167,412,45,0.0821212648340568,1
167,413,45,0.0876672345329746,1
167,414,45,0.0949509276867469,1
167,415,45,0.100722679576366,1
168,397,45,0.087722164670626,1
168,398,45,0.0738740489620359,1
168,411,45,0.072888858661016,1
168,412,45,0.0774406568215251,1
168,413,45,0.0847933567427571,1
168,414,45,0.0929308513679175,1
169,397,45,0.0837464725703556,1
169,398,45,0.072790940928928,1
169,411,45,0.0700736647763989,1
169,412,45,0.0761993413722174,1
169,413,45,0.0864067192557507,1
169,414,45,0.0957098978574716,1
170,397,45,0.0814085911347012,1
170,398,45,0.0698441079634824,1
170,411,45,0.0707931369665951,1
170,412,45,0.0780592638766513,1
170,413,45,0.0896874637830907,1
171,397,45,0.0809391129384762,1
171,411,45,0.0732991385464031,1
171,412,45,0.0811186751234517,1
172,409,45,0.0704037461047011,1
172,410,45,0.0737916607069808,1
172,411,45,0.0777233155480735,1
173,406,45,0.0719642708581036,1
173,410,45,0.084839041488979,1
153,410,46,0.101149489943572,1
154,409,46,0.0902863983135961,1
154,410,46,0.0968244749785507,1
154,411,46,0.102307430035883,1
155,408,46,0.080406321189514,1
155,409,46,0.0865543466074724,1
155,410,46,0.0927402016646487,1
155,411,46,0.0986560356807044,1
155,412,46,0.103991481560491,1
156,406,46,0.0737819287160023,1
156,407,46,0.0769687873360883,1
156,408,46,0.0796401771511537,1
156,409,46,0.0833951198903433,1
156,410,46,0.0894131467630953,1
156,411,46,0.095484039201127,1
156,412,46,0.10061264551551,1
156,413,46,0.105188780604887,1
156,414,46,0.11338878936924,1
157,405,46,0.0711641552198062,1
157,407,46,0.076376623490735,1
157,408,46,0.0763848331202676,1
157,409,46,0.0784752161224945,1
157,410,46,0.0836385586932483,1
157,411,46,0.0891977569484747,1
157,412,46,0.0943146570679947,1
157,413,46,0.0990079305716427,1
157,414,46,0.109628987585984,1
158,404,46,0.0746858429895075,1
158,407,46,0.0740346615702918,1
158,408,46,0.0728290277707646,1
158,409,46,0.0738979201456217,1
158,410,46,0.0779631326600501,1
158,411,46,0.0827461490233641,1
158,412,46,0.0877130096476841,1
158,413,46,0.0926531907138788,1
158,414,46,0.103841782684975,1
158,415,46,0.119677087534309,1
159,397,46,0.0970937869746143,1
159,398,46,0.0718942074744805,1
159,407,46,0.0716250275554373,1
159,408,46,0.0717847990416158,1
159,409,46,0.0729030604164224,1
159,410,46,0.0762339733572566,1
159,411,46,0.0808131601209481,1
159,412,46,0.0855100761697909,1
159,413,46,0.0900092520647948,1
159,414,46,0.0998254595223695,1
159,415,46,0.111844948028944,1
160,397,46,0.0982854484156652,1
160,398,46,0.0711345352101209,1
160,404,46,0.072624982677056,1
160,405,46,0.0759207492276136,1
160,406,46,0.0711815129208586,1
160,408,46,0.072299816004198,1
160,409,46,0.0737011948994135,1
160,410,46,0.0768487779844791,1
160,411,46,0.0813184520439739,1
160,412,46,0.086339839623462,1
160,413,46,0.0919686702741396,1
160,414,46,0.100914017470425,1
160,415,46,0.107622925334163,1
161,397,46,0.100250942167949,1
161,398,46,0.0723828994014659,1
161,408,46,0.0720077102949783,1
161,409,46,0.0756208787798775,1
161,410,46,0.0806069322806915,1
161,411,46,0.085941286787204,1
161,412,46,0.0917210884236466,1
161,413,46,0.0986088841844135,1
161,415,46,0.107895567061426,1
162,398,46,0.0732578957589207,1
162,408,46,0.0713132632244411,1
162,409,46,0.0760427536373733,1
162,410,46,0.0827297019586105,1
162,411,46,0.090005394025514,1
162,412,46,0.0965547806542701,1
162,413,46,0.103591149160168,1
162,414,46,0.109976391858227,1
162,415,46,0.108355619129246,1
163,398,46,0.0743291863744118,1
163,408,46,0.0720763138799546,1
163,409,46,0.07629129478412,1
163,410,46,0.0831898582977624,1
163,411,46,0.0923902740261725,1
163,412,46,0.0993948397758372,1
163,413,46,0.104694617908687,1
163,414,46,0.108354757152902,1
163,415,46,0.106249386884568,1
164,398,46,0.0731209735972753,1
164,408,46,0.0732169727368561,1
164,409,46,0.0766293911021352,1
164,410,46,0.0823139095954762,1
164,411,46,0.0917660641248115,1
164,412,46,0.098826282960029,1
164,413,46,0.103202960894302,1
164,414,46,0.106079382905018,1
164,415,46,0.105790676441219,1
165,408,46,0.0741734953730222,1
165,409,46,0.0783376266243249,1
165,410,46,0.0820929308374651,1
165,411,46,0.0891814350093194,1
165,412,46,0.0951135840131083,1
165,413,46,0.0998705186405999,1
165,414,46,0.104271394475299,1
165,415,46,0.106145602152205,1
166,408,46,0.0754863061989112,1
166,409,46,0.0813206139362556,1
166,410,46,0.0834091061516638,1
166,411,46,0.086834231716592,1
166,412,46,0.090736516799196,1
166,413,46,0.0959942110224864,1
166,414,46,0.102003527763313,1
167,408,46,0.0710447645447664,1
167,409,46,0.0771662146759314,1
167,410,46,0.0792153131821431,1
167,411,46,0.081411580246216,1
167,412,46,0.0844855408195293,1
167,413,46,0.0898710647443222,1
167,414,46,0.096126566099794,1
168,409,46,0.0698603464855723,1
168,410,46,0.0729982740453028,1
168,411,46,0.075801859054967,1
168,412,46,0.0798224642936032,1
168,413,46,0.0862766859534337,1
169,411,46,0.0724162245191451,1
169,412,46,0.0776542253635483,1
170,410,46,0.069820528739626,1
170,411,46,0.0732305210585826,1
171,410,46,0.0720728034117802,1
172,398,46,0.0767272184657355,1
172,399,46,0.0712273088898345,1
172,402,46,0.0700069311239749,1
172,408,46,0.0703789086734395,1
172,409,46,0.073145053323525,1
173,405,46,0.0728882330330245,1
173,406,46,0.0776608222631473,1
173,407,46,0.0826188267756768,1
155,410,47,0.096104050443523,1
156,411,47,0.100055711477499,1
157,411,47,0.094162671174599,1
158,411,47,0.0886231245897271,1
158,412,47,0.0927827374166469,1
159,411,47,0.0875727299491512,1
159,412,47,0.0907879364686731,1
159,413,47,0.0946537752450627,1
159,414,47,0.10290852645867,1
160,412,47,0.0922234955064895,1
160,413,47,0.0988265123569592,1
161,412,47,0.0980231434531062,1
162,412,47,0.101281991000745,1
162,413,47,0.107730561154385,1
163,412,47,0.101502552673428,1
163,413,47,0.104232202357344,1
163,414,47,0.106329578490231,1
164,412,47,0.0988168707344683,1
164,413,47,0.10113530209101,1
165,412,47,0.0950378274147628,1
165,413,47,0.09943141120765,1
166,412,47,0.0909976400199934,1
166,413,47,0.0957601288337649,1
167,411,47,0.0831147551330969,1
167,412,47,0.0852737764774108,1
168,410,47,0.0752901370664732,1
168,411,47,0.0772087782336181,1
168,412,47,0.0806334867132186,1
169,409,47,0.0699875227533949,1
169,410,47,0.0717352771103795,1
169,411,47,0.0739318083284933,1
170,409,47,0.0702721765380939,1
170,410,47,0.0724428623687377,1
171,407,47,0.0710582920122265,1
172,405,47,0.0710238755212732,1
172,406,47,0.0723124953981586,1
172,407,47,0.0732678988553622,1
172,408,47,0.0731546949460158,1
173,404,47,0.0752129693294358,1
173,405,47,0.0769914628750682,1
173,406,47,0.0815856369048665,1
173,407,47,0.0851897337838893,1
