x,y,z,signal,cytoplasm.p
88,241,4,0.0707900018752156,1
87,241,5,0.0712281986718668,1
88,240,5,0.0707247419242827,1
88,241,5,0.0797118046047555,1
90,245,5,0.0871155835757804,1
90,246,5,0.112348126719643,1
90,247,5,0.0752910407513497,1
91,245,5,0.115063609405263,1
91,246,5,0.148752564518651,1
91,247,5,0.0961252105724791,1
92,245,5,0.0860558670781315,1
92,246,5,0.106086424695633,1
92,247,5,0.0739429862152743,1
93,246,5,0.070293281055673,1
87,241,6,0.0732858196216068,1
88,240,6,0.0753557376370904,1
88,241,6,0.0841612708801257,1
88,242,6,0.0705966202630507,1
89,241,6,0.0724954498771322,1
90,245,6,0.0799158566498861,1
90,246,6,0.100560482043865,1
90,247,6,0.0734517083592575,1
91,245,6,0.0992456274998704,1
91,246,6,0.128052981181332,1
91,247,6,0.0885960279462741,1
92,245,6,0.075225245540913,1
92,246,6,0.0948055525957945,1
92,247,6,0.0699092705945056,1
94,248,6,0.070229710300317,1
87,240,7,0.0707385613514721,1
87,241,7,0.0705915040163649,1
87,245,7,0.0701642626609866,1
88,240,7,0.074807346896874,1
88,241,7,0.0799286889751335,1
89,241,7,0.0708812045335284,1
89,246,7,0.0700734909908457,1
90,245,7,0.0716172072055439,1
90,246,7,0.0850813541614994,1
90,247,7,0.0700099688954446,1
91,245,7,0.0804056469015676,1
91,246,7,0.0999855021140109,1
91,247,7,0.0774285752498675,1
92,246,7,0.0799779606551732,1
85,238,8,0.0719056008553475,1
85,239,8,0.0749017541607876,1
85,247,8,0.0759568827198323,1
85,248,8,0.0790219941327773,1
86,238,8,0.070965525283935,1
86,239,8,0.0754018047115293,1
87,239,8,0.0703847409166045,1
87,240,8,0.0712579090500398,1
88,240,8,0.0710073311366098,1
88,241,8,0.0719400729576777,1
88,247,8,0.0711630151865773,1
90,246,8,0.0724453718321257,1
91,246,8,0.0770644806130954,1
93,251,8,0.0701641375353883,1
83,239,9,0.0734860344817231,1
83,240,9,0.0757854050387912,1
83,241,9,0.070448450700403,1
84,238,9,0.0705105338514238,1
84,239,9,0.0806486477648787,1
84,240,9,0.0808279805529239,1
84,246,9,0.070993219749691,1
84,247,9,0.0884847426294349,1
84,248,9,0.0824432616584247,1
85,238,9,0.0767862082339095,1
85,239,9,0.087509367736459,1
85,240,9,0.0801576757714355,1
85,248,9,0.0697757824353913,1
86,238,9,0.078208747258081,1
86,239,9,0.0836503691594429,1
86,240,9,0.0721772902377787,1
87,238,9,0.0739695893077563,1
87,239,9,0.0760124176312089,1
87,240,9,0.070368794354244,1
88,247,9,0.0712597164197929,1
83,239,10,0.0799343057242125,1
83,240,10,0.0874355714391535,1
83,241,10,0.0740806452276652,1
83,246,10,0.0726306133289793,1
84,238,10,0.0707549249991603,1
84,239,10,0.091684148566461,1
84,240,10,0.100546843353651,1
84,241,10,0.0788831394757805,1
85,238,10,0.0834113931695437,1
85,239,10,0.0946181631095035,1
85,240,10,0.0896887497961843,1
86,237,10,0.0752784100173441,1
86,238,10,0.0937439175056384,1
86,239,10,0.0920973897576745,1
86,240,10,0.0733650658338603,1
87,237,10,0.0712097426461183,1
87,238,10,0.0843692782844469,1
87,239,10,0.0818984578520261,1
83,239,11,0.0766546595215686,1
83,240,11,0.0881381794792684,1
83,241,11,0.0700106709890795,1
84,239,11,0.0880036208011464,1
84,240,11,0.103845035950531,1
84,241,11,0.0785669192832005,1
84,255,11,0.0790515724339298,1
84,256,11,0.0843590596939194,1
85,238,11,0.0821585036023938,1
85,239,11,0.0852051172810575,1
85,240,11,0.086050549240204,1
86,237,11,0.0762993792880542,1
86,238,11,0.100964735046268,1
86,239,11,0.0904731343662071,1
86,240,11,0.0730263855963864,1
87,238,11,0.0867448642337208,1
87,239,11,0.0795557521294152,1
83,239,12,0.0700720450950432,1
83,240,12,0.0787741759339319,1
83,255,12,0.0850499754420159,1
83,256,12,0.0913781261101421,1
84,239,12,0.0789403774855783,1
84,240,12,0.0914048404253781,1
84,241,12,0.0700481461057688,1
84,255,12,0.0750497568893042,1
84,256,12,0.0836670942810817,1
84,257,12,0.0720735889224806,1
85,238,12,0.0783151040166318,1
85,239,12,0.0769974132924093,1
85,240,12,0.0775153637551293,1
86,237,12,0.0726192964137558,1
86,238,12,0.0970232369914423,1
86,239,12,0.0853551220191468,1
86,240,12,0.0701155609975613,1
87,238,12,0.080620640485127,1
87,239,12,0.0721387793591923,1
82,256,13,0.0698421129053319,1
83,256,13,0.0740839193474872,1
84,239,13,0.069830726475887,1
84,240,13,0.0748171205963853,1
84,256,13,0.0722688752243085,1
85,238,13,0.0698472639091283,1
85,239,13,0.0708519390463717,1
85,240,13,0.0700697580771632,1
86,238,13,0.0811291161594872,1
86,239,13,0.0736491287476785,1
82,251,15,0.0729776700301169,1
83,229,15,0.0713069582845714,1
83,230,15,0.0708480462499803,1
83,250,15,0.0706070821533526,1
83,251,15,0.078372362880696,1
83,252,15,0.0713098917847092,1
84,230,15,0.0714059882441998,1
84,251,15,0.0731907033126363,1
81,250,16,0.0700242610193387,1
81,251,16,0.0772495969843507,1
81,252,16,0.0720030736964193,1
82,250,16,0.0776265934605914,1
82,251,16,0.0914386243369177,1
82,252,16,0.0811797503182639,1
83,229,16,0.0747714775586961,1
83,230,16,0.0757155432464098,1
83,250,16,0.080973772729204,1
83,251,16,0.0992207136029655,1
83,252,16,0.0867033642436197,1
84,229,16,0.0707705935046357,1
84,230,16,0.0759713277750133,1
84,231,16,0.0720632243520885,1
84,250,16,0.0700673737393735,1
84,251,16,0.0834504879675888,1
84,252,16,0.0742669085835716,1
80,251,17,0.0697644377144792,1
80,252,17,0.0702267350916464,1
81,251,17,0.0762036443025143,1
81,252,17,0.0722153145168161,1
82,250,17,0.0775143975074536,1
82,251,17,0.0919113557986984,1
82,252,17,0.0821268537774473,1
83,229,17,0.0733705087973862,1
83,230,17,0.0774170150348694,1
83,231,17,0.0726693257988074,1
83,250,17,0.0795962789204186,1
83,251,17,0.0973211818952491,1
83,252,17,0.0854497656314127,1
84,230,17,0.0768826731187728,1
84,231,17,0.0743311258211854,1
84,251,17,0.0767059471140253,1
84,264,17,0.0706460935343321,1
81,251,18,0.0727787898430491,1
81,252,18,0.07026487754486,1
82,250,18,0.0738231158921077,1
82,251,18,0.085074242856663,1
82,252,18,0.078294013401897,1
82,263,18,0.0705970860083333,1
83,230,18,0.0753712462598568,1
83,231,18,0.0731419599406782,1
83,250,18,0.0716825158164317,1
83,251,18,0.084017897798746,1
83,252,18,0.0769864508997142,1
83,263,18,0.0726740597172762,1
83,264,18,0.0885720385885121,1
84,230,18,0.0738604172232439,1
84,231,18,0.0727593119582479,1
84,264,18,0.0700259015549608,1
82,251,19,0.0731407364903838,1
82,263,19,0.0749439006331467,1
83,263,19,0.0698351614832044,1
83,264,19,0.0999567996920464,1
78,243,20,0.0793627180883567,1
78,245,20,0.0706956710769455,1
78,246,21,0.0710136708335901,1
79,243,21,0.0720671449541684,1
83,264,21,0.0827694501903355,1
79,243,22,0.0699125238600613,1
79,246,22,0.0724745608536391,1
83,264,22,0.0709660466405946,1
78,246,23,0.0786126179322667,1
79,244,23,0.0726928285570205,1
79,245,23,0.0767661464296495,1
79,246,23,0.0769750644702694,1
86,227,23,0.0731687785272461,1
86,228,23,0.0722516148431659,1
78,239,24,0.0755062567804171,1
78,240,24,0.0762103663277116,1
78,241,24,0.0700346603468415,1
79,239,24,0.0777215707411195,1
79,240,24,0.0754294505173304,1
79,244,24,0.0729109641833814,1
79,245,24,0.0765597726095283,1
79,246,24,0.0762285095394644,1
80,239,24,0.0713950884143039,1
80,240,24,0.0708071788392927,1
82,263,24,0.0713720653042176,1
82,264,24,0.0830419667919999,1
83,265,24,0.0756576100943992,1
85,226,24,0.0727783380006108,1
85,227,24,0.0775943041048092,1
86,227,24,0.0782121951634563,1
78,238,25,0.0736040626780259,1
78,239,25,0.0828979611312066,1
78,240,25,0.082940399563295,1
78,241,25,0.0754712355157388,1
79,238,25,0.0734365751132859,1
79,239,25,0.0831996876086507,1
79,240,25,0.0810017243975786,1
79,241,25,0.0726853766324998,1
79,243,25,0.070939520013756,1
79,244,25,0.0740277379538528,1
79,245,25,0.0739174953503328,1
80,239,25,0.0743163610005866,1
80,240,25,0.0746607692098936,1
80,241,25,0.0705225667631265,1
82,263,25,0.0749490307826767,1
82,264,25,0.0782488847694452,1
83,264,25,0.07248322232561,1
83,265,25,0.0712014148424096,1
84,225,25,0.0719992226085606,1
84,226,25,0.0856680611404826,1
84,227,25,0.0818674892664481,1
85,225,25,0.0759849108538504,1
85,226,25,0.0907134658834212,1
85,227,25,0.088633315374566,1
86,226,25,0.0723657710973437,1
86,227,25,0.0723589865093473,1
78,237,26,0.0713541028294401,1
78,238,26,0.0789968160818315,1
78,239,26,0.0865608948471165,1
78,240,26,0.0858178851415966,1
78,241,26,0.0777900978604524,1
78,242,26,0.071020643109984,1
79,237,26,0.0718929979270303,1
79,238,26,0.0775706553667315,1
79,239,26,0.0829324749420696,1
79,240,26,0.0816800858773128,1
79,241,26,0.0759095574379883,1
79,242,26,0.0711094892361955,1
79,243,26,0.0731170529951954,1
79,244,26,0.0760357257496024,1
79,245,26,0.0725177569907394,1
80,237,26,0.0733418689382209,1
80,238,26,0.0744583159918523,1
80,239,26,0.074981375749836,1
80,240,26,0.0753119506291093,1
80,241,26,0.0737637855042495,1
80,242,26,0.0713407769532217,1
80,243,26,0.0709888334023285,1
80,244,26,0.0717210266950181,1
80,258,26,0.0712598206911249,1
80,259,26,0.0744398391118374,1
81,237,26,0.0720655600299234,1
81,241,26,0.0700885616740181,1
81,247,26,0.0709227531835845,1
81,259,26,0.0757737961638382,1
82,260,26,0.0796081171923017,1
82,263,26,0.0784663043993271,1
82,264,26,0.0789577143323643,1
83,226,26,0.084877858230139,1
83,227,26,0.089999777276435,1
83,263,26,0.0728619079974276,1
83,264,26,0.0765212895366304,1
83,265,26,0.0741687197460206,1
84,225,26,0.075813036941748,1
84,226,26,0.108356967705139,1
84,227,26,0.106227754058908,1
84,228,26,0.0701595217910956,1
85,225,26,0.0778897882051828,1
85,226,26,0.100987202042584,1
85,227,26,0.0929253110844819,1
86,226,26,0.0703143021561866,1
78,237,27,0.074423301678596,1
78,238,27,0.0800790273814849,1
78,239,27,0.0846284620584707,1
79,232,27,0.0745332523223867,1
79,233,27,0.0728415472820162,1
79,236,27,0.0725415169515712,1
79,237,27,0.0782997066166194,1
79,238,27,0.078462814785419,1
79,239,27,0.0778384589041934,1
79,240,27,0.0776040569500541,1
79,241,27,0.0764701965839933,1
79,242,27,0.0745079769515311,1
79,243,27,0.0741366319814801,1
79,244,27,0.0767201488694318,1
79,245,27,0.0732847421511771,1
79,246,27,0.0704889774914064,1
79,247,27,0.0707549319505824,1
79,248,27,0.0699800221689193,1
80,236,27,0.0782677161719886,1
80,237,27,0.0863084122440236,1
80,238,27,0.0806745348608815,1
80,239,27,0.0736300679482049,1
80,240,27,0.0731199378353783,1
80,241,27,0.0744280355970649,1
80,242,27,0.0734699766966086,1
80,243,27,0.0724715439364357,1
80,244,27,0.0743992428066128,1
80,245,27,0.0720827647996889,1
80,246,27,0.0702560283844917,1
80,247,27,0.0708480601528245,1
80,248,27,0.0703292060052279,1
80,254,27,0.0744238508409441,1
80,255,27,0.072963280586313,1
80,258,27,0.0719621993343096,1
81,236,27,0.0755625980567605,1
81,237,27,0.0814424515118843,1
81,238,27,0.0733152867000053,1
81,243,27,0.0697815660186013,1
81,244,27,0.0719027160151646,1
81,245,27,0.0716014691858472,1
81,246,27,0.0714529381492489,1
81,247,27,0.0743122457586871,1
81,248,27,0.0735100655480179,1
81,259,27,0.0756515276000376,1
81,260,27,0.0824367273216248,1
82,226,27,0.0706336157316133,1
82,227,27,0.0809291515505675,1
82,247,27,0.0708479906386032,1
82,248,27,0.0700932399811099,1
82,260,27,0.0762727483898838,1
82,261,27,0.0787316610362001,1
82,262,27,0.0789297974211002,1
82,263,27,0.0807160418024048,1
82,264,27,0.0827082429185029,1
83,226,27,0.103145437876197,1
83,227,27,0.119074593875675,1
83,228,27,0.0841586015340287,1
83,262,27,0.0699864661372315,1
83,263,27,0.0743000182071648,1
83,264,27,0.0802620930832126,1
83,265,27,0.0813711855322331,1
83,266,27,0.0784783859709847,1
84,225,27,0.0769455626347603,1
84,226,27,0.119832229373351,1
84,227,27,0.125555543753586,1
84,228,27,0.0812220844790204,1
84,264,27,0.0707418563255606,1
84,265,27,0.0747914420430463,1
84,266,27,0.0736582907220426,1
85,225,27,0.075054268362265,1
85,226,27,0.0989280795856641,1
85,227,27,0.0916571700971842,1
79,233,28,0.0780730137896195,1
79,234,28,0.0737769097892262,1
79,235,28,0.0748841184028502,1
79,236,28,0.0798283382453009,1
79,237,28,0.0835889950534792,1
79,238,28,0.078899141649518,1
79,239,28,0.0747491426394005,1
79,240,28,0.0742651637766176,1
79,241,28,0.0777853639419835,1
79,242,28,0.0780126684941307,1
79,243,28,0.0756840880612829,1
79,244,28,0.0768460321727387,1
79,245,28,0.0772500557782111,1
79,246,28,0.0746027039808626,1
79,247,28,0.0728248221603774,1
80,235,28,0.0745505544120621,1
80,236,28,0.0882931475327568,1
80,237,28,0.0953541240729862,1
80,238,28,0.0842282756380126,1
80,239,28,0.0723820652308106,1
80,240,28,0.0701551145894668,1
80,241,28,0.0736546968368026,1
80,242,28,0.0740439069617213,1
80,243,28,0.0731272090229237,1
80,244,28,0.0756960445073421,1
80,245,28,0.0779281322496381,1
80,246,28,0.0762063831628326,1
80,247,28,0.0744371419600519,1
80,248,28,0.073346185771362,1
80,249,28,0.0711658235611168,1
80,250,28,0.0699893509774144,1
80,254,28,0.0715185178655998,1
80,258,28,0.0741952533242813,1
81,235,28,0.0703860060754317,1
81,236,28,0.0813055432530831,1
81,237,28,0.0863213279863365,1
81,238,28,0.0756084496371135,1
81,243,28,0.0703986507122816,1
81,244,28,0.0741239317332531,1
81,245,28,0.0755818952045865,1
81,246,28,0.0744812070249181,1
81,247,28,0.0766384905137001,1
81,248,28,0.0781437375583447,1
81,249,28,0.0757409784999743,1
81,250,28,0.072800207174624,1
81,258,28,0.0704076249982482,1
81,259,28,0.0756192799527882,1
81,260,28,0.0785065531334453,1
81,261,28,0.0826045902631597,1
82,226,28,0.0778641791660651,1
82,227,28,0.0907637872282022,1
82,228,28,0.072791052151682,1
82,247,28,0.0715557288282483,1
82,248,28,0.0735488197263787,1
82,249,28,0.0712402107293032,1
82,260,28,0.0714626075774283,1
82,261,28,0.0729532844412936,1
82,262,28,0.0759647864867913,1
82,263,28,0.0805709447683375,1
82,264,28,0.0858199149568578,1
83,226,28,0.109671495532293,1
83,227,28,0.131272031837291,1
83,228,28,0.0946473104224841,1
83,263,28,0.0733024613261801,1
83,264,28,0.082743855054062,1
83,265,28,0.0892476194993953,1
83,266,28,0.0880246210473936,1
84,225,28,0.0718669370454743,1
84,226,28,0.112563794591148,1
84,227,28,0.124207412751867,1
84,228,28,0.0845431820118105,1
84,264,28,0.0714830239042167,1
84,265,28,0.0799679297530432,1
84,266,28,0.0813185076553509,1
85,226,28,0.0848780806756471,1
85,227,28,0.0823296754208613,1
79,233,29,0.0798744887368054,1
79,234,29,0.0780056753634704,1
79,235,29,0.0804673755300598,1
79,236,29,0.0858425348844607,1
79,237,29,0.0863788231987531,1
79,238,29,0.0797764597819634,1
79,239,29,0.0752250022411385,1
79,240,29,0.0745873343865387,1
79,241,29,0.0795843224743593,1
79,242,29,0.0810681591388512,1
79,243,29,0.077864005380512,1
80,232,29,0.0711150017139426,1
80,233,29,0.0722834523565099,1
80,234,29,0.0740743889477504,1
80,235,29,0.0807356309099601,1
80,236,29,0.092426720332387,1
80,237,29,0.095691163774838,1
80,238,29,0.0842165277346172,1
80,239,29,0.0740492108968046,1
80,240,29,0.0727295946286528,1
80,241,29,0.0763841171237885,1
80,242,29,0.0765110639946809,1
80,243,29,0.0747165404696225,1
80,244,29,0.0780381941161828,1
80,245,29,0.0819361693170678,1
80,246,29,0.0819202505603958,1
80,247,29,0.0781743794270827,1
80,248,29,0.0773065569372635,1
80,249,29,0.0762067237825168,1
80,250,29,0.072291745403108,1
81,233,29,0.0703923040638792,1
81,234,29,0.0729400211278744,1
81,235,29,0.0765861741107685,1
81,236,29,0.0840352276941098,1
81,237,29,0.0860915070193792,1
81,238,29,0.0762478205901346,1
81,240,29,0.0705401260554205,1
81,241,29,0.0732226242430457,1
81,242,29,0.0725114729051361,1
81,243,29,0.0733129579735926,1
81,244,29,0.0774344283472988,1
81,245,29,0.0783702009884144,1
81,246,29,0.0774419011260859,1
81,247,29,0.0784205153817732,1
81,248,29,0.0823382673786109,1
81,249,29,0.0820143380588916,1
81,250,29,0.0760982051316844,1
81,251,29,0.0718874784978611,1
81,252,29,0.0706878785327405,1
81,253,29,0.0699409968850955,1
81,257,29,0.0711252828672692,1
81,258,29,0.0732255368889172,1
82,226,29,0.0842139974169628,1
82,227,29,0.0929240389742326,1
82,228,29,0.0771409740621864,1
82,247,29,0.0716387427112949,1
82,248,29,0.0755329015814318,1
82,249,29,0.0760163799418216,1
82,250,29,0.0717938845503364,1
82,263,29,0.0785712152620753,1
82,264,29,0.086013039366404,1
83,225,29,0.0700602624345371,1
83,226,29,0.10499114472238,1
83,227,29,0.121417403869618,1
83,228,29,0.0947672363570277,1
83,249,29,0.0700300098454382,1
83,263,29,0.0722367596540794,1
83,264,29,0.0824991510923298,1
83,265,29,0.0930232774765248,1
83,266,29,0.0908347681995461,1
84,226,29,0.0958523116425977,1
84,227,29,0.106005273793717,1
84,228,29,0.081538777368305,1
84,264,29,0.0700304408336101,1
84,265,29,0.0797565648118345,1
84,266,29,0.0799613398048663,1
85,226,29,0.071098283543726,1
85,227,29,0.0719690673393715,1
79,235,30,0.0916654492409381,1
79,236,30,0.0899286989851814,1
79,237,30,0.0866947722858701,1
79,238,30,0.0820014084137344,1
79,239,30,0.0789387925613332,1
79,240,30,0.0795950415672799,1
80,232,30,0.0733388728752839,1
80,233,30,0.0831714648348131,1
80,234,30,0.0923831766241803,1
80,235,30,0.0923595417889468,1
80,236,30,0.0937404487459968,1
80,237,30,0.0912222404689329,1
80,238,30,0.083443522642617,1
80,239,30,0.0779743522553639,1
80,240,30,0.0794004573590869,1
80,241,30,0.0822946680590273,1
80,242,30,0.0815598054202407,1
80,243,30,0.0798412400847695,1
80,244,30,0.083538930911317,1
80,245,30,0.0861832379857737,1
80,246,30,0.0856333596412221,1
80,247,30,0.0800236175957066,1
80,248,30,0.078874992409047,1
80,250,30,0.0731606314605127,1
80,252,30,0.0707336884045607,1
80,253,30,0.0710868971142812,1
80,254,30,0.0709404515043211,1
81,227,30,0.0708550949920175,1
81,233,30,0.0767175003776012,1
81,234,30,0.0832782456301136,1
81,235,30,0.0833151507301885,1
81,236,30,0.0862547472651993,1
81,237,30,0.0848649702935146,1
81,238,30,0.0774338652821065,1
81,239,30,0.0739755466765195,1
81,240,30,0.0784249990490455,1
81,241,30,0.0817331252281457,1
81,242,30,0.079436994033789,1
81,243,30,0.0796481782380225,1
81,244,30,0.0829552338981151,1
81,245,30,0.0817879163373546,1
81,246,30,0.0792857658454053,1
81,247,30,0.0778061973540997,1
81,248,30,0.0821868306475633,1
81,249,30,0.0842475866886828,1
81,250,30,0.078274931748157,1
81,251,30,0.0742398953571841,1
81,252,30,0.0754773736214774,1
81,253,30,0.0740183952425134,1
81,254,30,0.0712056274042189,1
81,256,30,0.0705640528503834,1
81,258,30,0.0772478035174418,1
81,259,30,0.079755230138786,1
82,226,30,0.0852351960846031,1
82,227,30,0.0894618553779427,1
82,228,30,0.0769050706008676,1
82,243,30,0.0706516894291448,1
82,244,30,0.0722282233077069,1
82,247,30,0.0697936962502138,1
82,248,30,0.0740475842640268,1
82,249,30,0.0773767315436406,1
82,250,30,0.0747914211887799,1
82,251,30,0.070303638674643,1
82,258,30,0.0724762848063267,1
82,259,30,0.0726480613985194,1
82,260,30,0.0702174688459505,1
82,263,30,0.0764050548072365,1
83,226,30,0.091861013599651,1
83,227,30,0.100928483379873,1
83,228,30,0.0857733543314478,1
83,249,30,0.0721425400785633,1
83,250,30,0.0722189292563224,1
83,263,30,0.0708223676966413,1
83,264,30,0.0789846232874198,1
84,226,30,0.0767960166905314,1
84,227,30,0.083881107714121,1
84,228,30,0.0736466053814462,1
84,265,30,0.074012430922328,1
84,266,30,0.0723746272091342,1
90,225,30,0.0726375995082175,1
91,225,30,0.0715788214525558,1
79,234,31,0.111942448675704,1
80,232,31,0.0806360795936721,1
80,233,31,0.0981983192907191,1
80,234,31,0.112130039753237,1
80,235,31,0.103548140711465,1
80,236,31,0.0915543794181849,1
80,237,31,0.0858165296142817,1
80,238,31,0.0820924650921825,1
80,239,31,0.0820020827016808,1
80,240,31,0.0858451903277134,1
80,241,31,0.0895406358449137,1
80,242,31,0.0907865322814034,1
80,243,31,0.0911539983579073,1
80,244,31,0.0927586576903972,1
80,245,31,0.089762281939449,1
80,246,31,0.0868752451071442,1
80,247,31,0.0812730731603256,1
80,248,31,0.079727424450276,1
80,249,31,0.077983736675236,1
80,250,31,0.0734494074385333,1
80,251,31,0.0706238142264135,1
80,252,31,0.0733031286627043,1
80,253,31,0.0741837695749267,1
80,254,31,0.0754707489161899,1
81,232,31,0.0738428926880604,1
81,233,31,0.0838587241348705,1
81,234,31,0.0913613592799706,1
81,235,31,0.0879090953630566,1
81,236,31,0.0860987712555025,1
81,237,31,0.084129391658249,1
81,238,31,0.0781144303626551,1
81,239,31,0.0769701011548703,1
81,240,31,0.082673193848136,1
81,241,31,0.0877963571989929,1
81,242,31,0.08829136101727,1
81,243,31,0.0902505359268403,1
81,244,31,0.0915492284143884,1
81,245,31,0.0855294497832602,1
81,246,31,0.0812324003894576,1
81,247,31,0.0779616172500263,1
81,248,31,0.0806055837047988,1
81,249,31,0.0819116307969577,1
81,250,31,0.0777590667120752,1
81,251,31,0.0743137472658666,1
81,252,31,0.0769120637315278,1
81,253,31,0.0755733171496811,1
81,254,31,0.0742516363091574,1
81,255,31,0.0727731452882816,1
81,258,31,0.0829808498886549,1
82,227,31,0.0844049877399158,1
82,233,31,0.0710158883372487,1
82,234,31,0.0725431227300826,1
82,235,31,0.0708044121732859,1
82,236,31,0.0726124701172266,1
82,237,31,0.0726037043739238,1
82,241,31,0.0722785794095985,1
82,242,31,0.0738258895095366,1
82,243,31,0.0781310581643841,1
82,244,31,0.0791964400710669,1
82,245,31,0.073477630212371,1
82,246,31,0.0711954227165357,1
82,247,31,0.0717246692402129,1
82,248,31,0.0745531959524705,1
82,249,31,0.0770933498691909,1
82,250,31,0.0752800853100768,1
82,251,31,0.0709182069535131,1
82,252,31,0.0700325888230475,1
82,257,31,0.0730359716075002,1
82,258,31,0.0773323467133565,1
82,259,31,0.0769252853364144,1
83,226,31,0.0769807924421024,1
83,227,31,0.0811194397798857,1
83,228,31,0.07426791653978,1
83,244,31,0.0723718744459717,1
83,247,31,0.0708358951641014,1
83,248,31,0.0708680593942853,1
83,249,31,0.0709996498151589,1
83,250,31,0.0700141814572539,1
83,258,31,0.0742519908316859,1
83,259,31,0.0730406082060593,1
83,263,31,0.0697565408989423,1
83,264,31,0.0739633330278415,1
84,244,31,0.0731077797980773,1
84,247,31,0.0721412957740025,1
85,247,31,0.0699849020672528,1
78,234,32,0.0961637284024876,1
79,233,32,0.112717414068744,1
79,234,32,0.12910207590597,1
79,235,32,0.112853522914001,1
80,232,32,0.0903994353888114,1
80,233,32,0.112088352074738,1
80,234,32,0.127369350523626,1
80,235,32,0.111872399194925,1
80,236,32,0.0920753537495304,1
80,237,32,0.0858920707185413,1
80,238,32,0.0846133913752983,1
80,239,32,0.086667341974155,1
80,240,32,0.0896061529984653,1
80,241,32,0.0953959924884601,1
80,242,32,0.101355258989968,1
80,243,32,0.105824578526935,1
80,244,32,0.102966904501696,1
80,245,32,0.0959342132981039,1
80,246,32,0.0907300658794617,1
80,247,32,0.0851425405790657,1
80,249,32,0.0785425406457994,1
80,250,32,0.0757202006992352,1
80,251,32,0.0733031008570158,1
80,252,32,0.0748547138872508,1
80,253,32,0.0766296761104424,1
81,231,32,0.0775496203633736,1
81,232,32,0.0799390257398371,1
81,233,32,0.0912079761507273,1
81,234,32,0.0976250424592864,1
81,235,32,0.0918886594054521,1
81,236,32,0.0881273491635938,1
81,237,32,0.0877425601431481,1
81,238,32,0.0817754385346358,1
81,239,32,0.0802286984513121,1
81,240,32,0.083764921644682,1
81,241,32,0.0893469205644866,1
81,242,32,0.0964952834322808,1
81,243,32,0.10369659528242,1
81,244,32,0.102374580773634,1
81,245,32,0.0921455978701287,1
81,246,32,0.086692207211105,1
81,247,32,0.0824597573831332,1
81,248,32,0.081929308263428,1
81,249,32,0.0819542360631772,1
81,250,32,0.0793583247895721,1
81,251,32,0.0758610990743375,1
81,252,32,0.0770287294490937,1
81,253,32,0.0766867472861092,1
81,254,32,0.0782136897192137,1
81,256,32,0.0820896914747537,1
81,257,32,0.0856041914739751,1
81,258,32,0.0893036896702757,1
82,232,32,0.0716894324814486,1
82,233,32,0.0784628286882633,1
82,234,32,0.0780810913421316,1
82,235,32,0.0752158402667745,1
82,236,32,0.0777375451091685,1
82,237,32,0.0800090543663495,1
82,238,32,0.0732157214808731,1
82,240,32,0.0703326886677138,1
82,241,32,0.0735400261773874,1
82,242,32,0.0794307029967636,1
82,243,32,0.0874297391959885,1
82,244,32,0.0891547206940834,1
82,245,32,0.0811672655641229,1
82,246,32,0.077610215910059,1
82,247,32,0.0771401051344205,1
82,248,32,0.0781914799255164,1
82,249,32,0.0789782279790625,1
82,250,32,0.0763709441788569,1
82,251,32,0.0715007986905968,1
82,252,32,0.0706018755381791,1
82,254,32,0.070985913805035,1
82,255,32,0.0729728874516932,1
82,256,32,0.0757528723832345,1
82,257,32,0.079541779770939,1
82,258,32,0.083322699974619,1
82,259,32,0.0815369560957076,1
83,233,32,0.0717409564222576,1
83,243,32,0.0758718529243688,1
83,244,32,0.0855558721387669,1
83,245,32,0.079315844648951,1
83,246,32,0.0746909870418818,1
83,247,32,0.0750302511988145,1
83,248,32,0.0746304332037292,1
83,249,32,0.0714824260819138,1
83,256,32,0.0717369593545343,1
83,257,32,0.0801019184145508,1
83,258,32,0.084274586012226,1
83,259,32,0.0801642448653459,1
83,260,32,0.0741686710860657,1
83,261,32,0.0740501632416361,1
83,262,32,0.0719882254587549,1
84,243,32,0.0749949310229846,1
84,244,32,0.090766505234254,1
84,245,32,0.0835175761425413,1
84,246,32,0.0742402568311347,1
84,247,32,0.0741051628935089,1
84,248,32,0.0705953968127563,1
84,257,32,0.0754350047036103,1
84,258,32,0.0794602952007604,1
84,259,32,0.0733230444870996,1
85,244,32,0.0788260543972694,1
85,245,32,0.0725468764980315,1
85,247,32,0.0724624028163381,1
85,248,32,0.071019280631247,1
95,225,32,0.0716873053462776,1
101,262,32,0.0718119165393351,1
102,261,32,0.0837782405694783,1
102,262,32,0.109925709039496,1
102,263,32,0.0853947381738514,1
103,261,32,0.0789698862725095,1
103,262,32,0.0974993259901105,1
103,263,32,0.0731165455413801,1
79,234,33,0.125806545703765,1
80,233,33,0.110561972706826,1
80,234,33,0.120139454425698,1
80,235,33,0.107457829058635,1
80,236,33,0.0932392303563377,1
80,237,33,0.0883142729046022,1
80,238,33,0.0871305777933094,1
80,239,33,0.0875982833768919,1
80,240,33,0.0903194245201239,1
80,241,33,0.0992420892260075,1
80,242,33,0.107860990687764,1
80,248,33,0.0855617113333539,1
80,249,33,0.0827806141742723,1
80,250,33,0.0795170883195421,1
80,251,33,0.0763737595048185,1
81,232,33,0.0823065132823325,1
81,233,33,0.0905170464997866,1
81,234,33,0.0948813439512506,1
81,235,33,0.0914235188966347,1
81,236,33,0.090617876877746,1
81,237,33,0.0908352269934065,1
81,238,33,0.0849339770609743,1
81,239,33,0.0812215283652502,1
81,240,33,0.0822784295369374,1
81,241,33,0.087603253643713,1
81,242,33,0.0967568793497829,1
81,243,33,0.10657136285467,1
81,244,33,0.102279047379336,1
81,245,33,0.0943741403871397,1
81,246,33,0.0891222019413709,1
81,247,33,0.0867098568718867,1
81,248,33,0.0842214980014383,1
81,249,33,0.0831018463422062,1
81,250,33,0.0799796220450617,1
81,251,33,0.0763764705594482,1
81,252,33,0.0758364632343176,1
81,253,33,0.0764119158608764,1
81,254,33,0.079822728447644,1
81,255,33,0.0846187231160701,1
81,256,33,0.089067355220785,1
81,257,33,0.0923784288028672,1
82,231,33,0.0702948520770738,1
82,232,33,0.0750327259050918,1
82,233,33,0.0809342121858764,1
82,234,33,0.0806559884666453,1
82,235,33,0.078040981636456,1
82,236,33,0.0817490300819734,1
82,237,33,0.0845826035266956,1
82,238,33,0.0777140493023775,1
82,239,33,0.071934032171849,1
82,240,33,0.072288749340171,1
82,241,33,0.0751692657385202,1
82,242,33,0.0816230772644452,1
82,243,33,0.091967161815538,1
82,244,33,0.0944254279795964,1
82,245,33,0.0903864709865436,1
82,246,33,0.0836084103754813,1
82,247,33,0.0809246122719183,1
82,248,33,0.0791158174772321,1
82,249,33,0.0783468789671766,1
82,250,33,0.0749393683059195,1
82,251,33,0.0706367299687264,1
82,252,33,0.0697664258212076,1
82,253,33,0.070296715058204,1
82,254,33,0.0741677256926564,1
82,255,33,0.079646023297163,1
82,256,33,0.0847687765141143,1
82,257,33,0.0894698217077008,1
82,258,33,0.09223202490144,1
82,259,33,0.0872671384810042,1
82,260,33,0.0837718244068546,1
82,261,33,0.0816207693922989,1
83,232,33,0.0698879922913734,1
83,233,33,0.0749784144440097,1
83,234,33,0.0735595944306763,1
83,236,33,0.0720023576999401,1
83,237,33,0.0723462376011654,1
83,240,33,0.0713610681544119,1
83,241,33,0.0722782457413364,1
83,242,33,0.0729519289139788,1
83,243,33,0.0830956943336233,1
83,244,33,0.0982305391322801,1
83,245,33,0.096969356518532,1
83,246,33,0.0834114557323429,1
83,247,33,0.0765330860999808,1
83,248,33,0.0737858979780371,1
83,249,33,0.0699182518318944,1
83,255,33,0.0742370591769561,1
83,256,33,0.080646485872597,1
83,257,33,0.0909478886918269,1
83,258,33,0.095285089499838,1
83,259,33,0.0877326126580837,1
83,260,33,0.079586922306235,1
83,261,33,0.0752476638772741,1
83,262,33,0.0730730087845956,1
84,240,33,0.0749177354802587,1
84,241,33,0.074862409111546,1
84,242,33,0.0712352196082156,1
84,243,33,0.0827373554743728,1
84,244,33,0.104070790335543,1
84,245,33,0.100850745626221,1
84,246,33,0.0820928613232438,1
84,247,33,0.0757534006913162,1
84,248,33,0.0716781781290242,1
84,257,33,0.0813599728883415,1
84,258,33,0.0878869898406912,1
84,259,33,0.0806214538015159,1
84,260,33,0.0714600772597739,1
85,243,33,0.0701571305018838,1
85,244,33,0.0844473149492502,1
85,245,33,0.0807738637316613,1
85,246,33,0.0728566249166107,1
85,247,33,0.075781686027953,1
85,248,33,0.0732553862955326,1
86,247,33,0.0709869843240426,1
86,248,33,0.0708380362021167,1
95,225,33,0.070164450349384,1
97,225,33,0.0704205407405611,1
101,261,33,0.06992313868165,1
101,262,33,0.0984934141114537,1
101,263,33,0.0831486224617021,1
102,261,33,0.104187428247421,1
102,262,33,0.138016093042728,1
102,263,33,0.108650957249755,1
103,261,33,0.091391862120266,1
103,262,33,0.113745571109934,1
103,263,33,0.0873620879558437,1
81,234,34,0.0904585572340058,1
81,235,34,0.0891818242889585,1
81,236,34,0.0913429797198655,1
81,237,34,0.0907508089230901,1
81,238,34,0.0856677135693762,1
81,239,34,0.0809291376477233,1
81,240,34,0.0815952507216688,1
81,241,34,0.0861702805349281,1
81,242,34,0.0939264340450181,1
81,243,34,0.101059816598128,1
81,244,34,0.0966718773600078,1
81,245,34,0.0923589578694881,1
81,246,34,0.089794939720604,1
81,247,34,0.0900454689740791,1
81,248,34,0.0888991169024552,1
81,249,34,0.0855706856193205,1
81,250,34,0.0808899524811906,1
81,251,34,0.0769156784710341,1
81,252,34,0.0760237275950104,1
81,253,34,0.076542421859898,1
81,254,34,0.0798411358134376,1
81,255,34,0.0854256998080073,1
81,256,34,0.0910908099307683,1
81,257,34,0.0960196393246287,1
82,232,34,0.0771448112472008,1
82,233,34,0.0809341009631223,1
82,234,34,0.0819173379145244,1
82,235,34,0.0796268651777796,1
82,236,34,0.0835747029295851,1
82,237,34,0.0853150123134711,1
82,238,34,0.0791554197290925,1
82,239,34,0.0733383237129358,1
82,240,34,0.0737891164864821,1
82,241,34,0.0775986070351061,1
82,242,34,0.0823364530574357,1
82,243,34,0.0914748551490463,1
82,244,34,0.0944086263923142,1
82,245,34,0.0951137091387066,1
82,246,34,0.0860056569561046,1
82,247,34,0.0819120617851297,1
82,248,34,0.0798913876439973,1
82,249,34,0.0778855756433736,1
82,250,34,0.0744425223607786,1
82,251,34,0.0709613335763921,1
82,252,34,0.0703997142798671,1
82,253,34,0.0710387307103597,1
82,254,34,0.0752735648761212,1
82,255,34,0.082030826832178,1
82,256,34,0.0873328085658426,1
82,257,34,0.093228121983778,1
82,258,34,0.0960926292569675,1
82,259,34,0.0924105096159856,1
82,260,34,0.0876170383137919,1
82,261,34,0.084129176164163,1
83,232,34,0.069898822607048,1
83,233,34,0.0758273846770191,1
83,234,34,0.0785492765738409,1
83,235,34,0.0740494263908906,1
83,236,34,0.0745923394104705,1
83,237,34,0.0738029706707822,1
83,240,34,0.0745513260199182,1
83,241,34,0.079321732503493,1
83,242,34,0.0784383666337966,1
83,243,34,0.0876637449190665,1
83,244,34,0.103305869747478,1
83,245,34,0.108943931886741,1
83,246,34,0.0899423585296619,1
83,247,34,0.0781589611728039,1
83,248,34,0.0738193551727367,1
83,249,34,0.0705816886083208,1
83,254,34,0.071248323038926,1
83,255,34,0.0775404583890096,1
83,256,34,0.0824866732896109,1
83,257,34,0.092576599944878,1
83,258,34,0.0982458114066942,1
83,259,34,0.0932425114275819,1
83,260,34,0.0849266572134741,1
83,261,34,0.0777420635335513,1
83,262,34,0.0734580411048157,1
84,233,34,0.0699384665674411,1
84,234,34,0.0731486750144534,1
84,240,34,0.079909906232545,1
84,241,34,0.0839535484841117,1
84,242,34,0.0776999170611923,1
84,243,34,0.0852097677824608,1
84,244,34,0.104613606035214,1
84,245,34,0.109218415740867,1
84,246,34,0.0880344642611261,1
84,247,34,0.0785094379736282,1
84,248,34,0.0727691134634476,1
84,257,34,0.077071272152514,1
84,258,34,0.0844835874699115,1
84,259,34,0.0814684706849075,1
84,260,34,0.0757046225622475,1
85,240,34,0.0701781933109301,1
85,241,34,0.0735458236634417,1
85,243,34,0.0703714706517631,1
85,244,34,0.0820328914045499,1
85,245,34,0.0849226670971729,1
85,246,34,0.0777743459379115,1
85,247,34,0.0803514049547068,1
85,248,34,0.075106883676348,1
86,247,34,0.0755512394330042,1
86,248,34,0.0723176116448444,1
96,225,34,0.0701921587179842,1
97,224,34,0.0741925561724958,1
97,225,34,0.0782558918029498,1
98,224,34,0.0730317173371582,1
98,225,34,0.0729455127513551,1
101,261,34,0.0782739724519034,1
101,262,34,0.111488750207708,1
101,263,34,0.0961188708754988,1
102,261,34,0.101726534445798,1
102,262,34,0.136173535190768,1
102,263,34,0.111750478202231,1
103,261,34,0.0827139639389138,1
103,262,34,0.104289148407413,1
103,263,34,0.0853718471407855,1
81,242,35,0.0918066395757697,1
81,243,35,0.0935469767653442,1
81,248,35,0.0901619331004032,1
81,249,35,0.0872490717348948,1
81,250,35,0.0823916056405952,1
81,251,35,0.0793210095555917,1
81,252,35,0.077872187204356,1
81,253,35,0.0776269827402306,1
81,254,35,0.0800664244531678,1
82,234,35,0.0801567442808704,1
82,235,35,0.0796458217059213,1
82,236,35,0.081299426001611,1
82,237,35,0.0817507053747061,1
82,238,35,0.0774104737466475,1
82,239,35,0.0745156930300926,1
82,240,35,0.0769445755328182,1
82,241,35,0.0832030799026489,1
82,242,35,0.0866363872914212,1
82,243,35,0.0896398604443616,1
82,244,35,0.0910723469535976,1
82,245,35,0.0926533505965877,1
82,246,35,0.0847235158046421,1
82,247,35,0.080990511753687,1
82,248,35,0.0802654436686781,1
82,249,35,0.078807820817029,1
82,250,35,0.07605107448966,1
82,251,35,0.0739986532036713,1
82,252,35,0.0723037574605443,1
82,253,35,0.0720744856559351,1
82,254,35,0.0761258022775306,1
82,255,35,0.0812879074951457,1
82,256,35,0.0844918110022883,1
82,257,35,0.0883256176255143,1
82,258,35,0.0925596037177763,1
82,259,35,0.0926905128992813,1
82,260,35,0.0885276885153386,1
82,261,35,0.0859467158478855,1
83,233,35,0.073437068664257,1
83,234,35,0.0786743118036482,1
83,235,35,0.0755669009870575,1
83,236,35,0.0738948059085086,1
83,237,35,0.073172914623412,1
83,239,35,0.0702223904528168,1
83,240,35,0.0775850517619575,1
83,241,35,0.0852104003618744,1
83,242,35,0.0850931298705834,1
83,243,35,0.0883880205419529,1
83,244,35,0.0985971015239074,1
83,245,35,0.105328476383961,1
83,246,35,0.0908354146818039,1
83,247,35,0.0793058902124644,1
83,248,35,0.0753092048173689,1
83,249,35,0.0735746581624266,1
83,250,35,0.0709668251998729,1
83,254,35,0.0714704487815881,1
83,255,35,0.0760194455189798,1
83,256,35,0.0781849803458271,1
83,257,35,0.084151962925897,1
83,258,35,0.0901225115855182,1
83,259,35,0.0906820385039828,1
83,260,35,0.0858147222445286,1
83,261,35,0.0805388848094854,1
83,262,35,0.0741873565087444,1
84,234,35,0.0772478174202861,1
84,235,35,0.0724062005684372,1
84,240,35,0.0802490939238342,1
84,241,35,0.0856030792464347,1
84,242,35,0.0803913756319399,1
84,243,35,0.0814790855064962,1
84,244,35,0.0938588453676724,1
84,245,35,0.101996402555632,1
84,246,35,0.08901300205117,1
84,247,35,0.0797056108876399,1
84,248,35,0.0734186334927749,1
84,258,35,0.0742194164675965,1
84,259,35,0.0757569667708676,1
84,260,35,0.0742801718969908,1
84,261,35,0.0711008208128025,1
85,240,35,0.0713027457227622,1
85,241,35,0.0743526613269364,1
85,244,35,0.0749083858174973,1
85,245,35,0.0814426392002817,1
85,246,35,0.0785503818499592,1
85,247,35,0.0795116453560163,1
85,248,35,0.0730323777222603,1
86,247,35,0.0767764970971973,1
86,248,35,0.0720514973029594,1
97,224,35,0.0715385240584827,1
97,225,35,0.0754399402133208,1
98,224,35,0.0717170713358275,1
98,225,35,0.0736375268241477,1
99,225,35,0.0709632452174772,1
101,262,35,0.0977799896585083,1
101,263,35,0.0872770581603801,1
102,261,35,0.0785501246473405,1
102,262,35,0.106411007449033,1
102,263,35,0.092421485911525,1
103,262,35,0.0787162080248107,1
103,263,35,0.0700156829644334,1
81,241,36,0.0894789697792206,1
81,242,36,0.0913646890111697,1
81,243,36,0.0885117141472896,1
82,239,36,0.0734794167278577,1
82,240,36,0.0791901559854636,1
82,241,36,0.0891840835011499,1
82,242,36,0.0912469249689077,1
82,243,36,0.0874499747858017,1
82,244,36,0.0856361958214501,1
82,245,36,0.0874349597140063,1
82,246,36,0.0856146881213876,1
82,247,36,0.0832819993980625,1
82,248,36,0.0820244662809313,1
82,249,36,0.0809695115074398,1
82,250,36,0.07956135497565,1
82,251,36,0.0790124706844626,1
82,252,36,0.075874049573761,1
82,253,36,0.0741113774648909,1
82,254,36,0.0760804025396159,1
82,259,36,0.0885074112169927,1
82,260,36,0.0868795132803305,1
83,233,36,0.0701039799282969,1
83,234,36,0.0742976199665309,1
83,235,36,0.0725397026303959,1
83,236,36,0.0714695381452894,1
83,237,36,0.0706369732685009,1
83,239,36,0.0704203947606965,1
83,240,36,0.0790521007420115,1
83,241,36,0.0893483664602891,1
83,242,36,0.0897909565557249,1
83,243,36,0.0862655011152306,1
83,244,36,0.0894726022765518,1
83,245,36,0.0960687024620046,1
83,246,36,0.0948453425360523,1
83,247,36,0.086613913343683,1
83,248,36,0.0805374250108387,1
83,249,36,0.0775248593977555,1
83,250,36,0.0750704165158672,1
83,251,36,0.0734838864922857,1
83,252,36,0.070864500266156,1
83,253,36,0.0698890419561146,1
83,254,36,0.0712649021807,1
83,255,36,0.0728334280209713,1
83,256,36,0.0712132948228255,1
83,257,36,0.072833574000836,1
83,258,36,0.0783577023314291,1
83,259,36,0.0834691247303126,1
83,260,36,0.083542149419762,1
83,261,36,0.0812024119543996,1
84,234,36,0.0742376500478369,1
84,235,36,0.070143728160022,1
84,240,36,0.0774121142822696,1
84,241,36,0.0828355373605016,1
84,242,36,0.0796728140780423,1
84,243,36,0.0760921573944335,1
84,244,36,0.0825501745307456,1
84,245,36,0.0929582121654114,1
84,246,36,0.0950167298486058,1
84,247,36,0.0867093702723378,1
84,248,36,0.0776891979682717,1
84,249,36,0.0705869786405599,1
84,260,36,0.0710235209987447,1
84,261,36,0.0717117534979,1
85,241,36,0.0715019109181372,1
85,244,36,0.0708229724703664,1
85,245,36,0.080174880541201,1
85,246,36,0.0844530012125505,1
85,247,36,0.0814462608912101,1
85,248,36,0.0738310822218658,1
86,246,36,0.0745466407614043,1
86,247,36,0.080529048547175,1
86,248,36,0.0758363311572972,1
87,247,36,0.0799173512056435,1
87,248,36,0.0791353440219883,1
88,247,36,0.0718125491187488,1
88,248,36,0.0743803766469587,1
97,225,36,0.0711780372097948,1
98,224,36,0.0699630050875512,1
98,225,36,0.0744739427887949,1
99,225,36,0.0757238154387415,1
101,262,36,0.0706948716634008,1
102,262,36,0.0712294568792719,1
81,241,37,0.0882154306333713,1
81,242,37,0.0887355499397951,1
81,243,37,0.0833547460306267,1
82,240,37,0.0797617019127867,1
82,241,37,0.0914092198213184,1
82,242,37,0.092031010627779,1
82,243,37,0.0838404557975194,1
82,244,37,0.080402720352852,1
82,245,37,0.0829869740915492,1
82,246,37,0.0862655150180748,1
82,252,37,0.0754074214606083,1
83,240,37,0.0787086865860687,1
83,241,37,0.0895971787124987,1
83,242,37,0.0902859881796906,1
83,243,37,0.0826307901731583,1
83,244,37,0.0812570431808996,1
83,245,37,0.0875851382376488,1
83,246,37,0.0962033723628807,1
83,247,37,0.0933009381305635,1
83,248,37,0.0835062592273177,1
83,249,37,0.0773065569372635,1
83,250,37,0.0734573251083365,1
83,251,37,0.0725972395513452,1
83,252,37,0.0708078183701284,1
83,259,37,0.0744967712590616,1
83,260,37,0.0768283616576906,1
84,240,37,0.0733435233766872,1
84,241,37,0.0779702578677308,1
84,242,37,0.0777352024799115,1
84,243,37,0.0729417172748735,1
84,244,37,0.0751165531045274,1
84,245,37,0.0856719469854518,1
84,246,37,0.097851227832471,1
84,247,37,0.0939628942540768,1
84,248,37,0.0802349686340711,1
85,244,37,0.0700076818775647,1
85,245,37,0.0815330146393613,1
85,246,37,0.0911981051313062,1
85,247,37,0.0868025888430676,1
85,248,37,0.0752076514915083,1
86,238,37,0.0733131178563015,1
86,239,37,0.073088517407362,1
86,245,37,0.0757933922228157,1
86,246,37,0.0825395944662676,1
86,247,37,0.0835388266399851,1
86,248,37,0.0761640281478097,1
87,246,37,0.0712808835001712,1
87,247,37,0.0818954061777122,1
87,248,37,0.0811003650775679,1
88,247,37,0.0796698249665275,1
88,248,37,0.0835427333392207,1
89,247,37,0.0829962611915116,1
89,248,37,0.0895365206030142,1
89,249,37,0.0728299523099075,1
90,247,37,0.0790051647398066,1
90,248,37,0.0863514832555256,1
104,228,37,0.0738174018231189,1
105,228,37,0.0707383806144968,1
81,242,38,0.0864544616229224,1
82,241,38,0.091403255501133,1
82,242,38,0.090830785034667,1
82,243,38,0.081577705332219,1
83,240,38,0.0792211315224638,1
83,241,38,0.0890892800061751,1
83,242,38,0.089375400540943,1
83,243,38,0.0806061745756796,1
83,244,38,0.0769032493282702,1
83,245,38,0.0831760597248394,1
83,246,38,0.0930049604792188,1
83,247,38,0.0939878081509818,1
83,248,38,0.0828072381210206,1
83,249,38,0.0758403073707542,1
83,252,38,0.0698601866028634,1
83,259,38,0.0699962745938534,1
84,240,38,0.0718956672731273,1
84,241,38,0.0753214115146248,1
84,242,38,0.07709700631723,1
84,243,38,0.0732158883150042,1
84,244,38,0.0722532762330544,1
84,245,38,0.0825616582801003,1
84,246,38,0.0964101563169074,1
84,247,38,0.0970555054929582,1
84,248,38,0.0793821403617809,1
85,238,38,0.0726226400477991,1
85,239,38,0.0772259621491172,1
85,240,38,0.0727604172343661,1
85,244,38,0.0710154225919662,1
85,245,38,0.085810766885338,1
85,246,38,0.099382945892577,1
85,247,38,0.0966558473805818,1
85,248,38,0.077286356104561,1
86,238,38,0.0928612259238885,1
86,239,38,0.0945254380897448,1
86,240,38,0.0780593681479832,1
86,245,38,0.0841576769948858,1
86,246,38,0.0932637341193371,1
86,247,38,0.0912649778121728,1
86,248,38,0.0768419308336835,1
87,238,38,0.0856195749711433,1
87,239,38,0.0845869620683695,1
87,240,38,0.070065767960862,1
87,246,38,0.0751668814007305,1
87,247,38,0.0806417102455954,1
87,248,38,0.0777155091010243,1
88,247,38,0.0813994013546487,1
88,248,38,0.0860650846638726,1
88,249,38,0.0727592563468708,1
89,246,38,0.069757778252081,1
89,247,38,0.0975595600628453,1
89,248,38,0.107284398027976,1
89,249,38,0.0886447296096993,1
90,247,38,0.0966844316283701,1
90,248,38,0.106903140329971,1
90,249,38,0.0868204748522016,1
91,247,38,0.0710116132126403,1
91,248,38,0.0752777357293977,1
104,227,38,0.0698499541094917,1
104,228,38,0.0791269188983698,1
104,229,38,0.0705158099808185,1
105,228,38,0.0738160880043368,1
82,242,39,0.0870529651652559,1
82,243,39,0.0795592625975896,1
83,241,39,0.0839513935432522,1
83,242,39,0.0847913616846065,1
83,243,39,0.0781458924992042,1
83,244,39,0.0743097015381884,1
83,246,39,0.0885990935234323,1
83,247,39,0.0904345331191331,1
84,240,39,0.0698714409552878,1
84,241,39,0.0728388014702758,1
84,242,39,0.075039552201621,1
84,243,39,0.0734786798771122,1
84,244,39,0.0716049935568659,1
84,245,39,0.0807605795639757,1
84,246,39,0.0927830085221099,1
84,247,39,0.0949781564072203,1
84,248,39,0.0785466419848546,1
85,238,39,0.0722111019550068,1
85,239,39,0.078842056571007,1
85,240,39,0.0736314026212534,1
85,244,39,0.0704913618291961,1
85,245,39,0.085787048633039,1
85,246,39,0.102500700425294,1
85,247,39,0.102812019865274,1
85,248,39,0.079918797101446,1
86,238,39,0.0957042393998598,1
86,239,39,0.100857710951193,1
86,240,39,0.0838150483496434,1
86,245,39,0.0814426183460153,1
86,246,39,0.092625725645053,1
86,247,39,0.0916600410345229,1
86,248,39,0.0745557957843462,1
87,238,39,0.0874456162441277,1
87,239,39,0.0867733511615993,1
87,240,39,0.0722528800019931,1
87,246,39,0.073527249463517,1
87,247,39,0.0756691981150857,1
87,248,39,0.0718486687081232,1
88,247,39,0.0762425097036292,1
88,248,39,0.0816760818581674,1
88,249,39,0.0731756117751975,1
89,246,39,0.071665304095244,1
89,247,39,0.0948784591110677,1
89,248,39,0.106514451561712,1
89,249,39,0.090224565413772,1
90,226,39,0.0746218342945574,1
90,227,39,0.0750484639247885,1
90,246,39,0.0698886526764755,1
90,247,39,0.0949014127069327,1
90,248,39,0.10524531652105,1
90,249,39,0.0864170629718764,1
91,226,39,0.0758543909519845,1
91,227,39,0.076785311500455,1
91,247,39,0.0760691064786587,1
91,248,39,0.0795222671290271,1
103,228,39,0.0706992023993862,1
103,229,39,0.0698658103033645,1
104,228,39,0.0752363052535178,1
104,229,39,0.0738910382377155,1
105,228,39,0.0710253422713421,1
107,229,39,0.0697912284953586,1
83,242,40,0.0784815071595199,1
83,243,40,0.0752366458732021,1
83,246,40,0.0835862422903167,1
84,245,40,0.0764857886238253,1
84,246,40,0.0863715033512528,1
84,247,40,0.0890106663733352,1
84,248,40,0.0786001401295478,1
85,239,40,0.0726958176685353,1
85,245,40,0.0777664977823295,1
85,246,40,0.0937394338383662,1
85,247,40,0.0964803587289731,1
85,248,40,0.0784734504612741,1
86,238,40,0.082141180658452,1
86,239,40,0.0885736096099129,1
86,240,40,0.076855590378164,1
86,245,40,0.070760854562235,1
86,246,40,0.0807735231119771,1
86,247,40,0.0815819943596717,1
87,238,40,0.0760935407274368,1
87,239,40,0.0761786469885438,1
88,247,40,0.0714409191403905,1
88,248,40,0.075877699070378,1
88,249,40,0.071511281435165,1
89,246,40,0.0700902578210172,1
89,247,40,0.0843295022470333,1
89,248,40,0.093744000922704,1
89,249,40,0.0824642201961391,1
90,227,40,0.0773556409289057,1
90,246,40,0.0713129782161338,1
90,247,40,0.0844654512095808,1
90,248,40,0.0917576598554594,1
90,249,40,0.0775833695178026,1
91,226,40,0.0775582609810781,1
91,227,40,0.0793382699367343,1
91,246,40,0.0703467722489441,1
91,247,40,0.0755239898582644,1
91,248,40,0.0771976768124804,1
97,260,40,0.0743720627460942,1
103,228,40,0.0721234306191348,1
103,229,40,0.0714821341221844,1
104,228,40,0.0708053714695395,1
104,229,40,0.072147211434233,1
105,229,40,0.0700991973498732,1
106,229,40,0.069892990363883,1
107,230,40,0.070199179654333,1
113,266,40,0.0713861210797594,1
84,246,41,0.0781901035439351,1
85,246,41,0.0777507528112107,1
85,247,41,0.0810496335988814,1
85,248,41,0.0731769255939795,1
89,247,41,0.072203698690441,1
89,248,41,0.0752831230815465,1
89,249,41,0.0701766570466399,1
90,247,41,0.0749305956111946,1
90,248,41,0.0753253251652826,1
91,246,41,0.0714877717255298,1
91,247,41,0.0725615231444541,1
91,248,41,0.0699293671558762,1
95,260,41,0.070613213307669,1
96,259,41,0.103773005314446,1
96,260,41,0.119386643214978,1
96,261,41,0.0870669514265764,1
97,259,41,0.122546064571927,1
97,260,41,0.14005202555543,1
97,261,41,0.0987881405068154,1
98,259,41,0.093064673195294,1
98,260,41,0.103987123018817,1
98,261,41,0.0757827843526491,1
90,246,42,0.0704587874651066,1
90,247,42,0.0753015373987623,1
90,248,42,0.0732146440104434,1
91,245,42,0.0701956969918471,1
91,246,42,0.0715007152735312,1
91,247,42,0.0747040001041045,1
91,248,42,0.072594611913781,1
94,243,42,0.0699187175771769,1
95,259,42,0.0931613883313539,1
95,260,42,0.105484966798896,1
95,261,42,0.0797450184996807,1
96,258,42,0.0893216034850983,1
96,259,42,0.168978325020915,1
96,260,42,0.193222535820956,1
96,261,42,0.132375208626081,1
97,258,42,0.103709316384913,1
97,259,42,0.196221045658498,1
97,260,42,0.220305012275655,1
97,261,42,0.146243184547689,1
97,262,42,0.0709058751306589,1
98,258,42,0.0799668383797692,1
98,259,42,0.138730796557344,1
98,260,42,0.151027848398048,1
98,261,42,0.101970786565092,1
99,260,42,0.0708464404714688,1
90,247,43,0.0731491477111581,1
90,248,43,0.0746518991952589,1
91,247,43,0.0720057430425162,1
91,248,43,0.0753302606749931,1
93,244,43,0.0725628578175026,1
95,258,43,0.0707942561455577,1
95,259,43,0.120083912562899,1
95,260,43,0.13604660222272,1
95,261,43,0.0997899655609864,1
96,258,43,0.115364244509433,1
96,259,43,0.220164287686106,1
96,260,43,0.248783584544753,1
96,261,43,0.167184051747054,1
96,262,43,0.0789258490133318,1
97,258,43,0.129399374327519,1
97,259,43,0.243217525235887,1
97,260,43,0.267497118774557,1
97,261,43,0.174663587316424,1
97,262,43,0.0810990443073636,1
98,258,43,0.0956818488691871,1
98,259,43,0.163624631658044,1
98,260,43,0.173863395212483,1
98,261,43,0.116806219709873,1
99,259,43,0.0750540737224454,1
99,260,43,0.0778879808354297,1
90,248,44,0.0729425583969509,1
90,249,44,0.0704783418155513,1
91,248,44,0.0742009395875816,1
91,249,44,0.075407671711805,1
92,249,44,0.0704775702076951,1
95,258,44,0.0782463822574793,1
95,259,44,0.132347750508677,1
95,260,44,0.150407892767029,1
95,261,44,0.108597313125197,1
96,258,44,0.123372588662887,1
96,259,44,0.23486380662545,1
96,260,44,0.264707957965807,1
96,261,44,0.176729105081701,1
96,262,44,0.081306787557644,1
97,258,44,0.131989891297554,1
97,259,44,0.246640238657337,1
97,260,44,0.270050904430069,1
97,261,44,0.177202566442805,1
97,262,44,0.0822237913590153,1
98,258,44,0.0934291015003282,1
98,259,44,0.157613528401731,1
98,260,44,0.167700514605438,1
98,261,44,0.116890012152198,1
99,259,44,0.073337239291084,1
99,260,44,0.0765959269560134,1
101,267,44,0.0724869899964031,1
91,249,45,0.0806735199532509,1
91,250,45,0.0828935191724671,1
92,249,45,0.080548728023218,1
92,250,45,0.0847011739339243,1
94,260,45,0.0718849620830509,1
95,258,45,0.0799388519542839,1
95,259,45,0.126522430960144,1
95,260,45,0.142759326417206,1
95,261,45,0.105317062148828,1
96,258,45,0.113133213383301,1
96,259,45,0.204594687044751,1
96,260,45,0.230031275282322,1
96,261,45,0.156427115284387,1
96,262,45,0.0769642341545947,1
97,258,45,0.114544741354822,1
97,259,45,0.203783456082472,1
97,260,45,0.223708247812304,1
97,261,45,0.151904923230718,1
97,262,45,0.0771089558118671,1
98,258,45,0.0814773893594971,1
98,259,45,0.127646684460824,1
98,260,45,0.137018730801562,1
98,261,45,0.103039421737331,1
99,260,45,0.0708466351112884,1
101,267,45,0.0731790666319948,1
91,249,46,0.076012202137123,1
91,250,46,0.0916679656557482,1
91,251,46,0.0727862070104592,1
92,249,46,0.0802501922485304,1
92,250,46,0.0989474531991334,1
92,251,46,0.0770429033988116,1
94,260,46,0.0698680764669781,1
95,258,46,0.0728664959360318,1
95,259,46,0.104866450112257,1
95,260,46,0.116050329019151,1
95,261,46,0.0893311686419457,1
96,258,46,0.0915721750588313,1
96,259,46,0.150431930784745,1
96,260,46,0.169030627521003,1
96,261,46,0.120155498307968,1
97,258,46,0.0876549513700753,1
97,259,46,0.142323347124213,1
97,260,46,0.159780133747586,1
97,261,46,0.117010494200512,1
97,262,46,0.0708380987649158,1
98,259,46,0.0937731343328403,1
98,260,46,0.103336435150572,1
98,261,46,0.0859203491037559,1
91,250,47,0.0827866966686338,1
91,251,47,0.0707338760929582,1
92,250,47,0.0898401100615885,1
92,251,47,0.0745026521621815,1
95,259,47,0.0793498232003102,1
95,260,47,0.0854853777669719,1
95,261,47,0.0723746133062899,1
96,258,47,0.0702986753592439,1
96,259,47,0.097613954940993,1
96,260,47,0.107920571326818,1
96,261,47,0.0859207244805508,1
97,259,47,0.0899179312323058,1
97,260,47,0.101562765891896,1
97,261,47,0.0848680497735171,1
98,260,47,0.0761628394546259,1
98,261,47,0.0697531833620548,1
96,260,48,0.071154548354426,1
97,260,48,0.0699292767873886,1
