x,y,z,signal,cytoplasm.p
601,837,18,0.156255109295264,1
601,838,18,0.144790281711665,1
602,837,18,0.157902304379752,1
595,837,19,0.0702044557837278,1
596,837,19,0.0714394593417437,1
600,837,19,0.122062134369099,1
600,838,19,0.107896950394429,1
601,836,19,0.145392316576439,1
601,837,19,0.176860500862755,1
601,838,19,0.160835317918008,1
601,839,19,0.110967365742457,1
602,836,19,0.135635578535165,1
602,837,19,0.167888967659315,1
602,838,19,0.165912706154155,1
603,837,19,0.122636725019314,1
595,835,20,0.0712006362831313,1
595,836,20,0.0783260525064826,1
595,837,20,0.076596017324501,1
595,838,20,0.0715186638454644,1
596,836,20,0.0743536414774564,1
596,837,20,0.0750613379585686,1
596,838,20,0.0709655530896235,1
599,837,20,0.0801213684936635,1
600,836,20,0.112118813206501,1
600,837,20,0.124213293654987,1
600,838,20,0.109248438933036,1
601,835,20,0.105557588305862,1
601,836,20,0.151367022186493,1
601,837,20,0.171629055209418,1
601,838,20,0.150659005939962,1
601,839,20,0.107940945945074,1
602,836,20,0.141922792278383,1
602,837,20,0.160465446649448,1
602,838,20,0.150498302963219,1
603,837,20,0.115592063466818,1
594,835,21,0.0750264487709107,1
594,836,21,0.075724003127139,1
594,837,21,0.0730140885306429,1
595,834,21,0.0707323537315123,1
595,835,21,0.0801478603633914,1
595,836,21,0.0823092729969171,1
595,837,21,0.0796792928034652,1
595,838,21,0.0744961108739595,1
596,835,21,0.0747215524449764,1
596,836,21,0.0776379520843478,1
596,837,21,0.0748224731914235,1
599,836,21,0.0797282377666649,1
599,837,21,0.0826248467072392,1
599,838,21,0.0756804177103995,1
600,835,21,0.0868867427593431,1
600,836,21,0.110085084294613,1
600,837,21,0.115850746738448,1
600,838,21,0.10139418000246,1
600,839,21,0.0802648110892645,1
601,835,21,0.108812105117515,1
601,836,21,0.144889381185514,1
601,837,21,0.148099089130134,1
601,838,21,0.123050181704613,1
601,839,21,0.0927267993227869,1
602,836,21,0.140615563444462,1
602,837,21,0.140944907922019,1
602,838,21,0.11899975486505,1
603,837,21,0.100700163920095,1
594,834,22,0.0726761659981808,1
594,835,22,0.0788257902432286,1
594,836,22,0.0768914944734526,1
594,837,22,0.074273693171568,1
594,838,22,0.0699184395202918,1
595,834,22,0.073312214171425,1
595,835,22,0.082996560102663,1
595,836,22,0.0822694552509708,1
595,837,22,0.0785563114130339,1
595,838,22,0.0730560403631823,1
596,834,22,0.0703603483763591,1
596,835,22,0.0809912347015882,1
596,836,22,0.080398035094338,1
596,837,22,0.0729417728862505,1
597,835,22,0.0744909668215851,1
597,836,22,0.0738051673201745,1
598,836,22,0.0703753425938881,1
599,836,22,0.0782289897993163,1
599,837,22,0.079253747595086,1
599,838,22,0.0727468758640618,1
600,835,22,0.0842776515893843,1
600,836,22,0.102401308991715,1
600,837,22,0.100944902638938,1
600,838,22,0.0883325134362648,1
600,839,22,0.0725633235627851,1
601,835,22,0.106096066318124,1
601,836,22,0.133862576613014,1
601,837,22,0.12270313890632,1
601,838,22,0.096146634855476,1
602,836,22,0.131057524853281,1
602,837,22,0.117457693088818,1
593,835,23,0.0710053360784592,1
594,834,23,0.071847785877513,1
594,835,23,0.0751846075271556,1
594,836,23,0.074467408451995,1
594,837,23,0.0717613171376691,1
595,834,23,0.0710363741782585,1
595,835,23,0.0773373169801777,1
595,836,23,0.077109331188662,1
595,837,23,0.0726663227844483,1
596,834,23,0.0721270731643296,1
596,835,23,0.0807097438139572,1
596,836,23,0.0784469377372798,1
597,834,23,0.0721054194844025,1
597,835,23,0.0799913143370801,1
597,836,23,0.0762114437981414,1
598,835,23,0.073107383567016,1
598,836,23,0.0723170485796521,1
599,835,23,0.0699400653945305,1
599,836,23,0.0758334254628479,1
599,837,23,0.0749464865621781,1
600,835,23,0.0806000156156747,1
600,836,23,0.094127337095925,1
600,837,23,0.0891016048776071,1
600,838,23,0.0769407035906931,1
601,835,23,0.0957600106595888,1
601,836,23,0.116718298122805,1
601,837,23,0.102606431555853,1
601,838,23,0.0777656636116742,1
602,836,23,0.108412732013445,1
602,837,23,0.0938509068436028,1
593,834,24,0.0706590231794893,1
593,835,24,0.0702851896003166,1
595,835,24,0.0701339197034001,1
595,836,24,0.0701144696242873,1
596,834,24,0.0726481239613185,1
596,835,24,0.0772594888580382,1
596,836,24,0.0734097773809844,1
597,834,24,0.0762748546707884,1
597,835,24,0.082647675177506,1
597,836,24,0.0765886279627795,1
598,835,24,0.0749231853952067,1
598,836,24,0.0732116757531949,1
599,836,24,0.0752163268663234,1
599,837,24,0.073259988136981,1
600,835,24,0.0770928215611092,1
600,836,24,0.0888037086337553,1
600,837,24,0.0847300640442862,1
600,838,24,0.0719073109051908,1
601,835,24,0.0834635774954549,1
601,836,24,0.0986999339114396,1
601,837,24,0.0891954490763284,1
597,834,25,0.0744322342560299,1
597,835,25,0.0771138357102007,1
598,835,25,0.0705685851776105,1
599,836,25,0.0705023242218912,1
600,836,25,0.0770637785194605,1
600,837,25,0.0753917390522887,1
601,836,25,0.0753136398246863,1
601,837,25,0.0709082177599159,1
588,846,26,0.0702743940417526,1
596,833,26,0.070858716682946,1
596,834,26,0.0700377537296882,1
597,834,26,0.0703242148841404,1
604,856,26,0.0717631175560001,1
604,857,26,0.0738817024777983,1
605,856,26,0.0735793364695184,1
606,855,26,0.0721560188860685,1
606,856,26,0.0760667429951353,1
607,855,26,0.0738829328795148,1
587,846,27,0.0722064166964929,1
588,846,27,0.0702215354278951,1
595,833,27,0.0700130275211807,1
596,833,27,0.0701598067994029,1
600,857,27,0.0702904309726007,1
602,856,27,0.0716214058645089,1
603,856,27,0.0742253599335155,1
603,857,27,0.0795426904072377,1
604,856,27,0.075613545029533,1
604,857,27,0.0793511300676702,1
604,858,27,0.0816486793521408,1
605,855,27,0.0708597593962651,1
605,856,27,0.0782072109937909,1
605,857,27,0.0809842902308829,1
606,855,27,0.0748252954688072,1
606,856,27,0.0822325084423631,1
606,857,27,0.082689439321648,1
607,855,27,0.0771954454059775,1
608,854,27,0.0720475627980353,1
608,855,27,0.0786357731193734,1
609,854,27,0.0752861608530162,1
612,851,27,0.070491625983237,1
585,846,28,0.0707248531470367,1
586,845,28,0.0731776137847702,1
586,846,28,0.0735985293460124,1
587,845,28,0.0758751478984572,1
587,846,28,0.0747022761514169,1
588,845,28,0.0714476203113214,1
598,859,28,0.069986765048383,1
598,860,28,0.0734596885918599,1
599,858,28,0.0715122198771522,1
600,857,28,0.0743317514491769,1
601,856,28,0.0734058637303266,1
602,855,28,0.0704867877934362,1
602,856,28,0.076125663249088,1
603,855,28,0.0708717992593899,1
603,856,28,0.0775463323407073,1
603,857,28,0.0840050098621216,1
604,855,28,0.0706087018347083,1
604,856,28,0.0782405430628922,1
604,857,28,0.0839655744443923,1
604,858,28,0.086870219228946,1
605,855,28,0.0714826346245776,1
605,856,28,0.0808989962813784,1
605,857,28,0.0855839141756292,1
605,858,28,0.0863768837519795,1
606,855,28,0.0744648572800742,1
608,854,28,0.0731092534995683,1
609,854,28,0.0759919317901992,1
610,854,28,0.074774084341994,1
612,850,28,0.0774165631924312,1
612,851,28,0.105211643832265,1
612,852,28,0.0958314851819037,1
613,850,28,0.0919778739570364,1
613,851,28,0.129620735413748,1
613,852,28,0.114762960398249,1
614,851,28,0.112441386998905,1
582,836,29,0.0713484165661398,1
583,836,29,0.0700878109204283,1
583,846,29,0.0714343430950579,1
583,847,29,0.0882283741813727,1
584,846,29,0.0731230659753357,1
584,847,29,0.0818750732679892,1
585,845,29,0.0722635851920695,1
585,846,29,0.0741289784657177,1
585,847,29,0.0723575406135448,1
586,844,29,0.0714141700680439,1
586,845,29,0.0779220219495881,1
586,846,29,0.0738924354735631,1
587,844,29,0.0701346287484571,1
587,845,29,0.0774468018786858,1
587,846,29,0.071564925559723,1
599,831,29,0.0699040709307543,1
599,857,29,0.0709349320751519,1
599,858,29,0.0755814086050376,1
600,856,29,0.0712278928092932,1
600,857,29,0.0760824045491886,1
601,855,29,0.0707307201473123,1
601,856,29,0.075607768397745,1
601,857,29,0.080346782258992,1
602,855,29,0.0705835168323404,1
602,856,29,0.0771965854392064,1
602,857,29,0.0825123379401057,1
603,856,29,0.0769989704109659,1
603,857,29,0.0833994923348615,1
603,858,29,0.0893050799547012,1
604,856,29,0.0769952305458613,1
604,857,29,0.0835741954757698,1
604,858,29,0.088570995875193,1
605,856,29,0.0798337116946055,1
605,857,29,0.0853751907748289,1
605,858,29,0.0867146324988883,1
606,855,29,0.07233154924621,1
608,854,29,0.0708579450750898,1
609,854,29,0.0736154699617372,1
610,854,29,0.0727193968923918,1
611,851,29,0.077478820129005,1
611,852,29,0.0731176230118099,1
612,850,29,0.0880652173526182,1
612,851,29,0.127373201611484,1
612,852,29,0.105190581023218,1
613,850,29,0.106374130154646,1
613,851,29,0.158499362026283,1
613,852,29,0.130397362196676,1
613,853,29,0.0851627692174567,1
614,850,29,0.087407466839492,1
614,851,29,0.123125215355058,1
614,852,29,0.107775821863858,1
615,851,29,0.086377453768594,1
582,847,30,0.0835572201029344,1
583,846,30,0.0747409260584458,1
583,847,30,0.0889181568476624,1
584,846,30,0.0758046674295065,1
584,847,30,0.0802714566488184,1
584,848,30,0.0771790678554451,1
585,844,30,0.0724801567484517,1
585,845,30,0.0775557932262229,1
585,846,30,0.0743439233893221,1
586,844,30,0.0722337079797655,1
586,845,30,0.0789929371882843,1
586,846,30,0.0705033321780997,1
587,845,30,0.0707551404932462,1
598,831,30,0.0783680251932885,1
599,830,30,0.0857988590992336,1
599,831,30,0.0849655504202774,1
599,857,30,0.0755163780510348,1
600,856,30,0.0743232429084928,1
600,857,30,0.0784557034805826,1
601,855,30,0.0715219240624422,1
601,856,30,0.0772867106270895,1
601,857,30,0.0801324560119569,1
602,856,30,0.076388614693905,1
602,857,30,0.079864381369032,1
602,858,30,0.0846924777048428,1
603,856,30,0.0748623256944804,1
603,857,30,0.0808115960509694,1
603,858,30,0.0877063710395524,1
603,859,30,0.0907507533117131,1
604,856,30,0.0734057247018841,1
604,857,30,0.0808288355778456,1
604,858,30,0.0874383102994717,1
604,859,30,0.0900051368228953,1
605,856,30,0.0768450172651081,1
610,854,30,0.0705878406169037,1
610,855,30,0.0750609069703967,1
611,851,30,0.0745854853082527,1
612,850,30,0.0831403572207925,1
612,851,30,0.120578353315984,1
612,852,30,0.0987956897512459,1
612,853,30,0.0752830049073704,1
613,850,30,0.102197430732137,1
613,851,30,0.150319998985648,1
613,852,30,0.123902078486338,1
613,853,30,0.0856944487388786,1
614,850,30,0.0851198094287088,1
614,851,30,0.116893877142901,1
614,852,30,0.10416952138402,1
615,851,30,0.087026417684151,1
583,846,31,0.0722044911525636,1
584,845,31,0.0719268235471027,1
584,846,31,0.0734220257867731,1
584,847,31,0.0746983764036034,1
585,844,31,0.0710605929329507,1
585,845,31,0.0781168564089776,1
585,846,31,0.0714951680386735,1
586,845,31,0.0720470414413757,1
597,830,31,0.079342614575564,1
597,831,31,0.072271468104762,1
598,830,31,0.0988621105896741,1
598,831,31,0.0909639881854742,1
599,831,31,0.0882750251752704,1
599,856,31,0.0730269208558902,1
600,855,31,0.0705504350144356,1
600,856,31,0.0778354558898343,1
600,857,31,0.0804043817427404,1
601,855,31,0.0707878121772455,1
601,856,31,0.0784234071733783,1
601,857,31,0.0796927855138146,1
601,858,31,0.0803416104009291,1
602,856,31,0.0740814376897877,1
602,857,31,0.0766689864025734,1
602,858,31,0.0803847509266524,1
603,856,31,0.0699558103656493,1
603,857,31,0.0760186669597016,1
603,858,31,0.0826433861500533,1
604,857,31,0.0764274800950198,1
604,858,31,0.0838615811693649,1
605,856,31,0.0708070606651165,1
610,855,31,0.0748588291291503,1
611,854,31,0.0703151919382189,1
612,850,31,0.0712973653220355,1
612,851,31,0.0955843968823817,1
612,852,31,0.0851117944389958,1
612,853,31,0.0743816696114745,1
613,850,31,0.0878298074422704,1
613,851,31,0.11762067613202,1
613,852,31,0.104393718650476,1
613,853,31,0.0836081323185962,1
614,850,31,0.0823147437661315,1
614,851,31,0.102855327225128,1
614,852,31,0.0972336078792868,1
614,853,31,0.0854194921880474,1
614,854,31,0.078382393782826,1
615,851,31,0.08297044360973,1
615,852,31,0.0857762739287414,1
615,853,31,0.0832420982350506,1
615,854,31,0.078599062659118,1
583,846,32,0.0729651644217095,1
584,845,32,0.0758533343358211,1
584,846,32,0.0740521096398318,1
584,847,32,0.0697741905597241,1
585,844,32,0.0700626328694825,1
585,845,32,0.0770473731632396,1
585,846,32,0.070595654015375,1
597,830,32,0.0826236719168997,1
597,831,32,0.0752992642837266,1
598,830,32,0.098751263212429,1
598,831,32,0.0909682146501277,1
598,856,32,0.0712636161676065,1
599,856,32,0.0771417109129319,1
599,857,32,0.0806460618358472,1
600,855,32,0.0709056179280402,1
600,856,32,0.0798233471242134,1
600,857,32,0.0815971484599096,1
600,858,32,0.0804023032675243,1
601,856,32,0.077314217404448,1
601,857,32,0.078163111171814,1
601,858,32,0.0778901913876662,1
602,856,32,0.0706802250169782,1
602,857,32,0.0733948457262546,1
602,858,32,0.0772108150003014,1
603,857,32,0.0722305242284311,1
604,857,32,0.0736148234794793,1
610,855,32,0.0746312812772287,1
611,854,32,0.0702042194353755,1
612,851,32,0.0744546664952353,1
612,852,32,0.0734212750331833,1
612,853,32,0.0721671203072062,1
613,850,32,0.07596831085781,1
613,851,32,0.0935078402587664,1
613,852,32,0.0908613921462944,1
613,853,32,0.0836891511434923,1
613,854,32,0.079600394162318,1
614,850,32,0.0789863055315747,1
614,851,32,0.0928053364899834,1
614,852,32,0.0934750782062795,1
614,853,32,0.0913856336460398,1
614,854,32,0.0879333071663267,1
614,855,32,0.0774793831941974,1
615,852,32,0.0824740425556053,1
615,853,32,0.0867905489799428,1
615,854,32,0.0861766480375969,1
615,855,32,0.0784262224993399,1
616,853,32,0.0774164936782099,1
616,854,32,0.0789449654241824,1
583,845,33,0.0711162251642371,1
583,846,33,0.0716768990673527,1
584,845,33,0.0729125073990937,1
584,846,33,0.0711632862920403,1
597,830,33,0.0723103474087212,1
597,856,33,0.0703003437005545,1
598,830,33,0.0800220465743058,1
598,831,33,0.0763289784434732,1
598,856,33,0.0744099201910006,1
598,857,33,0.0774134906638508,1
599,856,33,0.077006338918421,1
599,857,33,0.0794741563364826,1
599,858,33,0.0778747800848096,1
600,856,33,0.0753067231596694,1
600,857,33,0.0767770462595454,1
600,858,33,0.0755581630494432,1
601,856,33,0.0710603496331762,1
601,857,33,0.0729338343621809,1
601,858,33,0.0736777338497332,1
602,858,33,0.0735564940964074,1
610,855,33,0.0715295706267825,1
611,855,33,0.0705710251267773,1
612,854,33,0.07216765556671,1
613,851,33,0.076133622627424,1
613,852,33,0.0802851996103645,1
613,853,33,0.0841499539649021,1
613,854,33,0.0829075958022753,1
614,850,33,0.070467365520012,1
614,851,33,0.0806174567337926,1
614,852,33,0.0879011220818764,1
614,853,33,0.0977224944460918,1
614,854,33,0.0975216817636726,1
614,855,33,0.0837056955281557,1
615,852,33,0.0773118886780353,1
615,853,33,0.0889357787027556,1
615,854,33,0.0919889545239077,1
615,855,33,0.0829121906923016,1
616,853,33,0.0757420837760926,1
616,854,33,0.0796216377083397,1
617,843,33,0.0701936602251638,1
583,845,34,0.0701671266469031,1
583,846,34,0.0709568707633863,1
598,856,34,0.0719755321619501,1
598,857,34,0.0742165107731472,1
599,856,34,0.07118246526569,1
599,857,34,0.0729546608228749,1
599,858,34,0.0723925201696903,1
600,857,34,0.0700926352073848,1
600,858,34,0.0706758873295706,1
600,859,34,0.0714799513756364,1
601,858,34,0.0704955187796284,1
610,856,34,0.07553083700906,1
613,852,34,0.0725521734816926,1
613,853,34,0.0819739572477529,1
613,854,34,0.0813774348607258,1
614,851,34,0.070080379850174,1
614,852,34,0.0801324699148011,1
614,853,34,0.0963723544833781,1
614,854,34,0.0974238683029165,1
614,855,34,0.0852779056221545,1
615,852,34,0.071293847902439,1
615,853,34,0.085930386957308,1
615,854,34,0.0905146343563083,1
615,855,34,0.0838680877004762,1
616,853,34,0.0726067421453935,1
616,854,34,0.0773200148905023,1
618,843,34,0.070196399085482,1
595,830,35,0.0715839446506638,1
597,857,35,0.0706582932801659,1
609,856,35,0.0775065493518717,1
610,856,35,0.0738246521563979,1
610,857,35,0.0799638562196765,1
611,856,35,0.0726321009333146,1
612,855,35,0.069982510778041,1
613,853,35,0.0746134647823159,1
613,854,35,0.0770907222316267,1
614,853,35,0.0841913566350935,1
614,854,35,0.0881288784764618,1
614,855,35,0.0829513271988794,1
615,853,35,0.0772432016759934,1
615,854,35,0.0829365623782806,1
615,855,35,0.0814586622282856,1
616,854,35,0.0733997047703217,1
595,830,36,0.0731017042551379,1
596,857,36,0.0704735592371276,1
607,856,36,0.0708633949900378,1
608,856,36,0.0732329818620157,1
609,856,36,0.0733037264850073,1
609,857,36,0.0820618301748666,1
610,856,36,0.073017529484596,1
610,857,36,0.0788065209010912,1
611,856,36,0.0734975529881884,1
613,854,36,0.0722819369464861,1
614,853,36,0.07367625319682,1
614,854,36,0.0795300874789205,1
615,854,36,0.0778844147558783,1
592,854,37,0.0758570602980814,1
594,830,37,0.0706529615393941,1
595,857,37,0.072008620931277,1
596,857,37,0.0698861501645096,1
606,857,37,0.0793242906268359,1
607,857,37,0.0786099833432804,1
608,857,37,0.0782713934742941,1
608,858,37,0.0832870044219943,1
609,857,37,0.0771820013555829,1
610,856,37,0.0727112498256583,1
610,857,37,0.0767375274247506,1
611,856,37,0.0748389897703984,1
612,855,37,0.071253015248862,1
613,854,37,0.0704439809359751,1
613,855,37,0.0744257902877177,1
592,853,38,0.0810827501738968,1
592,854,38,0.0901264530418645,1
593,854,38,0.0756453199800778,1
595,857,38,0.0697715490193156,1
602,857,38,0.0772148885336681,1
603,856,38,0.0813892105698097,1
604,856,38,0.0826251734240792,1
604,857,38,0.0935217361515993,1
605,856,38,0.0741238830732982,1
605,857,38,0.0847739205664886,1
605,859,38,0.0905452275650915,1
606,857,38,0.0776395022514822,1
606,858,38,0.0843030381829939,1
606,859,38,0.0878598167315948,1
607,857,38,0.074141150405863,1
607,858,38,0.0808177133024416,1
608,857,38,0.0739739130923196,1
608,858,38,0.0789530151710061,1
609,857,38,0.0740694186809293,1
609,858,38,0.0760106033100336,1
610,856,38,0.0736196408150137,1
610,857,38,0.0761285202835824,1
611,856,38,0.0765974771231478,1
612,855,38,0.0746365017952465,1
612,856,38,0.0781525519616023,1
613,854,38,0.0729821676002334,1
613,855,38,0.077325993113532,1
613,856,38,0.0788823400622358,1
614,854,38,0.0743716387093445,1
614,855,38,0.0781570703859852,1
615,851,38,0.0819758897431044,1
615,852,38,0.0766844602682292,1
616,850,38,0.075871811215836,1
616,851,38,0.0869049415824729,1
616,852,38,0.0790416388517096,1
617,850,38,0.0730225831684827,1
617,851,38,0.0770629791059159,1
592,853,39,0.075814072703645,1
592,854,39,0.0832647529197641,1
601,858,39,0.0697981521117976,1
601,859,39,0.0740510043637135,1
602,856,39,0.0750053373019095,1
602,857,39,0.0825492569430248,1
602,858,39,0.0827500487711776,1
602,859,39,0.0812423270202557,1
603,856,39,0.0912535844313058,1
603,857,39,0.0986880122224909,1
604,856,39,0.0907932682094449,1
604,857,39,0.0968652589721727,1
604,858,39,0.0904372928337178,1
604,859,39,0.0865658651139377,1
605,856,39,0.078835515282785,1
605,857,39,0.0856950465611815,1
605,858,39,0.0854117969637523,1
605,859,39,0.0863997400279347,1
606,857,39,0.0765687955554498,1
606,858,39,0.0808389081885083,1
606,859,39,0.0837866239845641,1
607,857,39,0.0718324232346113,1
607,858,39,0.077916676305972,1
608,857,39,0.0714094431009972,1
608,858,39,0.0765678918705732,1
609,857,39,0.072653003859652,1
610,856,39,0.0740823066175537,1
610,857,39,0.0759133946230027,1
611,855,39,0.0711244486966139,1
611,856,39,0.0771249371313383,1
612,854,39,0.0731490503912483,1
612,855,39,0.0791822244128162,1
612,856,39,0.0799851206199645,1
613,854,39,0.0793128763917025,1
613,855,39,0.0814721410357908,1
613,856,39,0.0801873931010305,1
614,851,39,0.0781243917505638,1
614,852,39,0.0748157720204926,1
614,853,39,0.0736101382209653,1
614,854,39,0.0778441660217601,1
614,855,39,0.0793814313167239,1
615,850,39,0.0881326878557877,1
615,851,39,0.108858881237011,1
615,852,39,0.0927919828080765,1
616,850,39,0.0915090700487578,1
616,851,39,0.107955078186259,1
616,852,39,0.091699031561236,1
617,850,39,0.0781806426584196,1
617,851,39,0.0843970561672684,1
598,862,40,0.0713127557706258,1
600,860,40,0.0705793459790639,1
601,859,40,0.0734011437147021,1
601,860,40,0.0773187914402079,1
602,856,40,0.0738950839653937,1
602,857,40,0.0811328560245918,1
602,858,40,0.0800684403655847,1
602,859,40,0.0788999688687511,1
602,860,40,0.0812843900755492,1
603,856,40,0.0880769165960587,1
603,857,40,0.0941974074309702,1
603,858,40,0.0866776370303258,1
603,859,40,0.0813652559691584,1
603,860,40,0.0835212603962689,1
603,861,40,0.0870740835856792,1
604,856,40,0.0866224288357892,1
604,857,40,0.0909007024384254,1
604,858,40,0.0838725783191706,1
604,859,40,0.0816329274295999,1
604,860,40,0.0853975952083458,1
605,856,40,0.0764528041258303,1
605,857,40,0.0816385858872117,1
605,858,40,0.0804306511669603,1
605,859,40,0.0816808644365911,1
605,860,40,0.0860776111265464,1
606,857,40,0.0748025434641839,1
606,858,40,0.0777067572605658,1
606,859,40,0.0798597795275836,1
607,857,40,0.0703636224961812,1
607,858,40,0.0761316275692734,1
607,859,40,0.0786942484823099,1
608,857,40,0.0706693182356601,1
608,858,40,0.0767186195565638,1
609,857,40,0.0726909169159354,1
609,858,40,0.0770809485321155,1
610,856,40,0.0736853526083849,1
610,857,40,0.0759465181494402,1
611,855,40,0.0740202860293321,1
611,856,40,0.0771571222157886,1
612,854,40,0.0778536964214969,1
612,855,40,0.0817521860276193,1
612,856,40,0.0810454975027155,1
613,853,40,0.0752001787127212,1
613,854,40,0.0823649747424248,1
613,855,40,0.0827690678621185,1
613,856,40,0.0805369592655561,1
614,850,40,0.0706755745155749,1
614,851,40,0.0912268631646477,1
614,852,40,0.0871810451179551,1
614,853,40,0.0819863238277177,1
614,854,40,0.0797058611388365,1
614,855,40,0.0795328054849724,1
615,850,40,0.1015160523352,1
615,851,40,0.127284668299268,1
615,852,40,0.109047236970977,1
615,853,40,0.0878925996383481,1
616,849,40,0.0724044210043726,1
616,850,40,0.100184688163652,1
616,851,40,0.119610743161525,1
616,852,40,0.103218566836978,1
617,849,40,0.0707178252592658,1
617,850,40,0.0794647163052335,1
617,851,40,0.0871464409386044,1
620,842,40,0.074723707385836,1
600,861,41,0.0735618744971341,1
601,859,41,0.0697534753217841,1
601,860,41,0.0753166358876232,1
601,861,41,0.0794413456240408,1
602,857,41,0.0731053815574433,1
602,858,41,0.0732254326175853,1
602,859,41,0.0741990418493408,1
602,860,41,0.0784336535695942,1
602,861,41,0.0824894955669947,1
603,856,41,0.0754856458138091,1
603,857,41,0.0802768161952787,1
603,858,41,0.0766977374844928,1
603,859,41,0.0752909156257515,1
603,860,41,0.0784248044092259,1
603,861,41,0.0818682191657715,1
604,856,41,0.073943243417893,1
604,857,41,0.077709767226347,1
604,858,41,0.0749566495413285,1
604,859,41,0.0757306625895371,1
604,860,41,0.0792590098216365,1
604,861,41,0.0820771511092356,1
605,857,41,0.0732022009648352,1
605,858,41,0.073711580324072,1
605,859,41,0.0755780441167278,1
605,860,41,0.078929401190039,1
606,857,41,0.0705566009258627,1
606,858,41,0.0732972547110066,1
606,859,41,0.0753456580750055,1
607,858,41,0.0738728463660078,1
607,859,41,0.0771286978507093,1
608,857,41,0.0708933834250958,1
608,858,41,0.0772813093720964,1
608,859,41,0.0807726263785226,1
609,857,41,0.0733787809897179,1
609,858,41,0.0791146009783598,1
610,856,41,0.0732175427534705,1
610,857,41,0.075369404132993,1
611,854,41,0.0722868724561966,1
611,855,41,0.0760539315241544,1
611,856,41,0.0772112876970061,1
612,854,41,0.0798410662992163,1
612,855,41,0.0815425728447867,1
612,856,41,0.0807281789854394,1
613,852,41,0.0767530847074719,1
613,853,41,0.0783212143166819,1
613,854,41,0.0809368398234405,1
613,855,41,0.0802973228905548,1
614,850,41,0.0810188179445902,1
614,851,41,0.107212999971305,1
614,852,41,0.106898899962473,1
614,853,41,0.0898975218569395,1
615,850,41,0.108278069063992,1
615,851,41,0.136841024646295,1
615,852,41,0.125964857391297,1
615,853,41,0.0962186098801842,1
616,849,41,0.074700322801799,1
616,850,41,0.1019408815471,1
616,851,41,0.121489281574416,1
616,852,41,0.112383238352809,1
617,849,41,0.0702619788018329,1
617,851,41,0.0878169681656009,1
599,862,42,0.0698832514214824,1
600,861,42,0.070484104544495,1
601,860,42,0.0719972414532543,1
601,861,42,0.076322534475161,1
601,862,42,0.0808713574269995,1
602,860,42,0.0752721120288966,1
602,861,42,0.0793524091293416,1
602,862,42,0.0838889280640145,1
603,860,42,0.0745513329713403,1
603,861,42,0.0786928234407738,1
603,862,42,0.084206816597905,1
604,859,42,0.0705771910382044,1
604,860,42,0.0747794716941428,1
604,861,42,0.0787642493031338,1
605,859,42,0.0699306462175477,1
605,860,42,0.0732129339606,1
605,861,42,0.076636467649861,1
606,859,42,0.0709161215268749,1
606,860,42,0.0747485795742081,1
607,858,42,0.0704230502039492,1
607,859,42,0.0748792663102052,1
608,858,42,0.0761116352792347,1
608,859,42,0.0810304476738095,1
609,857,42,0.0725299845422616,1
609,858,42,0.0792324414862652,1
610,855,42,0.0701461542063445,1
610,856,42,0.0722312193706438,1
610,857,42,0.0747886406199289,1
611,854,42,0.075969569065215,1
611,855,42,0.0784680353034368,1
611,856,42,0.077761506661242,1
612,854,42,0.0795250268436117,1
612,855,42,0.0810517468312081,1
613,851,42,0.0724315593563584,1
613,852,42,0.0804005098006154,1
613,853,42,0.0761188300011367,1
614,850,42,0.0857497055933701,1
614,851,42,0.115971048049787,1
614,852,42,0.116725555407506,1
614,853,42,0.0902645499938494,1
615,849,42,0.0702902571870475,1
615,850,42,0.106566698450422,1
615,851,42,0.135970650984555,1
615,852,42,0.130294022355329,1
615,853,42,0.0959573406795221,1
616,849,42,0.0743366313475104,1
616,850,42,0.0969283639822462,1
616,851,42,0.115263824265379,1
616,852,42,0.111471121401193,1
600,862,43,0.0738406543301354,1
601,861,43,0.0722915646661327,1
601,862,43,0.076396358578155,1
601,863,43,0.0843035525882313,1
602,860,43,0.0700373922557376,1
602,861,43,0.0747377979184884,1
602,862,43,0.0784662974479049,1
603,860,43,0.0699005535111578,1
603,861,43,0.0746925302575941,1
603,862,43,0.0790766531649658,1
604,860,43,0.0705053897990494,1
604,861,43,0.0754172368686524,1
605,860,43,0.0698670754621917,1
608,858,43,0.0760583248229389,1
609,857,43,0.0725656661920421,1
610,855,43,0.0714398694756492,1
610,856,43,0.0729765369483101,1
610,857,43,0.0755568561820832,1
611,854,43,0.0754888365165656,1
611,855,43,0.0789631294902016,1
611,856,43,0.0783174814029994,1
612,854,43,0.076361462439075,1
612,855,43,0.07928133778951,1
613,851,43,0.0751755081155907,1
613,852,43,0.0789861734545543,1
613,853,43,0.0729726928118736,1
614,850,43,0.0834237458466643,1
614,851,43,0.113024715586735,1
614,852,43,0.109710458253318,1
614,853,43,0.0852322834387317,1
615,850,43,0.095792084521285,1
615,851,43,0.123065836307244,1
615,852,43,0.11720676065286,1
615,853,43,0.0898697787312287,1
616,849,43,0.0707079194827341,1
616,850,43,0.0858330809503673,1
616,851,43,0.102327596111475,1
616,852,43,0.100151050231977,1
600,863,44,0.0801426398453737,1
601,862,44,0.0713635567635335,1
601,863,44,0.0783776668157793,1
602,862,44,0.0731869773503759,1
603,861,44,0.0701495673546091,1
604,861,44,0.0718908777432814,1
606,860,44,0.0702592955528916,1
607,859,44,0.0720782811324167,1
608,858,44,0.0746980705410297,1
609,857,44,0.0717265947841422,1
609,858,44,0.0789642834262748,1
610,855,44,0.070535899590767,1
610,856,44,0.0728544421700627,1
610,857,44,0.0752847149572137,1
611,854,44,0.0717499029025357,1
611,855,44,0.0766600677279838,1
611,856,44,0.0773762588469359,1
612,854,44,0.0715166826901581,1
612,855,44,0.0763165214950207,1
613,852,44,0.0708447234702033,1
614,850,44,0.0734370964699455,1
614,851,44,0.0951133407133338,1
614,852,44,0.0908777488425604,1
615,850,44,0.0807757684213243,1
615,851,44,0.100317682771796,1
615,852,44,0.0961827057848956,1
616,850,44,0.0748771808835669,1
599,863,45,0.07252782264998,1
600,863,45,0.0745842201494255,1
601,863,45,0.0737507793934489,1
602,862,45,0.0697924171885424,1
603,862,45,0.0724138262785111,1
604,861,45,0.0700773559815486,1
606,860,45,0.0707485088365366,1
607,859,45,0.0717275957889286,1
608,858,45,0.0720172198404487,1
609,857,45,0.0710069835655034,1
609,858,45,0.0766959370661617,1
610,856,45,0.0728419921730323,1
610,857,45,0.0754003518643047,1
611,855,45,0.0749729645290617,1
611,856,45,0.0772881426200477,1
612,855,45,0.0748612065155179,1
614,851,45,0.0731952634455519,1
614,852,45,0.0728042250966136,1
615,851,45,0.0774552130994601,1
615,852,45,0.0771883480039853,1
616,851,45,0.0752217906841156,1
599,864,46,0.0748919735098542,1
606,860,46,0.0699793687352394,1
607,859,46,0.0700621810270443,1
610,856,46,0.0718465068158416,1
610,857,46,0.073721993554419,1
611,855,46,0.072740348478684,1
611,856,46,0.0762526796342017,1
612,855,46,0.0728638543956233,1
607,859,47,0.0697430968485478,1
610,856,47,0.0728859529665667,1
610,857,47,0.0728517241640109,1
611,855,47,0.0724349933588894,1
611,856,47,0.0764428149322331,1
612,855,47,0.0724493967055375,1
594,866,48,0.0703718529799801,1
610,856,48,0.0752331215021834,1
611,855,48,0.0732024998759866,1
591,868,49,0.0713096693392011,1
592,867,49,0.0760596873016759,1
593,866,49,0.0706901446963541,1
594,866,49,0.0710567001365593,1
606,859,49,0.0706225490675863,1
609,857,49,0.0708707565460708,1
610,856,49,0.0745894893273982,1
611,855,49,0.0730512994932914,1
612,854,49,0.070403634881947,1
576,871,50,0.0848675214654354,1
583,870,50,0.0799225300151285,1
591,867,50,0.0703554128666486,1
591,868,50,0.0737478667475775,1
592,860,50,0.0709062435560317,1
592,866,50,0.0722078069809184,1
592,867,50,0.0770628470288954,1
593,866,50,0.0705917890246721,1
606,859,50,0.0734259811459636,1
607,858,50,0.0710655006369727,1
608,857,50,0.0715539423127615,1
609,856,50,0.0714883486935664,1
567,871,51,0.0715966240446243,1
567,872,51,0.0722030104996504,1
568,871,51,0.0766627926854578,1
568,872,51,0.0774836791730722,1
569,872,51,0.0755002368488547,1
570,871,51,0.0725219278440159,1
571,871,51,0.0716670002422432,1
572,871,51,0.0719509519333073,1
573,871,51,0.072488241252386,1
574,871,51,0.075749195080929,1
575,871,51,0.0810629108151449,1
576,870,51,0.0756374857273401,1
576,871,51,0.0859878891211467,1
576,872,51,0.0848388538005816,1
577,870,51,0.0800096730429189,1
577,871,51,0.088020554465449,1
578,870,51,0.0821753886067415,1
578,871,51,0.0905512405452317,1
579,871,51,0.0951221620680136,1
580,871,51,0.0975572938992317,1
581,870,51,0.0868944935950153,1
581,871,51,0.0962773285428952,1
582,870,51,0.0852803455713213,1
583,870,51,0.0835660692633027,1
587,869,51,0.0704443841184585,1
590,867,51,0.0703465150463254,1
590,868,51,0.0749994981073224,1
591,867,51,0.0751486547719122,1
591,868,51,0.0766727401705223,1
592,866,51,0.0724573004724965,1
592,867,51,0.0763959136871388,1
601,799,51,0.0800890791378813,1
602,800,51,0.0834151608403368,1
602,801,51,0.0841522687884706,1
604,860,51,0.0707936513718326,1
605,859,51,0.0725645400616574,1
606,858,51,0.0725398416588384,1
609,856,51,0.071575505624201,1
611,854,51,0.0698825145707369,1
567,870,52,0.0716320067832533,1
567,871,52,0.076877834928972,1
567,872,52,0.0759089248585747,1
568,870,52,0.0765821214316682,1
568,871,52,0.0830401872279352,1
568,872,52,0.0803546234631518,1
569,870,52,0.0730569301452147,1
569,871,52,0.0805369592655561,1
569,872,52,0.0774927090704158,1
570,871,52,0.0777602067453041,1
570,872,52,0.0762856432779303,1
571,871,52,0.077926707208102,1
572,871,52,0.0777152797040941,1
573,871,52,0.0774231044806531,1
574,871,52,0.0804157959778738,1
575,870,52,0.0741046484882714,1
575,871,52,0.0837471607611462,1
576,870,52,0.0788821801795269,1
576,871,52,0.0867286118087867,1
577,870,52,0.0824722629915406,1
577,871,52,0.0898857948078104,1
578,870,52,0.0855235758315625,1
578,871,52,0.0941247859240042,1
579,869,52,0.0704650506964435,1
579,870,52,0.0881641708466031,1
579,871,52,0.0975839178459801,1
580,869,52,0.0717727661299131,1
580,870,52,0.0893153333023393,1
580,871,52,0.0976440128902723,1
581,869,52,0.0735784119303754,1
581,870,52,0.0893530656216473,1
581,871,52,0.0953740259945372,1
582,869,52,0.0749610984514901,1
582,870,52,0.0881571985702092,1
583,869,52,0.0756638038115148,1
583,870,52,0.0870985943001008,1
584,869,52,0.0753713296769224,1
585,869,52,0.0768347430632037,1
586,869,52,0.0765409690126734,1
589,868,52,0.0741231809796634,1
590,867,52,0.0768186435695564,1
590,868,52,0.0789356991784865,1
591,866,52,0.0720160450501092,1
591,867,52,0.078594641554645,1
592,866,52,0.0720286757841149,1
601,799,52,0.0789263425643029,1
602,800,52,0.0756155122819951,1
602,801,52,0.0748461427837676,1
605,793,52,0.0712808835001712,1
605,794,52,0.0743900877836709,1
606,793,52,0.0759416034939961,1
606,794,52,0.0774308761705917,1
606,795,52,0.0697987012741456,1
607,793,52,0.0738337932764955,1
607,794,52,0.073404793211319,1
560,870,53,0.0704233282608343,1
560,871,53,0.0700358629428695,1
561,870,53,0.0697786742269963,1
561,871,53,0.069873032830955,1
566,871,53,0.0724677693142205,1
567,870,53,0.0765175774772144,1
567,871,53,0.0808672282822558,1
567,872,53,0.0785097507876239,1
568,870,53,0.0826110342314719,1
568,871,53,0.0872536388192326,1
568,872,53,0.0820835881261257,1
569,870,53,0.0795059729955602,1
569,871,53,0.0835498654983235,1
569,872,53,0.0788621809380661,1
570,870,53,0.0752716671378804,1
570,871,53,0.0804375956376656,1
570,872,53,0.0776850966292165,1
571,870,53,0.0728067276085795,1
571,871,53,0.0810425848568441,1
571,872,53,0.0806788030340678,1
572,870,53,0.0705447487511353,1
572,871,53,0.0801715716642683,1
573,870,53,0.0715229806786056,1
573,871,53,0.0797443442117343,1
574,870,53,0.0773537223363986,1
574,871,53,0.0826110272800498,1
575,870,53,0.0805741285196719,1
576,870,53,0.0810424319255573,1
577,870,53,0.0830415288524058,1
577,871,53,0.0916322353460129,1
578,869,53,0.0724269992234427,1
578,870,53,0.0868629202357122,1
578,871,53,0.0969509491527384,1
579,869,53,0.0763564921722538,1
579,870,53,0.0903452838104382,1
579,871,53,0.0990025779766045,1
580,869,53,0.0788077721570741,1
580,870,53,0.0915015764157044,1
580,871,53,0.0973571137962261,1
581,869,53,0.0822540995594912,1
581,870,53,0.0918513302686274,1
582,868,53,0.0740182840197594,1
582,869,53,0.0852168512816087,1
582,870,53,0.0909863370076141,1
583,868,53,0.0720215575278563,1
583,869,53,0.0836879137903536,1
583,870,53,0.0891455865254078,1
584,869,53,0.0794920284427724,1
585,868,53,0.0699257107078372,1
585,869,53,0.0785658279099265,1
586,868,53,0.0730954340723789,1
587,868,53,0.072345507701842,1
588,868,53,0.0738558640417503,1
589,867,53,0.0730396558612278,1
589,868,53,0.0762947635437616,1
590,866,53,0.0704774798392075,1
590,867,53,0.0771157195455972,1
591,866,53,0.0723135450628998,1
591,867,53,0.0768614017670626,1
592,866,53,0.0707163028978199,1
603,858,53,0.0700236910027243,1
605,793,53,0.071922750013736,1
605,794,53,0.0756591324558451,1
605,795,53,0.0702532478156407,1
606,793,53,0.075387067696619,1
606,794,53,0.0777958397351297,1
607,793,53,0.070641234490265,1
607,794,53,0.071321271262732,1
550,864,54,0.070060151211783,1
550,865,54,0.0701547322612498,1
551,864,54,0.0716499066952316,1
551,865,54,0.075047018028986,1
558,870,54,0.0707902868835229,1
559,869,54,0.0710309381661548,1
559,870,54,0.0744155299886575,1
559,871,54,0.0743269897250195,1
560,869,54,0.0715702990090275,1
560,870,54,0.0755620558458346,1
560,871,54,0.0753082107640047,1
561,869,54,0.0701219702087629,1
561,870,54,0.0749300812059572,1
561,871,54,0.0746856900582207,1
562,870,54,0.0739918408099864,1
562,871,54,0.0734280526697576,1
563,825,54,0.0775942206877437,1
563,870,54,0.0722442949956656,1
563,871,54,0.0718215373075596,1
564,825,54,0.0872525265916922,1
564,870,54,0.0709774330700394,1
564,871,54,0.0718499060612619,1
565,825,54,0.0807682747882708,1
565,870,54,0.0724193457076804,1
565,871,54,0.074165960031436,1
566,869,54,0.0712384381166607,1
566,870,54,0.0775409310857143,1
566,871,54,0.0796079225524821,1
567,869,54,0.0733214248057439,1
567,870,54,0.0840366040756911,1
567,871,54,0.0874036783144325,1
568,869,54,0.0745839351411183,1
568,870,54,0.0896914538993919,1
568,871,54,0.0934726452085349,1
568,872,54,0.0868560800363387,1
569,869,54,0.071912225560635,1
569,870,54,0.0866495463335085,1
569,871,54,0.088363002373716,1
570,870,54,0.0850643579343977,1
570,871,54,0.0853344484897396,1
571,870,54,0.0840972065737986,1
571,871,54,0.0859163937445654,1
572,870,54,0.080413189194576,1
572,871,54,0.0844439991208954,1
573,870,54,0.0807726124756784,1
573,871,54,0.0840190030748643,1
574,869,54,0.0716843718461398,1
574,870,54,0.0864011372637823,1
575,869,54,0.0745225332294661,1
575,870,54,0.0879199882415304,1
576,869,54,0.0729550222968255,1
576,870,54,0.0857420034176528,1
577,869,54,0.0746293418304552,1
577,870,54,0.0872093582602804,1
577,871,54,0.0978952581402265,1
578,869,54,0.0785934528614612,1
578,870,54,0.090588931156007,1
578,871,54,0.102171481073335,1
579,869,54,0.0830917876343877,1
579,870,54,0.0927068348384367,1
580,868,54,0.0745557193187028,1
580,869,54,0.0882931475327568,1
580,870,54,0.0939031606837352,1
581,867,54,0.0729162542156204,1
581,868,54,0.0845992938912237,1
581,869,54,0.0940933029331887,1
581,870,54,0.0944284657510661,1
582,867,54,0.0794051078604902,1
582,868,54,0.089941162885056,1
582,869,54,0.0970036756895755,1
582,870,54,0.0943121476046067,1
583,867,54,0.0716217673384595,1
583,868,54,0.0814665381895561,1
583,869,54,0.0902303907055148,1
583,870,54,0.0910408917684707,1
584,868,54,0.0745679746759136,1
584,869,54,0.0823576409920803,1
585,868,54,0.075532039605088,1
586,868,54,0.0762344182482728,1
587,868,54,0.074396476140606,1
588,867,54,0.0720790179831622,1
588,868,54,0.0758301096344931,1
589,867,54,0.0739178568242834,1
589,868,54,0.0767190992046906,1
590,866,54,0.0708052254896749,1
590,867,54,0.0744369195145438,1
591,866,54,0.0714010457830671,1
591,867,54,0.073816970834947,1
605,793,54,0.0707558286840368,1
605,794,54,0.0753359052297606,1
605,795,54,0.0699872585993541,1
606,793,54,0.0733245668485455,1
606,794,54,0.0764783853592595,1
549,864,55,0.0706199909442434,1
550,863,55,0.0710113490585995,1
550,864,55,0.0834240308549715,1
550,865,55,0.07664404469998,1
551,864,55,0.0810763687683837,1
551,865,55,0.0785626650128585,1
559,869,55,0.074530708101888,1
559,870,55,0.0774966157696514,1
560,868,55,0.0699507427789183,1
560,869,55,0.0757301829414103,1
560,870,55,0.0784798179639429,1
560,871,55,0.0792434177818045,1
561,869,55,0.0744972926157212,1
561,870,55,0.0774992851157484,1
561,871,55,0.07795636892632,1
562,869,55,0.0740062372052124,1
562,870,55,0.0769029365142744,1
562,871,55,0.0768346596461381,1
563,824,55,0.117563952527459,1
563,825,55,0.0769400640598574,1
563,869,55,0.0729549597340264,1
563,870,55,0.075338922146964,1
563,871,55,0.0754837550269904,1
564,824,55,0.124942205876432,1
564,825,55,0.0843956658828428,1
564,869,55,0.0734600709200769,1
564,870,55,0.0751880554325308,1
564,871,55,0.076421328086437,1
565,824,55,0.101665264611166,1
565,825,55,0.080947496353562,1
565,869,55,0.0764943388730421,1
565,870,55,0.0787644717486419,1
565,871,55,0.0806090941729732,1
566,825,55,0.0701885787355886,1
566,869,55,0.080241120642654,1
566,870,55,0.0850050484008059,1
566,871,55,0.0869560970979092,1
567,869,55,0.0804137105512355,1
567,870,55,0.0897638321065834,1
567,871,55,0.0927850939487481,1
568,869,55,0.0798546354752092,1
568,870,55,0.0916673678334453,1
568,871,55,0.0954294357803155,1
569,869,55,0.0785384115010556,1
569,870,55,0.0882859597622769,1
569,871,55,0.090012095196445,1
570,869,55,0.0800977197555858,1
570,870,55,0.0895540242839312,1
570,871,55,0.0894231846166474,1
571,869,55,0.0789953423803404,1
571,870,55,0.0904703051374013,1
571,871,55,0.0909640994082282,1
572,869,55,0.0751633987382446,1
572,870,55,0.0870954175001885,1
572,871,55,0.0893950035513425,1
573,869,55,0.076579931733698,1
573,870,55,0.0868459865714096,1
573,871,55,0.0883312760831261,1
574,869,55,0.0822921585956392,1
574,870,55,0.0906984925201586,1
574,871,55,0.0896004041723659,1
575,869,55,0.082416019035107,1
575,870,55,0.0907835431698885,1
576,869,55,0.0790432307273768,1
576,870,55,0.0892491001523084,1
577,869,55,0.080213537399652,1
577,870,55,0.0919952386095109,1
578,869,55,0.0838133869597549,1
578,870,55,0.0944600391103692,1
579,868,55,0.0808102405236545,1
579,869,55,0.0919065037060534,1
579,870,55,0.0957530522860391,1
580,867,55,0.0739121983666716,1
580,868,55,0.0982950413782012,1
580,869,55,0.103652961205726,1
580,870,55,0.0980760368240743,1
581,867,55,0.0848722553839042,1
581,868,55,0.108401025818583,1
581,869,55,0.109191868259762,1
581,870,55,0.098398130968352,1
582,867,55,0.0852052563095,1
582,868,55,0.102660576182804,1
582,869,55,0.102962114971851,1
583,867,55,0.076627361286874,1
583,868,55,0.086854731460446,1
583,869,55,0.0899347745281208,1
584,867,55,0.0723695109624483,1
584,868,55,0.0783905060924488,1
585,867,55,0.0717598295333338,1
585,868,55,0.0766730182274074,1
586,867,55,0.0699986172231104,1
586,868,55,0.0750283048006188,1
587,867,55,0.0708079504471488,1
587,868,55,0.0750207764104547,1
588,824,55,0.0804369839125184,1
588,866,55,0.0701767057065948,1
588,867,55,0.073352782670961,1
588,868,55,0.076856076977713,1
589,824,55,0.0751453597978237,1
589,866,55,0.0702859403539064,1
589,867,55,0.0723489556072173,1
590,866,55,0.0705933739489172,1
590,867,55,0.0716148367705984,1
591,866,55,0.0710113421071774,1
601,858,55,0.0723947724304596,1
605,794,55,0.0710007689941214,1
606,794,55,0.0702867814759838,1
620,811,55,0.0708372576428384,1
549,863,56,0.0715955048656618,1
549,864,56,0.0768640572103153,1
550,863,56,0.0798602313700219,1
550,864,56,0.0898431200273697,1
550,865,56,0.0775766474926054,1
551,863,56,0.0717153890916727,1
551,864,56,0.0824853872765173,1
551,865,56,0.0752161739350366,1
558,868,56,0.0699547746037523,1
558,869,56,0.0722315808445945,1
559,867,56,0.0726767638204838,1
559,868,56,0.0755702724267893,1
559,869,56,0.0777669009648129,1
560,866,56,0.0748688808855467,1
560,867,56,0.0760711988567191,1
560,868,56,0.0776158674162487,1
560,869,56,0.0794434658077897,1
560,870,56,0.0831189468406398,1
561,866,56,0.0811954883379606,1
561,867,56,0.0774426935882084,1
561,868,56,0.0763499300297654,1
561,869,56,0.0785677465024337,1
561,870,56,0.0822870423489534,1
562,824,56,0.0772481441371261,1
562,865,56,0.0724957974482386,1
562,866,56,0.0832553963055805,1
562,867,56,0.0759735383272498,1
562,868,56,0.0741774507322128,1
562,869,56,0.0783692694978493,1
562,870,56,0.0819086208311765,1
563,824,56,0.102056747851121,1
563,825,56,0.0732746625890922,1
563,866,56,0.0780294700814128,1
563,867,56,0.0720365656482296,1
563,868,56,0.0727387913601275,1
563,869,56,0.0782121186978129,1
563,870,56,0.0805382244243833,1
563,871,56,0.08202733721827,1
564,824,56,0.104257255282692,1
564,825,56,0.0790780225951249,1
564,868,56,0.0741376677433771,1
564,869,56,0.0807994102079799,1
564,870,56,0.0817591235469025,1
564,871,56,0.0832534012474299,1
565,824,56,0.0882005615414406,1
565,825,56,0.0784070643799565,1
565,868,56,0.0763357977885802,1
565,869,56,0.0853069417123811,1
565,870,56,0.087679469035919,1
565,871,56,0.0889475057518847,1
566,824,56,0.0725256538062762,1
566,868,56,0.0767431441738296,1
566,869,56,0.0893311547391014,1
566,870,56,0.0950211787587674,1
566,871,56,0.0957143606704774,1
567,868,56,0.0728304041523458,1
567,869,56,0.0876498003662788,1
567,870,56,0.0972124129932201,1
567,871,56,0.098695707446786,1
568,869,56,0.0852629600645804,1
568,870,56,0.0952743704069173,1
568,871,56,0.0981078326288855,1
569,869,56,0.0852901957364759,1
569,870,56,0.0921711304436031,1
569,871,56,0.0944318441422201,1
570,868,56,0.070076069968455,1
570,869,56,0.0894821674333993,1
570,870,56,0.0943339403129764,1
570,871,56,0.0956400430165124,1
571,869,56,0.08910546986831,1
571,870,56,0.0952541904284812,1
571,871,56,0.0970691372317502,1
572,869,56,0.0852034697940132,1
572,870,56,0.0923137597228151,1
572,871,56,0.0946907081508261,1
573,869,56,0.0855482394772708,1
573,870,56,0.0919319250567737,1
574,868,56,0.0716141694340742,1
574,869,56,0.0895325930495121,1
574,870,56,0.0945700175598484,1
575,868,56,0.0720938662208265,1
575,869,56,0.0892952436923908,1
575,870,56,0.0953263044816319,1
576,868,56,0.0729663044549384,1
576,869,56,0.0879711159512782,1
577,868,56,0.077007263457564,1
577,869,56,0.0915313354538322,1
577,870,56,0.102560538266967,1
578,868,56,0.0838855288185941,1
578,869,56,0.0971310326943734,1
578,870,56,0.104988996732943,1
579,868,56,0.0976119598828424,1
579,869,56,0.106152157343271,1
579,870,56,0.104361950651354,1
580,867,56,0.0814960400250652,1
580,868,56,0.117131115277268,1
580,869,56,0.118451885481493,1
580,870,56,0.105253658227603,1
581,867,56,0.0881129736226341,1
581,868,56,0.120542080795323,1
581,869,56,0.117557710150389,1
582,867,56,0.0833823709821614,1
582,868,56,0.103746464784763,1
582,869,56,0.102018111846936,1
583,867,56,0.0781028214877022,1
583,868,56,0.0874979535013257,1
583,869,56,0.088290540749459,1
584,867,56,0.0770326639540178,1
584,868,56,0.0810571133290906,1
585,867,56,0.0757583153467603,1
585,868,56,0.0785276715538686,1
586,867,56,0.0729672567997699,1
586,868,56,0.0765841929554622,1
587,824,56,0.069744473230129,1
587,866,56,0.0699286789650856,1
587,867,56,0.0733993015878383,1
587,868,56,0.0774186347162251,1
588,823,56,0.0705651720293459,1
588,824,56,0.0863437393712756,1
588,866,56,0.0722364955000386,1
588,867,56,0.0744730460553404,1
589,824,56,0.0724188313024429,1
589,866,56,0.0709845791319865,1
589,867,56,0.0722363495201739,1
590,866,56,0.0708061291745514,1
591,866,56,0.0713083277147305,1
620,811,56,0.0706917087663328,1
620,812,56,0.0706568612872076,1
549,863,57,0.0755584480577504,1
550,862,57,0.0712730353445892,1
550,863,57,0.0831725840137756,1
550,864,57,0.0852050547182583,1
551,863,57,0.0742773357167628,1
551,864,57,0.076345057082854,1
557,867,57,0.070172951938646,1
557,868,57,0.071381463626934,1
558,866,57,0.0775955831664807,1
558,867,57,0.0792430354535875,1
558,868,57,0.076714434800443,1
559,865,57,0.0756917693827337,1
559,866,57,0.0881389649899688,1
559,867,57,0.0874224888627095,1
559,868,57,0.0818304798950413,1
560,865,57,0.0812940734065728,1
560,866,57,0.0936429411478144,1
560,867,57,0.0894955697752611,1
560,868,57,0.0828796371824785,1
560,869,57,0.081514676787789,1
561,865,57,0.0878284102064228,1
561,866,57,0.0979103635805096,1
561,867,57,0.0879464453541477,1
561,868,57,0.0807235632411467,1
561,869,57,0.0806765646761427,1
562,823,57,0.075903871174688,1
562,824,57,0.0697593423220597,1
562,865,57,0.0896432318840934,1
562,866,57,0.0984237747645804,1
562,867,57,0.0847584119437222,1
562,868,57,0.0785124340365651,1
562,869,57,0.080778319593245,1
563,823,57,0.0962285990737814,1
563,824,57,0.0835534524321413,1
563,865,57,0.0780401057572679,1
563,866,57,0.086958050447527,1
563,867,57,0.0785458008627772,1
563,868,57,0.0779595526776544,1
563,869,57,0.0819708847191726,1
563,870,57,0.0845996414623301,1
564,823,57,0.0944120603948452,1
564,824,57,0.0833350178946289,1
564,866,57,0.0701679747204027,1
564,867,57,0.0721153947751554,1
564,868,57,0.0802986367093369,1
564,869,57,0.0859880559552778,1
564,870,57,0.0869448914054396,1
565,823,57,0.0783440844954814,1
565,824,57,0.0744848356672687,1
565,868,57,0.0825257263791232,1
565,869,57,0.0910025407725933,1
565,870,57,0.0935935721478649,1
566,868,57,0.0828577054456662,1
566,869,57,0.0946214441807477,1
566,870,57,0.100316598349944,1
567,868,57,0.0794208319773426,1
567,869,57,0.0923380340888843,1
567,870,57,0.10033537414111,1
568,868,57,0.0769727913552337,1
568,869,57,0.0897143518838799,1
568,870,57,0.0975555768979662,1
569,868,57,0.07692242830192,1
569,869,57,0.0900063602731898,1
569,870,57,0.0959289371687091,1
570,868,57,0.0790859402649282,1
570,869,57,0.0935111769413876,1
570,870,57,0.0978758567210687,1
571,868,57,0.0788589207210883,1
571,869,57,0.0930407255460648,1
571,870,57,0.0982427041210032,1
572,868,57,0.0784525405835146,1
572,869,57,0.090699333642236,1
572,870,57,0.09631750081137,1
573,868,57,0.0788322620172293,1
573,869,57,0.0893401637821787,1
573,870,57,0.0944698753726796,1
574,868,57,0.0798867162883276,1
574,869,57,0.0900466715701072,1
575,868,57,0.0792725303376745,1
575,869,57,0.0904388777579628,1
576,868,57,0.08258410442215,1
576,869,57,0.0962611664864487,1
577,868,57,0.0902921957996504,1
577,869,57,0.107372298760778,1
577,870,57,0.111572480087234,1
578,868,57,0.100239194264554,1
578,869,57,0.116972567241384,1
579,867,57,0.0747743276417684,1
579,868,57,0.108387255051348,1
579,869,57,0.119266119458132,1
580,867,57,0.0836715779483539,1
580,868,57,0.118645691130408,1
580,869,57,0.122005897364087,1
581,867,57,0.0865194643712366,1
581,868,57,0.114312932281136,1
581,869,57,0.11333020278355,1
582,867,57,0.0811621493174371,1
582,868,57,0.0968397750586533,1
582,869,57,0.0960736240688709,1
583,867,57,0.0787144979749673,1
583,868,57,0.0856257269797261,1
584,866,57,0.0704401785080713,1
584,867,57,0.078412104160999,1
584,868,57,0.0814616582912225,1
585,866,57,0.072115756249106,1
585,867,57,0.0773226216738001,1
585,868,57,0.0793117919698506,1
586,866,57,0.0721787361335812,1
586,867,57,0.0748669761958837,1
587,866,57,0.0719413172622386,1
587,867,57,0.07409464539183,1
588,824,57,0.0753795671121435,1
588,866,57,0.0721174176389945,1
588,867,57,0.0735660940103655,1
589,865,57,0.0703329250160661,1
589,866,57,0.0712352682681705,1
590,865,57,0.0703236101104153,1
590,866,57,0.07151842054569,1
549,862,58,0.0699102646478699,1
550,862,58,0.0756858884796139,1
550,863,58,0.0825325874327631,1
551,862,58,0.0710984086693243,1
551,863,58,0.0748573832333478,1
557,866,58,0.0766763549100286,1
557,867,58,0.0805134982158758,1
558,865,58,0.0777341736694366,1
558,866,58,0.0905820840052114,1
558,867,58,0.0905665128196459,1
559,865,58,0.0938729080946363,1
559,866,58,0.111171403884744,1
559,867,58,0.102357327343914,1
559,868,58,0.0868673482916074,1
560,864,58,0.0713746442818269,1
560,865,58,0.106053426294794,1
560,866,58,0.121966733051821,1
560,867,58,0.105760583734829,1
560,868,58,0.0861552237545999,1
561,864,58,0.073764633577749,1
561,865,58,0.108631743518995,1
561,866,58,0.118541725661069,1
561,867,58,0.0994213038398766,1
561,868,58,0.0834227865504107,1
562,864,58,0.069906288434413,1
562,865,58,0.0992532115014115,1
562,866,58,0.105578651114908,1
562,867,58,0.0900783492007422,1
562,868,58,0.081668483953782,1
563,865,58,0.0808887637880068,1
563,866,58,0.0884987914535546,1
563,867,58,0.0830523105081256,1
563,868,58,0.0833638941021465,1
563,869,58,0.0886880856295086,1
564,866,58,0.072874629099921,1
564,867,58,0.0782735553665757,1
564,868,58,0.0872828417435902,1
564,869,58,0.0962411394392994,1
565,867,58,0.0759078682424113,1
565,868,58,0.0901065094117807,1
565,869,58,0.101850401836688,1
566,867,58,0.0743825941506174,1
566,868,58,0.0905962857606179,1
566,869,58,0.103007653738208,1
567,867,58,0.0718899462527163,1
567,868,58,0.0874216616434764,1
567,869,58,0.0985990131649925,1
568,867,58,0.0703033328120694,1
568,868,58,0.0851411641974845,1
568,869,58,0.0958029913026031,1
569,868,58,0.0841151551457318,1
569,869,58,0.0948233690907073,1
569,870,58,0.101429194315716,1
570,868,58,0.0865020093502745,1
570,869,58,0.0971356901471989,1
571,868,58,0.0874574962245436,1
571,869,58,0.0970049199941363,1
571,870,58,0.101979149125911,1
572,867,58,0.0716052507594846,1
572,868,58,0.0873209007797382,1
572,869,58,0.095217813636488,1
572,870,58,0.0997840846578666,1
573,867,58,0.0733002160168329,1
573,868,58,0.0860303553589236,1
573,869,58,0.0918519489451968,1
574,867,58,0.074586319478908,1
574,868,58,0.085616565005362,1
574,869,58,0.0906049333297445,1
575,867,58,0.0739383426652931,1
575,868,58,0.0851258502145376,1
575,869,58,0.0934338701759077,1
576,867,58,0.073613120381058,1
576,868,58,0.0896510869910975,1
576,869,58,0.104894005549571,1
577,867,58,0.0755198190049879,1
577,868,58,0.099240643330205,1
577,869,58,0.12060539434806,1
578,867,58,0.078570978913723,1
578,868,58,0.108851304186892,1
578,869,58,0.129451454382099,1
579,867,58,0.0811839628800732,1
579,868,58,0.110117554387371,1
579,869,58,0.123832314013867,1
580,867,58,0.0847396361525558,1
580,868,58,0.109479810067127,1
580,869,58,0.115512587857634,1
581,866,58,0.0730069077115852,1
581,867,58,0.0855241875567097,1
581,868,58,0.102131461736147,1
582,866,58,0.0723780890173536,1
582,867,58,0.0811996522398149,1
582,868,58,0.0905923582071159,1
583,866,58,0.0720967510610095,1
583,867,58,0.0794435283705889,1
584,866,58,0.0739926332721089,1
584,867,58,0.0795928866264203,1
585,866,58,0.07653893224599,1
585,867,58,0.0800596885251262,1
586,866,58,0.0755176154041735,1
586,867,58,0.0776664598664926,1
587,866,58,0.0728964148568686,1
588,864,58,0.0699679058401511,1
588,865,58,0.0709001958187808,1
588,866,58,0.071544321544537,1
589,864,58,0.0756562128585516,1
589,865,58,0.0730837626346268,1
589,866,58,0.0717139501472923,1
590,864,58,0.0728424718211591,1
590,865,58,0.0715025087404401,1
621,820,58,0.0774308622677474,1
621,821,58,0.0784045618679906,1
622,820,58,0.0708503541221266,1
622,821,58,0.0703496501377049,1
550,862,59,0.0736401753159783,1
551,862,59,0.0701878001763103,1
551,863,59,0.0714585618497501,1
557,865,59,0.0753189993711466,1
557,866,59,0.0838139291706809,1
558,865,59,0.0855138716462725,1
558,866,59,0.0985707417312,1
559,864,59,0.075106883676348,1
559,865,59,0.105416467485251,1
559,866,59,0.12373456311591,1
559,867,59,0.107792637353984,1
560,864,59,0.0843194226849484,1
560,865,59,0.124652192545273,1
560,866,59,0.143121954303909,1
560,867,59,0.114738060404188,1
561,864,59,0.0844984843675307,1
561,865,59,0.117148410415522,1
561,866,59,0.127209245369185,1
561,867,59,0.102251422427801,1
562,864,59,0.0771340226400589,1
562,865,59,0.0981563605067576,1
562,866,59,0.102237540437813,1
562,867,59,0.0896340351526188,1
562,868,59,0.0829580978840316,1
563,865,59,0.0793399660837334,1
563,866,59,0.0847885880671777,1
563,867,59,0.0836995991309499,1
563,868,59,0.084878129335602,1
564,866,59,0.0760518321946718,1
564,867,59,0.0823672826145711,1
564,868,59,0.0890155045631359,1
565,866,59,0.0715879417183871,1
565,867,59,0.0822296444564466,1
565,868,59,0.0930827121357149,1
566,867,59,0.0812707166282244,1
566,868,59,0.0945573590201542,1
566,869,59,0.107696951028399,1
567,867,59,0.0793257643283269,1
567,868,59,0.0935428615234448,1
568,867,59,0.0772379046923323,1
568,868,59,0.0903484467075062,1
569,867,59,0.0752606560852304,1
569,868,59,0.0879852481924634,1
569,869,59,0.0969902455420252,1
570,867,59,0.0762448870899968,1
570,868,59,0.0897087768433336,1
570,869,59,0.0978520411488599,1
571,867,59,0.0774849651861658,1
571,868,59,0.0911807057217211,1
571,869,59,0.0981997651865217,1
572,867,59,0.0790782380892109,1
572,868,59,0.090580916166294,1
572,869,59,0.0965343504246374,1
573,867,59,0.0799781900521034,1
573,868,59,0.0875525360678708,1
574,866,59,0.0705680777237952,1
574,867,59,0.0810521013537366,1
574,868,59,0.0869461496128447,1
575,867,59,0.0796393429804984,1
575,868,59,0.087611977678483,1
576,867,59,0.0801745260186725,1
576,868,59,0.0944990018313939,1
577,867,59,0.0826573446056853,1
577,868,59,0.10435413030146,1
577,869,59,0.123740138156456,1
578,867,59,0.0838043779166777,1
578,868,59,0.109318217308352,1
578,869,59,0.127774409890995,1
579,867,59,0.0842332250505674,1
579,868,59,0.104268169015432,1
580,865,59,0.0712923672495258,1
580,866,59,0.0736206557226443,1
580,867,59,0.0839148499171279,1
580,868,59,0.0974603771719301,1
581,865,59,0.0748111354219335,1
581,866,59,0.0767089501283844,1
581,867,59,0.0835137667632154,1
581,868,59,0.0913755749382213,1
582,866,59,0.074206361696841,1
582,867,59,0.08006960125308,1
583,866,59,0.0728481789387258,1
583,867,59,0.0784937208081979,1
584,866,59,0.0747315694442622,1
584,867,59,0.0795348144459672,1
585,866,59,0.0765178277284109,1
586,865,59,0.0717134357420549,1
586,866,59,0.0758251741247826,1
587,865,59,0.0712390637446521,1
588,864,59,0.0734957595212795,1
588,865,59,0.0729725954919638,1
589,863,59,0.0749733816143894,1
589,864,59,0.0806860603187689,1
589,865,59,0.0764545002728294,1
590,863,59,0.0717169601130735,1
590,864,59,0.0781251425041536,1
590,865,59,0.0753087043149757,1
619,812,59,0.0718982949106915,1
620,821,59,0.0759217154752893,1
621,820,59,0.0777441559116117,1
621,821,59,0.0817216831873238,1
621,822,59,0.0715047957583201,1
622,821,59,0.0708468436539522,1
556,865,60,0.073132241852544,1
557,865,60,0.0794101406901105,1
558,864,60,0.070503297420989,1
558,865,60,0.088639474334571,1
558,866,60,0.10040363015498,1
559,864,60,0.0781304116821263,1
559,865,60,0.10599714758125,1
559,866,60,0.121509023613258,1
559,867,60,0.102887915492062,1
560,864,60,0.0907380669663304,1
560,865,60,0.125895968798013,1
560,866,60,0.141756111078609,1
560,867,60,0.110525540303456,1
561,864,60,0.0904152637769957,1
561,865,60,0.112037064482281,1
561,866,60,0.119306409900783,1
561,867,60,0.0958930817333755,1
562,864,60,0.0825142495811907,1
562,865,60,0.0928150962866504,1
562,866,60,0.0953500852967301,1
562,867,60,0.0868152334799175,1
563,864,60,0.0707436150353588,1
563,865,60,0.0786182902927227,1
563,866,60,0.083775932697332,1
563,867,60,0.0842908940485372,1
564,865,60,0.0722321856183195,1
564,866,60,0.0805636179694151,1
564,867,60,0.0852542290783882,1
565,866,60,0.0788046370656946,1
565,867,60,0.0866599109039007,1
566,866,60,0.0767882867091256,1
566,867,60,0.0873437431528492,1
566,868,60,0.0976187236165725,1
567,866,60,0.0745680233358685,1
567,867,60,0.0857615160595647,1
567,868,60,0.097596729316961,1
568,866,60,0.0724879284383903,1
568,867,60,0.0828379634068241,1
568,868,60,0.0932066073322933,1
569,866,60,0.071866700697122,1
569,867,60,0.0810627578838581,1
569,868,60,0.0901640254784636,1
570,866,60,0.0726991891082671,1
570,867,60,0.082614586408179,1
570,868,60,0.0918895491874844,1
571,866,60,0.0734733620391847,1
571,867,60,0.083680580040009,1
571,868,60,0.0937076797420878,1
572,866,60,0.0763408306182005,1
572,867,60,0.0842513821651645,1
572,868,60,0.0922879768981442,1
573,866,60,0.0793943748647253,1
573,867,60,0.0843604638811892,1
573,868,60,0.0886462172140346,1
574,866,60,0.0765518479883029,1
574,867,60,0.0830713365504886,1
574,868,60,0.087623530942059,1
575,866,60,0.0707612855504069,1
575,867,60,0.0810048664403803,1
575,868,60,0.0894435939920138,1
576,867,60,0.0821529841732245,1
576,868,60,0.0965735772997028,1
577,867,60,0.0852110120870216,1
577,868,60,0.104676078465873,1
578,866,60,0.0698608469879655,1
578,867,60,0.0869322467685897,1
578,868,60,0.106232995431192,1
579,866,60,0.076431581434075,1
579,867,60,0.0894797344356546,1
579,868,60,0.101831347988637,1
580,865,60,0.0753742631770602,1
580,866,60,0.0807984092031935,1
580,867,60,0.0883184507093009,1
580,868,60,0.0953256301936855,1
581,865,60,0.0763430272675928,1
581,866,60,0.0801693472091875,1
581,867,60,0.0852155235599823,1
582,866,60,0.0754066846098628,1
582,867,60,0.0807290131560947,1
583,866,60,0.0730012492539734,1
584,866,60,0.0734085122221572,1
586,865,60,0.0700188736671899,1
587,865,60,0.0704800310111283,1
588,864,60,0.0740459228741383,1
588,865,60,0.0736343152671248,1
589,863,60,0.0753386649443452,1
589,864,60,0.0821735186741892,1
589,865,60,0.0781887202109317,1
590,863,60,0.0728880175389385,1
590,864,60,0.0817563638323179,1
590,865,60,0.0783382800580049,1
591,864,60,0.0726313849368355,1
597,809,60,0.0728664333732326,1
597,810,60,0.0766177822271823,1
598,809,60,0.0723436169150234,1
598,810,60,0.0747787000862866,1
602,795,60,0.0703624268515752,1
618,812,60,0.0720372051790653,1
618,813,60,0.0745134616235897,1
619,812,60,0.077018768061185,1
619,813,60,0.0767078239979998,1
619,822,60,0.0735696183813842,1
619,823,60,0.0723807931205612,1
620,820,60,0.0718086563223573,1
620,821,60,0.0799469017011075,1
620,822,60,0.0799311358757224,1
620,823,60,0.0742268961978057,1
621,820,60,0.0753089615175944,1
621,821,60,0.0804878474682253,1
621,822,60,0.074948446863218,1
622,821,60,0.0703518467870972,1
557,865,61,0.0797034420439361,1
558,864,61,0.0706790780323271,1
558,865,61,0.0859267652663796,1
559,864,61,0.0762630163989053,1
559,865,61,0.0952422756909547,1
559,866,61,0.106113361456377,1
560,864,61,0.0861162401793089,1
560,865,61,0.106928172401052,1
560,866,61,0.116217392547141,1
561,864,61,0.0866515691973476,1
561,865,61,0.0961799391188889,1
561,866,61,0.0997937193289353,1
562,864,61,0.0822394946216013,1
562,865,61,0.0861799638659517,1
562,866,61,0.0885060209325672,1
563,864,61,0.0740591027704921,1
563,865,61,0.079432086329767,1
563,866,61,0.0854101633795523,1
564,865,61,0.0764549312610013,1
564,866,61,0.0846390073658381,1
564,867,61,0.0883726092390962,1
565,865,61,0.0745504292864638,1
565,866,61,0.0838903461541285,1
565,867,61,0.0906004010025174,1
566,865,61,0.0721523624380295,1
566,866,61,0.08211915160173,1
566,867,61,0.0913738162284231,1
567,866,61,0.0796522656742334,1
567,867,61,0.089189484756143,1
568,866,61,0.077980629389545,1
568,867,61,0.0863159406341877,1
569,866,61,0.0776761084404056,1
569,867,61,0.0846986783733806,1
569,868,61,0.0907982662819546,1
570,866,61,0.0785220826104781,1
570,867,61,0.085391769916603,1
570,868,61,0.0918086832938752,1
571,865,61,0.0702785648950291,1
571,866,61,0.0794222778731451,1
571,867,61,0.0856053245557819,1
571,868,61,0.0929001399849582,1
572,865,61,0.0730538645680564,1
572,866,61,0.082264888166633,1
572,867,61,0.0854576554955274,1
572,868,61,0.0910845188937429,1
573,865,61,0.0762261947158959,1
573,866,61,0.0856709668349319,1
573,867,61,0.0855807582299833,1
573,868,61,0.0879622459366435,1
574,865,61,0.0706818655526002,1
574,866,61,0.0796280816766519,1
574,867,61,0.0823919045517467,1
574,868,61,0.0864178623854211,1
575,866,61,0.0726596355163616,1
575,867,61,0.0804634966365127,1
575,868,61,0.0880868293240126,1
576,867,61,0.0807516052780091,1
577,867,61,0.0830051451089905,1
578,866,61,0.0742581984516458,1
578,867,61,0.0862081518826787,1
579,865,61,0.0698196806661264,1
579,866,61,0.0815828771902819,1
579,867,61,0.0904159172106757,1
580,865,61,0.0746432724803987,1
580,866,61,0.0832466236108556,1
580,867,61,0.0886852007893256,1
581,865,61,0.0731883537319572,1
581,866,61,0.0796133099046309,1
582,866,61,0.0747061133364313,1
588,864,61,0.0712027356126138,1
589,863,61,0.0703003367491324,1
589,864,61,0.0772644382705929,1
590,863,61,0.070023183548909,1
590,864,61,0.0791814806106485,1
596,809,61,0.0713604842349532,1
596,810,61,0.076544270938184,1
597,809,61,0.0793916360044071,1
597,810,61,0.0858174472020025,1
597,811,61,0.0742288495474235,1
598,809,61,0.073030834506548,1
598,810,61,0.0762434203399279,1
601,796,61,0.0707618555670214,1
618,812,61,0.0781839098268195,1
618,813,61,0.0854677281061901,1
618,822,61,0.0716137940572793,1
618,823,61,0.0751186315797435,1
619,812,61,0.0750667322621396,1
619,813,61,0.0810032120019139,1
619,821,61,0.0730837626346268,1
619,822,61,0.083966540692068,1
619,823,61,0.0843192210937067,1
619,824,61,0.0752122046730018,1
620,820,61,0.0698809783064467,1
620,821,61,0.0785499022018324,1
620,822,61,0.0831826705272826,1
620,823,61,0.0793635383561677,1
620,824,61,0.0718137239090883,1
621,821,61,0.0737410960624253,1
621,822,61,0.0737252259657082,1
557,864,62,0.0702111569546587,1
558,864,62,0.0723593410318758,1
559,864,62,0.0747730138229863,1
559,865,62,0.0854790797785244,1
560,864,62,0.0789827394520233,1
560,865,62,0.0874946932843479,1
561,864,62,0.0801741297876113,1
561,865,62,0.0825934888420221,1
562,864,62,0.0793252499230895,1
562,865,62,0.0810645374479227,1
563,864,62,0.0757180040498429,1
563,865,62,0.0806467639294821,1
564,864,62,0.0729868250530588,1
564,865,62,0.0795788934136777,1
564,866,62,0.086830742102684,1
565,864,62,0.0713313299705504,1
565,865,62,0.0788811930775848,1
565,866,62,0.087400869939893,1
566,865,62,0.0763733910794457,1
566,866,62,0.0861827166291142,1
567,865,62,0.0730034598062099,1
567,866,62,0.0834878240558356,1
568,865,62,0.0710591748428367,1
568,866,62,0.0819273966223429,1
569,865,62,0.0713399566854107,1
569,866,62,0.0819056873310387,1
569,867,62,0.0865945536330579,1
570,865,62,0.0730347968171607,1
570,866,62,0.0825415339130412,1
570,867,62,0.086979370459192,1
571,865,62,0.074441507453148,1
571,866,62,0.0827102171223871,1
571,867,62,0.0867064367722,1
572,865,62,0.0763356448572934,1
572,866,62,0.0838618453234057,1
572,867,62,0.0857525000650653,1
573,865,62,0.0790119632306473,1
573,866,62,0.0861219264426092,1
573,867,62,0.0856414928051113,1
574,865,62,0.0733375799107682,1
574,866,62,0.0802625935856058,1
574,867,62,0.082525114653976,1
575,866,62,0.0740182909711815,1
575,867,62,0.0806680561354586,1
576,866,62,0.0699167781304033,1
577,866,62,0.071310753761053,1
578,866,62,0.0780673275263192,1
579,865,62,0.0721715136059907,1
579,866,62,0.0843204723496897,1
580,865,62,0.0721899765831614,1
580,866,62,0.0818680036716856,1
596,808,62,0.0702329427116063,1
596,809,62,0.0803827002571248,1
596,810,62,0.0837398270108017,1
597,808,62,0.070449917450472,1
597,809,62,0.082198370008295,1
597,810,62,0.0873202403946361,1
597,811,62,0.0731857539000815,1
598,804,62,0.0742725322840727,1
598,805,62,0.0748062068636451,1
598,809,62,0.070149344909101,1
598,810,62,0.0720971681463371,1
617,813,62,0.0729260070608653,1
618,812,62,0.0752272753561742,1
618,813,62,0.0855120156165644,1
618,814,62,0.0755462274576503,1
618,822,62,0.0827391836983924,1
618,823,62,0.090180291806242,1
618,824,62,0.0829455019071366,1
619,813,62,0.0750214993583559,1
619,821,62,0.0780160885938174,1
619,822,62,0.0893226531498395,1
619,823,62,0.0921820997877203,1
619,824,62,0.0832342431280465,1
619,825,62,0.0726672195179028,1
619,829,62,0.0719502498396724,1
620,821,62,0.0774315713128044,1
620,822,62,0.0835387084658089,1
620,823,62,0.0823799828627981,1
620,824,62,0.0762732766979655,1
557,864,63,0.073338441887112,1
558,864,63,0.0741591684920174,1
559,864,63,0.0730152494181382,1
559,865,63,0.0789940216101362,1
560,864,63,0.0728768744092681,1
560,865,63,0.076102654041846,1
561,864,63,0.0744349383592375,1
561,865,63,0.0760848723040439,1
562,864,63,0.0756772895704421,1
562,865,63,0.0791211561694261,1
563,864,63,0.0755626675709818,1
563,865,63,0.082067738883675,1
564,864,63,0.0751534095446474,1
564,865,63,0.0822243544242076,1
564,866,63,0.0886186617767212,1
565,864,63,0.0755122558577132,1
565,865,63,0.0823596151959645,1
565,866,63,0.0890690374649398,1
566,864,63,0.0725616552214745,1
566,865,63,0.0800795000781896,1
566,866,63,0.0877221368649375,1
567,865,63,0.0764640237211441,1
567,866,63,0.0848923310910085,1
568,865,63,0.0756052380800906,1
568,866,63,0.0841993646733844,1
569,865,63,0.0766325887563138,1
569,866,63,0.084461537558923,1
570,865,63,0.0775287104856141,1
570,866,63,0.0839898349076173,1
571,865,63,0.0770191434379799,1
571,866,63,0.0827670310954351,1
572,865,63,0.0771066826968315,1
572,866,63,0.082619111783984,1
573,865,63,0.0776523762852623,1
573,866,63,0.0832759377579673,1
574,865,63,0.0738838296129693,1
574,866,63,0.0799640925680288,1
575,866,63,0.0758305545255093,1
576,866,63,0.0734720065118698,1
577,866,63,0.0756345313729359,1
578,865,63,0.0720745551701564,1
578,866,63,0.08114464563652,1
578,867,63,0.0893793698029778,1
579,865,63,0.0741295832394428,1
579,866,63,0.0836551517378667,1
580,865,63,0.0714570533911484,1
595,810,63,0.0699278308915861,1
596,808,63,0.0743878980857007,1
596,809,63,0.0840676699811789,1
596,810,63,0.0821969310639146,1
597,808,63,0.0699188635570416,1
597,809,63,0.078319858789367,1
597,810,63,0.0791997002880447,1
598,804,63,0.0723520837471747,1
598,805,63,0.0747072186125495,1
617,813,63,0.0721404337976587,1
617,814,63,0.0737697289701685,1
617,815,63,0.0719418803274309,1
617,816,63,0.0720544099488309,1
617,822,63,0.0726386769786472,1
617,823,63,0.0813346419061089,1
617,824,63,0.0775186795834841,1
618,813,63,0.0757374819346442,1
618,814,63,0.0761715217808631,1
618,815,63,0.0730354015908858,1
618,816,63,0.0721842625141726,1
618,821,63,0.0747166030324217,1
618,822,63,0.087223893683949,1
618,823,63,0.095320527849844,1
618,824,63,0.0883149958525035,1
618,825,63,0.0753797687033852,1
618,829,63,0.0722692506011034,1
618,830,63,0.0709309975702277,1
619,821,63,0.0770390245052645,1
619,822,63,0.0864808978812733,1
619,823,63,0.0906305423688623,1
619,824,63,0.0842921592073644,1
619,825,63,0.0762979959550509,1
620,822,63,0.0798438051595346,1
620,823,63,0.0815882158824758,1
557,863,64,0.0704596633442947,1
557,864,64,0.0791151501407079,1
558,863,64,0.0703877369795415,1
558,864,64,0.0793167830909382,1
559,864,64,0.0752577017308263,1
560,864,64,0.0727839825553784,1
560,865,64,0.0760361428349301,1
561,864,64,0.07361028420083,1
561,865,64,0.0767313406590571,1
562,864,64,0.075400643824034,1
562,865,64,0.0806863244728097,1
563,864,64,0.0765306252965477,1
563,865,64,0.0843912725840583,1
564,864,64,0.0773627522337422,1
564,865,64,0.0855126203902895,1
565,864,64,0.0787407743506093,1
565,865,64,0.0860814691658271,1
565,866,64,0.0916794911136356,1
566,864,64,0.0771918793264261,1
566,865,64,0.0847004092774903,1
566,866,64,0.0904345192162889,1
567,864,64,0.0731952078341749,1
567,865,64,0.081705938216205,1
567,866,64,0.0876946092333126,1
568,864,64,0.0723408015890617,1
568,865,64,0.082218160707092,1
568,866,64,0.0876559871319722,1
569,864,64,0.0738031514077575,1
569,865,64,0.0843073828218236,1
569,866,64,0.0883671176156155,1
570,864,64,0.0757610124985458,1
570,865,64,0.0843933788649629,1
570,866,64,0.0872688068223147,1
571,864,64,0.0750620261493593,1
571,865,64,0.0820241812726241,1
571,866,64,0.0849257187714868,1
572,864,64,0.0725495319412842,1
572,865,64,0.0799919677707601,1
572,866,64,0.0840381611942476,1
573,865,64,0.077991424948109,1
573,866,64,0.0836161751139978,1
574,865,64,0.0752888580048017,1
574,866,64,0.081854782066799,1
575,865,64,0.0730803564377843,1
575,866,64,0.0790380588693139,1
576,865,64,0.0729714346044685,1
576,866,64,0.0791844349650527,1
577,865,64,0.0754835534357487,1
577,866,64,0.0826418846428738,1
577,867,64,0.0882739407534185,1
578,864,64,0.0700891942534317,1
578,865,64,0.079237008570603,1
578,866,64,0.0867136384455241,1
579,864,64,0.0708871132423368,1
579,865,64,0.0795077803653134,1
580,865,64,0.0749870411588699,1
596,810,64,0.076553759629388,1
597,809,64,0.073375242715855,1
597,810,64,0.0722318241443689,1
598,805,64,0.0699591609511147,1
601,797,64,0.0697533988561407,1
604,847,64,0.0727027899449292,1
604,848,64,0.0715090361258179,1
611,846,64,0.0722204446663462,1
616,814,64,0.0755048108846146,1
616,815,64,0.0711336732337771,1
616,823,64,0.071059355579812,1
616,824,64,0.0702275762137239,1
617,813,64,0.0727156361730208,1
617,814,64,0.0806317905662195,1
617,815,64,0.0774470729841488,1
617,816,64,0.0740052501032703,1
617,822,64,0.0791389031501176,1
617,823,64,0.0873078738146713,1
617,824,64,0.0832260056928254,1
617,825,64,0.0726639314952364,1
617,829,64,0.0712130932315838,1
617,830,64,0.0702758816460879,1
618,814,64,0.0747962732814249,1
618,815,64,0.072780965638175,1
618,816,64,0.0702146118114561,1
618,821,64,0.0787415390070433,1
618,822,64,0.0895982492315064,1
618,823,64,0.0961545594767014,1
618,824,64,0.089895422527457,1
618,825,64,0.0789944317440417,1
618,826,64,0.0740315959931336,1
618,827,64,0.0735909105873607,1
618,829,64,0.0753792821038362,1
618,830,64,0.0744845854160721,1
619,821,64,0.0779553192615788,1
619,822,64,0.0860016737912255,1
619,823,64,0.0905644343444297,1
619,824,64,0.0870578033550566,1
619,825,64,0.0811134615568561,1
557,863,65,0.0746542070674052,1
558,863,65,0.074155762295175,1
558,864,65,0.082049366274992,1
559,863,65,0.0716224833349386,1
559,864,65,0.0770030300414883,1
560,863,65,0.0709087391165755,1
560,864,65,0.0746310032203436,1
561,863,65,0.071049484560391,1
561,864,65,0.0751992333193118,1
561,865,65,0.0792041422467842,1
562,863,65,0.0708450501870433,1
562,864,65,0.0768080148451234,1
562,865,65,0.082913796470813,1
563,863,65,0.070606178468476,1
563,864,65,0.0782682583829146,1
563,865,65,0.0861047286242657,1
564,863,65,0.0717382106105173,1
564,864,65,0.080051444138483,1
564,865,65,0.0880053864623668,1
565,863,65,0.0732485460961592,1
565,864,65,0.081604148541992,1
565,865,65,0.0883249363861458,1
566,863,65,0.0719390650014693,1
566,864,65,0.0811098885258825,1
566,865,65,0.0877585623168856,1
566,866,65,0.0914675074958575,1
567,864,65,0.0782038673597475,1
567,865,65,0.0858324414195316,1
567,866,65,0.0893556237449902,1
568,864,65,0.0783623180757218,1
568,865,65,0.0869861619986106,1
568,866,65,0.0900780780952792,1
569,864,65,0.080812339853137,1
569,865,65,0.0892682304660033,1
569,866,65,0.0915039051421171,1
570,863,65,0.0716733399392234,1
570,864,65,0.0823261510498427,1
570,865,65,0.0888071426362863,1
570,866,65,0.0905259929800647,1
571,863,65,0.0708018331956766,1
571,864,65,0.0807176058723835,1
571,865,65,0.0862986941558894,1
571,866,65,0.0886907549756055,1
572,864,65,0.0771816815901651,1
572,865,65,0.0834581484347733,1
572,866,65,0.0877432691882051,1
573,864,65,0.0733969867642698,1
573,865,65,0.080376881916804,1
573,866,65,0.0866539813408259,1
574,864,65,0.0712709638207952,1
574,865,65,0.0784233515620012,1
574,866,65,0.0848034154505756,1
575,864,65,0.0713203814806996,1
575,865,65,0.0786185127382308,1
575,866,65,0.0838336781609451,1
576,864,65,0.07279715550031,1
576,865,65,0.0810036429900858,1
576,866,65,0.0866445274067325,1
577,864,65,0.0747382219552382,1
577,865,65,0.0842838383550778,1
577,866,65,0.0906922709973545,1
578,864,65,0.0769444226015314,1
578,865,65,0.0868199048355872,1
578,866,65,0.0919860627323026,1
579,864,65,0.0759112049250325,1
579,865,65,0.0847050945360042,1
579,866,65,0.08804274340488,1
580,864,65,0.0706559784565974,1
580,865,65,0.0778692884613288,1
598,799,65,0.0723706231899887,1
604,800,65,0.0712279206149817,1
604,847,65,0.0703534942741414,1
604,848,65,0.0712045082252563,1
604,849,65,0.0713878172267585,1
609,845,65,0.0708528983426253,1
610,844,65,0.0707313527267259,1
610,845,65,0.0724784397471862,1
611,843,65,0.0718731516168563,1
611,844,65,0.0715733993432964,1
611,845,65,0.0713347987301921,1
612,842,65,0.0710674956951233,1
612,843,65,0.0732470862975124,1
612,844,65,0.0720686951213029,1
615,814,65,0.074138043120172,1
615,815,65,0.0704923489311382,1
616,813,65,0.0777847591682584,1
616,814,65,0.0874066535231031,1
616,815,65,0.0827502920709521,1
616,816,65,0.075902453084574,1
616,817,65,0.0701655347712359,1
616,822,65,0.0709943319772314,1
616,823,65,0.0797625013263313,1
616,824,65,0.0804856160617224,1
616,825,65,0.0739743579833357,1
616,829,65,0.0707881319426633,1
616,830,65,0.071714262961288,1
617,813,65,0.0748607546730796,1
617,814,65,0.0851491305272426,1
617,815,65,0.0828420716973015,1
617,816,65,0.0761309810870156,1
617,817,65,0.0703578458643932,1
617,821,65,0.0735615477802941,1
617,822,65,0.0828319365238396,1
617,823,65,0.0901450480960555,1
617,824,65,0.0875622402531608,1
617,825,65,0.0787212269515867,1
617,826,65,0.0744118248806635,1
617,827,65,0.0739751852025689,1
617,828,65,0.0736174858741541,1
617,829,65,0.0746322544763266,1
617,830,65,0.0745107088604272,1
617,831,65,0.073169042681287,1
618,814,65,0.0741579589445672,1
618,815,65,0.0739934813456085,1
618,816,65,0.0707189305353841,1
618,820,65,0.0712576101388883,1
618,821,65,0.0809027152922167,1
618,822,65,0.0900253515584421,1
618,823,65,0.0955954426921423,1
618,824,65,0.0918967369579643,1
618,825,65,0.0839896680734862,1
618,826,65,0.0811442424540366,1
618,827,65,0.0805391211578378,1
558,863,66,0.0719832760462002,1
559,863,66,0.0710880927588871,1
560,862,66,0.0698967024232991,1
560,863,66,0.0713097319020003,1
561,863,66,0.0712185083894211,1
561,864,66,0.074137229803783,1
562,863,66,0.0707120277732115,1
562,864,66,0.0752802938527406,1
563,863,66,0.0708333926521355,1
563,864,66,0.0768402624923729,1
564,863,66,0.0726170789100971,1
564,864,66,0.0794207138031664,1
565,863,66,0.0741151937956389,1
565,864,66,0.081142845218189,1
566,863,66,0.0727529722612676,1
566,864,66,0.0810774879473463,1
566,865,66,0.08758586118555,1
567,863,66,0.070098967952943,1
567,864,66,0.0793098942316098,1
567,865,66,0.086086369918427,1
568,863,66,0.0710286024883199,1
568,864,66,0.0810370654276748,1
568,865,66,0.0870395558719719,1
569,863,66,0.0743357693711666,1
569,864,66,0.0846964956268325,1
569,865,66,0.0893592315330744,1
570,856,66,0.0709680973101222,1
570,863,66,0.0752422904279696,1
570,864,66,0.0856061517750151,1
570,865,66,0.0896190061779791,1
571,863,66,0.0732989021980508,1
571,864,66,0.0829295831504646,1
571,865,66,0.0878576339850468,1
572,863,66,0.0711821524516943,1
572,864,66,0.0793514081245553,1
572,865,66,0.0852286617478033,1
573,863,66,0.0698280710326343,1
573,864,66,0.0761426872818783,1
573,865,66,0.081861267743644,1
574,864,66,0.0743076786743493,1
574,865,66,0.079974241644335,1
575,864,66,0.0757705011897498,1
575,865,66,0.0824506718744126,1
576,864,66,0.0785319744841655,1
576,865,66,0.0872189581742385,1
577,864,66,0.0803664825893013,1
577,865,66,0.0911503558127125,1
578,864,66,0.0801384342349865,1
578,865,66,0.0917550947806943,1
579,864,66,0.0772452245398325,1
579,865,66,0.0876716903945583,1
580,864,66,0.0709731092854761,1
604,848,66,0.0721412054055148,1
609,845,66,0.0733371280683299,1
610,842,66,0.0709319916235919,1
610,843,66,0.0725732710478496,1
610,844,66,0.0730608368444503,1
610,845,66,0.0738709555791892,1
611,841,66,0.0721991316061033,1
611,842,66,0.0747617803248283,1
611,843,66,0.0761544560395401,1
611,844,66,0.0742755352984318,1
612,836,66,0.0701796183524662,1
612,837,66,0.0728024107754384,1
612,838,66,0.0724890962773077,1
612,839,66,0.0705142945707947,1
612,841,66,0.072262139296267,1
612,842,66,0.075529036590729,1
612,843,66,0.0772311062014916,1
613,836,66,0.0722054643516614,1
613,837,66,0.0749356423436592,1
613,838,66,0.0728322323763653,1
614,832,66,0.0698130837665274,1
614,836,66,0.071996518505353,1
614,837,66,0.0745604254314831,1
614,838,66,0.0732705403957706,1
615,813,66,0.0775345705344676,1
615,814,66,0.0838019866274658,1
615,815,66,0.0806108459313493,1
615,816,66,0.0767501581587562,1
615,817,66,0.0743419978453928,1
615,823,66,0.0742274523115759,1
615,824,66,0.0777060690697751,1
615,825,66,0.0755084812354979,1
615,826,66,0.0743041890604413,1
615,827,66,0.0722832785709567,1
615,828,66,0.070732172994537,1
615,829,66,0.072001259375244,1
615,830,66,0.0736314790868968,1
615,831,66,0.0725464316070153,1
615,832,66,0.0703665977048517,1
615,834,66,0.0702012998380819,1
615,835,66,0.070762328263726,1
616,812,66,0.0720806793730507,1
616,813,66,0.0848950073885276,1
616,814,66,0.0949071684844543,1
616,815,66,0.0909237116456674,1
616,816,66,0.0828914824057838,1
616,817,66,0.0783827274510881,1
616,818,66,0.0727566287093067,1
616,821,66,0.0699634499785674,1
616,822,66,0.0783994386698826,1
616,823,66,0.0873558594816174,1
616,824,66,0.0880393997708366,1
616,825,66,0.0814862385198654,1
616,826,66,0.0790351114663319,1
616,827,66,0.0778619130024516,1
616,828,66,0.0763462596788821,1
616,829,66,0.0764436908114211,1
616,830,66,0.0776007689273878,1
616,831,66,0.0767655347045023,1
617,813,66,0.0782012675278719,1
617,814,66,0.0872674860521105,1
617,815,66,0.0864229230207299,1
617,816,66,0.0799858505192879,1
617,817,66,0.0761713271410436,1
617,818,66,0.0729416755663407,1
617,819,66,0.0703919008813958,1
617,820,66,0.0719532319997651,1
617,821,66,0.0780974827955083,1
617,822,66,0.0871628254405589,1
617,823,66,0.0947819108091389,1
617,824,66,0.0928241470382604,1
617,825,66,0.0846253756270461,1
617,826,66,0.0824223309263988,1
617,827,66,0.0826934363893713,1
618,815,66,0.0772326216115154,1
600,843,67,0.0709680277959009,1
604,848,67,0.0714663126854222,1
607,845,67,0.0708825531094212,1
607,846,67,0.0733281676852076,1
608,845,67,0.0738651789474012,1
609,844,67,0.0711645027909126,1
610,843,67,0.074233896279888,1
610,844,67,0.0729997060382611,1
611,843,67,0.0765238685142397,1
615,813,67,0.0811514927873156,1
615,814,67,0.0857411275384647,1
615,815,67,0.0838887195213507,1
616,813,67,0.0853156170871962,1
616,814,67,0.0922468383819937,1
616,815,67,0.0903147253587657,1
617,815,67,0.085759514049992,1
