x,y,z,signal,cytoplasm.p
158,318,33,0.0738061057621617,1
159,318,33,0.0725775878809908,1
160,318,33,0.071117532031597,1
156,318,34,0.0776621986447285,1
156,319,34,0.0716706914473929,1
157,318,34,0.0824599589743749,1
157,319,34,0.0793179787355441,1
158,317,34,0.0824417392969788,1
158,318,34,0.0821108446522876,1
158,319,34,0.0781782235635192,1
159,316,34,0.0797769046729795,1
159,317,34,0.0819231145463124,1
159,318,34,0.0807080268126918,1
159,319,34,0.0735850088299744,1
160,317,34,0.0777366275214476,1
160,318,34,0.0775681041948107,1
160,319,34,0.0713257827356927,1
161,318,34,0.072919994080725,1
161,319,34,0.0700162738353143,1
162,318,34,0.0699830877460776,1
163,307,34,0.0809730497813027,1
165,306,34,0.0747239645884547,1
165,307,34,0.0723621285521489,1
172,307,34,0.0947082952488086,1
172,312,34,0.0951619659111157,1
172,313,34,0.127263688907288,1
172,314,34,0.127621409089969,1
173,307,34,0.108850372696327,1
173,313,34,0.137489383788127,1
173,314,34,0.136141447426228,1
174,307,34,0.113381817092846,1
153,317,35,0.0843223005737092,1
153,318,35,0.0828838984042427,1
154,317,35,0.0935568269304989,1
154,318,35,0.0845722737134141,1
155,317,35,0.0917658416793034,1
155,318,35,0.0858769096668812,1
155,319,35,0.0746489448408547,1
156,316,35,0.0872685565711182,1
156,317,35,0.08916402169689,1
156,318,35,0.0912111042906847,1
156,319,35,0.0861767314546624,1
156,320,35,0.07339110586115,1
157,311,35,0.0828423497541866,1
157,314,35,0.0861326177298413,1
157,315,35,0.0831450077221958,1
157,316,35,0.0849058377042022,1
157,317,35,0.0927857265281617,1
157,318,35,0.101485924871699,1
157,319,35,0.0995874428287239,1
157,320,35,0.0842865007497526,1
158,316,35,0.0822010880143468,1
158,317,35,0.0910530359029274,1
158,318,35,0.0993718166657509,1
158,319,35,0.0969706564344699,1
158,320,35,0.0836262546760826,1
159,317,35,0.0861572396670169,1
159,318,35,0.0897941333556372,1
159,319,35,0.0857520551740492,1
159,320,35,0.077118812928444,1
160,317,35,0.0771142110869956,1
160,318,35,0.078250998001772,1
160,319,35,0.0745620034043061,1
160,320,35,0.071099430528377,1
161,317,35,0.0699346571881153,1
161,318,35,0.0722409652644666,1
162,301,35,0.0727430108733589,1
162,306,35,0.0744551600462064,1
163,302,35,0.0722640926458848,1
163,307,35,0.0771570179444567,1
163,311,35,0.0865404507146396,1
163,312,35,0.0752613581788653,1
165,306,35,0.0739194347971063,1
165,307,35,0.0698741589613396,1
171,307,35,0.0840559081749392,1
171,308,35,0.0764871441511401,1
171,313,35,0.0747087618282618,1
171,314,35,0.0728293683904488,1
171,324,35,0.070428110839258,1
171,325,35,0.0720672909340331,1
172,306,35,0.094845488515917,1
172,307,35,0.111584888375732,1
172,308,35,0.0985406768304985,1
172,310,35,0.0754080123314892,1
172,311,35,0.0768621455692303,1
172,312,35,0.0835680643214533,1
172,313,35,0.0982999560336453,1
172,314,35,0.0971285440852518,1
172,315,35,0.0767378124330578,1
172,322,35,0.0742308028970413,1
172,323,35,0.0780076009073997,1
173,306,35,0.108652841085151,1
173,307,35,0.129557630403674,1
173,308,35,0.114081144061717,1
173,311,35,0.0863995314852709,1
173,312,35,0.0915613934031115,1
173,313,35,0.104349862128274,1
173,314,35,0.102611930130756,1
173,315,35,0.0842552610587116,1
173,316,35,0.0724622498850513,1
173,318,35,0.070770774241611,1
173,319,35,0.0709090102220384,1
173,320,35,0.0709684796383392,1
173,322,35,0.0784453389101905,1
174,306,35,0.107139377459552,1
174,307,35,0.122884765663667,1
174,308,35,0.111851683956985,1
174,313,35,0.095814926894396,1
174,314,35,0.0943173750740465,1
174,315,35,0.086812425105378,1
174,316,35,0.0830547435058702,1
174,318,35,0.0834296337012063,1
174,319,35,0.0904040024731492,1
175,307,35,0.108968150641433,1
152,317,36,0.098573522300051,1
152,318,36,0.0979932106294251,1
153,316,36,0.11115972549557,1
153,317,36,0.122720948449811,1
153,318,36,0.109761565108799,1
153,319,36,0.0858816157796615,1
154,316,36,0.121898567406439,1
154,317,36,0.128993619817937,1
154,318,36,0.111205125233484,1
154,319,36,0.0836720367422144,1
155,316,36,0.111071463288817,1
155,317,36,0.113423963565205,1
155,318,36,0.103816896593759,1
155,319,36,0.0873486856139819,1
155,320,36,0.0717424718322814,1
156,311,36,0.0792335884709162,1
156,312,36,0.0775406738830955,1
156,313,36,0.0860105368544381,1
156,314,36,0.0941006922949102,1
156,315,36,0.0934511236056281,1
156,316,36,0.0969217184226923,1
156,317,36,0.102474340632586,1
156,318,36,0.108540408783661,1
156,319,36,0.102414009239942,1
156,320,36,0.086806592862213,1
157,315,36,0.0862646808474195,1
157,316,36,0.0922456705430762,1
157,317,36,0.108109677814375,1
157,318,36,0.126170244109476,1
157,319,36,0.122045923652698,1
157,320,36,0.103836165935896,1
157,321,36,0.0743571171885201,1
158,316,36,0.0875978593401421,1
158,317,36,0.103364567555922,1
158,318,36,0.121670463440747,1
158,319,36,0.119598592075646,1
158,320,36,0.10725670356222,1
158,321,36,0.0801068469728392,1
159,317,36,0.0883243177095765,1
159,318,36,0.0989025956721447,1
159,319,36,0.0999319483579406,1
159,320,36,0.095899977544126,1
159,321,36,0.0764568359506643,1
160,317,36,0.0749936102527804,1
160,318,36,0.0790541097030063,1
160,319,36,0.0787923539027953,1
160,320,36,0.0769477662355747,1
161,301,36,0.0749464726593338,1
161,306,36,0.0813347183717523,1
161,318,36,0.0712769907037798,1
162,302,36,0.0783073670838039,1
162,304,36,0.0699091385174852,1
162,307,36,0.0961250298355038,1
163,308,36,0.0834509537128713,1
163,309,36,0.0925253749152205,1
163,310,36,0.0900756590003788,1
163,311,36,0.078111260514165,1
171,306,36,0.0843323870872162,1
171,307,36,0.0939827266614066,1
171,308,36,0.0815911632854579,1
171,326,36,0.0714773584951828,1
172,305,36,0.0796788965724039,1
172,306,36,0.117727839255537,1
172,307,36,0.140044921202015,1
172,308,36,0.114022522718916,1
172,309,36,0.0818119960636043,1
172,310,36,0.075060211828184,1
172,311,36,0.0750271369617013,1
172,312,36,0.0739371817777978,1
172,313,36,0.0747139753948575,1
172,314,36,0.0712017276564053,1
172,323,36,0.0699962467881649,1
172,324,36,0.0731533672243895,1
172,325,36,0.0790552288819689,1
172,326,36,0.0820256549741151,1
173,305,36,0.0880618459128863,1
173,306,36,0.133890521329966,1
173,307,36,0.158184657243727,1
173,308,36,0.127337999609831,1
173,309,36,0.0926068247282884,1
173,310,36,0.086102997720156,1
173,311,36,0.0853356232800791,1
173,312,36,0.0812721486211826,1
173,313,36,0.0803073537926848,1
173,314,36,0.0771497328540671,1
173,315,36,0.070174641134223,1
173,322,36,0.0726285348537632,1
173,323,36,0.0756817176263374,1
173,324,36,0.0789876193503568,1
174,306,36,0.117009521001414,1
174,307,36,0.132800649563128,1
174,308,36,0.11355996813913,1
174,311,36,0.0875473503069637,1
174,312,36,0.0823625069875695,1
174,313,36,0.0808726086829824,1
174,314,36,0.0794632217494761,1
174,315,36,0.0768105382113557,1
174,316,36,0.0743558798353814,1
174,317,36,0.0731569750124736,1
174,318,36,0.0753760635953912,1
174,319,36,0.0833921794387833,1
174,320,36,0.0937123302434911,1
174,321,36,0.10000124708513,1
174,322,36,0.0977685267634201,1
174,323,36,0.0933766599717984,1
175,307,36,0.106717182836638,1
175,313,36,0.0806091775900387,1
175,314,36,0.0812077158894828,1
175,315,36,0.0824191402236423,1
175,316,36,0.0827189550600013,1
175,317,36,0.0833023392592075,1
175,318,36,0.0942817837927537,1
175,319,36,0.127646392501095,1
151,317,37,0.0864169517491224,1
151,318,37,0.0882772913388839,1
152,316,37,0.111605589710828,1
152,317,37,0.127772602521242,1
152,318,37,0.116541836272098,1
152,319,37,0.09199693475651,1
153,315,37,0.11084481217035,1
153,316,37,0.145007263401953,1
153,317,37,0.16211667355877,1
153,318,37,0.138755376785987,1
153,319,37,0.101219157096134,1
153,320,37,0.0725519023762296,1
154,315,37,0.11615429448849,1
154,316,37,0.14880634072023,1
154,317,37,0.160877290604814,1
154,318,37,0.137045174011335,1
154,319,37,0.102698676927485,1
154,320,37,0.075791828152837,1
155,310,37,0.074176644367246,1
155,312,37,0.0757361194559072,1
155,313,37,0.0868881956065677,1
155,314,37,0.0957766245584735,1
155,315,37,0.104850142075946,1
155,316,37,0.124194163341292,1
155,317,37,0.130360019157007,1
155,318,37,0.118324563233806,1
155,319,37,0.100702805460503,1
155,320,37,0.0813244024613151,1
156,312,37,0.0820087769211896,1
156,313,37,0.084767942343459,1
156,314,37,0.0891389270630097,1
156,315,37,0.0914929357979999,1
156,316,37,0.100034996239559,1
156,317,37,0.111275188617107,1
156,318,37,0.1188395523907,1
156,319,37,0.112651090550226,1
156,320,37,0.093974954971468,1
157,315,37,0.0875949814513813,1
157,316,37,0.0938709964535513,1
157,317,37,0.116801673479802,1
157,318,37,0.138764733400171,1
157,319,37,0.135520018093718,1
157,320,37,0.116945331569489,1
157,321,37,0.086451333482965,1
158,316,37,0.0883779618341344,1
158,317,37,0.10875974700605,1
158,318,37,0.132448963214854,1
158,319,37,0.137749102821655,1
158,320,37,0.131253972042604,1
158,321,37,0.101864749571959,1
159,317,37,0.0856602129849006,1
159,318,37,0.101666369887285,1
159,319,37,0.114795569519449,1
159,320,37,0.118713662135971,1
159,321,37,0.0947249021962712,1
160,301,37,0.070440539982022,1
160,316,37,0.0737651688372529,1
160,317,37,0.0704150004571255,1
160,318,37,0.0776025623942967,1
160,319,37,0.0849843123085995,1
160,320,37,0.0853495886871333,1
160,321,37,0.0712639498358686,1
161,302,37,0.07774330088669,1
161,304,37,0.0701768030265046,1
161,306,37,0.0764829315893309,1
161,315,37,0.0773012043422253,1
162,303,37,0.0705605006736762,1
162,307,37,0.0810192211270735,1
162,308,37,0.107589551556529,1
162,311,37,0.0966943582591682,1
162,312,37,0.0833934376461884,1
162,313,37,0.0756678842963036,1
163,309,37,0.0747893218592974,1
163,310,37,0.0728534967766534,1
167,301,37,0.0761343942352802,1
167,302,37,0.0759647586811028,1
168,302,37,0.0789092907258241,1
170,307,37,0.0697700475121361,1
171,306,37,0.0960235668781308,1
171,307,37,0.105696860048186,1
171,308,37,0.0858591557347675,1
171,326,37,0.0699542115385599,1
172,305,37,0.0960927196254552,1
172,306,37,0.139869008513657,1
172,307,37,0.158674468349675,1
172,308,37,0.121320806907734,1
172,309,37,0.0832510933752836,1
172,310,37,0.0753278137744042,1
172,311,37,0.0755139172476016,1
172,325,37,0.0748158276318696,1
172,326,37,0.0807987845799884,1
172,327,37,0.0756539884034708,1
173,305,37,0.101777530078525,1
173,306,37,0.148855626303114,1
173,307,37,0.167589792353792,1
173,308,37,0.129333099468956,1
173,309,37,0.0929694873721022,1
173,310,37,0.0860781255317838,1
173,311,37,0.0852342993511487,1
173,312,37,0.0767699975175081,1
173,324,37,0.0723336485756925,1
173,325,37,0.080310690475306,1
173,326,37,0.0859389858664798,1
174,306,37,0.117862099022508,1
174,307,37,0.130332616650981,1
174,308,37,0.110512972132249,1
174,310,37,0.0878097039294777,1
174,311,37,0.0842005047066133,1
174,312,37,0.0767770184538569,1
174,313,37,0.0711149530539878,1
174,319,37,0.0746377043912745,1
174,320,37,0.0827232857959868,1
174,321,37,0.0875088672340658,1
174,322,37,0.0881601668274577,1
174,323,37,0.0863372884515412,1
174,324,37,0.0868828708172181,1
175,307,37,0.101409167268567,1
175,311,37,0.0799549236422427,1
175,312,37,0.075471624795378,1
175,313,37,0.07271112470006,1
175,314,37,0.0723820304736999,1
175,315,37,0.0733667550294373,1
175,316,37,0.0731648787794326,1
175,317,37,0.0745607243426346,1
175,318,37,0.0842541974911261,1
175,319,37,0.106857094109799,1
175,323,37,0.114431342805656,1
176,315,37,0.0763659530577693,1
176,316,37,0.0800717214368289,1
176,317,37,0.085140809674956,1
176,318,37,0.103179180079204,1
151,316,38,0.0885199863396214,1
151,317,38,0.0989869164225513,1
151,318,38,0.0958136964926794,1
152,315,38,0.113154422172212,1
152,316,38,0.140582127104029,1
152,317,38,0.153863389095232,1
152,318,38,0.134346757067038,1
152,319,38,0.0978947159293006,1
153,314,38,0.115485595485513,1
153,315,38,0.142189824207988,1
153,316,38,0.179386647663888,1
153,317,38,0.189436110090951,1
153,318,38,0.158016446731085,1
153,319,38,0.114670798443682,1
153,320,38,0.0785826573028972,1
154,313,38,0.0953936081506704,1
154,314,38,0.114276555489143,1
154,315,38,0.139281585538195,1
154,316,38,0.175179952854899,1
154,317,38,0.181395928424154,1
154,318,38,0.151481734554441,1
154,319,38,0.118646441883998,1
154,320,38,0.0874229824136806,1
155,310,38,0.0763022502253929,1
155,311,38,0.0711370585763532,1
155,312,38,0.0793060083866406,1
155,313,38,0.0878726699111086,1
155,314,38,0.0961292354458909,1
155,315,38,0.109755378343106,1
155,316,38,0.131932903538952,1
155,317,38,0.137955407127554,1
155,318,38,0.12318442756874,1
155,319,38,0.108595957597882,1
155,320,38,0.0882037313899307,1
156,313,38,0.0851378622719739,1
156,314,38,0.0851499021350987,1
156,315,38,0.088648253980718,1
156,316,38,0.0980288714249392,1
156,317,38,0.112509990583882,1
156,318,38,0.120019319948491,1
156,319,38,0.116857924387658,1
156,320,38,0.0988612972732852,1
156,321,38,0.072715267747648,1
157,315,38,0.0874767238581483,1
157,316,38,0.0904901514475753,1
157,317,38,0.114545047217396,1
157,318,38,0.138791079290034,1
157,319,38,0.142768224237529,1
157,320,38,0.128741741988569,1
157,321,38,0.0974280252533487,1
158,316,38,0.0860157712753001,1
158,317,38,0.105423099141961,1
158,318,38,0.133157952660482,1
158,319,38,0.150856732190957,1
158,320,38,0.152039780819992,1
158,321,38,0.119316253114515,1
158,322,38,0.0720068413672124,1
159,316,38,0.0759869267662674,1
159,317,38,0.080819319080953,1
159,318,38,0.101912637918996,1
159,319,38,0.127093879567557,1
159,320,38,0.135658476519653,1
159,321,38,0.106141813627145,1
160,302,38,0.0761467955723556,1
160,306,38,0.0865167185594963,1
160,315,38,0.0842124333469841,1
160,318,38,0.0741826642988084,1
160,319,38,0.0885132365087355,1
160,320,38,0.089928351414075,1
160,321,38,0.0725588329440908,1
161,307,38,0.096637919662915,1
161,314,38,0.0781102108494237,1
162,308,38,0.0811600360851103,1
162,309,38,0.0872708296861539,1
162,310,38,0.0819983219823098,1
162,311,38,0.0723529943834734,1
167,300,38,0.0744360088782451,1
167,301,38,0.0800957246974352,1
167,302,38,0.0783840343184481,1
168,301,38,0.0827698394699746,1
168,302,38,0.0797003417096672,1
169,307,38,0.0702058877766861,1
170,306,38,0.0858736981098583,1
170,307,38,0.0954285807553938,1
170,308,38,0.0781131373981394,1
171,305,38,0.0851973733968074,1
171,306,38,0.114026352952508,1
171,307,38,0.12409518899304,1
171,308,38,0.0944843829906597,1
172,304,38,0.071537940139024,1
172,305,38,0.11100557075847,1
172,306,38,0.154358942075857,1
172,307,38,0.163758891425015,1
172,308,38,0.121007687049423,1
172,309,38,0.0806188609210623,1
172,310,38,0.0722969450668593,1
172,311,38,0.0736751757263902,1
172,326,38,0.0757988838462964,1
172,327,38,0.0744734283835574,1
172,328,38,0.0709771272074658,1
173,305,38,0.107988973320553,1
173,306,38,0.148420425569399,1
173,307,38,0.158581374904543,1
173,308,38,0.123071397444946,1
173,309,38,0.0891978681712288,1
173,310,38,0.0814789603808979,1
173,311,38,0.0820436104974705,1
173,312,38,0.073303059148483,1
173,325,38,0.0733581561202656,1
173,326,38,0.0811860900152442,1
174,306,38,0.111903527663212,1
174,307,38,0.120107561300977,1
174,308,38,0.10429694790304,1
174,309,38,0.087609468215095,1
174,310,38,0.0819550632824104,1
174,311,38,0.0796891985799969,1
174,312,38,0.0729841557069619,1
174,320,38,0.071796859759007,1
174,321,38,0.0764621051286369,1
174,322,38,0.0790358969770323,1
174,323,38,0.0786089962413383,1
174,324,38,0.0790812063464593,1
174,325,38,0.0823880673667323,1
175,311,38,0.0757597056311858,1
175,312,38,0.0717958518027985,1
175,318,38,0.0745903999636969,1
175,319,38,0.08886655644121,1
175,320,38,0.105732367912413,1
175,321,38,0.114267351806246,1
175,322,38,0.109097996255352,1
175,323,38,0.101035201612374,1
175,324,38,0.0965517081256897,1
176,315,38,0.0699066429569414,1
176,316,38,0.0727493853274498,1
176,317,38,0.0777107056683342,1
176,318,38,0.0902338455623122,1
176,319,38,0.113935560428101,1
177,319,38,0.123988484663383,1
151,315,39,0.0977164328059966,1
151,316,39,0.10778184179542,1
151,317,39,0.112266030424317,1
151,318,39,0.102754531604279,1
151,319,39,0.0799723439060942,1
152,314,39,0.11577873695663,1
152,315,39,0.148221823439217,1
152,316,39,0.168805192901408,1
152,317,39,0.171159152976443,1
152,318,39,0.14484505891803,1
152,319,39,0.10260279596208,1
152,320,39,0.0708812531934833,1
153,313,39,0.100674151698494,1
153,314,39,0.137600745570609,1
153,315,39,0.182809625239379,1
153,316,39,0.206792893555598,1
153,317,39,0.198674035693161,1
153,318,39,0.162178610729926,1
153,319,39,0.120975988564521,1
153,320,39,0.0856672061155609,1
154,312,39,0.0822843660514343,1
154,313,39,0.100178744697733,1
154,314,39,0.129176706373931,1
154,315,39,0.169401346863062,1
154,316,39,0.192598770810611,1
154,317,39,0.184602049434955,1
154,318,39,0.153672781100496,1
154,319,39,0.127462124203339,1
154,320,39,0.0982110960045895,1
155,311,39,0.0767669249889278,1
155,312,39,0.084870114345889,1
155,313,39,0.0937161743799276,1
155,314,39,0.104585828152392,1
155,315,39,0.12204756418832,1
155,316,39,0.136783425162546,1
155,317,39,0.139032029483817,1
155,318,39,0.126036957541603,1
155,319,39,0.113554108090276,1
155,320,39,0.0939265591706164,1
156,314,39,0.0951212097231821,1
156,315,39,0.0936788869516357,1
156,316,39,0.0965664381891779,1
156,317,39,0.109859170026891,1
156,318,39,0.119057910462569,1
156,319,39,0.116719813532828,1
156,320,39,0.101473593048845,1
156,321,39,0.0745641096852107,1
157,315,39,0.0902748520014423,1
157,316,39,0.0857221223503681,1
157,317,39,0.102993618816932,1
157,318,39,0.129116659989594,1
157,319,39,0.13927206208988,1
157,320,39,0.130869669621707,1
157,321,39,0.0979335952332597,1
158,316,39,0.0801199921120823,1
158,317,39,0.0923188898723452,1
158,318,39,0.122802224477325,1
158,319,39,0.148145552435634,1
158,320,39,0.152353999002999,1
158,321,39,0.116340808095593,1
159,302,39,0.0759399212498412,1
159,305,39,0.0793156083005986,1
159,306,39,0.0879298731637957,1
159,315,39,0.0828422524342768,1
159,316,39,0.0703845949367398,1
159,317,39,0.0734869312151775,1
159,318,39,0.0969216975684259,1
159,319,39,0.125132521911439,1
159,320,39,0.132081177372932,1
159,321,39,0.100659247849452,1
160,302,39,0.0697728280809871,1
160,303,39,0.0739863213808171,1
160,306,39,0.0741435208408084,1
160,307,39,0.111565160239734,1
160,314,39,0.0813932006861109,1
160,315,39,0.0730892890152182,1
160,319,39,0.084306041197353,1
160,320,39,0.0855805010273646,1
161,307,39,0.0775878809907634,1
161,308,39,0.0984879711479278,1
161,311,39,0.0885369200039239,1
161,312,39,0.0707118470362361,1
167,300,39,0.0748387256163576,1
167,301,39,0.079117937660981,1
167,302,39,0.0756234230003762,1
168,300,39,0.0760402719796738,1
168,301,39,0.0798427137862606,1
168,302,39,0.0759391704962515,1
169,306,39,0.0752852571681397,1
169,307,39,0.0865927879718375,1
169,308,39,0.0716490169131993,1
170,305,39,0.0803484227946141,1
170,306,39,0.109827846918785,1
170,307,39,0.126990206057948,1
170,308,39,0.100559168225083,1
171,305,39,0.0964613535408765,1
171,306,39,0.126556256580216,1
171,307,39,0.136298938845948,1
171,308,39,0.103688858349592,1
172,304,39,0.0774747535470605,1
172,305,39,0.116662881385604,1
172,306,39,0.14607867219162,1
172,307,39,0.147081873627372,1
172,308,39,0.111961154952649,1
172,309,39,0.0790781963806781,1
172,327,39,0.0712076711223243,1
172,328,39,0.0713973406750732,1
173,305,39,0.105726368835117,1
173,306,39,0.129986741691605,1
173,307,39,0.133173927028531,1
173,308,39,0.109921892708748,1
173,309,39,0.0854084880868196,1
173,310,39,0.0759297443678466,1
173,311,39,0.0755845297935728,1
173,326,39,0.0741250300579493,1
174,306,39,0.102395900785299,1
174,307,39,0.105736059117563,1
174,309,39,0.0818318423737783,1
174,310,39,0.0750855984217936,1
174,311,39,0.0733672416289863,1
174,322,39,0.0714899614235,1
174,323,39,0.0707155243385416,1
174,324,39,0.0706512792952392,1
174,325,39,0.0744888118807256,1
175,310,39,0.072095527610715,1
175,311,39,0.0713664207494501,1
175,319,39,0.0767001704822374,1
175,320,39,0.0885676591925717,1
175,321,39,0.0955034892802397,1
175,322,39,0.0950018259995645,1
175,323,39,0.0908602104045327,1
175,324,39,0.0892959596888699,1
175,325,39,0.0903391248504332,1
176,317,39,0.0700114495483578,1
176,318,39,0.0791630454391664,1
176,319,39,0.0940136048784969,1
176,320,39,0.111485962687435,1
176,321,39,0.118301150844081,1
176,322,39,0.114206332222811,1
176,323,39,0.116538784597784,1
177,317,39,0.0782932070369302,1
177,318,39,0.0868996445988117,1
177,319,39,0.0998238467924359,1
177,320,39,0.116572081909775,1
177,321,39,0.122036956318153,1
150,317,40,0.076583198902098,1
151,314,40,0.106051187936869,1
151,315,40,0.123682163295913,1
151,316,40,0.126291741065421,1
151,317,40,0.121106438952166,1
151,318,40,0.106960183699949,1
152,313,40,0.101233247628786,1
152,314,40,0.144753453077233,1
152,315,40,0.184427568739555,1
152,316,40,0.188416725744486,1
152,317,40,0.172024299168743,1
152,318,40,0.140457376882529,1
152,319,40,0.100207982379202,1
152,320,40,0.0731295655550249,1
153,313,40,0.105784934566542,1
153,314,40,0.157553815685656,1
153,315,40,0.213445460142992,1
153,316,40,0.216592118688915,1
153,317,40,0.185689807969466,1
153,318,40,0.146253514360971,1
153,319,40,0.11272916197214,1
153,320,40,0.0873188501102106,1
154,309,40,0.0700819161144642,1
154,311,40,0.069897022188717,1
154,312,40,0.07970136356872,1
154,313,40,0.0980587416858211,1
154,314,40,0.135954495879531,1
154,315,40,0.18432286641947,1
154,316,40,0.189931065249274,1
154,317,40,0.165354618180071,1
154,318,40,0.136647163386003,1
154,319,40,0.118607416600174,1
154,320,40,0.0982628701965951,1
155,311,40,0.0804485858360492,1
155,312,40,0.0857044309810537,1
155,313,40,0.0930204204420304,1
155,314,40,0.105415445626199,1
155,315,40,0.123114426747916,1
155,316,40,0.129735044599212,1
155,317,40,0.127540883816044,1
155,318,40,0.118304348498259,1
155,319,40,0.108279285562864,1
155,320,40,0.0921003302092345,1
156,314,40,0.101696094168302,1
156,315,40,0.0929000357136263,1
156,316,40,0.0906787921898492,1
156,317,40,0.100868937497928,1
156,318,40,0.109129931088606,1
156,319,40,0.108748193742474,1
156,320,40,0.0974719095812397,1
156,321,40,0.0740311580535395,1
157,315,40,0.0867422922075337,1
157,316,40,0.076984859024047,1
157,317,40,0.0863802412888671,1
157,318,40,0.107904756841478,1
157,319,40,0.124417206671675,1
157,320,40,0.120694330842759,1
157,321,40,0.0914082118651099,1
158,305,40,0.0808162535037948,1
158,306,40,0.0795321172941817,1
158,315,40,0.0792796833510437,1
158,317,40,0.0743635263997217,1
158,318,40,0.100118302082335,1
158,319,40,0.129119079084494,1
158,320,40,0.132362334592301,1
158,321,40,0.100162937163815,1
159,302,40,0.0716827799704726,1
159,303,40,0.0782014343620029,1
159,304,40,0.0726638202724824,1
159,307,40,0.100141026281269,1
159,313,40,0.0845604632472195,1
159,314,40,0.073517267221342,1
159,318,40,0.0806426556390047,1
159,319,40,0.10576359370061,1
159,320,40,0.108796137700888,1
159,321,40,0.0836960260999764,1
160,307,40,0.0820408994428407,1
160,308,40,0.108015520801658,1
160,312,40,0.0822738555011775,1
160,319,40,0.0701114109985512,1
160,320,40,0.0704505708841519,1
161,309,40,0.0733107891298888,1
161,310,40,0.072004422272312,1
167,300,40,0.0701172779988268,1
167,301,40,0.071879950107697,1
168,300,40,0.0701659588079857,1
168,301,40,0.0709325338345179,1
169,306,40,0.0814724538497865,1
169,307,40,0.0968991402036222,1
169,308,40,0.0800611274695066,1
170,304,40,0.0699604886727411,1
170,305,40,0.0889575575082811,1
170,306,40,0.12451750179013,1
170,307,40,0.145019789864626,1
170,308,40,0.114654928346965,1
171,304,40,0.071904537287762,1
171,305,40,0.0989117993550415,1
171,306,40,0.126556479025724,1
171,307,40,0.134970188409121,1
171,308,40,0.105289895991154,1
172,304,40,0.0749635731577675,1
172,305,40,0.107110459543502,1
172,306,40,0.125497290836157,1
172,307,40,0.123024447539897,1
172,308,40,0.0982843917995019,1
172,309,40,0.074777685178656,1
173,305,40,0.0966214100353622,1
173,306,40,0.111758701734608,1
173,307,40,0.109680657506657,1
173,308,40,0.0941156030953737,1
173,309,40,0.0782685781483324,1
173,327,40,0.0730557762091415,1
174,306,40,0.0971347447537895,1
174,307,40,0.0935142008100131,1
174,308,40,0.0825982922747122,1
174,309,40,0.0736081362113926,1
174,326,40,0.0733317824247139,1
175,320,40,0.0712988807320593,1
175,321,40,0.0766158636346751,1
175,322,40,0.0783448769576039,1
175,323,40,0.0786183111469891,1
175,324,40,0.0801244549250881,1
175,325,40,0.0831081234763873,1
176,319,40,0.0767712487734911,1
176,320,40,0.0859002525423853,1
176,321,40,0.0918310529702815,1
176,322,40,0.0963994511268311,1
176,323,40,0.108395270041061,1
177,317,40,0.0710275250178902,1
177,318,40,0.0764824588926262,1
177,319,40,0.0826208218338274,1
177,320,40,0.090416806992708,1
177,321,40,0.0964905634166562,1
177,322,40,0.112616097091236,1
178,319,40,0.0872202928472869,1
178,320,40,0.0925338695530603,1
178,321,40,0.09664920877245,1
150,315,41,0.0821268676802915,1
150,316,41,0.083735642254681,1
151,314,41,0.123276089020913,1
151,315,41,0.14076079255555,1
151,316,41,0.135647034478831,1
151,317,41,0.119766524531402,1
151,318,41,0.101530705933044,1
151,319,41,0.0789210247263753,1
152,313,41,0.107842305265085,1
152,314,41,0.1663089928268,1
152,315,41,0.202445571476969,1
152,316,41,0.192635516027977,1
152,317,41,0.157810656830423,1
152,318,41,0.122587272602299,1
152,319,41,0.0907026842277014,1
152,320,41,0.0725843238090323,1
153,312,41,0.072150645436764,1
153,313,41,0.105616140134442,1
153,314,41,0.165931947690604,1
153,315,41,0.215181647333557,1
153,316,41,0.20440399563295,1
153,317,41,0.158342218177669,1
153,318,41,0.119614635957916,1
153,319,41,0.0958516860146062,1
153,320,41,0.0813748628345386,1
154,309,41,0.0707975094111133,1
154,311,41,0.070012061273505,1
154,312,41,0.0758769552682103,1
154,313,41,0.0935617137802545,1
154,314,41,0.133759848496813,1
154,315,41,0.175198276803627,1
154,316,41,0.169302998142802,1
154,317,41,0.136141308397785,1
154,318,41,0.111268494397599,1
154,319,41,0.0989131687852006,1
154,320,41,0.0853998196634266,1
155,311,41,0.0822135519142215,1
155,312,41,0.0838051147674232,1
155,313,41,0.0894519287471446,1
155,314,41,0.100776462729366,1
155,315,41,0.114103492883857,1
155,316,41,0.11379976439684,1
155,317,41,0.108103546660059,1
155,318,41,0.100791512558272,1
155,319,41,0.0930504922941539,1
155,320,41,0.0800299711955312,1
156,312,41,0.104304191284896,1
156,313,41,0.106736118510514,1
156,314,41,0.102402191822325,1
156,315,41,0.0892567953766036,1
156,316,41,0.0825214164974042,1
156,317,41,0.0875617953621446,1
156,318,41,0.0912866453949442,1
156,319,41,0.0909350911236902,1
156,320,41,0.0820036815287701,1
157,304,41,0.0754602383659331,1
157,305,41,0.076852100764256,1
157,306,41,0.0743504994346547,1
157,307,41,0.0901845530280061,1
157,314,41,0.0983828586939379,1
157,315,41,0.0804961822233562,1
157,317,41,0.0705126818408612,1
157,318,41,0.0833766499617505,1
157,319,41,0.0980898492998416,1
157,320,41,0.0954017760716702,1
157,321,41,0.0738260007322906,1
158,307,41,0.0800606408699577,1
158,313,41,0.0901737713722864,1
158,314,41,0.0775632868592763,1
158,318,41,0.0751072799074093,1
158,319,41,0.0968216944096997,1
158,320,41,0.0974287551526721,1
158,321,41,0.0745294846515936,1
159,307,41,0.0703235892561489,1
159,308,41,0.0960684800164966,1
159,312,41,0.0886764350460229,1
159,319,41,0.0763336011391879,1
159,320,41,0.0766723856479938,1
160,309,41,0.0780432130429589,1
160,310,41,0.0819515875713466,1
160,311,41,0.0742073766044716,1
166,298,41,0.0704198316955041,1
167,298,41,0.0735302594292983,1
167,299,41,0.0709507535119141,1
169,306,41,0.0780999922588963,1
169,307,41,0.0918163715667482,1
169,308,41,0.0757393935757292,1
170,304,41,0.0722481460835243,1
170,305,41,0.0899943690700198,1
170,306,41,0.116328017478878,1
170,307,41,0.133781050334302,1
170,308,41,0.10661609525606,1
171,304,41,0.0731823755089275,1
171,305,41,0.0946380024682554,1
171,306,41,0.113109495131001,1
171,307,41,0.119881514956235,1
171,308,41,0.0977445652113466,1
172,305,41,0.0922918279860028,1
172,306,41,0.104526317027559,1
172,307,41,0.101671062097221,1
172,308,41,0.0865362312014082,1
172,309,41,0.0720294265377046,1
173,305,41,0.0875938831266852,1
173,306,41,0.09980902636046,1
173,307,41,0.0928657721539599,1
173,308,41,0.0805793837948002,1
173,309,41,0.0711963889642114,1
174,305,41,0.0826115555881315,1
174,306,41,0.0904931475105122,1
174,307,41,0.0814412211101677,1
174,308,41,0.0701250427373432,1
175,323,41,0.0717799817060814,1
175,324,41,0.0750639794989771,1
175,325,41,0.0797021351765761,1
176,320,41,0.0709114432197831,1
176,321,41,0.0782522701120213,1
176,322,41,0.0871849587686128,1
176,323,41,0.102356764278722,1
177,319,41,0.0723900871719457,1
177,320,41,0.0767644780883389,1
177,321,41,0.0846206695142658,1
177,322,41,0.10105361592959,1
178,318,41,0.0728778128512554,1
178,319,41,0.0766189778717882,1
178,321,41,0.0872157396657934,1
178,322,41,0.106115419077327,1
150,315,42,0.0857361016602665,1
150,316,42,0.0874323181735978,1
151,314,42,0.123009362953881,1
151,315,42,0.141082101189127,1
151,316,42,0.132593816949147,1
151,317,42,0.11206783842804,1
151,318,42,0.0910838932657514,1
151,319,42,0.0751705308973474,1
152,313,42,0.10316413720172,1
152,314,42,0.163853917365498,1
152,315,42,0.193540577286134,1
152,316,42,0.176084583124883,1
152,317,42,0.136326744534458,1
152,318,42,0.102689793010006,1
152,319,42,0.0821673666656063,1
152,320,42,0.0732985059669895,1
153,313,42,0.0972738288077165,1
153,314,42,0.153404817680325,1
153,315,42,0.188982223934558,1
153,316,42,0.172257839146539,1
153,317,42,0.128719928425933,1
153,318,42,0.0960986908970627,1
153,319,42,0.0813211213900709,1
153,320,42,0.0747497265588592,1
154,306,42,0.071311893794282,1
154,308,42,0.0715611439860856,1
154,313,42,0.0838881495047362,1
154,314,42,0.117535896587753,1
154,315,42,0.14541907955163,1
154,316,42,0.13579047012301,1
154,317,42,0.107859767237469,1
154,318,42,0.0891689433037562,1
154,319,42,0.0805564649560459,1
154,320,42,0.0715515927320824,1
155,302,42,0.0773010514109385,1
155,304,42,0.0789879530186189,1
155,305,42,0.0711532901470209,1
155,308,42,0.0839743123820066,1
155,309,42,0.0830325823721278,1
155,310,42,0.0830029067510655,1
155,311,42,0.0787234722609339,1
155,312,42,0.0773655606082817,1
155,313,42,0.0804172488250984,1
155,314,42,0.0887934691889615,1
155,315,42,0.0975934412942947,1
155,316,42,0.0940670126547025,1
155,317,42,0.0880248921528565,1
155,318,42,0.0823047545725342,1
155,319,42,0.0766113591131364,1
156,302,42,0.069916757276137,1
156,304,42,0.0758960369219503,1
156,305,42,0.0708017567300332,1
156,306,42,0.0723683292206866,1
156,307,42,0.0803488815884745,1
156,308,42,0.0922009103359973,1
156,311,42,0.103141830088113,1
156,312,42,0.0966934962828243,1
156,313,42,0.0967929363763582,1
156,314,42,0.0916422801509871,1
156,315,42,0.0806514561394182,1
156,316,42,0.0719698598014941,1
156,317,42,0.0720202993204512,1
156,318,42,0.0725937499374372,1
156,319,42,0.0721278308693415,1
157,308,42,0.0980391386754215,1
157,312,42,0.102830580162354,1
157,313,42,0.093951292330546,1
157,314,42,0.0845892977462044,1
157,315,42,0.0697951560488606,1
157,319,42,0.0723621216007268,1
157,320,42,0.0710020758614814,1
158,308,42,0.0823120327115017,1
158,312,42,0.0910543566731317,1
158,313,42,0.0725106873944357,1
159,309,42,0.0770440295291963,1
159,310,42,0.0834843135876612,1
159,311,42,0.0796527939823151,1
164,296,42,0.072854025084735,1
164,297,42,0.0699184673259803,1
165,297,42,0.0709318247894609,1
166,297,42,0.0715703893775152,1
166,298,42,0.0763054548309937,1
167,297,42,0.0706130047650052,1
167,298,42,0.0791997350451553,1
167,299,42,0.073893137567198,1
168,298,42,0.0701758228759846,1
169,307,42,0.0755733519067918,1
170,304,42,0.0702449686718869,1
170,305,42,0.0833497896666498,1
170,306,42,0.0969944442009902,1
170,307,42,0.106647647761097,1
170,308,42,0.0847539143736057,1
171,304,42,0.0710514726671194,1
171,305,42,0.0866884812488447,1
171,306,42,0.0969680426997499,1
171,307,42,0.101008306560163,1
171,308,42,0.0847483254302152,1
172,305,42,0.0821381359355602,1
172,306,42,0.0922486666060132,1
172,307,42,0.0889361054195956,1
172,308,42,0.0781595728979511,1
172,309,42,0.069965716142181,1
173,305,42,0.0825773754455306,1
173,306,42,0.0940202017780959,1
173,307,42,0.0833540439369919,1
173,308,42,0.0708473093992347,1
174,305,42,0.077442234794348,1
174,306,42,0.0833527301182098,1
174,307,42,0.0712371242978786,1
175,325,42,0.0731396312142655,1
175,326,42,0.0775916139044459,1
176,322,42,0.0750364032073973,1
176,323,42,0.0885947419331805,1
176,324,42,0.0979879831599853,1
176,325,42,0.105816139500472,1
177,321,42,0.0703017548392464,1
177,322,42,0.0854544230842381,1
177,323,42,0.109070927417588,1
178,322,42,0.0879021439409292,1
148,322,43,0.0750422493534065,1
150,315,43,0.0869719115832492,1
150,316,43,0.0893166540725435,1
150,317,43,0.0809709435003981,1
151,313,43,0.0775422310016521,1
151,314,43,0.112077646884662,1
151,315,43,0.129973895463513,1
151,316,43,0.122053542411349,1
151,317,43,0.100331335364854,1
151,318,43,0.0789755655843877,1
152,313,43,0.0929560919816625,1
152,314,43,0.142407890320128,1
152,315,43,0.163928742473278,1
152,316,43,0.145568785378568,1
152,317,43,0.111433840924323,1
152,318,43,0.0852428704546319,1
152,319,43,0.0743803279870038,1
152,320,43,0.0722190613333428,1
153,313,43,0.0878357717624558,1
153,314,43,0.130424278103154,1
153,315,43,0.151159814195716,1
153,316,43,0.133310147096541,1
153,317,43,0.101548911707596,1
153,318,43,0.0791150319665317,1
153,319,43,0.0711034554017889,1
154,313,43,0.0747515408800345,1
154,314,43,0.0975077928222618,1
154,315,43,0.11201650912705,1
154,316,43,0.102580502751317,1
154,317,43,0.0851842908203635,1
154,318,43,0.073204807748133,1
155,303,43,0.0703581795326553,1
155,309,43,0.0705437964063038,1
155,310,43,0.0747525071277102,1
155,311,43,0.0721843806883487,1
155,313,43,0.0709196945578484,1
155,314,43,0.0764932127426575,1
155,315,43,0.0817153226360771,1
155,316,43,0.0768724753825117,1
155,317,43,0.0714140310396013,1
156,309,43,0.084310184244941,1
156,310,43,0.092732749740128,1
156,311,43,0.0880752691090145,1
156,312,43,0.0812198252668289,1
156,313,43,0.0786441217773485,1
156,314,43,0.0742361693949238,1
157,309,43,0.0890656521223637,1
157,310,43,0.0980242487292244,1
157,311,43,0.0904797938286053,1
157,312,43,0.07862631918528,1
157,313,43,0.0726540674272375,1
158,309,43,0.0731777806189012,1
158,310,43,0.0810575443172625,1
158,311,43,0.0765745026730165,1
164,296,43,0.074729921957218,1
165,297,43,0.0699661818874635,1
166,297,43,0.0741949613645519,1
166,298,43,0.0779331998363691,1
167,297,43,0.0722329919832863,1
167,298,43,0.0810800808277998,1
167,299,43,0.0775601934764296,1
168,298,43,0.0716517001621405,1
168,299,43,0.0721263363135841,1
170,306,43,0.0711903203726941,1
170,307,43,0.0737853418642669,1
171,305,43,0.0720257214297107,1
171,306,43,0.0758022830917167,1
171,307,43,0.0774649381390164,1
172,305,43,0.0722073342842137,1
172,306,43,0.0784188053319299,1
172,307,43,0.0747281493445754,1
173,305,43,0.0760872079818787,1
173,306,43,0.0840042452056876,1
173,307,43,0.0730075889509537,1
174,305,43,0.0706942112782987,1
174,306,43,0.0749070024844939,1
175,326,43,0.0706094873454087,1
176,323,43,0.0730366389440245,1
176,324,43,0.0816388639440968,1
176,325,43,0.0870288298276292,1
177,322,43,0.0717835060771001,1
177,323,43,0.0831877311625914,1
177,324,43,0.0954538422234051,1
177,325,43,0.10647059503951,1
178,323,43,0.0862835331042293,1
147,322,44,0.081281929272116,1
147,323,44,0.0776168267125023,1
148,321,44,0.0777343196493013,1
148,322,44,0.0821934136443181,1
148,323,44,0.0769121749542819,1
149,322,44,0.069977985402236,1
150,314,44,0.0749842536385968,1
150,315,44,0.0894871794087532,1
150,316,44,0.0914948404876628,1
150,317,44,0.0780773862341377,1
151,313,44,0.0739997932369002,1
151,314,44,0.103562363321138,1
151,315,44,0.121270742765572,1
151,316,44,0.114141218251743,1
151,317,44,0.090680085154365,1
151,318,44,0.0706759359895255,1
152,313,44,0.0843450386754883,1
152,314,44,0.122210672357119,1
152,315,44,0.1376756679983,1
152,316,44,0.120897298466038,1
152,317,44,0.0927309006618421,1
152,318,44,0.0738253055900779,1
153,313,44,0.0800313475771124,1
153,314,44,0.110531775729104,1
153,315,44,0.121779489545395,1
153,316,44,0.105175510340046,1
153,317,44,0.0833773103468526,1
154,314,44,0.0816209501292742,1
154,315,44,0.0882315231755965,1
154,316,44,0.0798492203173719,1
154,317,44,0.0700227039007822,1
156,310,44,0.0740125490965042,1
156,311,44,0.0739664055564219,1
164,296,44,0.0724825341348193,1
166,297,44,0.0736211492736153,1
166,298,44,0.0758826971428876,1
167,297,44,0.073099966399606,1
167,298,44,0.0812955332052196,1
167,299,44,0.0809819476016259,1
168,298,44,0.0740060008568601,1
168,299,44,0.075682788145345,1
173,306,44,0.0713464771193663,1
176,325,44,0.0736340719673503,1
177,324,44,0.0754052248112161,1
177,325,44,0.0818817188275431,1
146,322,45,0.072761717150304,1
146,323,45,0.0735739769230581,1
147,321,45,0.0730063237921264,1
147,322,45,0.0850145509948542,1
147,323,45,0.0835910179173183,1
148,321,45,0.0731570931866498,1
148,322,45,0.0870392917179311,1
148,323,45,0.0854540477074432,1
149,322,45,0.0738844413381165,1
149,323,45,0.0718753413148265,1
150,314,45,0.0770584954386436,1
150,315,45,0.0922100375532507,1
150,316,45,0.0898716556152031,1
150,317,45,0.0721941821935485,1
151,313,45,0.0736587425644808,1
151,314,45,0.104423651474158,1
151,315,45,0.12037399540828,1
151,316,45,0.108124206286621,1
151,317,45,0.0822751137085826,1
152,313,45,0.0804858732643411,1
152,314,45,0.113830767739529,1
152,315,45,0.124704606268114,1
152,316,45,0.105786665470651,1
152,317,45,0.080984408405059,1
153,313,45,0.0742538399099718,1
153,314,45,0.0972577779740241,1
153,315,45,0.103464563763226,1
153,316,45,0.0886062604396458,1
153,317,45,0.072955488042108,1
154,314,45,0.071007942861757,1
154,315,45,0.0739695475992235,1
167,298,45,0.0757152234809919,1
167,299,45,0.0776575550947473,1
168,298,45,0.0724943306981697,1
168,299,45,0.0739442930826343,1
176,326,45,0.0714429350528075,1
177,326,45,0.0761757273912503,1
146,322,46,0.0803475677696924,1
146,323,46,0.0798511667155676,1
147,322,46,0.0868407591019697,1
147,323,46,0.0874195901196824,1
147,324,46,0.0706393854119791,1
148,321,46,0.0704066517991504,1
148,322,46,0.0889399008960772,1
148,323,46,0.0897697338639697,1
149,322,46,0.0802968710481165,1
149,323,46,0.0780698578439736,1
150,314,46,0.0804497884320773,1
150,315,46,0.0950608713791154,1
150,316,46,0.086074156269749,1
150,322,46,0.0783913194088377,1
150,323,46,0.0716642822361913,1
151,313,46,0.0746068748341391,1
151,314,46,0.113368213159743,1
151,315,46,0.127907613041802,1
151,316,46,0.105989445405533,1
151,317,46,0.0743647289957497,1
151,322,46,0.0769042364302123,1
152,313,46,0.0796613650857983,1
152,314,46,0.117743605080922,1
152,315,46,0.126140658856901,1
152,316,46,0.101296109339085,1
152,317,46,0.0734908587686796,1
153,314,46,0.0902134292355238,1
153,315,46,0.0941780894288778,1
153,316,46,0.0805123234255363,1
145,322,47,0.0713747833102694,1
145,323,47,0.0730072135741588,1
146,322,47,0.0777695564080656,1
146,323,47,0.0784871169571768,1
147,322,47,0.0797939009000813,1
147,323,47,0.0815579771962212,1
148,322,47,0.0843433564313334,1
148,323,47,0.0841368435827696,1
149,321,47,0.0708680663457075,1
149,322,47,0.0833623578378564,1
149,323,47,0.0782578799096782,1
150,314,47,0.0785921112369906,1
150,315,47,0.088793552606027,1
150,316,47,0.0760355450126271,1
150,321,47,0.0729263893890823,1
150,322,47,0.0883870334400108,1
150,323,47,0.0817108181145385,1
151,313,47,0.072445225852261,1
151,314,47,0.114090556287278,1
151,315,47,0.12414446067308,1
151,316,47,0.0972441740409206,1
151,322,47,0.0800453268870108,1
151,323,47,0.0726212428119515,1
152,313,47,0.075129510555373,1
152,314,47,0.113601509837764,1
152,315,47,0.118149860092898,1
152,316,47,0.0919520146667221,1
153,314,47,0.0808530960410706,1
153,315,47,0.0822318689115274,1
153,316,47,0.0704683665247983,1
173,331,47,0.075607219235397,1
145,323,48,0.0707194240863551,1
146,323,48,0.0723303188444935,1
147,322,48,0.0715073747359294,1
147,323,48,0.072920536291651,1
148,321,48,0.074748134683192,1
148,322,48,0.0827361042183899,1
148,323,48,0.0769494971396844,1
149,321,48,0.0842715899492891,1
149,322,48,0.0915636039553481,1
149,323,48,0.0793301645785336,1
150,315,48,0.0740733392830092,1
150,321,48,0.0784667840474539,1
150,322,48,0.0920569394323146,1
150,323,48,0.083624801828858,1
151,314,48,0.0985070319474014,1
151,315,48,0.105213694501792,1
151,316,48,0.0807873216849002,1
151,322,48,0.0739235917475386,1
152,314,48,0.0938823064173527,1
152,315,48,0.097114926249304,1
152,316,48,0.0760736110001973,1
171,337,48,0.0719653205228448,1
174,331,48,0.0717078537500865,1
148,321,49,0.0777526575008737,1
148,322,49,0.0759305090242806,1
149,320,49,0.0718630581519272,1
149,321,49,0.0877176253919768,1
149,322,49,0.0876430574868151,1
149,323,49,0.075614636402807,1
150,321,49,0.0747254104842572,1
150,322,49,0.0797106228629938,1
150,323,49,0.0712593062858874,1
151,314,49,0.0730330311559403,1
151,315,49,0.0769085671661977,1
170,337,49,0.0751827793031361,1
170,338,49,0.071502772894481,1
171,337,49,0.0790778140524611,1
171,338,49,0.073270672472791,1
172,337,49,0.0735939761645189,1
148,321,50,0.0778994715362065,1
148,322,50,0.0721865981920074,1
149,320,50,0.0722651006020933,1
149,321,50,0.0840623451918292,1
149,322,50,0.0796549975831295,1
170,337,50,0.0827972072188906,1
170,338,50,0.0790625695837355,1
171,337,50,0.081895885825839,1
171,338,50,0.0751919690831886,1
172,337,50,0.0775962157458943,1
172,338,50,0.0707165601004386,1
148,321,51,0.0718905232207529,1
148,322,51,0.0708012075676852,1
149,321,51,0.0729099492757508,1
170,337,51,0.0814718282217951,1
170,338,51,0.0798457098491975,1
171,336,51,0.073264346678655,1
171,337,51,0.080493936914009,1
171,338,51,0.075112987024976,1
172,337,51,0.0789613012661821,1
172,338,51,0.0723558305637014,1
147,322,52,0.0724827565803274,1
148,322,52,0.0706467122109015,1
170,337,52,0.0806315959263999,1
170,338,52,0.078306498156038,1
171,336,52,0.0772688385207997,1
171,337,52,0.0815329520765622,1
171,338,52,0.0754030351132459,1
172,336,52,0.0807206575466974,1
172,337,52,0.0801389208345355,1
142,321,53,0.0702138402035999,1
147,322,53,0.0742968970186296,1
148,322,53,0.0698463602242518,1
170,336,53,0.0722391717975577,1
170,337,53,0.0810204098202573,1
170,338,53,0.0764241503638207,1
171,335,53,0.0712334052870403,1
171,336,53,0.082270609187044,1
171,337,53,0.0846474811494115,1
171,338,53,0.0770905693003399,1
172,335,53,0.0780853595153179,1
172,336,53,0.0845829719520683,1
172,337,53,0.0826600278546265,1
173,336,53,0.0817634195257773,1
144,326,54,0.0700582326192758,1
169,337,54,0.0717617898343737,1
170,336,54,0.0774550532167511,1
170,337,54,0.0839931646388163,1
170,338,54,0.0771297892239833,1
171,335,54,0.0772894425359856,1
171,336,54,0.0878641405161581,1
171,337,54,0.0871461350760308,1
171,338,54,0.0793428717781827,1
172,335,54,0.0847050180703608,1
172,336,54,0.0901105203823482,1
172,337,54,0.0857402516592767,1
173,336,54,0.0846827457138643,1
169,337,55,0.0710692961134543,1
170,336,55,0.0772809965581007,1
170,337,55,0.0807708746201465,1
170,338,55,0.0761338450729321,1
171,335,55,0.0794127196677198,1
171,336,55,0.0857748836443159,1
171,337,55,0.0844078795315209,1
171,338,55,0.0814506472385726,1
172,334,55,0.0702384551893534,1
172,335,55,0.0874887706726952,1
172,336,55,0.0900833055647191,1
172,337,55,0.0888710540113265,1
173,335,55,0.0811441034255941,1
173,336,55,0.085579215014271,1
170,336,56,0.07440116139912,1
170,337,56,0.0743245289215864,1
170,338,56,0.0725401822785227,1
171,335,56,0.0772892061876332,1
171,336,56,0.079118208766444,1
171,337,56,0.0769002741195996,1
172,335,56,0.0832730181606737,1
172,336,56,0.0839587133907524,1
170,336,57,0.0714121333013605,1
170,337,57,0.0705029846069933,1
171,335,57,0.0724509121155613,1
171,336,57,0.0734470022464772,1
171,337,57,0.0740702598030067,1
172,335,57,0.0753374275912066,1
172,336,57,0.0784228163024974,1
157,295,58,0.0877633935552642,1
157,296,58,0.071715785322734,1
158,295,58,0.0819732203970074,1
169,301,58,0.0713239892687838,1
171,336,58,0.0698895077013972,1
156,295,59,0.113148214552252,1
156,296,59,0.088092195821895,1
157,294,59,0.0947597635782406,1
157,295,59,0.150934476896031,1
157,296,59,0.116281276116493,1
158,294,59,0.0713348612929912,1
158,295,59,0.110229374963714,1
158,296,59,0.087733829156956,1
168,301,59,0.0706560410193966,1
169,301,59,0.0720531378385815,1
155,295,60,0.0727918515652267,1
156,294,60,0.0964869903856827,1
156,295,60,0.1583268972433,1
156,296,60,0.116536031834622,1
157,294,60,0.121229326192536,1
157,295,60,0.199865092360487,1
157,296,60,0.148913517746591,1
158,295,60,0.123591780905411,1
158,296,60,0.0969778928649046,1
155,295,61,0.0811773937861627,1
156,295,61,0.160415160061778,1
156,296,61,0.122451010825756,1
157,295,61,0.1883178348133,1
157,296,61,0.144116313530715,1
157,297,61,0.0707333269306101,1
158,295,61,0.110819780099269,1
158,296,61,0.090492264679902,1
155,295,62,0.0730779651485725,1
156,296,62,0.106045411305081,1
157,296,62,0.11435453654257,1
158,296,62,0.0743438816807894,1
156,296,63,0.0786805611321409,1
157,296,63,0.0786720317371904,1
