x,y,z,signal,cytoplasm.p
546,114,34,0.0713599072669166,1
546,114,35,0.0786202227880742,1
565,139,36,0.0751704822373925,1
550,111,37,0.0749600974467037,1
550,112,37,0.0752012492317288,1
552,107,37,0.0719102305024844,1
552,108,37,0.0758499281389786,1
555,107,37,0.0750190177006564,1
555,108,37,0.0706944615294953,1
556,106,37,0.0866570121608735,1
556,107,37,0.112466057596036,1
556,108,37,0.100697897756481,1
556,109,37,0.0700020512256414,1
557,106,37,0.0930027221212937,1
557,107,37,0.125189940658212,1
557,108,37,0.113249823489489,1
557,109,37,0.076537674038585,1
558,106,37,0.0741344978948869,1
558,107,37,0.0976068644904229,1
558,108,37,0.0906287210962649,1
559,107,37,0.0701611067153407,1
559,108,37,0.0700276116048042,1
560,107,37,0.0725494971841735,1
560,108,37,0.0774723622578486,1
561,107,37,0.0795859838642477,1
561,108,37,0.088107134428047,1
561,109,37,0.0716501013350512,1
562,107,37,0.0716274744560262,1
562,108,37,0.0812188103591983,1
562,109,37,0.0698950479848328,1
564,138,37,0.0715642512717766,1
564,139,37,0.0965177504285969,1
564,140,37,0.0770700000422646,1
565,138,37,0.0799299749882271,1
565,139,37,0.112012414739417,1
565,140,37,0.089820291557103,1
566,139,37,0.0775339310036319,1
572,96,37,0.0711244208909254,1
572,97,37,0.0717110514042651,1
573,101,37,0.0769638448749556,1
573,102,37,0.0724415485499556,1
574,100,37,0.0773267925270766,1
575,100,37,0.0796196426501891,1
575,104,37,0.0810764799911378,1
576,100,37,0.0786062921381307,1
576,104,37,0.0919168335193349,1
577,100,37,0.070852940051158,1
577,101,37,0.109194224791863,1
577,104,37,0.0873590640872182,1
578,101,37,0.0820624766571245,1
578,102,37,0.0986356680138708,1
578,103,37,0.0941201284711787,1
578,104,37,0.0738821682230808,1
550,111,38,0.073474307432594,1
550,112,38,0.0727047015860142,1
555,106,38,0.0766905497140129,1
555,107,38,0.0959848266026142,1
555,108,38,0.0844265162942447,1
556,106,38,0.115192711217015,1
556,107,38,0.149091821724162,1
556,108,38,0.125603452954888,1
556,109,38,0.0803333660142859,1
557,105,38,0.071251103607777,1
557,106,38,0.118524235882996,1
557,107,38,0.150728186492975,1
557,108,38,0.127905430295254,1
557,109,38,0.0835681407870967,1
558,106,38,0.0875357344805886,1
558,107,38,0.108065494575333,1
558,108,38,0.0959669614477466,1
559,106,38,0.0699788682328462,1
559,107,38,0.0916331807394222,1
559,108,38,0.0920758751061899,1
560,106,38,0.0816989798426554,1
560,107,38,0.119329766679131,1
560,108,38,0.127542858019928,1
560,109,38,0.08917852931487,1
561,106,38,0.0901338702092745,1
561,107,38,0.133289640401265,1
561,108,38,0.143760859511648,1
561,109,38,0.100321665936675,1
562,106,38,0.0765451676716384,1
562,107,38,0.106911885219008,1
562,108,38,0.11605356143044,1
562,109,38,0.0861491065031277,1
563,108,38,0.0743032853755648,1
564,138,38,0.089177542212928,1
564,139,38,0.122714302890257,1
564,140,38,0.097858533777127,1
565,138,38,0.0924044827330011,1
565,139,38,0.132884553228207,1
565,140,38,0.106971257315399,1
566,139,38,0.0843288488133533,1
566,140,38,0.0699820102756478,1
570,97,38,0.0705369562069304,1
571,95,38,0.0712308888722302,1
571,96,38,0.0759157303008375,1
571,97,38,0.0756337806193461,1
572,95,38,0.0761533924719546,1
572,96,38,0.0775013218824318,1
572,97,38,0.071444492171364,1
573,101,38,0.0787578470433544,1
573,102,38,0.0752882462796545,1
574,100,38,0.076390686217699,1
574,101,38,0.0921464042350955,1
574,102,38,0.0895021736262822,1
574,103,38,0.0763833524673544,1
575,100,38,0.0778089014573073,1
575,101,38,0.101909725273124,1
575,102,38,0.110673376197841,1
575,103,38,0.0968330947419888,1
575,104,38,0.0721420256733259,1
576,100,38,0.0759082922791611,1
576,101,38,0.109478301608526,1
576,102,38,0.130201193064238,1
576,103,38,0.115046209995678,1
576,104,38,0.0799784264004557,1
577,101,38,0.0978183615086521,1
577,102,38,0.119635073138971,1
577,103,38,0.109020022153348,1
577,104,38,0.0780478148844073,1
578,101,38,0.074588773330919,1
578,102,38,0.0884832411222554,1
578,103,38,0.0853733347451208,1
555,106,39,0.0903418915164399,1
555,107,39,0.112188049370891,1
555,108,39,0.0936455062225794,1
556,105,39,0.0772045170118539,1
556,106,39,0.128783492229867,1
556,107,39,0.159171592351701,1
556,108,39,0.128226266232127,1
556,109,39,0.0826501637866276,1
557,105,39,0.0786999138913438,1
557,106,39,0.125496289831371,1
557,107,39,0.149145959399691,1
557,108,39,0.121138457202485,1
557,109,39,0.0820392519557965,1
558,106,39,0.0981672255795428,1
558,107,39,0.116688782384451,1
558,108,39,0.101659710424886,1
558,109,39,0.0746984459178246,1
559,106,39,0.0995997955058444,1
559,107,39,0.132135565299657,1
559,108,39,0.128941887334464,1
559,109,39,0.0910380625396648,1
560,105,39,0.0704030162053777,1
560,106,39,0.12541251129189,1
560,107,39,0.182219004609738,1
560,108,39,0.187958877277481,1
560,109,39,0.127554578117635,1
560,110,39,0.0707345295266382,1
561,105,39,0.0720457206711715,1
561,106,39,0.132597751454071,1
561,107,39,0.192967988645491,1
561,108,39,0.199962648618625,1
561,109,39,0.134847579225636,1
561,110,39,0.0712970525080397,1
562,106,39,0.10257182042508,1
562,107,39,0.14128452660148,1
562,108,39,0.145684053860286,1
562,109,39,0.102033724741035,1
563,107,39,0.079212963601464,1
563,108,39,0.0825188722769055,1
563,139,39,0.0724934617704038,1
564,138,39,0.0886527028908796,1
564,139,39,0.121827662900738,1
564,140,39,0.099294127572054,1
565,138,39,0.0870891403660074,1
565,139,39,0.124941274385867,1
565,140,39,0.102788280758708,1
566,139,39,0.0770166061689033,1
570,97,39,0.0731043666498127,1
571,94,39,0.0705215310012295,1
571,95,39,0.0819379697353988,1
571,96,39,0.0770140758512489,1
571,97,39,0.0743336491874177,1
572,95,39,0.0813872155116591,1
572,96,39,0.07467791141686,1
572,101,39,0.070271092116242,1
572,102,39,0.0703417950307008,1
573,100,39,0.0699105496561771,1
573,101,39,0.0808856356480494,1
573,102,39,0.0786699810676628,1
574,100,39,0.0766447745993033,1
574,101,39,0.0879261054930026,1
574,102,39,0.084061351138465,1
574,103,39,0.0728507926734458,1
575,100,39,0.0757100377200848,1
575,101,39,0.0922322612497923,1
575,102,39,0.0948227782198264,1
575,103,39,0.0829588694918877,1
576,100,39,0.0710966708137924,1
576,101,39,0.0950318005317782,1
576,102,39,0.107979102301132,1
576,103,39,0.0959628323030028,1
576,104,39,0.0722407845274913,1
577,101,39,0.0815234355796696,1
577,102,39,0.096758304391319,1
577,103,39,0.089789760911119,1
578,102,39,0.0733351747187121,1
578,103,39,0.0722272223029205,1
554,107,40,0.0734487053448984,1
555,106,40,0.0929988918877015,1
555,107,40,0.111530604720338,1
555,108,40,0.0909250185130274,1
556,105,40,0.0758100617330774,1
556,106,40,0.119271013259309,1
556,107,40,0.139961142662535,1
556,108,40,0.110980406610369,1
556,109,40,0.0754110083944261,1
557,105,40,0.0744138825016133,1
557,106,40,0.109840623632655,1
557,107,40,0.124804095021603,1
557,108,40,0.101688767369379,1
557,109,40,0.0739009092571365,1
558,106,40,0.0998378052480679,1
558,107,40,0.119648934274693,1
558,108,40,0.105916135707776,1
558,109,40,0.0800557470687799,1
559,105,40,0.0777720102600766,1
559,106,40,0.128266779120286,1
559,107,40,0.170687749236289,1
559,108,40,0.161773662585311,1
559,109,40,0.115922832985911,1
559,110,40,0.0698216270643221,1
560,105,40,0.0885562936173933,1
560,106,40,0.161474668016763,1
560,107,40,0.228947159293006,1
560,108,40,0.228988005849427,1
560,109,40,0.162616744963778,1
560,110,40,0.0850952152972217,1
561,105,40,0.0855029648649544,1
561,106,40,0.157309862477514,1
561,107,40,0.225764659214594,1
561,108,40,0.230072246964342,1
561,109,40,0.163690711876788,1
561,110,40,0.083427874991408,1
562,106,40,0.111366266149822,1
562,107,40,0.152999827827177,1
562,108,40,0.154421866348955,1
562,109,40,0.111453895777161,1
563,107,40,0.0814077361097795,1
563,108,40,0.0813343082378468,1
564,138,40,0.0730452726103068,1
564,139,40,0.0974133577526597,1
564,140,40,0.0811456396898843,1
565,139,40,0.0957316766629971,1
565,140,40,0.0813080666193154,1
570,95,40,0.072233137963151,1
570,96,40,0.0706028139801663,1
570,97,40,0.0711976958315714,1
571,94,40,0.0769685718420023,1
571,95,40,0.0896814229972619,1
571,96,40,0.0788456782619354,1
571,97,40,0.0704674628399218,1
572,95,40,0.0802390630217042,1
572,96,40,0.0699831503088767,1
572,101,40,0.0723305482414237,1
572,102,40,0.0723249314923446,1
573,100,40,0.0719807109714351,1
573,101,40,0.0807654108023543,1
573,102,40,0.0782923728662749,1
574,100,40,0.0752561376608476,1
574,101,40,0.0847278395892054,1
574,102,40,0.0803506611525391,1
574,103,40,0.0700622366384213,1
575,100,40,0.0703567336368528,1
575,101,40,0.0846191054442871,1
575,102,40,0.0855817939918803,1
575,103,40,0.0757087586584133,1
575,109,40,0.0717528433540957,1
575,110,40,0.0798576662952568,1
576,101,40,0.0800851098758465,1
576,102,40,0.0893942597491749,1
576,103,40,0.0817348144237227,1
576,109,40,0.0723237219448945,1
576,110,40,0.0850836828879122,1
576,111,40,0.0771945556239452,1
577,102,40,0.0750366465071717,1
577,103,40,0.0720290442094876,1
554,107,41,0.0705429135756936,1
555,106,41,0.0829216307235507,1
555,107,41,0.0930508746223709,1
555,108,41,0.0783097444701715,1
556,106,41,0.0951889791375031,1
556,107,41,0.105296305202355,1
556,108,41,0.0872267576698655,1
557,106,41,0.0891555896218493,1
557,107,41,0.0988988280013516,1
557,108,41,0.0865097879916352,1
558,105,41,0.0698912525083512,1
558,106,41,0.10215460302041,1
558,107,41,0.122485378656754,1
558,108,41,0.113582337815536,1
558,109,41,0.0873754972491276,1
559,105,41,0.0874228503366602,1
559,106,41,0.148245402663073,1
559,107,41,0.189913631082578,1
559,108,41,0.180755313166572,1
559,109,41,0.132200866959123,1
559,110,41,0.0771210790920575,1
560,105,41,0.0986325398739134,1
560,106,41,0.177479872574315,1
560,107,41,0.237991751943006,1
560,108,41,0.237409194963033,1
560,109,41,0.175652427114061,1
560,110,41,0.0921516873159124,1
561,105,41,0.0885507880910683,1
561,106,41,0.157153608410932,1
561,107,41,0.216221496666765,1
561,108,41,0.222873368111947,1
561,109,41,0.167704796681469,1
561,110,41,0.0878678803812627,1
562,106,41,0.105223141484463,1
562,107,41,0.139239543337168,1
562,108,41,0.140933257338533,1
562,109,41,0.107479364564386,1
563,107,41,0.0750435701236108,1
563,108,41,0.0738931653728865,1
570,95,41,0.0768639737932498,1
570,96,41,0.0742622858878568,1
571,94,41,0.0747034578931785,1
571,95,41,0.0885305107927224,1
571,96,41,0.0797943944510523,1
572,95,41,0.0739812051341313,1
572,101,41,0.0708452795839735,1
572,102,41,0.0711505929952354,1
573,100,41,0.0703211145498715,1
573,101,41,0.0773391938641521,1
573,102,41,0.0764376361227481,1
573,108,41,0.0705518670073939,1
574,100,41,0.070853593484838,1
574,101,41,0.0795562039718535,1
574,102,41,0.0775554248008501,1
574,109,41,0.070565832414448,1
574,110,41,0.0729372127533349,1
575,101,41,0.0761515920536236,1
575,102,41,0.0772587102987599,1
575,103,41,0.0698512540254295,1
575,109,41,0.0802473769225687,1
575,110,41,0.0918148492053023,1
575,111,41,0.077966615322536,1
576,102,41,0.0723263287281923,1
576,109,41,0.0736017270001911,1
576,110,41,0.0860285479891705,1
576,111,41,0.0766736299525546,1
555,107,42,0.071533797091436,1
556,106,42,0.073644304460722,1
556,107,42,0.0776055515058115,1
557,106,42,0.075160256695443,1
557,107,42,0.0830295585035023,1
557,108,42,0.0773265492273022,1
558,106,42,0.0998458341406252,1
558,107,42,0.118745596969224,1
558,108,42,0.113351300349707,1
558,109,42,0.087861624101348,1
559,100,42,0.0716182985788179,1
559,105,42,0.0872241091780349,1
559,106,42,0.145390926292014,1
559,107,42,0.179070330151399,1
559,108,42,0.172078548067026,1
559,109,42,0.127167300488068,1
559,110,42,0.075294655490856,1
560,105,42,0.0942061870771172,1
560,106,42,0.162735155488298,1
560,107,42,0.206972601720438,1
560,108,42,0.207053627496756,1
560,109,42,0.155789183275746,1
560,110,42,0.0857204957175903,1
561,105,42,0.0793571778049211,1
561,106,42,0.132147062951856,1
561,107,42,0.173604579863832,1
561,108,42,0.18176082247447,1
561,109,42,0.141334521229421,1
561,110,42,0.0802244024724373,1
562,106,42,0.0871052259568104,1
562,107,42,0.110084131949782,1
562,108,42,0.113053362397322,1
562,109,42,0.0903391387532775,1
570,95,42,0.0741379458002622,1
570,96,42,0.072814110018879,1
571,95,42,0.0781941631744576,1
571,96,42,0.0750543309250641,1
571,113,42,0.0705903292260253,1
573,101,42,0.0735113098525787,1
573,102,42,0.0747306935650741,1
573,108,42,0.0719960041001156,1
574,101,42,0.0737273252951908,1
574,102,42,0.075438480414674,1
574,108,42,0.0721059338896399,1
574,109,42,0.0784849133563624,1
574,110,42,0.0836248226831244,1
574,111,42,0.0713767853198422,1
575,102,42,0.0702877546750816,1
575,108,42,0.0712492614809132,1
575,109,42,0.0831291237226345,1
575,110,42,0.0941682601179896,1
575,111,42,0.0807574514240183,1
576,109,42,0.0699957393343496,1
576,110,42,0.0790212016706547,1
576,111,42,0.0716691621345248,1
557,107,43,0.0763537185548249,1
557,108,43,0.0734895936098524,1
558,106,43,0.0921151158840997,1
558,107,43,0.108617708597719,1
558,108,43,0.105840469477918,1
558,109,43,0.0835921231934366,1
559,105,43,0.0794072141413948,1
559,106,43,0.122409844503916,1
559,107,43,0.1473546613345,1
559,108,43,0.143205371369439,1
559,109,43,0.108772732262584,1
560,105,43,0.0800926174117442,1
560,106,43,0.126281244418008,1
560,107,43,0.154814510476405,1
560,108,43,0.154527500159605,1
560,109,43,0.119227997859184,1
560,110,43,0.072920974231245,1
561,106,43,0.0972822261256466,1
561,107,43,0.121454677395065,1
561,108,43,0.126754205276719,1
561,109,43,0.102670607084934,1
562,107,43,0.0800462583775759,1
562,108,43,0.0826634410028911,1
562,109,43,0.0707794774221146,1
571,112,43,0.0759199150569583,1
571,113,43,0.0745570122832185,1
573,102,43,0.0710888852210096,1
573,109,43,0.0730779860028389,1
573,110,43,0.0755852110329413,1
574,102,43,0.0706503756103627,1
574,108,43,0.0705440675117668,1
574,109,43,0.0790172602143085,1
574,110,43,0.0864797230909337,1
574,111,43,0.0751644066944531,1
575,109,43,0.0767933056359016,1
575,110,43,0.0857397163997728,1
575,111,43,0.0763059761876533,1
576,110,43,0.0706610112862177,1
557,107,44,0.0701562546226957,1
558,106,44,0.0784932272572269,1
558,107,44,0.0920928435276031,1
558,108,44,0.0910547459527708,1
558,109,44,0.0733168855270946,1
559,106,44,0.0931734699030115,1
559,107,44,0.110191169947701,1
559,108,44,0.107741836361076,1
559,109,44,0.0847803158748459,1
560,106,44,0.0896207579363552,1
560,107,44,0.105861073493104,1
560,108,44,0.104368978539125,1
560,109,44,0.0837726446746657,1
561,107,44,0.0810901673413068,1
561,108,44,0.0826509006373731,1
561,109,44,0.0709010021837475,1
571,112,44,0.0735906881418526,1
572,110,44,0.0736228732263029,1
573,109,44,0.0763114539082897,1
573,110,44,0.0842725700998091,1
573,111,44,0.07341695124862,1
574,109,44,0.0749604311149659,1
574,110,44,0.0833760312851811,1
574,111,44,0.0734424699192501,1
575,110,44,0.0741420193336289,1
558,107,45,0.076547107118412,1
558,108,45,0.0758070726215626,1
559,106,45,0.0727565661465075,1
559,107,45,0.083987693869602,1
559,108,45,0.0819312338073573,1
560,107,45,0.0787664876610589,1
560,108,45,0.0763110090172736,1
566,107,45,0.0714680366381099,1
572,109,45,0.0742444832957882,1
572,110,45,0.0818322455562617,1
572,111,45,0.0720323878435309,1
573,109,45,0.0768768269727635,1
573,110,45,0.085477640834144,1
573,111,45,0.0735562368937887,1
574,110,45,0.0749949796829395,1
572,109,46,0.0741389815621592,1
572,110,46,0.0806343139324518,1
573,109,46,0.0724736641201846,1
573,110,46,0.0783851952059434,1
572,110,47,0.0700690212264177,1
