x,y,z,signal,cytoplasm.p
784,693,57,0.0982828902923223,1
785,691,57,0.119038891371628,1
785,692,57,0.14908224266447,1
785,693,57,0.117546059566903,1
782,696,58,0.0900947197998524,1
782,697,58,0.0978333626776033,1
782,698,58,0.0920839665615463,1
782,699,58,0.0791848381475361,1
782,700,58,0.0728899847914006,1
783,693,58,0.0870953201802787,1
783,694,58,0.0809961354541881,1
783,695,58,0.0784439138686544,1
783,696,58,0.0807286030221892,1
783,697,58,0.0839475772125042,1
783,698,58,0.075293946445799,1
784,691,58,0.0974761429973153,1
784,692,58,0.108170162138306,1
784,693,58,0.0973832719976919,1
784,694,58,0.0799017800200779,1
784,695,58,0.070421513939659,1
785,690,58,0.0920682841532267,1
785,691,58,0.111487763105766,1
785,692,58,0.125504631537924,1
785,693,58,0.104502967200632,1
785,694,58,0.0770709106785634,1
786,689,58,0.0800455215268304,1
786,690,58,0.0835694059459239,1
786,691,58,0.0947186042078237,1
786,692,58,0.102959911371036,1
786,693,58,0.0844433665414818,1
787,688,58,0.0735537274304007,1
787,689,58,0.0732973172738057,1
787,690,58,0.0708784448189438,1
788,687,58,0.074356672297504,1
789,687,58,0.0717266642983635,1
790,686,58,0.079208876165253,1
802,730,58,0.0705412382829609,1
781,696,59,0.0893024106086042,1
781,697,59,0.0946901867941665,1
781,698,59,0.0959959558294404,1
781,699,59,0.0907192216609428,1
781,700,59,0.0860325867654265,1
782,694,59,0.0791873128538135,1
782,695,59,0.0785443480155525,1
782,696,59,0.0801758954488316,1
782,697,59,0.082826396240404,1
782,698,59,0.0813095959321835,1
782,699,59,0.0760334734888331,1
782,700,59,0.0718759669428179,1
783,691,59,0.0919563314998633,1
783,692,59,0.095399148434106,1
783,693,59,0.0886272745887372,1
783,694,59,0.0790335821534638,1
783,695,59,0.071722604667841,1
784,690,59,0.0915927026083738,1
784,691,59,0.0987968784444297,1
784,692,59,0.101840746311353,1
784,693,59,0.0915157156083117,1
784,694,59,0.0756471134469867,1
785,689,59,0.084874041899391,1
785,690,59,0.0927403406930913,1
785,691,59,0.0986514685963666,1
785,692,59,0.0986214315013537,1
785,693,59,0.0860546158221486,1
785,694,59,0.06984975251825,1
786,688,59,0.0782537924734673,1
786,689,59,0.0809951553036681,1
786,690,59,0.0826955357188538,1
786,691,59,0.0828425443940062,1
786,692,59,0.0796103207931161,1
787,687,59,0.0770111701567996,1
787,688,59,0.0744274377747619,1
787,689,59,0.0736613215420901,1
788,686,59,0.0832350703472797,1
788,687,59,0.0749952438369804,1
789,685,59,0.0894011277542369,1
789,686,59,0.0821580309056891,1
789,687,59,0.072395773435246,1
790,685,59,0.0822134406914674,1
790,686,59,0.0755868515685634,1
791,684,59,0.0793385618964636,1
791,685,59,0.0745631851460677,1
792,684,59,0.0736380551322294,1
802,729,59,0.078241126982351,1
802,730,59,0.084361979291213,1
780,698,60,0.0962962433625041,1
780,699,60,0.104386496122886,1
781,695,60,0.0799881236343236,1
781,696,60,0.0816066788596465,1
781,697,60,0.084310566573158,1
781,698,60,0.087231797450908,1
781,699,60,0.0961515703651866,1
781,700,60,0.098032840686974,1
781,701,60,0.0869312666180697,1
781,702,60,0.071148771722638,1
782,692,60,0.101152472103665,1
782,693,60,0.0848775523675654,1
782,694,60,0.0774806066444918,1
782,695,60,0.073600739898249,1
782,696,60,0.0710101186568829,1
782,697,60,0.0705740976553576,1
782,698,60,0.0708469062167514,1
782,699,60,0.0741606421935085,1
782,700,60,0.0738201198291707,1
783,691,60,0.120805414568357,1
783,692,60,0.113577895856797,1
783,693,60,0.0876918564701502,1
783,694,60,0.0739599685395318,1
784,689,60,0.0830630435038905,1
784,690,60,0.0997264017570526,1
784,691,60,0.112088087920697,1
784,692,60,0.103206596488075,1
784,693,60,0.082363674826487,1
785,688,60,0.0812837922532462,1
785,689,60,0.0851967130117053,1
785,690,60,0.0924010000705152,1
785,691,60,0.0909673526737839,1
785,692,60,0.0816388987012074,1
785,693,60,0.070960235251696,1
786,687,60,0.0789827325006012,1
786,688,60,0.078679532321666,1
786,689,60,0.0816848197957817,1
786,690,60,0.0812258382469692,1
786,691,60,0.0739901377115651,1
787,686,60,0.0817423289110425,1
787,687,60,0.077721542935431,1
787,688,60,0.074769287860726,1
787,689,60,0.0730381891111589,1
788,685,60,0.0850938597699068,1
788,686,60,0.0822929163006511,1
788,687,60,0.0767144626061315,1
788,688,60,0.0703035761118438,1
789,684,60,0.0801146673227326,1
789,685,60,0.0817218083129221,1
789,686,60,0.0798213729203291,1
789,687,60,0.0736992554526399,1
790,684,60,0.0765041681839304,1
790,685,60,0.0764501625854219,1
790,686,60,0.0735768131032861,1
791,683,60,0.0795417311109841,1
791,684,60,0.0751081071266425,1
791,685,60,0.0725028670445423,1
792,683,60,0.0779261928028646,1
792,684,60,0.0723381809029197,1
793,683,60,0.0720455746913068,1
802,729,60,0.0698409103093038,1
802,730,60,0.077024384810264,1
781,695,61,0.0786774468950277,1
781,696,61,0.075314279355522,1
781,697,61,0.0754607319169041,1
781,698,61,0.0801667682315782,1
781,699,61,0.0969307622228802,1
781,700,61,0.10799673805907,1
781,701,61,0.0881479879358903,1
782,693,61,0.0913498685791938,1
782,694,61,0.0771208775008158,1
782,695,61,0.0703777477859442,1
782,699,61,0.0712063294978537,1
782,700,61,0.0749542582521166,1
783,691,61,0.146917903482229,1
783,692,61,0.12575186581731,1
783,693,61,0.087752639705233,1
784,689,61,0.0831704707814488,1
784,690,61,0.0997726912769996,1
784,691,61,0.119448149397962,1
784,692,61,0.0999924048761835,1
784,693,61,0.0751493429627028,1
785,688,61,0.0795588663665284,1
785,689,61,0.0838705137467987,1
785,690,61,0.0872516090039713,1
785,691,61,0.0854314694883731,1
785,692,61,0.0732513753249651,1
786,687,61,0.0797577187479076,1
786,688,61,0.0780723951130501,1
786,689,61,0.0787595292875093,1
786,690,61,0.0759401297925051,1
787,686,61,0.0816717372193377,1
787,687,61,0.0808312894298566,1
787,688,61,0.0760304079116749,1
787,689,61,0.0708462527830714,1
788,685,61,0.0786707665783632,1
788,686,61,0.0802898153546571,1
788,687,61,0.0786976616305745,1
788,688,61,0.0721359987903413,1
789,684,61,0.0739248082464109,1
789,685,61,0.0752881976196996,1
789,686,61,0.0763189614441874,1
789,687,61,0.073553414616405,1
790,684,61,0.0727552453763033,1
790,685,61,0.0728814067364953,1
790,686,61,0.0714706434214077,1
791,683,61,0.0787821631179564,1
791,684,61,0.0739018963590787,1
791,685,61,0.0720567108695551,1
792,683,61,0.0785048152779134,1
792,684,61,0.0729726997632957,1
792,685,61,0.0699455153094784,1
793,683,61,0.0737417912046381,1
793,684,61,0.070316345874292,1
795,682,61,0.0769047021754948,1
781,698,62,0.0726434108971161,1
781,699,62,0.0907966257463325,1
781,700,62,0.106541819310628,1
781,701,62,0.0841867756479115,1
782,693,62,0.0906623103679849,1
782,694,62,0.073991110910663,1
782,700,62,0.0726794957293799,1
783,691,62,0.152238174407511,1
783,692,62,0.121758802113143,1
783,693,62,0.0816281448511762,1
784,690,62,0.0960652962651622,1
784,691,62,0.113344258559091,1
784,692,62,0.0888967325646655,1
785,688,62,0.0771831274859676,1
785,689,62,0.080828585326649,1
785,690,62,0.0816523705572905,1
785,691,62,0.0787256341532156,1
786,687,62,0.0825872047564188,1
786,688,62,0.0790817833144959,1
786,689,62,0.0754700259682886,1
786,690,62,0.0715936557873759,1
787,686,62,0.083324993943921,1
787,687,62,0.0879503381505391,1
787,688,62,0.0802603830333693,1
788,685,62,0.0737015702762084,1
788,686,62,0.0792764717940208,1
788,687,62,0.0822641860729982,1
788,688,62,0.0748112327418433,1
789,685,62,0.0713511693293023,1
789,686,62,0.0731000150595609,1
789,687,62,0.0730852502389621,1
790,684,62,0.0708617127458829,1
790,685,62,0.0709247482417351,1
790,686,62,0.0700572663716001,1
791,684,62,0.0730594465600248,1
791,685,62,0.0718454780053667,1
792,683,62,0.0788959092382287,1
792,684,62,0.0737130401227187,1
792,685,62,0.0716559196753719,1
793,683,62,0.0751963554305511,1
793,684,62,0.0730485189244404,1
793,685,62,0.0705749735345457,1
794,682,62,0.0834452535467268,1
794,683,62,0.070937448489962,1
794,684,62,0.069786890807951,1
795,682,62,0.0804030887782247,1
781,699,63,0.0805732734947502,1
781,700,63,0.0913119138143777,1
781,701,63,0.0778978240491622,1
783,692,63,0.104154450700848,1
783,693,63,0.0745113344884187,1
784,690,63,0.0922413120014023,1
784,691,63,0.0982041862909948,1
784,692,63,0.0795391243276863,1
785,689,63,0.0747683494187388,1
785,690,63,0.0752671348106533,1
785,691,63,0.0730656055200298,1
786,688,63,0.0774457383111003,1
786,689,63,0.0706699299608073,1
787,687,63,0.0917346367453731,1
787,688,63,0.0817988578757833,1
788,686,63,0.0768396855243363,1
788,687,63,0.0835509082116427,1
788,688,63,0.076424108655288,1
789,686,63,0.0719687892824864,1
789,687,63,0.0744759239441012,1
789,688,63,0.0711744433245549,1
790,685,63,0.0703496987976598,1
790,686,63,0.0708446817616706,1
790,687,63,0.0703823218217041,1
791,684,63,0.0727282738584486,1
791,685,63,0.0722595464158134,1
791,686,63,0.07119053586678,1
792,684,63,0.0745481283657396,1
792,685,63,0.0727999221663167,1
793,683,63,0.077561145821261,1
793,684,63,0.0748936766082755,1
793,685,63,0.0719799602178453,1
794,683,63,0.0752449528226444,1
794,684,63,0.071884746588965,1
795,682,63,0.086221693252983,1
795,683,63,0.0733295232125224,1
781,699,64,0.0731707457797082,1
781,700,64,0.0789372284913545,1
781,701,64,0.0740627800727975,1
783,692,64,0.0860065884466697,1
784,690,64,0.0881502401966596,1
784,691,64,0.0847425627012715,1
784,692,64,0.0720314215958552,1
785,689,64,0.0715002286739823,1
785,690,64,0.0705940899453963,1
786,688,64,0.0779151052845712,1
786,689,64,0.0697592380507278,1
787,687,64,0.0923534592945853,1
787,688,64,0.0826769962760397,1
788,686,64,0.075021554969733,1
788,687,64,0.0829722370766389,1
788,688,64,0.0778322582356557,1
789,686,64,0.0716482661596095,1
789,687,64,0.0757132492771077,1
789,688,64,0.0741569162312481,1
790,686,64,0.0713440163159331,1
790,687,64,0.0721491439295844,1
791,684,64,0.0715258794216328,1
791,685,64,0.0721571728221417,1
791,686,64,0.0723319524286934,1
791,687,64,0.0709194095495412,1
792,684,64,0.0743782703660541,1
792,685,64,0.0737395667495573,1
792,686,64,0.0712020126647126,1
793,683,64,0.077012066890254,1
793,684,64,0.0752226665633036,1
793,685,64,0.0733682773908833,1
794,683,64,0.0760809864590746,1
794,684,64,0.072259198844707,1
795,683,64,0.075749083858175,1
795,684,64,0.0705236164278677,1
796,683,64,0.0733241080546851,1
781,699,65,0.070120343575985,1
781,700,65,0.0736326260715478,1
781,701,65,0.073226127759798,1
782,707,65,0.0729467987644487,1
782,708,65,0.0699580487235743,1
783,707,65,0.0763447303660141,1
783,708,65,0.0710298537443029,1
784,690,65,0.0849297784020093,1
784,691,65,0.0768557016009181,1
785,689,65,0.0719577782298365,1
785,690,65,0.0702694307263535,1
786,688,65,0.0772479077887738,1
786,689,65,0.0708441117450561,1
787,687,65,0.0853453691739019,1
787,688,65,0.0795830086555772,1
787,689,65,0.070601979809511,1
788,686,65,0.0738117086083965,1
788,687,65,0.0794494370793973,1
788,688,65,0.0770375855608841,1
788,689,65,0.0703702611043129,1
789,686,65,0.071911787621041,1
789,687,65,0.0757723224623472,1
789,688,65,0.0753234691355745,1
790,686,65,0.071340630973357,1
790,687,65,0.0727436017442397,1
790,688,65,0.0707972383056504,1
791,684,65,0.0709459709334904,1
791,685,65,0.0721707698038231,1
791,686,65,0.0726816645730837,1
791,687,65,0.0717524957829893,1
792,684,65,0.0738862904164024,1
792,685,65,0.0744346742051966,1
792,686,65,0.0726295011014389,1
793,683,65,0.074458955522688,1
793,684,65,0.0747418505975887,1
793,685,65,0.073795435329196,1
793,686,65,0.0701034029602603,1
794,683,65,0.0740725815779973,1
794,684,65,0.0719227361108918,1
795,683,65,0.0743013667830576,1
795,684,65,0.0708080616699029,1
796,683,65,0.0730273866011728,1
797,683,65,0.0699693517359536,1
781,700,66,0.0698314772294768,1
781,701,66,0.0709884510741115,1
781,702,66,0.0717728982069335,1
781,703,66,0.0707548693877832,1
782,706,66,0.0697705410631071,1
782,707,66,0.0729566697838697,1
783,706,66,0.070237287350436,1
783,707,66,0.0754148872879733,1
784,691,66,0.0698083567994807,1
785,689,66,0.0718516786739044,1
786,688,66,0.0739382383939612,1
786,689,66,0.0702907507380186,1
787,687,66,0.0744111923012499,1
787,688,66,0.0728296116902233,1
788,686,66,0.0707563430892743,1
788,687,66,0.072747814306049,1
788,688,66,0.0720544447059415,1
789,687,66,0.0719183984234842,1
789,688,66,0.0718805201243115,1
790,687,66,0.0701216643461893,1
791,686,66,0.0699380494821135,1
792,684,66,0.0703284761059045,1
792,685,66,0.0711093084992202,1
792,686,66,0.0707026085962287,1
793,683,66,0.0718450331143506,1
793,684,66,0.0712817176708265,1
793,685,66,0.0698735472361924,1
794,683,66,0.071845818625051,1
795,683,66,0.0712266763104209,1
