x,y,z,signal,cytoplasm.p
820,148,11,0.0829033762890439,1
820,149,11,0.0957324274165868,1
821,147,11,0.071284526045366,1
821,148,11,0.077026567556812,1
821,149,11,0.0849809964802447,1
817,150,12,0.0797361206793575,1
818,149,12,0.0781173638627929,1
818,150,12,0.0753616115887881,1
819,148,12,0.081941848628946,1
819,149,12,0.0985483790062158,1
819,150,12,0.0855653191214381,1
820,147,12,0.0772810591208998,1
820,148,12,0.0967737365484421,1
820,149,12,0.116946026711701,1
820,150,12,0.0979972007457263,1
821,147,12,0.0798007341480326,1
821,148,12,0.0867351391941645,1
821,149,12,0.0952758719140969,1
821,150,12,0.082159330821627,1
822,147,12,0.0710887809496777,1
822,148,12,0.0721444934281811,1
822,149,12,0.0728899847914006,1
822,150,12,0.0725019842139321,1
828,130,12,0.0777199163026531,1
828,131,12,0.0718839888839531,1
816,150,13,0.0822558930264001,1
817,149,13,0.0748235993218081,1
817,150,13,0.0787128365850788,1
817,151,13,0.0755514549270901,1
818,148,13,0.071148827334015,1
818,149,13,0.0793778096257955,1
818,150,13,0.0764783784078374,1
819,148,13,0.0826917541452164,1
819,149,13,0.101239809771275,1
819,150,13,0.0865414934279587,1
820,147,13,0.081162907022449,1
820,148,13,0.0976042090471702,1
820,149,13,0.117933545739134,1
820,150,13,0.0967807018734138,1
820,151,13,0.0721331626101133,1
821,147,13,0.0834290567331697,1
821,148,13,0.088287871403362,1
821,149,13,0.0958286976616306,1
821,150,13,0.0812959711448136,1
822,147,13,0.0709887291309966,1
822,148,13,0.0707558147811926,1
822,149,13,0.0723206841734247,1
822,150,13,0.0717261846502367,1
822,151,13,0.0720854689028965,1
828,129,13,0.0723109799881348,1
828,130,13,0.0798477188101924,1
828,131,13,0.0760192022192054,1
829,128,13,0.070989187924857,1
829,129,13,0.0797968483030633,1
829,130,13,0.081683749276774,1
829,131,13,0.0703740009694175,1
830,140,13,0.0713608248546374,1
833,146,13,0.0704380374700561,1
833,147,13,0.0719480809959686,1
833,148,13,0.0746199365563166,1
833,149,13,0.0713121648997449,1
834,146,13,0.0806498503609067,1
834,147,13,0.0802985810979599,1
834,148,13,0.0774270667912658,1
834,149,13,0.0701838448171198,1
835,146,13,0.0825342140655409,1
835,147,13,0.0778194606675189,1
840,129,13,0.0734334678275949,1
816,149,14,0.0702720931210284,1
816,150,14,0.0734750790404502,1
817,149,14,0.0707348701463224,1
817,150,14,0.0751328263837278,1
817,151,14,0.0722009876358113,1
818,149,14,0.07529159686512,1
818,150,14,0.0724976326236803,1
819,148,14,0.0792577307599651,1
819,149,14,0.0920045604665839,1
819,150,14,0.0790923355732854,1
820,147,14,0.0766741721634805,1
820,148,14,0.0920224256214516,1
820,149,14,0.104012579126648,1
820,150,14,0.0863547712781919,1
820,151,14,0.0710553029007117,1
821,147,14,0.0760805902280133,1
821,148,14,0.0834049839583422,1
821,149,14,0.0881274395320814,1
821,150,14,0.078321276879481,1
821,151,14,0.0737282289800673,1
822,150,14,0.071997985255422,1
822,151,14,0.0765323283949689,1
824,132,14,0.0757280697090835,1
828,130,14,0.0714687109260562,1
828,131,14,0.070069146352016,1
830,140,14,0.0701829272293989,1
833,148,14,0.0703133150542444,1
833,149,14,0.0721832962664968,1
834,146,14,0.0709102614780214,1
834,147,14,0.0749602086694578,1
834,148,14,0.071522459321946,1
835,146,14,0.0719574584644186,1
835,147,14,0.0742413690586751,1
839,128,14,0.0709335695964149,1
840,128,14,0.0940165105729462,1
840,129,14,0.077312416986117,1
841,129,14,0.069835196240315,1
817,150,15,0.0717311132085251,1
819,148,15,0.0710293532419097,1
819,149,15,0.0749932696330962,1
819,150,15,0.0700456574966472,1
820,138,15,0.0805163482989481,1
820,148,15,0.0790023146567343,1
820,149,15,0.0814258167587332,1
820,150,15,0.0735486667950919,1
821,137,15,0.0719038143398607,1
821,148,15,0.0715635144210311,1
821,149,15,0.0737611787209517,1
821,150,15,0.0727932209953858,1
821,151,15,0.0754041264865199,1
822,150,15,0.0710385221676959,1
822,151,15,0.0776831710852872,1
823,132,15,0.0797747010721651,1
823,133,15,0.0772034047843135,1
827,138,15,0.075710649445232,1
827,139,15,0.0704179965200625,1
835,147,15,0.0712869938002212,1
840,128,15,0.0871386622972437,1
840,129,15,0.0703943686362511,1
841,128,15,0.0762490162347405,1
814,146,16,0.0844150951076892,1
819,137,16,0.0701648813375559,1
820,136,16,0.0749562046503123,1
820,137,16,0.0827957196145553,1
820,138,16,0.0775015026194071,1
821,136,16,0.073598126163529,1
821,137,16,0.0713582875855609,1
821,151,16,0.0729909611492247,1
821,152,16,0.0698385885343132,1
822,151,16,0.0754911652429783,1
823,133,16,0.0716196610575549,1
823,134,16,0.0737876497364132,1
823,142,16,0.0705565522659078,1
826,138,16,0.073502057509727,1
827,138,16,0.0789051476782361,1
840,128,16,0.076149923712313,1
813,146,17,0.0792841253097832,1
814,145,17,0.0789915121467482,1
814,146,17,0.0792302934968278,1
814,147,17,0.0711681522875295,1
815,146,17,0.072307719771157,1
820,136,17,0.073941880939156,1
820,137,17,0.0719453907956053,1
821,135,17,0.0842821283052344,1
821,136,17,0.0841048531381389,1
821,137,17,0.0701920127381196,1
822,134,17,0.0754144702026456,1
822,135,17,0.087223351473023,1
822,136,17,0.0820404684546688,1
823,134,17,0.0735127626998033,1
823,135,17,0.0727344189156093,1
823,142,17,0.0753433641057034,1
826,138,17,0.0699251823997555,1
830,161,17,0.108026260748845,1
830,162,17,0.132351990876175,1
813,146,18,0.0762993931908985,1
813,147,18,0.0776785205838839,1
814,145,18,0.0736881192743916,1
814,146,18,0.080716709138929,1
814,147,18,0.0805364448603187,1
814,148,18,0.0759737260156473,1
815,146,18,0.0748685889258173,1
815,147,18,0.0768099334376306,1
815,148,18,0.0733016619126354,1
815,150,18,0.0697662033756996,1
820,135,18,0.0730208175072623,1
820,136,18,0.0715692980042412,1
821,134,18,0.0737880390160523,1
821,135,18,0.096673795952515,1
821,136,18,0.0919866049432286,1
822,134,18,0.0778395989374223,1
822,135,18,0.100456599991592,1
822,136,18,0.0931054919460267,1
823,135,18,0.0720449907718481,1
823,158,18,0.0729220238959863,1
824,138,18,0.0718469586582799,1
824,158,18,0.0700049013087137,1
825,138,18,0.0769199466442204,1
829,161,18,0.077675309026861,1
829,162,18,0.0793913857532105,1
830,160,18,0.0820245636008411,1
830,161,18,0.105265649430773,1
830,162,18,0.110410424753024,1
830,163,18,0.0885795878329425,1
831,160,18,0.0819138135435058,1
831,161,18,0.110785064697164,1
831,162,18,0.118670966501264,1
832,161,18,0.0791223240083435,1
812,147,19,0.0738819457775727,1
813,146,19,0.083736191417029,1
813,147,19,0.0980416689930759,1
813,148,19,0.0884032093993015,1
813,149,19,0.0718715458383448,1
814,146,19,0.0868446379955168,1
814,147,19,0.0994910474580818,1
814,148,19,0.0899249035086997,1
814,149,19,0.0744478193444397,1
814,150,19,0.0733684511764364,1
815,146,19,0.0751682647337338,1
815,147,19,0.0835014905517383,1
815,148,19,0.079468831547133,1
815,149,19,0.0716750777947553,1
815,150,19,0.0713786343981281,1
815,151,19,0.0703985394895276,1
820,135,19,0.0728839857141046,1
821,134,19,0.0732544339507012,1
821,135,19,0.0962381572792067,1
821,136,19,0.091143953552933,1
822,134,19,0.0721855763329547,1
822,135,19,0.0968351871200492,1
822,136,19,0.091789045526365,1
823,158,19,0.0745945430112849,1
823,159,19,0.0705766488272784,1
824,138,19,0.072413819327089,1
824,154,19,0.0711749785840587,1
824,155,19,0.078579160737567,1
824,156,19,0.075842587437212,1
824,157,19,0.0704660656040741,1
824,158,19,0.0716536674146026,1
825,138,19,0.0776208168288035,1
825,154,19,0.0793292191851243,1
825,155,19,0.0880879346001308,1
825,156,19,0.080162666892523,1
826,154,19,0.0710164305481747,1
826,155,19,0.0769679740196993,1
826,156,19,0.0703470016458743,1
829,161,19,0.0864401694990282,1
829,162,19,0.0858159804519336,1
829,163,19,0.0727020252884951,1
830,160,19,0.0794602048322727,1
830,161,19,0.0991985385663787,1
830,162,19,0.094672710918938,1
830,163,19,0.0767585137681535,1
831,160,19,0.0787342539166537,1
831,161,19,0.0943501510293777,1
831,162,19,0.0886510275981468,1
810,141,20,0.0714051054135896,1
811,141,20,0.0783959838130853,1
811,142,20,0.075081587451226,1
812,141,20,0.0727399244419343,1
812,142,20,0.0724473460360099,1
812,147,20,0.0804609941245468,1
812,148,20,0.0724204509837986,1
813,146,20,0.090824570463285,1
813,147,20,0.117493492912775,1
813,148,20,0.0994809748474191,1
813,149,20,0.0781146597595853,1
813,150,20,0.0738925258420508,1
814,146,20,0.0929432735592594,1
814,147,20,0.119905497362575,1
814,148,20,0.101881954341725,1
814,149,20,0.0797770019928893,1
814,150,20,0.0756183554136452,1
814,151,20,0.0721500337116168,1
815,146,20,0.0764781212052187,1
815,147,20,0.0907265623627094,1
815,148,20,0.0823823115892108,1
815,149,20,0.0733837721108054,1
815,150,20,0.0723782071915298,1
815,151,20,0.0726810667507807,1
818,143,20,0.0699846657189005,1
819,142,20,0.0736429211277186,1
819,143,20,0.0810197563865774,1
819,144,20,0.0717527599370301,1
820,142,20,0.0700566963549857,1
820,143,20,0.0798513474525429,1
820,144,20,0.0708416578930451,1
821,135,20,0.0839193405358223,1
821,136,20,0.0805339075912421,1
821,143,20,0.0726274017719564,1
822,135,20,0.0802536679595941,1
822,136,20,0.0797206885222344,1
823,155,20,0.0702906325638424,1
823,156,20,0.0708272962549297,1
823,157,20,0.071309551165025,1
823,158,20,0.0732639504475937,1
823,159,20,0.0698312964925015,1
824,154,20,0.0745536338920645,1
824,155,20,0.0927587828159955,1
824,156,20,0.0832559871764613,1
824,157,20,0.0722777521903653,1
824,158,20,0.0701411074738799,1
825,138,20,0.0745814465319967,1
825,139,20,0.072156373408597,1
825,154,20,0.0896490224187256,1
825,155,20,0.114604885059069,1
825,156,20,0.0959725781968256,1
825,157,20,0.071102370979937,1
826,154,20,0.0744718643135788,1
826,155,20,0.0926466007657019,1
826,156,20,0.0795802558924147,1
828,161,20,0.0755034623087219,1
828,162,20,0.0736645191962688,1
829,160,20,0.0698775095468051,1
829,161,20,0.0877457230402161,1
829,162,20,0.0875674955282892,1
829,163,20,0.0738218576847026,1
830,160,20,0.0717414986331836,1
830,161,20,0.0864745303786045,1
830,162,20,0.0832788365009944,1
830,163,20,0.0697441743189775,1
831,160,20,0.0706197754501574,1
831,161,20,0.0760283155336145,1
807,147,21,0.101444077310491,1
807,148,21,0.126279423145411,1
808,147,21,0.11257445112127,1
808,148,21,0.144289556872977,1
810,141,21,0.0826967869748367,1
810,142,21,0.080176187408561,1
811,141,21,0.0883338272550469,1
811,142,21,0.0876804630892832,1
811,143,21,0.0719010337710097,1
812,141,21,0.0775580593898364,1
812,142,21,0.0795363715645238,1
812,147,21,0.0809245497091191,1
812,148,21,0.0757771954092586,1
813,146,21,0.0849662733681787,1
813,147,21,0.116613943373827,1
813,148,21,0.102507074879384,1
813,149,21,0.0835109792429423,1
813,150,21,0.0750700689447608,1
814,146,21,0.0865920650239363,1
814,147,21,0.117626153852656,1
814,148,21,0.101873369335397,1
814,149,21,0.0825303073663052,1
814,150,21,0.075107752604114,1
814,151,21,0.0702585795564125,1
815,146,21,0.0738038117928596,1
815,147,21,0.0861375949480846,1
815,148,21,0.0780272664805984,1
815,149,21,0.0723676201756296,1
815,150,21,0.0710464398374991,1
815,154,21,0.0705322431427279,1
816,144,21,0.0729660263980533,1
816,145,21,0.0782660547821002,1
816,146,21,0.0702695558519518,1
816,159,21,0.0767161309474421,1
817,144,21,0.0788553546415369,1
817,145,21,0.0823169056584131,1
817,146,21,0.0703045910194744,1
818,143,21,0.0759912227451422,1
818,144,21,0.073743584671547,1
819,142,21,0.0742013010615322,1
819,143,21,0.0857875074268994,1
819,144,21,0.0719440978310896,1
820,142,21,0.0766247197464655,1
820,143,21,0.0919415805821088,1
820,144,21,0.0736797845192608,1
821,143,21,0.0794139987293913,1
822,162,21,0.0708764219551047,1
822,163,21,0.0729456031198427,1
822,164,21,0.073182889914165,1
823,155,21,0.0712486219500774,1
823,156,21,0.0729228858723301,1
823,157,21,0.0713123247824538,1
823,158,21,0.0700029896676286,1
823,162,21,0.0698421546138646,1
823,163,21,0.0719790634843909,1
823,164,21,0.0740105262326651,1
824,154,21,0.0702217022620261,1
824,155,21,0.0950006512092249,1
824,156,21,0.0876762505274739,1
824,157,21,0.0731127153077878,1
825,139,21,0.0701003512859464,1
825,154,21,0.0870047918099123,1
825,155,21,0.124143445765449,1
825,156,21,0.109614396550938,1
825,157,21,0.0779699728594236,1
826,155,21,0.0951056593918829,1
826,156,21,0.0867278958123076,1
828,161,21,0.0783831375849936,1
828,162,21,0.0765505063638323,1
828,163,21,0.0698638082937918,1
829,161,21,0.0830325337121729,1
829,162,21,0.0841496063937957,1
829,163,21,0.0729379774097689,1
830,161,21,0.0739955598208246,1
830,162,21,0.0755062706832614,1
806,147,22,0.0740977457260988,1
806,148,22,0.0845543529471694,1
807,146,22,0.0735751864705083,1
807,147,22,0.119662114171047,1
807,148,22,0.159370389121703,1
807,149,22,0.111995627054979,1
808,146,22,0.0699818990528938,1
808,147,22,0.13545288125881,1
808,148,22,0.186797030485934,1
808,149,22,0.131046791857516,1
809,147,22,0.0852120826060292,1
809,148,22,0.11638046595883,1
810,140,22,0.0720617367477532,1
810,141,22,0.0860795922818527,1
810,142,22,0.083159466680221,1
811,140,22,0.0710666823787344,1
811,141,22,0.0883095598403998,1
811,142,22,0.0885111441306752,1
811,143,22,0.0728063939403174,1
812,141,22,0.0721394327928723,1
812,142,22,0.0764375248999941,1
812,147,22,0.0763290340548502,1
812,148,22,0.0786219189350733,1
812,149,22,0.0738785187264639,1
813,146,22,0.0719777844227194,1
813,147,22,0.100303147348127,1
813,148,22,0.0975504119913255,1
813,149,22,0.0842984710986561,1
813,150,22,0.0730332744557148,1
814,146,22,0.0721388349705693,1
814,147,22,0.097831006145502,1
814,148,22,0.0929509757349766,1
814,149,22,0.0810837581301053,1
814,150,22,0.0726095713741994,1
814,154,22,0.0700795873880515,1
815,144,22,0.0723182094671474,1
815,145,22,0.0725260361344932,1
815,147,22,0.0740015449952764,1
815,148,22,0.0703163945342469,1
815,153,22,0.0726833051087058,1
815,154,22,0.073724829734647,1
815,155,22,0.0723966215087456,1
815,159,22,0.0955392265413972,1
816,143,22,0.0790147437994983,1
816,144,22,0.0972078528603045,1
816,145,22,0.0938229760294945,1
816,146,22,0.0718585327761222,1
816,158,22,0.079490040336044,1
816,159,22,0.0956159493874184,1
816,160,22,0.0765415042721772,1
817,143,22,0.0813648944952077,1
817,144,22,0.0972474898692754,1
817,145,22,0.0933035101567507,1
817,146,22,0.0715766387060078,1
817,158,22,0.0794335322255695,1
817,159,22,0.0906401700885088,1
817,160,22,0.0751761963063813,1
818,143,22,0.0768932392804066,1
818,144,22,0.0774928063903256,1
818,145,22,0.0714274542357295,1
818,159,22,0.0723839073576744,1
819,142,22,0.069801940636857,1
819,143,22,0.08175898451846,1
820,142,22,0.0755290226878847,1
820,143,22,0.0904295419980456,1
821,143,22,0.074312405641396,1
821,162,22,0.0719028063836522,1
821,163,22,0.0782614946491845,1
821,164,22,0.0812971042266204,1
822,161,22,0.0709065216129168,1
822,162,22,0.0761303832647126,1
822,163,22,0.0807557344227528,1
822,164,22,0.0834947337694303,1
822,165,22,0.0832816170698454,1
823,156,22,0.0706183504086213,1
823,160,22,0.0712364847670428,1
823,161,22,0.075861286762735,1
823,162,22,0.0767529734847179,1
823,163,22,0.0753435378912566,1
823,164,22,0.0761460378673437,1
824,155,22,0.0817836968241232,1
824,156,22,0.0844325501286514,1
824,157,22,0.0723147129018172,1
824,160,22,0.0702012094695943,1
824,161,22,0.0749690508784039,1
824,162,22,0.0742457345517712,1
825,154,22,0.0732192875604245,1
825,155,22,0.107775995649411,1
825,156,22,0.109354684468832,1
825,157,22,0.0817832658359513,1
825,161,22,0.0705847055255242,1
825,162,22,0.0708951560377383,1
826,155,22,0.0809204622729082,1
826,156,22,0.0851473718174443,1
827,161,22,0.0726895474857763,1
827,162,22,0.0725890785817675,1
827,163,22,0.0713880883322215,1
828,160,22,0.0716682932067589,1
828,161,22,0.0783553040907951,1
828,162,22,0.0773254091940733,1
828,163,22,0.0732074353856972,1
829,161,22,0.0748266370932779,1
829,162,22,0.0769077747040752,1
829,163,22,0.0707760156138951,1
806,147,23,0.0798517436836042,1
806,148,23,0.089015017963587,1
807,146,23,0.0755645166492677,1
807,147,23,0.118428626023055,1
807,148,23,0.155952944878226,1
807,149,23,0.113209519143994,1
808,146,23,0.0710583823807142,1
808,147,23,0.133018048338744,1
808,148,23,0.182777954560166,1
808,149,23,0.133075133417255,1
809,147,23,0.0815459651387849,1
809,148,23,0.113858948804834,1
810,140,23,0.0727202588687356,1
810,141,23,0.0783333932082493,1
810,142,23,0.077269568420123,1
810,148,23,0.0790697573542153,1
810,149,23,0.0887381011117159,1
811,141,23,0.0759790160478863,1
811,142,23,0.0788569604200483,1
811,148,23,0.0804258894428029,1
811,149,23,0.0896067716750347,1
812,147,23,0.0720651846531285,1
812,148,23,0.081824738020364,1
812,149,23,0.0808072931206725,1
813,147,23,0.0832748185790047,1
813,148,23,0.0880873854377828,1
813,149,23,0.0795246792725053,1
814,147,23,0.0786324016796415,1
814,148,23,0.0817449565486067,1
814,149,23,0.0751726580325184,1
814,155,23,0.0718085868081361,1
815,144,23,0.080104003841189,1
815,145,23,0.0768409506831635,1
815,152,23,0.0707645457673847,1
815,153,23,0.0738135646381045,1
815,154,23,0.0739347835371639,1
815,155,23,0.0746276526348782,1
815,156,23,0.0707997199633499,1
815,157,23,0.0717969501274946,1
815,158,23,0.0815091782128861,1
815,159,23,0.0911325671234882,1
816,143,23,0.0877145389605522,1
816,144,23,0.11222310539268,1
816,145,23,0.106128126276976,1
816,146,23,0.0765951066882024,1
816,154,23,0.0699598143847947,1
816,155,23,0.0702324283063689,1
816,157,23,0.0713400887624311,1
816,158,23,0.0889672616935711,1
816,159,23,0.106085708699154,1
816,160,23,0.0818291660762592,1
817,143,23,0.085811475930395,1
817,144,23,0.106288662419589,1
817,145,23,0.101287364450049,1
817,146,23,0.0751860742772245,1
817,157,23,0.0699744540797952,1
817,158,23,0.0948492075267552,1
817,159,23,0.113267452296005,1
817,160,23,0.0876552850383374,1
818,143,23,0.0722802686051755,1
818,144,23,0.0775441634970035,1
818,145,23,0.0729835578846589,1
818,158,23,0.0714432687210696,1
818,159,23,0.0834872887963318,1
820,143,23,0.0728947673698243,1
820,163,23,0.0722395263200862,1
820,164,23,0.0761267754766284,1
821,162,23,0.0750380298401751,1
821,163,23,0.084396381879322,1
821,164,23,0.0929311919876018,1
821,165,23,0.0856524412949621,1
822,160,23,0.0734665496454997,1
822,161,23,0.0776593485616562,1
822,162,23,0.0799093779244633,1
822,163,23,0.0837786646062281,1
822,164,23,0.089925299739761,1
822,165,23,0.0928744266745086,1
823,159,23,0.0731282864933534,1
823,160,23,0.081726875899653,1
823,161,23,0.087255626925961,1
823,162,23,0.0831398219612887,1
823,163,23,0.0764962227084387,1
823,164,23,0.0767220813647833,1
823,165,23,0.090793657489084,1
824,156,23,0.0754344485898401,1
824,157,23,0.0707500798579374,1
824,159,23,0.0709516850024792,1
824,160,23,0.0787520843144107,1
824,161,23,0.084858720965022,1
824,162,23,0.0802116744185219,1
824,163,23,0.0707093584271145,1
825,155,23,0.0809943558901235,1
825,156,23,0.0921365193128302,1
825,157,23,0.0794830193996952,1
825,161,23,0.0742282656279648,1
825,162,23,0.0736573453286332,1
826,156,23,0.0725403004526989,1
826,162,23,0.0707425445163512,1
827,161,23,0.0724838966135563,1
827,162,23,0.0737740388518875,1
827,163,23,0.0736535359493073,1
828,161,23,0.0736170826916707,1
828,162,23,0.073832674097533,1
828,163,23,0.0724218829767569,1
806,147,24,0.0731967719041536,1
806,148,24,0.0785362218030854,1
807,147,24,0.0981038494640064,1
807,148,24,0.122208684250391,1
807,149,24,0.0966438770316782,1
808,147,24,0.105372715234381,1
808,148,24,0.139338712325238,1
808,149,24,0.112451480463834,1
809,147,24,0.0754340036988239,1
809,148,24,0.102588253586989,1
809,149,24,0.0994996116101429,1
810,148,24,0.0979392675937157,1
810,149,24,0.115141771195665,1
810,150,24,0.0871072905291823,1
811,148,24,0.0958425240402422,1
811,149,24,0.112149086649866,1
811,150,24,0.0845604632472195,1
812,148,24,0.0800141289045026,1
812,149,24,0.0846673413624298,1
813,148,24,0.0741865570951998,1
814,156,24,0.0698235595596736,1
815,144,24,0.0789793054494923,1
815,145,24,0.073723578478664,1
815,153,24,0.0736519788307508,1
815,154,24,0.07314761839829,1
815,155,24,0.0734219701753961,1
815,156,24,0.0714775809406909,1
815,157,24,0.0709358774685612,1
815,158,24,0.0772969778775718,1
815,159,24,0.0799834314243875,1
816,143,24,0.0855646448334918,1
816,144,24,0.107417302267632,1
816,145,24,0.102994008096572,1
816,146,24,0.0743924304129278,1
816,153,24,0.0698563633206932,1
816,154,24,0.0724702231662315,1
816,155,24,0.0716672157363291,1
816,157,24,0.0709384703490148,1
816,158,24,0.0869224939233448,1
816,159,24,0.100859636495122,1
816,160,24,0.0792054560655663,1
817,143,24,0.080647903962711,1
817,144,24,0.0983237507515878,1
817,145,24,0.0970147423536025,1
817,146,24,0.072958046165451,1
817,158,24,0.0932877373799434,1
817,159,24,0.112503991506586,1
817,160,24,0.0877433039453158,1
818,159,24,0.0812216534908485,1
818,161,24,0.0759556314638494,1
818,162,24,0.0811504917825293,1
819,161,24,0.0726194910535753,1
819,162,24,0.0798279976256167,1
819,163,24,0.0729132025413065,1
820,162,24,0.0731059863311684,1
820,163,24,0.0772462116417746,1
820,164,24,0.0799588233900562,1
820,165,24,0.0712361232930922,1
821,158,24,0.0708602251415476,1
821,159,24,0.0698625292321203,1
821,161,24,0.0698552719474192,1
821,162,24,0.076739237474594,1
821,163,24,0.0882374318844049,1
821,164,24,0.0986802961439294,1
821,165,24,0.0884653829188098,1
822,158,24,0.0700492930904199,1
822,159,24,0.072484807249855,1
822,160,24,0.0781113786883412,1
822,161,24,0.0810005704615055,1
822,162,24,0.0817113047140875,1
822,163,24,0.0837605283458974,1
822,164,24,0.0905005716293444,1
822,165,24,0.092343629983697,1
823,159,24,0.075544684241938,1
823,160,24,0.0889998569119269,1
823,161,24,0.0950018746595193,1
823,162,24,0.0871270464708686,1
823,163,24,0.0754484418025827,1
823,164,24,0.0740819034350703,1
823,165,24,0.087235015959353,1
824,159,24,0.0714907886427332,1
824,160,24,0.0843320117104213,1
824,161,24,0.0918145224884623,1
824,162,24,0.0840743224921549,1
824,163,24,0.0706571601983591,1
825,160,24,0.0704830340254874,1
825,161,24,0.0766995865627787,1
825,162,24,0.0759614219984816,1
825,163,24,0.0702051509259406,1
826,162,24,0.0747302069655252,1
826,163,24,0.074176699978623,1
826,164,24,0.071003577368661,1
827,161,24,0.073247121054623,1
827,162,24,0.0789161170223533,1
827,163,24,0.0777974663679075,1
827,164,24,0.0717080553413282,1
828,161,24,0.0704545401461867,1
828,162,24,0.0741676561784351,1
828,163,24,0.0732085337103933,1
807,147,25,0.0727286075267107,1
807,148,25,0.0838226462540288,1
808,148,25,0.0918098024728377,1
808,149,25,0.0878179344132766,1
809,147,25,0.0718848300060305,1
809,148,25,0.0884313000961187,1
809,149,25,0.097041595697281,1
809,150,25,0.0752539201571889,1
810,147,25,0.0749058833055314,1
810,148,25,0.101138346813902,1
810,149,25,0.120564964876966,1
810,150,25,0.0892868255201944,1
811,147,25,0.0702850783775625,1
811,148,25,0.0958038463275248,1
811,149,25,0.113726871784411,1
811,150,25,0.0837094840532152,1
812,148,25,0.0721565958541051,1
812,149,25,0.0804085317417506,1
814,156,25,0.0713475406869518,1
815,153,25,0.0733994406162808,1
815,154,25,0.0729273695396023,1
815,155,25,0.0740076066353716,1
815,156,25,0.0730372715234381,1
815,157,25,0.0706336157316133,1
815,158,25,0.0724588645424752,1
816,143,25,0.0719700474898915,1
816,144,25,0.0851014437714479,1
816,145,25,0.08473027258695,1
816,153,25,0.0701748844339974,1
816,154,25,0.0738432680648553,1
816,155,25,0.0730298821617165,1
816,158,25,0.0777099827204329,1
816,159,25,0.0831523553753846,1
817,144,25,0.0784871100057547,1
817,145,25,0.0817051527055046,1
817,154,25,0.0702605607117189,1
817,158,25,0.0795287319516056,1
817,159,25,0.0891070617439772,1
817,160,25,0.080047134256764,1
817,161,25,0.0813779631688075,1
817,162,25,0.0883585256578659,1
818,159,25,0.0712189880375479,1
818,160,25,0.0719874399480545,1
818,161,25,0.0923935064374618,1
818,162,25,0.107726571038084,1
818,163,25,0.083701893100252,1
819,156,25,0.0705288021887748,1
819,161,25,0.0805363405889868,1
819,162,25,0.0943448888028272,1
819,163,25,0.0789867434711687,1
820,162,25,0.0769712759452099,1
820,163,25,0.0795231152025266,1
820,164,25,0.0797150370160448,1
820,165,25,0.0710481985472974,1
821,158,25,0.0720753754379674,1
821,159,25,0.0727687241838085,1
821,160,25,0.07212076822446,1
821,161,25,0.0722061942509848,1
821,162,25,0.0785380708813714,1
821,163,25,0.0885212723527149,1
821,164,25,0.0944925648145038,1
821,165,25,0.0851947735649317,1
822,159,25,0.0736358654342592,1
822,160,25,0.0795905370457412,1
822,161,25,0.0834800176087864,1
822,162,25,0.0834500569794169,1
822,163,25,0.0839451511661817,1
822,164,25,0.0859600834326367,1
822,165,25,0.0864082555200409,1
823,159,25,0.0743729455767044,1
823,160,25,0.0880930021868618,1
823,161,25,0.0961147764878657,1
823,162,25,0.0883391103358638,1
823,163,25,0.0770852514624124,1
823,164,25,0.0734564075206157,1
823,165,25,0.0826829605962251,1
824,160,25,0.0830488069913733,1
824,161,25,0.0921332938529631,1
824,162,25,0.0847335745124606,1
824,163,25,0.0730733980642347,1
824,165,25,0.0699887879122221,1
825,160,25,0.0708211790034575,1
825,161,25,0.0776703179057734,1
825,162,25,0.0780520830575936,1
825,163,25,0.0739032657892378,1
825,164,25,0.0704027659541811,1
826,161,25,0.0714132316260566,1
826,162,25,0.0796281581422953,1
826,163,25,0.079278661491991,1
826,164,25,0.0741178909474243,1
827,161,25,0.073877489915989,1
827,162,25,0.0839648236908025,1
827,163,25,0.0814750328273958,1
827,164,25,0.0731029833168093,1
828,162,25,0.0758023943144708,1
828,163,25,0.0741920973786354,1
808,149,26,0.0720129377644182,1
809,148,26,0.0739104674625619,1
809,149,26,0.0878851685680938,1
809,150,26,0.0795358154507536,1
810,147,26,0.0714233876537849,1
810,148,26,0.088441567346601,1
810,149,26,0.10410322567119,1
810,150,26,0.0841486123404315,1
811,148,26,0.0829083117987544,1
811,149,26,0.0967864854566239,1
811,150,26,0.0768703969072956,1
812,149,26,0.0707154478728982,1
814,155,26,0.0711535960095945,1
814,156,26,0.0737597606308377,1
814,157,26,0.0700621949298885,1
815,153,26,0.0720184224364768,1
815,154,26,0.0731262288724037,1
815,155,26,0.0763411712378848,1
815,156,26,0.0761251488438506,1
815,157,26,0.0719427214495083,1
816,154,26,0.0737511756245102,1
816,155,26,0.0732725910652982,1
816,156,26,0.0702751100382317,1
816,158,26,0.0697465517053451,1
817,159,26,0.0706650431110517,1
817,161,26,0.0852580732148247,1
817,162,26,0.0960471669562536,1
818,160,26,0.0741810376660305,1
818,161,26,0.0983524253678637,1
818,162,26,0.117261690790511,1
818,163,26,0.0860859667359436,1
819,156,26,0.0711750620011242,1
819,161,26,0.0781217154530448,1
819,162,26,0.0936048612573999,1
819,163,26,0.0765780061897687,1
820,162,26,0.0748359311446623,1
820,163,26,0.0768221470863086,1
820,164,26,0.0750551789985637,1
821,159,26,0.0731528319648856,1
821,160,26,0.0728822478585727,1
821,161,26,0.0736652629984364,1
821,162,26,0.0778436794222111,1
821,163,26,0.0845784882847961,1
821,164,26,0.0843330752780068,1
821,165,26,0.0767302006258282,1
822,159,26,0.0712744186775926,1
822,160,26,0.0765541072004944,1
822,161,26,0.0824724437285159,1
822,162,26,0.0821459632368758,1
822,163,26,0.0813646303411669,1
822,164,26,0.0775349876197952,1
822,165,26,0.0763916941739075,1
823,160,26,0.0788029061615849,1
823,161,26,0.0887015713884359,1
823,162,26,0.0845622636655505,1
823,163,26,0.0765136221180238,1
823,164,26,0.0705011077230189,1
823,165,26,0.075315315117419,1
824,160,26,0.0749539940980758,1
824,161,26,0.0843729764410187,1
824,162,26,0.0811195023426849,1
824,163,26,0.0740031646766321,1
825,161,26,0.0746252613456663,1
825,162,26,0.0770720020518374,1
825,163,26,0.0760372898195811,1
825,164,26,0.0713274232713148,1
826,161,26,0.0715861830085888,1
826,162,26,0.0805261080956151,1
826,163,26,0.0819617296962306,1
826,164,26,0.0754719793179064,1
827,161,26,0.072284606292583,1
827,162,26,0.082347484964352,1
827,163,26,0.0814694925439602,1
827,164,26,0.0732528142693455,1
828,162,26,0.0725647277500549,1
828,163,26,0.0719467741286087,1
830,165,26,0.0735291263474915,1
830,166,26,0.0699597587734177,1
831,164,26,0.071072278273547,1
831,165,26,0.0740403617364363,1
808,149,27,0.0703578389129711,1
809,148,27,0.0697840129191902,1
809,149,27,0.0808359399312599,1
809,150,27,0.0815843647946172,1
810,148,27,0.0752909295285957,1
810,149,27,0.0833387508083114,1
810,150,27,0.0771960779853911,1
811,149,27,0.0763829701391374,1
814,155,27,0.0711328877230767,1
814,156,27,0.0731781698985404,1
815,154,27,0.0729517551284256,1
815,155,27,0.0758922344940466,1
815,156,27,0.0765875296380834,1
818,161,27,0.0862411711377843,1
818,162,27,0.098611358890691,1
819,161,27,0.072128456497333,1
819,162,27,0.0814643345887416,1
819,163,27,0.0706928070910289,1
820,161,27,0.0707314848037463,1
820,162,27,0.0741205811477877,1
820,163,27,0.0727550507364837,1
821,159,27,0.0706518979718086,1
821,160,27,0.0739143672103754,1
821,161,27,0.0767886412316541,1
821,162,27,0.0784192015629911,1
821,163,27,0.0775654000916031,1
821,164,27,0.0727625096124265,1
822,160,27,0.0731481467063717,1
822,161,27,0.0794736975426222,1
822,162,27,0.0802084767643432,1
822,163,27,0.0760908088185407,1
822,164,27,0.0702487641483685,1
823,160,27,0.0706233971410858,1
823,161,27,0.0788904871289692,1
823,162,27,0.0795235322878543,1
823,163,27,0.0739419435019552,1
824,161,27,0.074672461501912,1
824,162,27,0.0761194417262839,1
824,163,27,0.0727574420256956,1
825,161,27,0.0715370851141023,1
825,162,27,0.0753679234800799,1
825,163,27,0.0760022337977921,1
825,164,27,0.0721182726639162,1
826,161,27,0.070718763701253,1
826,162,27,0.0778970663441503,1
826,163,27,0.0801500361585173,1
826,164,27,0.0750906868627909,1
827,162,27,0.0762042421248173,1
827,163,27,0.076978206513071,1
827,164,27,0.0726159736339788,1
829,165,27,0.0734941398399238,1
829,166,27,0.0726277771487513,1
830,164,27,0.074692578917549,1
830,165,27,0.0819994342098502,1
830,166,27,0.0794917503858873,1
831,164,27,0.0748623256944804,1
831,165,27,0.081464897653934,1
831,166,27,0.0773614106092716,1
808,149,28,0.0704530177847408,1
808,150,28,0.0753462211401978,1
809,149,28,0.073129023344099,1
809,150,28,0.0769931242649566,1
814,154,28,0.071047141931134,1
814,155,28,0.0712603420477844,1
814,156,28,0.070487427324272,1
815,154,28,0.0704642929914316,1
815,155,28,0.0725601815199835,1
815,156,28,0.0731994412502505,1
818,161,28,0.0729561484272102,1
819,161,28,0.0721088951954662,1
819,162,28,0.0734084913678908,1
820,160,28,0.0739846182823959,1
820,161,28,0.0777352233341779,1
820,162,28,0.0769880497268036,1
820,163,28,0.0699577845695335,1
821,160,28,0.0751386447240486,1
821,161,28,0.0806457142647408,1
821,162,28,0.0810451707858755,1
821,163,28,0.0734063850869862,1
822,161,28,0.0759885742533116,1
822,162,28,0.0786646562783131,1
822,163,28,0.072973207217111,1
823,161,28,0.0722063819393823,1
823,162,28,0.0755189778829105,1
823,163,28,0.072518938732501,1
824,161,28,0.0704903052130327,1
824,162,28,0.073435435080057,1
824,163,28,0.0726236062954748,1
825,161,28,0.0716384646544098,1
825,162,28,0.0754447297431666,1
825,163,28,0.0758513392776705,1
825,164,28,0.0727269947967771,1
826,161,28,0.0700451917513646,1
826,162,28,0.0760716367963131,1
826,163,28,0.0773517133754037,1
826,164,28,0.0743307365415463,1
827,162,28,0.0706671215862678,1
827,163,28,0.0718248878930251,1
827,164,28,0.0710612672208971,1
828,166,28,0.0707674792675225,1
828,167,28,0.0709338824104106,1
829,164,28,0.0712043344397031,1
829,165,28,0.0774415396521353,1
829,166,28,0.0845172601586971,1
829,167,28,0.0845033086544872,1
829,168,28,0.0767639289259908,1
830,164,28,0.0763056564222354,1
830,165,28,0.0856277150864546,1
830,166,28,0.0919923676721723,1
830,167,28,0.0886055513945887,1
830,168,28,0.0782986291461896,1
831,164,28,0.0731227740156063,1
831,165,28,0.0815527149696707,1
831,166,28,0.0832338190912967,1
831,167,28,0.077173061826727,1
832,165,28,0.0710484835556046,1
832,166,28,0.0697741210455028,1
805,133,29,0.0842408855177519,1
805,134,29,0.074098844050795,1
813,154,29,0.0708186069772703,1
814,154,29,0.0712644989982167,1
819,160,29,0.0712574780618679,1
819,161,29,0.0757287787541405,1
819,162,29,0.0716078992513152,1
820,160,29,0.0746623680369829,1
820,161,29,0.0804736387613967,1
820,162,29,0.0765916796370935,1
821,160,29,0.0702171282262662,1
821,161,29,0.0769868610336197,1
821,162,29,0.0765007758899322,1
822,161,29,0.070833858397418,1
822,162,29,0.0731453591860986,1
822,163,29,0.0703055711699944,1
823,161,29,0.070525868688637,1
823,162,29,0.0729466875416946,1
823,163,29,0.0721898236518746,1
824,161,29,0.0726645015118509,1
824,162,29,0.0743726188598644,1
824,163,29,0.0731495369907972,1
825,161,29,0.074085761474351,1
825,162,29,0.0772199074604442,1
825,163,29,0.075119639535952,1
825,164,29,0.0710954334606537,1
826,162,29,0.0740450191892617,1
826,163,29,0.0730179952298785,1
826,164,29,0.0704889913942506,1
828,165,29,0.0715060748199915,1
828,166,29,0.0761425552048579,1
828,167,29,0.0793880073620565,1
829,164,29,0.0720415289636286,1
829,165,29,0.0805366742572489,1
829,166,29,0.092546833955328,1
829,167,29,0.100920211187541,1
829,168,29,0.0863814577877394,1
830,164,29,0.0738060084422519,1
830,165,29,0.0838816082165142,1
830,166,29,0.095461029993885,1
830,167,29,0.10215538853111,1
830,168,29,0.0859352320985309,1
831,164,29,0.0708615042032191,1
831,165,29,0.0780596670591347,1
831,166,29,0.081628464616594,1
831,167,29,0.0810888048625698,1
832,165,29,0.0719538576277566,1
803,135,30,0.0742354116899119,1
803,136,30,0.0964526364575286,1
803,137,30,0.0855395154425008,1
804,133,30,0.0811068646572571,1
804,135,30,0.075517754432616,1
804,136,30,0.0841469996104979,1
804,137,30,0.0716561699265685,1
805,132,30,0.0799472909807467,1
805,133,30,0.103872341136648,1
805,134,30,0.0838633746362738,1
806,133,30,0.0753425090807818,1
813,154,30,0.0712403914662785,1
818,161,30,0.0702017516805202,1
819,160,30,0.0736323202089742,1
819,161,30,0.0789919014263873,1
819,162,30,0.0728887821953726,1
820,160,30,0.0715526493482458,1
820,161,30,0.0779156196898086,1
820,162,30,0.074245887483058,1
821,162,30,0.0698264513512786,1
823,162,30,0.0709001610616701,1
823,163,30,0.0721335657925967,1
823,164,30,0.0699691779504004,1
824,161,30,0.0735225085936261,1
824,162,30,0.0773066473057511,1
824,163,30,0.0748709385064964,1
824,164,30,0.070261332319575,1
825,161,30,0.0747629829208563,1
825,162,30,0.0807386200214749,1
825,163,30,0.0758420521777082,1
825,164,30,0.0698693207715389,1
826,162,30,0.0735312951911953,1
826,163,30,0.0709970013233283,1
828,165,30,0.0743876895430369,1
828,166,30,0.0791033188202469,1
828,167,30,0.0821011335155755,1
828,168,30,0.0720627516553839,1
829,164,30,0.0719678021805443,1
829,165,30,0.0805430834684504,1
829,166,30,0.093162702150136,1
829,167,30,0.102639777527798,1
829,168,30,0.0834788080613362,1
830,164,30,0.0711726290033796,1
830,165,30,0.0798414555788555,1
830,166,30,0.0920264504948634,1
830,167,30,0.100138141441087,1
830,168,30,0.0806628147631745,1
831,165,30,0.0741107796425879,1
831,166,30,0.0775308237179409,1
831,167,30,0.0772889142279039,1
832,164,30,0.0700778008725648,1
832,165,30,0.0709482718542146,1
802,136,31,0.113624887470379,1
802,137,31,0.11748929425381,1
802,138,31,0.0792430493564318,1
803,135,31,0.0828307686849222,1
803,136,31,0.13293553495809,1
803,137,31,0.124736388170081,1
803,138,31,0.0764197362107698,1
804,131,31,0.0708389120813047,1
804,132,31,0.0875170768635984,1
804,133,31,0.0895504721072241,1
804,134,31,0.0708862373631487,1
804,135,31,0.0743433464212855,1
804,136,31,0.0923910456340286,1
804,137,31,0.0789187238056511,1
805,131,31,0.0750674204529302,1
805,132,31,0.100102564062638,1
805,133,31,0.108890009705298,1
805,134,31,0.0833977405764853,1
806,133,31,0.0726235993440527,1
818,161,31,0.0700834454273323,1
819,160,31,0.0729395484311697,1
819,161,31,0.0753229269246486,1
819,162,31,0.0711524281706771,1
820,161,31,0.0711989748932428,1
820,162,31,0.0700840502010574,1
823,162,31,0.0716203422969234,1
823,163,31,0.0706956502226791,1
824,161,31,0.0716125428012963,1
824,162,31,0.0790635705885219,1
824,163,31,0.0741313767063517,1
824,164,31,0.0700910711374061,1
825,161,31,0.0731184363281988,1
825,162,31,0.0826901205610165,1
825,163,31,0.0759458925214487,1
825,164,31,0.070203976135601,1
826,162,31,0.0745773173872529,1
826,163,31,0.071230603863923,1
827,165,31,0.0703777755916328,1
827,166,31,0.0697892125829416,1
828,164,31,0.0710633248418468,1
828,165,31,0.0737664131418137,1
828,166,31,0.0771527567226925,1
828,167,31,0.0776069487416591,1
828,168,31,0.0702888251940893,1
829,164,31,0.0714632193025755,1
829,165,31,0.0766932468657984,1
829,166,31,0.0853785969716713,1
829,167,31,0.0892128901944463,1
829,168,31,0.0750000681239368,1
830,165,31,0.0755615692462857,1
830,166,31,0.0833656945204776,1
830,167,31,0.0855880363689508,1
830,168,31,0.0709929069356952,1
831,165,31,0.0737461566977341,1
831,166,31,0.075128148076636,1
831,167,31,0.0720135355867212,1
832,165,31,0.0698180401305043,1
852,152,31,0.0815856925162435,1
852,153,31,0.0706044753700548,1
802,136,32,0.131378360790153,1
802,137,32,0.153908698464659,1
802,138,32,0.0982982042752692,1
803,135,32,0.0782286908881649,1
803,136,32,0.136478216022616,1
803,137,32,0.141961761950829,1
803,138,32,0.0830931779188132,1
804,131,32,0.0926134702878423,1
804,132,32,0.121047838463631,1
804,133,32,0.0981767698821239,1
804,136,32,0.0797073765488603,1
804,137,32,0.0711593795928046,1
805,131,32,0.0945201689117721,1
805,132,32,0.123757572323152,1
805,133,32,0.105520321731836,1
805,134,32,0.0732360265849076,1
806,132,32,0.0719455715325806,1
823,162,32,0.070892903776969,1
824,162,32,0.0767919709628532,1
824,163,32,0.0728206095985682,1
825,162,32,0.0786475557798795,1
825,163,32,0.0746025440981536,1
825,164,32,0.0704703824372153,1
826,162,32,0.072413819327089,1
826,163,32,0.0715804202796451,1
826,164,32,0.0708134907305845,1
827,163,32,0.0699721462076489,1
827,164,32,0.071859394752466,1
827,165,32,0.0708752541161873,1
827,166,32,0.0700446842975493,1
828,164,32,0.0720429192480541,1
828,165,32,0.0719869255428171,1
828,166,32,0.0727034294757649,1
828,167,32,0.0714771986124739,1
829,164,32,0.0699484627124605,1
829,165,32,0.0719860149065184,1
829,166,32,0.0750054902331963,1
829,167,32,0.0740662627352834,1
830,165,32,0.0723431372668966,1
830,166,32,0.0745418442801363,1
830,167,32,0.0717538930188369,1
831,165,32,0.0734760939480808,1
831,166,32,0.0723738208441674,1
802,136,33,0.116415765280394,1
802,137,33,0.148505205113666,1
802,138,33,0.0997077093829517,1
803,136,33,0.102018195264002,1
803,137,33,0.117736167059246,1
803,138,33,0.0745457996393269,1
804,131,33,0.102315771742436,1
804,132,33,0.137824094763566,1
804,133,33,0.0997565848319302,1
805,131,33,0.10034409817588,1
805,132,33,0.131694859039618,1
805,133,33,0.0961306326817385,1
806,132,33,0.0721677181295091,1
825,162,33,0.070402049957702,1
825,163,33,0.0714905314401144,1
825,164,33,0.0704936905556088,1
826,163,33,0.0714823218105819,1
826,164,33,0.0719309665946907,1
826,166,33,0.069809844403816,1
827,163,33,0.0713779323044932,1
827,164,33,0.0727526246901612,1
827,165,33,0.0707476816173034,1
827,166,33,0.0699752117848071,1
827,167,33,0.0699948217466288,1
828,164,33,0.0713693333953215,1
828,165,33,0.0700148001338232,1
831,165,33,0.0706028973972318,1
802,136,34,0.0838102727226418,1
802,137,34,0.103833149018693,1
802,138,34,0.0786258256343089,1
803,137,34,0.0758811747814417,1
804,131,34,0.0950851874537174,1
804,132,34,0.128168499914247,1
804,133,34,0.0909404298158841,1
805,131,34,0.0928504512195909,1
805,132,34,0.121168668083051,1
805,133,34,0.0847580365669273,1
810,156,34,0.0703484822987875,1
825,164,34,0.0704460733140354,1
826,163,34,0.0715764579690325,1
826,164,34,0.0727558362471841,1
826,165,34,0.0701955857690931,1
826,166,34,0.0714651865550376,1
827,163,34,0.0713650096107582,1
827,164,34,0.0727966480464947,1
827,165,34,0.0708509727986959,1
827,166,34,0.0701575614900557,1
828,164,34,0.0704664479322911,1
804,131,35,0.0757650790804903,1
804,132,35,0.0977364389988795,1
804,133,35,0.0719026604037875,1
804,151,35,0.0715715224593219,1
805,131,35,0.0748741292092529,1
805,132,35,0.0941741618753758,1
810,156,35,0.0730504097112591,1
826,163,35,0.0716360664137758,1
826,164,35,0.0717265739298758,1
826,165,35,0.0702795519969712,1
827,163,35,0.0706339424484533,1
827,164,35,0.0717372304599973,1
827,165,35,0.0710501379940709,1
827,166,35,0.0709634746144074,1
831,164,35,0.0697411295960857,1
825,163,36,0.0717038010709861,1
826,163,36,0.073404299660348,1
826,164,36,0.0724582319630616,1
827,163,36,0.0701138857048286,1
827,164,36,0.0716333484077239,1
827,165,36,0.0723283654948756,1
828,164,36,0.0709145991654289,1
829,164,36,0.0725613493589009,1
829,165,36,0.0756524521391806,1
830,164,36,0.0729964597241275,1
830,165,36,0.0740468682675477,1
824,163,37,0.0724503629532133,1
825,162,37,0.0710131842340411,1
825,163,37,0.0763154301217467,1
826,163,37,0.0740438583017665,1
826,164,37,0.073870128359956,1
827,163,37,0.0697773951653248,1
827,164,37,0.0735935729820355,1
828,164,37,0.0731722750925763,1
828,165,37,0.0799163641037014,1
829,164,37,0.0764956179347136,1
829,165,37,0.0863607355983773,1
829,166,37,0.081184713633663,1
830,164,37,0.0742171294497165,1
830,165,37,0.0808296558456566,1
830,166,37,0.075024557984092,1
823,163,38,0.073014804527122,1
824,162,38,0.0728328441015126,1
824,163,38,0.081646510508437,1
825,162,38,0.072088110443305,1
825,163,38,0.0819910646976087,1
825,164,38,0.0832096837536701,1
826,163,38,0.0763441603493996,1
827,164,38,0.0809418309445281,1
828,164,38,0.0757328175303966,1
829,164,38,0.0756233256804664,1
829,165,38,0.0885656432801548,1
830,164,38,0.0704830479283316,1
830,165,38,0.0792911949060868,1
823,163,39,0.0826748621894466,1
823,164,39,0.0824367273216248,1
824,162,39,0.0731867131963351,1
824,163,39,0.0915553317630163,1
824,164,39,0.0968307799184203,1
825,162,39,0.0698349320862742,1
825,163,39,0.0915732594806832,1
825,164,39,0.107185187331372,1
825,165,39,0.0978371790083513,1
826,163,39,0.0806711564697275,1
826,164,39,0.10112775284658,1
827,163,39,0.0702315454757587,1
828,164,39,0.0742608121863657,1
829,164,39,0.0699458767834291,1
822,163,40,0.0708379388822069,1
822,164,40,0.0700281955242629,1
823,163,40,0.0863296349357789,1
823,164,40,0.0892731312186032,1
823,165,40,0.0723542456394563,1
824,162,40,0.0703073437826369,1
824,163,40,0.0968194282460861,1
824,164,40,0.115233794121788,1
824,165,40,0.0917551225863828,1
825,163,40,0.100183318733493,1
825,164,40,0.133275000706264,1
825,165,40,0.112280114005547,1
826,164,40,0.111535032776233,1
822,163,41,0.0714620167065474,1
823,162,41,0.0703559620289967,1
823,163,41,0.086155668645616,1
823,164,41,0.0912557046150547,1
823,165,41,0.0714844419943308,1
824,162,41,0.0720576284572759,1
824,163,41,0.100573515960354,1
824,164,41,0.12431139212405,1
824,165,41,0.0929690633353524,1
825,163,41,0.105390184158187,1
825,164,41,0.142066756230643,1
825,165,41,0.111304224707334,1
826,164,41,0.106185628440815,1
822,163,42,0.0717459127862345,1
823,163,42,0.0811005666688096,1
823,164,42,0.0849148536987016,1
824,162,42,0.0703751062455358,1
824,163,42,0.0935560205655321,1
824,164,42,0.110508801278973,1
824,165,42,0.0841675341114625,1
825,163,42,0.0933873373561862,1
825,164,42,0.117937132672952,1
823,163,43,0.0715522392143403,1
823,164,43,0.0727897244300557,1
824,163,43,0.0770125604412251,1
824,164,43,0.0834146394836773,1
825,163,43,0.0731557376593349,1
823,160,44,0.070472002118571,1
820,128,45,0.0744969241903484,1
819,128,46,0.0775857260499039,1
820,127,46,0.0734182928730906,1
820,128,46,0.0941051829136046,1
820,129,46,0.0787362698290706,1
821,128,46,0.0763078044116728,1
819,128,47,0.0826884730739723,1
819,129,47,0.0706506606186699,1
820,127,47,0.0753999556332434,1
820,128,47,0.100653311334956,1
820,129,47,0.0832284803991028,1
821,128,47,0.0754375350212647,1
819,128,48,0.0767304369741805,1
819,129,48,0.0700307536476058,1
820,128,48,0.0878261440428092,1
820,129,48,0.0775718927198701,1
