x,y,z,signal,cytoplasm.p
650,709,33,0.0902548458085594,1
651,706,33,0.0836385169847155,1
652,702,33,0.09325626134055,1
653,702,33,0.0780070447936295,1
650,707,34,0.0927447757004086,1
650,709,34,0.0904827134258988,1
650,710,34,0.0866804593077095,1
651,706,34,0.081814651506857,1
651,707,34,0.0763747883152934,1
651,708,34,0.075978070654477,1
651,709,34,0.0777895695523707,1
651,710,34,0.0814129566277973,1
651,711,34,0.0861504898361311,1
651,712,34,0.0895579240317448,1
652,701,34,0.08780797997679,1
652,705,34,0.0733151754772513,1
652,710,34,0.0748035583718146,1
652,711,34,0.0824362824306087,1
652,712,34,0.0831707279840676,1
653,700,34,0.072650605619018,1
653,701,34,0.0749089002227347,1
653,702,34,0.0758038680159618,1
653,703,34,0.0734421988137871,1
653,711,34,0.0703673484584415,1
653,712,34,0.0702699034230582,1
666,685,34,0.08881225193155,1
668,685,34,0.093378766252703,1
679,701,34,0.0721149081756065,1
648,709,35,0.103757246440483,1
649,707,35,0.100960932618364,1
649,709,35,0.101524032567802,1
649,710,35,0.0946273181324454,1
649,711,35,0.0904776388877458,1
650,707,35,0.089202949660804,1
650,708,35,0.0894459922326478,1
650,709,35,0.091393822421306,1
650,710,35,0.0932535919944531,1
650,711,35,0.0970770479501313,1
650,712,35,0.102937235832056,1
651,706,35,0.0789778317480013,1
651,707,35,0.0722026907342326,1
651,708,35,0.0721167016425154,1
651,709,35,0.0780923387431339,1
651,710,35,0.088049013587639,1
651,711,35,0.0980858522321183,1
651,712,35,0.102836558385384,1
651,713,35,0.0997701609593452,1
652,701,35,0.0932846996084737,1
652,705,35,0.0718002172958946,1
652,710,35,0.0770609909991874,1
652,711,35,0.0870656167535279,1
652,712,35,0.0892111592903365,1
652,713,35,0.0834103991161795,1
653,700,35,0.0780277113716146,1
653,701,35,0.0777802059867649,1
653,702,35,0.0749083580118087,1
653,712,35,0.0708966436420736,1
659,687,35,0.0718966196179587,1
660,686,35,0.0725713663581866,1
660,687,35,0.0715670248892055,1
660,690,35,0.0711403118419089,1
660,691,35,0.0701381461680536,1
661,686,35,0.0711429186252067,1
661,687,35,0.0704452391433801,1
661,690,35,0.0705661521798659,1
661,691,35,0.0710434229202958,1
662,686,35,0.0702484582857949,1
662,687,35,0.0703554198180707,1
662,691,35,0.070445287803335,1
664,683,35,0.0905138696998743,1
664,684,35,0.0816919380520402,1
664,685,35,0.0711313862158972,1
665,684,35,0.0973026633067014,1
665,685,35,0.0766009945427444,1
666,685,35,0.084653723526482,1
666,686,35,0.0703860616868087,1
667,685,35,0.0898886170851942,1
667,686,35,0.0722274934083835,1
668,685,35,0.0894329930732693,1
668,686,35,0.0717080970498609,1
669,686,35,0.0708627137506693,1
679,700,35,0.134243639671199,1
679,701,35,0.0856678456463966,1
680,701,35,0.144687942875104,1
680,702,35,0.0894835577178248,1
680,703,35,0.0788459354645541,1
681,701,35,0.165957654049632,1
647,706,36,0.100633089647987,1
647,707,36,0.0973766403409823,1
647,708,36,0.0984409795343459,1
647,709,36,0.0960848506156068,1
648,707,36,0.102131593813168,1
648,708,36,0.105614847169926,1
648,709,36,0.103694801815511,1
648,710,36,0.0987067393537024,1
648,711,36,0.096349393936091,1
649,707,36,0.0977468869863372,1
649,708,36,0.102295682132487,1
649,709,36,0.104271742046405,1
649,710,36,0.107076592214897,1
649,711,36,0.113559537150958,1
649,712,36,0.115637796872995,1
650,707,36,0.0852445248930983,1
650,708,36,0.087046757545296,1
650,709,36,0.0932376523835147,1
650,710,36,0.107805740784694,1
650,711,36,0.125787846378242,1
650,712,36,0.130561429661729,1
650,713,36,0.118351117666333,1
651,706,36,0.0753106715674378,1
651,709,36,0.0769818421068437,1
651,710,36,0.0965922974794922,1
651,711,36,0.117751474090771,1
651,712,36,0.122705863863794,1
651,713,36,0.109487665174131,1
651,714,36,0.095728346931798,1
652,700,36,0.098479532121465,1
652,704,36,0.0811766291297287,1
652,710,36,0.0766310038320688,1
652,711,36,0.090383711271959,1
652,712,36,0.0934714634667732,1
652,713,36,0.0862469825266829,1
652,714,36,0.0787922079229306,1
653,699,36,0.0821412988326282,1
653,700,36,0.0827618383831059,1
653,701,36,0.0811680580262455,1
653,702,36,0.0741882671450431,1
653,712,36,0.0699352897675289,1
658,685,36,0.0748759226761618,1
658,686,36,0.0725878273257846,1
663,682,36,0.072379361127603,1
664,681,36,0.0885439756973834,1
664,682,36,0.0867431333296111,1
664,683,36,0.0845455385439117,1
664,684,36,0.0739307378094857,1
665,684,36,0.0897000945170964,1
666,685,36,0.0753973488499456,1
667,685,36,0.0796528078851594,1
668,684,36,0.105980005374283,1
668,685,36,0.0797360511651362,1
669,685,36,0.0775274036182542,1
679,699,36,0.114377399769947,1
679,700,36,0.141522014987044,1
679,701,36,0.0899564768680028,1
680,700,36,0.218358488954357,1
680,701,36,0.147384830506533,1
680,702,36,0.0945212672364683,1
680,703,36,0.0789544680182308,1
681,700,36,0.189564002355253,1
681,701,36,0.155849048923108,1
647,703,37,0.096115721881275,1
647,704,37,0.101220401400695,1
647,705,37,0.097477164856368,1
647,706,37,0.0945088172394379,1
647,707,37,0.0945141906887424,1
647,708,37,0.0945991787756733,1
647,709,37,0.0964735324324439,1
647,710,37,0.0956020326403192,1
647,711,37,0.0945244857449133,1
648,706,37,0.0963055999766877,1
648,707,37,0.0979946426223834,1
648,708,37,0.101115587857856,1
648,709,37,0.111441550051463,1
648,710,37,0.12284608795095,1
648,711,37,0.133698481342272,1
648,712,37,0.124225277906734,1
649,707,37,0.094308352128125,1
649,708,37,0.099290311241306,1
649,709,37,0.119303865680284,1
649,710,37,0.150290691789959,1
649,711,37,0.180729620710389,1
649,712,37,0.169890866009281,1
649,713,37,0.134155189776049,1
650,706,37,0.0877307357741093,1
650,707,37,0.081370254041668,1
650,708,37,0.083947514649705,1
650,709,37,0.1057472231015,1
650,710,37,0.147033171963947,1
650,711,37,0.189496893326034,1
650,712,37,0.183333039519891,1
650,713,37,0.14389610638056,1
651,705,37,0.0844949808507784,1
651,706,37,0.0722847105639149,1
651,709,37,0.0819298921828867,1
651,710,37,0.113798186424017,1
651,711,37,0.147654684713522,1
651,712,37,0.147151638099844,1
651,713,37,0.122246541695297,1
651,714,37,0.0984899662060784,1
652,699,37,0.106139749054773,1
652,700,37,0.10805140404268,1
652,704,37,0.0784457768497846,1
652,710,37,0.0784639617700701,1
652,711,37,0.0948125526778769,1
652,712,37,0.0969227194274787,1
652,713,37,0.0901024984412131,1
652,714,37,0.081302046687753,1
653,697,37,0.079546854309092,1
653,698,37,0.0822017762051375,1
653,699,37,0.0829215820635958,1
653,700,37,0.0840489011414346,1
653,701,37,0.0806585813470989,1
653,702,37,0.0732260930026874,1
653,712,37,0.0699224157337487,1
653,713,37,0.0720607565972333,1
653,714,37,0.0698493423843445,1
654,695,37,0.0706122123028827,1
654,696,37,0.0698644617274718,1
657,682,37,0.0744476386074644,1
658,685,37,0.0713993426846459,1
663,680,37,0.076289716811297,1
663,681,37,0.0716888207563014,1
664,680,37,0.0905091774899382,1
664,681,37,0.0861857752548503,1
664,682,37,0.0813780743915615,1
664,683,37,0.0783230286378572,1
665,682,37,0.103067700122545,1
665,683,37,0.0994743431907094,1
665,684,37,0.0809767340350303,1
666,684,37,0.0919830875236321,1
667,684,37,0.0947132585642077,1
667,685,37,0.0698168444858984,1
668,683,37,0.112998946664908,1
668,684,37,0.0933843343418271,1
668,685,37,0.070237669678653,1
669,684,37,0.091799132039872,1
669,685,37,0.0698266181854097,1
670,681,37,0.0980860399205158,1
670,682,37,0.104299770180423,1
670,683,37,0.101909662710325,1
670,684,37,0.0892667081045574,1
671,681,37,0.0795573509565046,1
671,682,37,0.0851908460114297,1
672,682,37,0.0730099037745221,1
672,683,37,0.077082067711078,1
672,684,37,0.0782830788148904,1
672,685,37,0.071723640429738,1
673,683,37,0.0737668510814077,1
673,684,37,0.0798321893331595,1
673,685,37,0.0786633146538425,1
674,683,37,0.0737531011684395,1
674,684,37,0.0802535567368401,1
674,685,37,0.0807889830747886,1
674,686,37,0.0720927748475525,1
675,684,37,0.0725154143614824,1
675,685,37,0.073118394619666,1
679,698,37,0.0741555607039333,1
679,699,37,0.104779314035889,1
679,700,37,0.120594508421008,1
679,701,37,0.087131321595477,1
680,698,37,0.090211642720037,1
680,699,37,0.140034716514332,1
680,700,37,0.17294913027143,1
680,701,37,0.134253357759333,1
680,702,37,0.0960267575808873,1
680,703,37,0.0791418366502554,1
681,700,37,0.148228788764188,1
681,701,37,0.136542043980591,1
646,707,38,0.0888449375183935,1
646,708,38,0.0868528615278937,1
647,703,38,0.0977771326240139,1
647,704,38,0.0964641271583054,1
647,705,38,0.0930985057667886,1
647,706,38,0.0930807587860971,1
647,707,38,0.0935412209878227,1
647,708,38,0.0940804080451422,1
647,709,38,0.106239105731242,1
647,710,38,0.120526676443888,1
647,711,38,0.122008399876053,1
648,705,38,0.0956125779476866,1
648,706,38,0.0943672515278114,1
648,707,38,0.0956050912660553,1
648,708,38,0.10352132907632,1
648,709,38,0.146954509671152,1
648,710,38,0.201591311211721,1
648,711,38,0.225335283772622,1
648,712,38,0.187225571757251,1
649,706,38,0.092214799277408,1
649,707,38,0.0900526219874483,1
649,708,38,0.102406828420884,1
649,709,38,0.16819249455509,1
649,710,38,0.261040526679781,2
649,711,38,0.317806090024142,2
649,712,38,0.270966351112884,2
649,713,38,0.177634986607668,1
650,706,38,0.0826403483785836,1
650,707,38,0.076431032271727,1
650,708,38,0.0838242450811181,1
650,709,38,0.137106346526057,1
650,710,38,0.224287273469836,1
650,711,38,0.29168670529952,2
650,712,38,0.261613323863087,1
650,713,38,0.178311304369297,1
651,700,38,0.126471393618884,1
651,705,38,0.0765617051048797,1
651,709,38,0.0901942016019191,1
651,710,38,0.137419800052631,1
651,711,38,0.181334894937874,1
651,712,38,0.172615295175179,1
651,713,38,0.133501589261932,1
651,714,38,0.0993980513328601,1
652,698,38,0.1032308569513,1
652,699,38,0.111972777730446,1
652,700,38,0.111044095539901,1
652,701,38,0.102061391401102,1
652,703,38,0.0844292412517187,1
652,704,38,0.0710301387526101,1
652,710,38,0.078148554893879,1
652,711,38,0.0960441013790954,1
652,712,38,0.0977553885755991,1
652,713,38,0.091960133927767,1
652,714,38,0.0829209286299158,1
653,695,38,0.0729515465857618,1
653,696,38,0.0744752635589991,1
653,697,38,0.0746968748964238,1
653,698,38,0.0776239449687609,1
653,699,38,0.0806384083200849,1
653,700,38,0.0810692157550145,1
653,701,38,0.0754825385281181,1
653,712,38,0.0703302278642807,1
653,713,38,0.0742552858057744,1
653,714,38,0.0727691273662919,1
657,682,38,0.0703050776190234,1
657,683,38,0.0739438273373517,1
657,687,38,0.0705512552822466,1
658,685,38,0.0697894419798718,1
663,679,38,0.0713994261017114,1
663,680,38,0.0699651252713001,1
664,679,38,0.0860738156500647,1
664,680,38,0.0890880843615692,1
664,681,38,0.0832198258785541,1
664,682,38,0.075414706550998,1
665,679,38,0.104913976985343,1
665,680,38,0.113651984113832,1
665,681,38,0.10574362921626,1
665,682,38,0.0928374173031018,1
665,683,38,0.0843398112060484,1
666,679,38,0.112691394895721,1
666,682,38,0.105135053063264,1
666,683,38,0.0948966648856196,1
666,684,38,0.0751757931238979,1
667,679,38,0.109106831512876,1
667,680,38,0.116951768586379,1
667,681,38,0.118047229296607,1
667,682,38,0.109636383899127,1
667,683,38,0.0994680869107947,1
667,684,38,0.0785216029623513,1
668,679,38,0.101095025551203,1
668,680,38,0.10675466490475,1
668,681,38,0.110564781081365,1
668,682,38,0.106449949315791,1
668,683,38,0.0982367676065063,1
668,684,38,0.0800535434679655,1
669,679,38,0.0943159778381989,1
669,680,38,0.0969709970541541,1
669,681,38,0.0997826040049534,1
669,682,38,0.0984258045798416,1
669,683,38,0.0949471669673759,1
669,684,38,0.0811298460588106,1
670,680,38,0.0840994310288794,1
670,681,38,0.0867837226834136,1
670,682,38,0.0894085727273354,1
670,683,38,0.0906645834830206,1
670,684,38,0.080874603741133,1
671,680,38,0.0713579400144545,1
671,681,38,0.0748098424574178,1
671,682,38,0.0782235398843684,1
671,683,38,0.0812867883161832,1
671,684,38,0.0751554810684414,1
672,682,38,0.0720800120365264,1
672,683,38,0.076186342212839,1
672,684,38,0.0756222412586145,1
673,682,38,0.0730077001737077,1
673,683,38,0.0800017484216935,1
673,684,38,0.0842222209493396,1
673,685,38,0.0817189860355383,1
674,682,38,0.0791494901660178,1
674,683,38,0.086794761541752,1
674,684,38,0.0884738288966948,1
674,685,38,0.0853494844158014,1
675,683,38,0.080742658797731,1
675,684,38,0.0799113312740811,1
675,685,38,0.0757703760641515,1
679,699,38,0.0874364542697637,1
679,700,38,0.092458669068485,1
679,701,38,0.0783587519961704,1
680,698,38,0.0827355759103082,1
680,699,38,0.110742952981915,1
680,700,38,0.126823344121199,1
680,701,38,0.116719896949894,1
680,702,38,0.093283246761249,1
680,703,38,0.0785326835292226,1
681,698,38,0.0815212250274331,1
681,699,38,0.101711310831339,1
681,700,38,0.119579503470484,1
681,702,38,0.115822419693279,1
646,703,39,0.0940467770648894,1
646,705,39,0.0900576965256014,1
646,706,39,0.0905986075356085,1
646,707,39,0.0890250071571842,1
647,703,39,0.0999433903987625,1
647,704,39,0.0943677867873152,1
647,705,39,0.091063643773094,1
647,706,39,0.0929820207861981,1
647,707,39,0.0927981904280363,1
647,708,39,0.0957575011962007,1
647,709,39,0.117678859535227,1
647,710,39,0.150886025483802,1
647,711,39,0.149749454063112,1
647,712,39,0.125907355227458,1
648,704,39,0.0972975748657041,1
648,705,39,0.0922881367808531,1
648,706,39,0.0929186863791944,1
648,707,39,0.0922004515421369,1
648,708,39,0.108242880965182,1
648,709,39,0.179501151489173,1
648,710,39,0.278192688082682,2
648,711,39,0.300835388544457,2
648,712,39,0.24536429122299,2
648,713,39,0.152241441575911,1
649,705,39,0.0912939791452887,1
649,706,39,0.0877244238828175,1
649,707,39,0.0850562873333077,1
649,708,39,0.108170898989052,1
649,709,39,0.206626685052529,2
649,710,39,0.351568118486935,2
649,711,39,0.410681621974769,2
649,712,39,0.346875797328118,2
649,713,39,0.207236630635685,2
649,714,39,0.112025997818254,1
650,705,39,0.0831147273274084,1
650,706,39,0.0763482894941433,1
650,707,39,0.0722654064646669,1
650,708,39,0.0867974030821605,1
650,709,39,0.156572288784097,1
650,710,39,0.272409827820503,2
650,711,39,0.337256836473411,2
650,712,39,0.300576211721855,2
650,713,39,0.191177844516373,1
651,700,39,0.120383365925308,1
651,704,39,0.081011449437135,1
651,709,39,0.0938591581816681,1
651,710,39,0.14571141465778,1
651,711,39,0.182491945248152,2
651,712,39,0.174346393924746,1
651,713,39,0.13164033208445,1
651,714,39,0.0974658687954109,1
652,696,39,0.0735334501320548,1
652,697,39,0.0811739806378981,1
652,698,39,0.0959760956164221,1
652,699,39,0.104936499593036,1
652,700,39,0.100809739187091,1
652,701,39,0.092937420461828,1
652,702,39,0.0860872875061478,1
652,703,39,0.0745407111983295,1
652,710,39,0.0773738536548798,1
652,711,39,0.0917320855734523,1
652,712,39,0.095218682564254,1
652,713,39,0.0914603475310662,1
653,695,39,0.0718947288311401,1
653,696,39,0.0716047711113578,1
653,698,39,0.0701973166732029,1
653,699,39,0.0730264620620298,1
653,700,39,0.072136965038017,1
653,712,39,0.0713253169904102,1
653,713,39,0.0764543473415426,1
656,687,39,0.0757629241396308,1
657,683,39,0.0710147969639747,1
657,684,39,0.0771644351118667,1
657,685,39,0.0850978012262531,1
657,686,39,0.0811572972247921,1
664,679,39,0.0819885135256879,1
664,680,39,0.084911607384568,1
664,681,39,0.0778036461821789,1
665,678,39,0.0881779068567271,1
665,679,39,0.09928104499561,1
665,680,39,0.107784990789644,1
665,681,39,0.0979005690267319,1
665,682,39,0.0829091876779425,1
666,678,39,0.0908434366229391,1
666,679,39,0.103444842578651,1
666,680,39,0.113957325330782,1
666,681,39,0.106131191854134,1
666,682,39,0.09115502021696,1
666,683,39,0.0762149056063609,1
667,678,39,0.0879999574016852,1
667,679,39,0.097806578848146,1
667,680,39,0.10618799887576,1
667,681,39,0.104054093019593,1
667,682,39,0.0942606167123755,1
667,683,39,0.0817618624072208,1
668,679,39,0.0885553899325167,1
668,680,39,0.0935914311098496,1
668,681,39,0.0942968197188155,1
668,682,39,0.0900681097559484,1
668,683,39,0.0823735249916416,1
669,679,39,0.0813186119266829,1
669,680,39,0.0833891903272685,1
669,681,39,0.0839374142333538,1
669,682,39,0.0824328275738113,1
669,683,39,0.0802998323539428,1
670,679,39,0.0718965709580038,1
670,680,39,0.0732958366208926,1
670,681,39,0.074736956796411,1
670,682,39,0.0760075933442524,1
670,683,39,0.0775636205275384,1
671,682,39,0.0697929176909355,1
671,683,39,0.0726027937376251,1
672,683,39,0.0724809978705292,1
673,682,39,0.0726648560343794,1
673,683,39,0.0815537368287234,1
673,684,39,0.0816834434142004,1
673,685,39,0.0761703956504785,1
674,682,39,0.0816118229120208,1
674,683,39,0.0912118480928523,1
674,684,39,0.086781894459394,1
674,685,39,0.0787209836518123,1
675,682,39,0.0781209994565656,1
675,683,39,0.0856010355283292,1
675,684,39,0.0787801124484288,1
675,685,39,0.0700978974339354,1
680,698,39,0.0724929751708548,1
680,699,39,0.0842751560288405,1
680,700,39,0.0916750004949413,1
680,701,39,0.0944384549446633,1
680,702,39,0.0832154117255031,1
681,697,39,0.071106458416148,1
681,698,39,0.0772895050987847,1
681,699,39,0.0894657759800226,1
645,703,40,0.0910671959498012,1
646,703,40,0.0971719904735487,1
646,704,40,0.0934163525921464,1
646,705,40,0.0898557785670639,1
646,706,40,0.0911789956718777,1
646,707,40,0.0889751585091079,1
647,702,40,0.0964326580703342,1
647,703,40,0.0980904262678782,1
647,704,40,0.0922603867037202,1
647,705,40,0.0891129774042077,1
647,706,40,0.0915349710476049,1
647,707,40,0.089919849824813,1
647,708,40,0.0927516784625812,1
647,709,40,0.121707236463802,1
647,710,40,0.166324953292004,1
647,711,40,0.166875853495609,2
647,712,40,0.140154781477318,1
648,702,40,0.098955391723203,1
648,703,40,0.0962885064296762,1
648,704,40,0.0896133477203673,1
648,705,40,0.087110439523406,1
648,706,40,0.089544632912637,1
648,707,40,0.0876790449991692,1
648,708,40,0.106039405276363,1
648,709,40,0.189955701089293,1
648,710,40,0.304873636492453,2
648,711,40,0.324074326384951,2
648,712,40,0.263890693169121,2
648,713,40,0.156202306292783,1
649,701,40,0.107140016990388,1
649,704,40,0.0884185859450475,1
649,705,40,0.0815746884150157,1
649,706,40,0.0820392311015301,1
649,707,40,0.0799923918075099,1
649,708,40,0.106015436772867,1
649,709,40,0.213078925557054,2
649,710,40,0.366063640992525,2
649,711,40,0.412375266461913,2
649,712,40,0.346768940067174,2
649,713,40,0.201326865211146,2
649,714,40,0.108272076938118,1
650,704,40,0.0808161422810408,1
650,705,40,0.0703635529819599,1
650,708,40,0.0839000642422627,1
650,709,40,0.152880263366584,1
650,710,40,0.262200969284057,2
650,711,40,0.30844942022915,2
650,712,40,0.274522114753854,2
650,713,40,0.172464143452439,1
651,698,40,0.110065335304349,1
651,700,40,0.110110915779239,1
651,701,40,0.104230520113189,1
651,702,40,0.0989560590597273,1
651,703,40,0.0831897609778527,1
651,709,40,0.0884591474931615,1
651,710,40,0.132997347003648,1
651,711,40,0.157541428251425,1
651,712,40,0.152098144960174,1
651,713,40,0.116778872815224,1
652,695,40,0.0702419100461508,1
652,696,40,0.0708939603931324,1
652,697,40,0.0747614188508776,1
652,698,40,0.0860525999097316,1
652,699,40,0.0918078143661093,1
652,700,40,0.0866117514514013,1
652,701,40,0.0795968558884552,1
652,702,40,0.072405693114622,1
652,710,40,0.0733259640843932,1
652,711,40,0.0850230108755833,1
652,712,40,0.0900726003746427,1
653,712,40,0.0700733797680917,1
656,683,40,0.0769715122935622,1
656,684,40,0.0803203460006411,1
656,685,40,0.0870440881991991,1
656,686,40,0.0842076160114497,1
657,684,40,0.0713344372562414,1
657,685,40,0.0765552263794569,1
657,686,40,0.0720831262736396,1
664,679,40,0.0778318063932174,1
664,680,40,0.0789197804218145,1
664,681,40,0.0716682862553367,1
665,679,40,0.090812245591853,1
665,680,40,0.0958278078795983,1
665,681,40,0.0867321500826496,1
665,682,40,0.0720928443617738,1
666,679,40,0.0923742440467465,1
666,680,40,0.0997379063606736,1
666,681,40,0.0915712366168441,1
666,682,40,0.0770695134427157,1
667,679,40,0.0863120825949069,1
667,680,40,0.0923770593727081,1
667,681,40,0.0879677862200791,1
667,682,40,0.0778765526974521,1
668,679,40,0.0768344789091628,1
668,680,40,0.0800691216049532,1
668,681,40,0.0784869014630908,1
668,682,40,0.0736929991727251,1
669,680,40,0.0701172084846056,1
669,681,40,0.0700559942613508,1
673,683,40,0.0766196382568903,1
673,684,40,0.072896275828426,1
674,682,40,0.0742099833877695,1
674,683,40,0.0840564086773323,1
674,684,40,0.077742425007502,1
675,682,40,0.0701865558717495,1
675,683,40,0.0770038642121436,1
680,699,40,0.0701183068093017,1
680,700,40,0.0758561705160491,1
680,701,40,0.0811996939483477,1
680,702,40,0.0777853291848729,1
681,697,40,0.0706317249447946,1
681,698,40,0.0766598244282094,1
681,699,40,0.0869702501933608,1
682,698,40,0.0890840872938458,1
644,703,41,0.0886400443511854,1
645,703,41,0.0946675946722521,1
645,704,41,0.0948900610345985,1
646,702,41,0.0906049124754782,1
646,703,41,0.0967867287563984,1
646,704,41,0.0949168101069451,1
646,705,41,0.0902974510747788,1
646,706,41,0.0911585306851344,1
646,707,41,0.0876687012830435,1
647,701,41,0.0789505960761057,1
647,702,41,0.0893475531439002,1
647,703,41,0.0915744759795555,1
647,704,41,0.0887846408828595,1
647,705,41,0.0861560162167224,1
647,706,41,0.0879645399059456,1
647,707,41,0.0850945132035868,1
647,708,41,0.0879891409888548,1
647,709,41,0.119174346783204,1
647,710,41,0.161131059221,1
647,711,41,0.164291606708334,1
647,712,41,0.138168273575943,1
648,701,41,0.0852270281636033,1
648,702,41,0.087587056830156,1
648,703,41,0.0850496834822866,1
648,704,41,0.081362183440578,1
648,705,41,0.0801485346513378,1
648,706,41,0.0827702217981917,1
648,707,41,0.0814090846856723,1
648,708,41,0.0988471441778336,1
648,709,41,0.176495467783996,1
648,710,41,0.273971756761176,1
648,711,41,0.28990956032978,2
648,712,41,0.235015403239207,1
648,713,41,0.142799700276922,1
649,700,41,0.09821668494798,1
649,701,41,0.0972929243643008,1
649,702,41,0.0917806621112792,1
649,703,41,0.083206082917008,1
649,704,41,0.0751330349263917,1
649,705,41,0.0717827205663996,1
649,706,41,0.0742702313633485,1
649,707,41,0.0749223234188629,1
649,708,41,0.0990525517502791,1
649,709,41,0.191861558591146,1
649,710,41,0.31252211942521,2
649,711,41,0.343245236385056,2
649,712,41,0.285663576082926,2
649,713,41,0.171774868239964,1
650,700,41,0.108490448912831,1
650,701,41,0.100905849549425,1
650,702,41,0.0906654315565202,1
650,703,41,0.0770340403355991,1
650,708,41,0.0804061265496944,1
650,709,41,0.138139647619622,1
650,710,41,0.218294382939497,1
650,711,41,0.246234164382337,2
650,712,41,0.217265544658939,1
650,713,41,0.143899192811985,1
651,696,41,0.0701877654191997,1
651,697,41,0.0800185291547093,1
651,698,41,0.098108896196471,1
651,699,41,0.104080105241194,1
651,700,41,0.0977155638782307,1
651,701,41,0.0880212357048175,1
651,702,41,0.0776694628808517,1
651,709,41,0.0845679985888057,1
651,710,41,0.117660466072277,1
651,711,41,0.133330111580891,1
651,712,41,0.128593398640369,1
652,698,41,0.0757386428221395,1
652,699,41,0.07706854719504,1
652,700,41,0.0715905485016849,1
652,710,41,0.0726534209449797,1
652,711,41,0.0832557786337975,1
655,683,41,0.0782882228672648,1
655,684,41,0.0764192704654872,1
655,685,41,0.0767372007079106,1
655,686,41,0.0720878115321535,1
656,683,41,0.0744495085400167,1
656,684,41,0.0753209388179201,1
656,685,41,0.077797494173596,1
656,686,41,0.0723260228656187,1
664,678,41,0.0725957867041206,1
664,679,41,0.0746525804346274,1
664,680,41,0.0721746626002145,1
665,678,41,0.0775558974975548,1
665,679,41,0.082456420700512,1
665,680,41,0.0820226311054897,1
665,681,41,0.0740846075382779,1
666,679,41,0.081063897917087,1
666,680,41,0.0834615824373043,1
666,681,41,0.0763717783495122,1
667,679,41,0.0747124808391,1
667,680,41,0.077608630985814,1
667,681,41,0.0729714693615792,1
674,683,41,0.0721889269184201,1
680,701,41,0.0731987252537714,1
680,702,41,0.0735394978693057,1
681,698,41,0.0747718181783804,1
643,703,42,0.0864539611205292,1
644,703,42,0.0927167614692348,1
644,704,42,0.0939967407284156,1
645,702,42,0.0888521878516724,1
645,703,42,0.0968459896300353,1
645,704,42,0.0969833010713198,1
645,705,42,0.0909419591287521,1
646,701,42,0.0743208794249695,1
646,702,42,0.0872541393216257,1
646,703,42,0.0941132118061619,1
646,704,42,0.0937522105522366,1
646,705,42,0.0875610098514442,1
646,706,42,0.0860453565278748,1
646,707,42,0.081528037421118,1
647,701,42,0.0751193892847554,1
647,702,42,0.0824154837756032,1
647,703,42,0.0851643332874354,1
647,704,42,0.0842924372642495,1
647,705,42,0.0809358944300312,1
647,706,42,0.0808555359902373,1
647,707,42,0.0773746044084696,1
647,708,42,0.0821991485675733,1
647,709,42,0.110050459260996,1
647,710,42,0.142487831674594,1
647,711,42,0.145520820565888,1
647,712,42,0.122847798000793,1
648,700,42,0.0809618788459438,1
648,701,42,0.0801557363246619,1
648,702,42,0.0789372215399324,1
648,703,42,0.0762417589500394,1
648,704,42,0.0739939609937353,1
648,705,42,0.072397407019446,1
648,706,42,0.0741581744386532,1
648,707,42,0.0738836975359489,1
648,708,42,0.0900761177942392,1
648,709,42,0.14955307638801,1
648,710,42,0.216518739476937,1
648,711,42,0.225943588820156,1
648,712,42,0.182547640042238,1
648,713,42,0.120096244385753,1
649,699,42,0.0964925584748068,1
649,700,42,0.0997547913650213,1
649,701,42,0.0899960930227075,1
649,702,42,0.0786805194236081,1
649,708,42,0.0884769361823857,1
649,709,42,0.154183835752465,1
649,710,42,0.230166035551686,1
649,711,42,0.245753543056441,2
649,712,42,0.203043407682778,1
649,713,42,0.133730471786903,1
650,697,42,0.0759020777077791,1
650,698,42,0.0929991212846317,1
650,699,42,0.104875897094928,1
650,700,42,0.105122290252238,1
650,701,42,0.0907828758333643,1
650,702,42,0.0741917637103733,1
650,708,42,0.0731768908368689,1
650,709,42,0.113571417131374,1
650,710,42,0.162170032675021,1
650,711,42,0.178307925978143,1
650,712,42,0.157824670897432,1
650,713,42,0.115223561628417,1
651,697,42,0.0738914136145104,1
651,698,42,0.0858094183094453,1
651,699,42,0.0918177618511737,1
651,700,42,0.0874231075392789,1
651,701,42,0.0746562160284001,1
651,709,42,0.0749020878290497,1
651,710,42,0.0975808244631333,1
651,711,42,0.11118047549062,1
651,712,42,0.108421539465281,1
652,711,42,0.080503369993836,1
655,683,42,0.0740692518467982,1
655,684,42,0.0736148512851678,1
655,685,42,0.0707262573343065,1
664,678,42,0.070035723914427,1
664,679,42,0.0702328036831637,1
665,678,42,0.0715523782427828,1
665,679,42,0.074598310682078,1
665,680,42,0.0706734612832481,1
666,679,42,0.0719912076188476,1
666,680,42,0.0706789320524624,1
681,698,42,0.0707371224070917,1
643,703,43,0.0924342209168625,1
643,704,43,0.0927251379328984,1
644,702,43,0.0895107655840318,1
644,703,43,0.098452977688938,1
644,704,43,0.0973137230193063,1
644,705,43,0.0894562872888186,1
645,702,43,0.0883965985968582,1
645,703,43,0.096988382560895,1
645,704,43,0.0965705047711225,1
645,705,43,0.088743884694926,1
646,701,43,0.0744540200129775,1
646,702,43,0.0842537943086427,1
646,703,43,0.089708686474846,1
646,704,43,0.0894745834318582,1
646,705,43,0.083568099078564,1
646,706,43,0.0792138186263856,1
646,707,43,0.0744605752040437,1
646,708,43,0.072762919746332,1
647,700,43,0.0705112150907923,1
647,701,43,0.0757238640986964,1
647,702,43,0.0802459032210777,1
647,703,43,0.0811705813924777,1
647,704,43,0.079245732605373,1
647,705,43,0.075140792713486,1
647,706,43,0.0729382207095433,1
647,707,43,0.070255715570496,1
647,708,43,0.0749180552456766,1
647,709,43,0.0937567289766194,1
647,711,43,0.117400969484258,1
648,699,43,0.0791526322088194,1
648,700,43,0.0829472119569799,1
648,701,43,0.0797525538412669,1
648,702,43,0.0763002204101317,1
648,703,43,0.0719011380423416,1
648,708,43,0.0792428894737228,1
648,709,43,0.114244933469885,1
648,710,43,0.150020809777281,1
648,711,43,0.15577772733208,1
648,712,43,0.128644018896301,1
649,698,43,0.0812907158696852,1
649,699,43,0.0940233924808525,1
649,700,43,0.0969632740241705,1
649,701,43,0.0858269358932066,1
649,702,43,0.072283730413395,1
649,708,43,0.076145669441971,1
649,709,43,0.112183273743889,1
649,710,43,0.149636187590966,1
649,711,43,0.157472901132092,1
649,712,43,0.133248001382721,1
650,697,43,0.0726295706156602,1
650,698,43,0.0837566703066167,1
650,699,43,0.094159890605748,1
650,700,43,0.0955828258609809,1
650,701,43,0.0816391837095146,1
650,709,43,0.087483793454452,1
650,710,43,0.112713966163369,1
650,711,43,0.124450378858067,1
650,712,43,0.114798072031415,1
650,713,43,0.0935392954438933,1
651,698,43,0.0740086771543792,1
651,699,43,0.0772820045143091,1
651,700,43,0.0744148417978669,1
651,710,43,0.0795692239854983,1
651,711,43,0.0938833699849382,1
651,712,43,0.0952034659012168,1
651,713,43,0.0848687310128856,1
652,711,43,0.0750845487570524,1
652,712,43,0.0805948924175667,1
663,678,43,0.0703377910115554,1
664,678,43,0.0698972446342251,1
681,691,43,0.0767545723118072,1
681,692,43,0.0818530789683778,1
681,693,43,0.0738142528288951,1
681,699,43,0.0782878335876256,1
682,691,43,0.0776700607031547,1
682,692,43,0.0849013192798193,1
682,694,43,0.0795785180368828,1
642,703,44,0.0837504696380789,1
643,702,44,0.085954862914619,1
643,703,44,0.0987359005695272,1
643,704,44,0.0926642295722173,1
644,702,44,0.0878626737660892,1
644,703,44,0.100936672155139,1
644,704,44,0.0954554271476502,1
644,705,44,0.0851381681345475,1
645,702,44,0.0833724652056297,1
645,703,44,0.0917892401661846,1
645,704,44,0.0898961037668255,1
645,705,44,0.0831715273976122,1
645,706,44,0.0763444801148175,1
646,701,44,0.074114658536135,1
646,702,44,0.0798252796195648,1
646,703,44,0.0822893224154112,1
646,704,44,0.08089635474097,1
646,705,44,0.0766743389976116,1
646,706,44,0.0716702257021103,1
646,709,44,0.0722304408113655,1
647,700,44,0.0728121219121505,1
647,701,44,0.0772028834276539,1
647,702,44,0.0787353661441941,1
647,703,44,0.075802950428241,1
647,704,44,0.0720658380868085,1
647,709,44,0.0800764762095641,1
647,710,44,0.0923669450535126,1
648,698,44,0.0711991556302182,1
648,699,44,0.0788703210533774,1
648,700,44,0.0819856008798165,1
648,701,44,0.0802381871425162,1
648,702,44,0.0754488658393325,1
648,708,44,0.0712680025149689,1
648,709,44,0.0892669722585982,1
648,710,44,0.106120695206722,1
648,711,44,0.110868433102739,1
649,697,44,0.0708499856967538,1
649,698,44,0.0806068141065154,1
649,699,44,0.0896379418518544,1
649,700,44,0.089694018974157,1
649,701,44,0.0803233003550453,1
649,709,44,0.0852306498545318,1
649,710,44,0.101732269369053,1
649,711,44,0.108379219207369,1
649,712,44,0.098871807823542,1
650,697,44,0.0734459664845802,1
650,698,44,0.0796412059616286,1
650,699,44,0.0854095864115157,1
650,700,44,0.083519251435274,1
650,701,44,0.0712960932117861,1
650,709,44,0.0705934295602942,1
650,710,44,0.0843936291161595,1
650,711,44,0.0969025811575753,1
650,712,44,0.096278628458833,1
650,713,44,0.0844378054037798,1
651,711,44,0.0827247038861008,1
651,712,44,0.0886060657998262,1
651,713,44,0.081263883380273,1
651,714,44,0.0777835843779189,1
652,712,44,0.0764980856895688,1
652,713,44,0.078351425197248,1
663,678,44,0.072835541253298,1
677,681,44,0.0712677383609281,1
678,680,44,0.0728284855598386,1
678,681,44,0.0752052671537185,1
679,682,44,0.0714256399145542,1
679,683,44,0.0724498694022422,1
680,682,44,0.0720713019046007,1
680,683,44,0.0799750688635682,1
680,684,44,0.0746198183821405,1
680,692,44,0.0706128726879848,1
681,683,44,0.0749672991200278,1
681,684,44,0.0744593448023271,1
681,688,44,0.0747507067093792,1
681,689,44,0.0795270149503401,1
681,690,44,0.0804930401805546,1
681,691,44,0.0906230209301203,1
681,692,44,0.0950392385534547,1
681,693,44,0.0813375267462918,1
681,694,44,0.0755294536760566,1
681,695,44,0.0765326829174974,1
681,696,44,0.0704272002029593,1
682,690,44,0.0754977273854667,1
682,691,44,0.0882575423486197,1
682,692,44,0.0949505384071078,1
682,693,44,0.0875549621141933,1
682,695,44,0.100838518074699,1
683,691,44,0.0712526190178008,1
683,692,44,0.077260295223005,1
641,703,45,0.0735280349742174,1
642,702,45,0.0749016290351893,1
642,703,45,0.0879089632860362,1
642,704,45,0.0824384929828452,1
643,702,45,0.0852749443163282,1
643,703,45,0.103970724614018,1
643,704,45,0.0936739166848145,1
643,705,45,0.0808998930148329,1
644,702,45,0.0829708537436356,1
644,703,45,0.099009035847761,1
644,704,45,0.0917592586825487,1
644,705,45,0.0819022880856184,1
645,702,45,0.0781545331169087,1
645,703,45,0.0857908788666312,1
645,704,45,0.0834536995246117,1
645,705,45,0.0781043577519924,1
646,701,45,0.0742535340473982,1
646,702,45,0.0768632856024592,1
646,703,45,0.0769487394346725,1
646,704,45,0.0745271837308694,1
646,705,45,0.0701362136727021,1
647,700,45,0.0729064805161092,1
647,701,45,0.0787609265233569,1
647,702,45,0.0784524710692933,1
647,703,45,0.0727662355746869,1
647,709,45,0.0737241415438564,1
647,710,45,0.0815625164748704,1
648,698,45,0.0749537647011456,1
648,699,45,0.0781665868828778,1
648,700,45,0.0795827445015363,1
648,701,45,0.0802938541309132,1
648,702,45,0.075845312394686,1
648,709,45,0.077521341978159,1
648,710,45,0.0854483892498314,1
648,711,45,0.0915099806850565,1
649,697,45,0.0760566147730956,1
649,698,45,0.0848578103287233,1
649,699,45,0.0885214252840017,1
649,700,45,0.0828236365258194,1
649,701,45,0.073737696817005,1
649,709,45,0.0719595716967454,1
649,710,45,0.0804890917727862,1
649,711,45,0.0888800630544037,1
649,712,45,0.0879778935878525,1
650,697,45,0.0740843155785485,1
650,698,45,0.0808927678071522,1
650,699,45,0.0829583759409167,1
650,700,45,0.074895942771889,1
650,710,45,0.0708575766497171,1
650,711,45,0.0830037131160322,1
650,712,45,0.0867766252814214,1
650,713,45,0.0782365529465911,1
651,711,45,0.0717842707335341,1
651,712,45,0.0788119916703055,1
651,713,45,0.0750373068922739,1
651,714,45,0.0725640187049979,1
652,713,45,0.0720277095364391,1
652,714,45,0.0760101514675954,1
662,677,45,0.0725660902287919,1
663,677,45,0.0799745614097529,1
663,678,45,0.071338392615432,1
664,677,45,0.0781323997888547,1
676,681,45,0.070413825666786,1
677,680,45,0.0766071048427944,1
677,681,45,0.0856076393793503,1
677,682,45,0.0815917611077608,1
678,680,45,0.072841484719217,1
678,681,45,0.0822536268627865,1
678,682,45,0.0840345603575856,1
678,683,45,0.0772063869444062,1
679,682,45,0.0838214089008901,1
679,683,45,0.0929785520265564,1
679,684,45,0.0785262534637546,1
680,682,45,0.0843751105276118,1
680,683,45,0.103784099784161,1
680,684,45,0.0935087230893766,1
680,689,45,0.0733159470851074,1
680,690,45,0.0736978165082595,1
680,691,45,0.0768360360277194,1
680,692,45,0.0737756376789769,1
681,682,45,0.0729920038625438,1
681,683,45,0.0894432464209074,1
681,684,45,0.0862435763298404,1
681,685,45,0.0699676764432209,1
681,688,45,0.0751948122148388,1
681,689,45,0.0873961985842233,1
681,690,45,0.0887548053790883,1
681,691,45,0.0966058040926859,1
681,692,45,0.0949724423382315,1
681,693,45,0.0823264221553057,1
681,695,45,0.0934278224386568,1
682,689,45,0.076470015847018,1
682,690,45,0.079837395948333,1
682,691,45,0.0902228553639286,1
682,692,45,0.0932293315312281,1
683,691,45,0.0731385885009464,1
641,703,46,0.0716823281280343,1
641,704,46,0.0733988845025106,1
642,702,46,0.0730026395383989,1
642,703,46,0.0871686229266132,1
642,704,46,0.0807685111366231,1
642,705,46,0.0720872554183833,1
643,702,46,0.0804693427825219,1
643,703,46,0.0987395014061893,1
643,704,46,0.0893688940098316,1
643,705,46,0.0767390984461514,1
644,703,46,0.0883202997875868,1
644,704,46,0.0835299427225061,1
645,702,46,0.0721447089222671,1
645,703,46,0.0769376797220677,1
645,704,46,0.0761842498347786,1
645,705,46,0.0722431410595925,1
646,701,46,0.0718277240732531,1
646,702,46,0.0732330305219706,1
646,703,46,0.0718424819424298,1
646,704,46,0.0699914572583191,1
647,701,46,0.0760903917332131,1
647,702,46,0.0755410834052759,1
647,710,46,0.0738670419285314,1
648,697,46,0.0741851320536636,1
648,698,46,0.0772055875308615,1
648,699,46,0.0754204762313638,1
648,700,46,0.073782950575055,1
648,701,46,0.076338620065964,1
648,702,46,0.0737416313219292,1
648,709,46,0.0714282258435857,1
648,710,46,0.0747177361142284,1
648,711,46,0.0818121698491575,1
649,697,46,0.0805007562591161,1
649,698,46,0.0893178080086166,1
649,699,46,0.0880232724715008,1
649,700,46,0.0750768257270687,1
649,711,46,0.0785121768339464,1
649,712,46,0.0821203124892253,1
650,697,46,0.073911072236287,1
650,698,46,0.0832345281363538,1
650,699,46,0.0829418802162081,1
650,711,46,0.0720375040902168,1
650,712,46,0.0779728924567171,1
650,713,46,0.0738441578468876,1
655,679,46,0.070565178980768,1
656,678,46,0.083613519670745,1
657,678,46,0.0709025175937713,1
663,676,46,0.0819294333890263,1
663,677,46,0.0783653767014579,1
664,676,46,0.0921681691377767,1
664,677,46,0.0818601346618372,1
665,677,46,0.0728408382369592,1
676,680,46,0.0758393828316112,1
676,681,46,0.0779561047722792,1
676,682,46,0.0730245365181005,1
677,680,46,0.0783540875919228,1
677,681,46,0.0898610546964587,1
677,682,46,0.0947564755555743,1
677,683,46,0.0786884788019441,1
678,681,46,0.0808868938554545,1
678,682,46,0.0970357217455833,1
678,683,46,0.092507739157283,1
679,682,46,0.0936688560495057,1
679,683,46,0.111022580888416,1
679,684,46,0.0891771320790224,1
680,682,46,0.0921347188944992,1
680,683,46,0.121190509451376,1
680,684,46,0.104766912698813,1
680,685,46,0.0722171427408356,1
680,689,46,0.0725546620908143,1
680,690,46,0.076874018598224,1
680,691,46,0.0789379583906779,1
680,692,46,0.0721291029795909,1
681,682,46,0.0763090348133894,1
681,683,46,0.0966229532510745,1
681,684,46,0.0895803632223723,1
681,685,46,0.0716911564341362,1
681,689,46,0.0829925352292512,1
681,690,46,0.086626342486447,1
681,691,46,0.0903024282930221,1
681,692,46,0.0851434998753193,1
681,693,46,0.0765256133211937,1
681,696,46,0.0994267885119352,1
681,697,46,0.0812068608645612,1
682,683,46,0.070039922573392,1
682,684,46,0.070857952026512,1
682,690,46,0.076824566181209,1
682,691,46,0.0823221956906521,1
642,703,47,0.0782440674339109,1
642,704,47,0.0755307535919945,1
643,702,47,0.0715728640837926,1
643,703,47,0.0837307067449704,1
643,704,47,0.0797828550903207,1
643,705,47,0.0711136948465827,1
644,703,47,0.0759390314678089,1
644,704,47,0.0743817182714293,1
645,703,47,0.0702204788117317,1
647,701,47,0.0698661926315815,1
647,702,47,0.0698543404568541,1
647,710,47,0.0697417204669665,1
648,697,47,0.0768917586274934,1
648,698,47,0.0804821403506586,1
648,699,47,0.0746428414922267,1
648,711,47,0.0753959794197865,1
649,697,47,0.0837760022115532,1
649,698,47,0.0935620961084715,1
649,699,47,0.0869547068134837,1
649,711,47,0.0697858202889434,1
649,712,47,0.0743563525320861,1
650,697,47,0.072851675504056,1
650,698,47,0.0824746334264861,1
650,699,47,0.0785815172696682,1
652,682,47,0.076518759218976,1
654,679,47,0.081956954069229,1
655,678,47,0.116975639769965,1
655,679,47,0.0930277680952191,1
656,677,47,0.0982544381215545,1
656,678,47,0.102019536888472,1
656,679,47,0.0824183755672082,1
657,677,47,0.0767621007019713,1
657,678,47,0.0766074941224336,1
663,676,47,0.0799331170310287,1
663,677,47,0.0769124599625891,1
664,676,47,0.0901153863778375,1
664,677,47,0.0831701232103425,1
665,677,47,0.0745771157960112,1
676,680,47,0.0813047090824278,1
676,681,47,0.0829444591938174,1
676,682,47,0.0773517133754037,1
677,680,47,0.0747928809874267,1
677,681,47,0.0866412602383326,1
677,682,47,0.0988512316140446,1
677,683,47,0.0861059034146053,1
678,681,47,0.0777076748482866,1
678,682,47,0.102443163504344,1
678,683,47,0.102933190104378,1
678,684,47,0.0753251930882621,1
679,682,47,0.0967019770178199,1
679,683,47,0.116002809097487,1
679,684,47,0.0926729536069873,1
680,682,47,0.0914184582613259,1
680,683,47,0.118897986045104,1
680,684,47,0.102036644338328,1
680,685,47,0.0724190398451067,1
680,690,47,0.0726457187692624,1
680,691,47,0.0739756439964293,1
680,695,47,0.0711445313551403,1
680,696,47,0.0821668939689017,1
680,697,47,0.0823652388964656,1
681,682,47,0.0740081071377647,1
681,683,47,0.0906842282019529,1
681,684,47,0.0834567581503478,1
681,685,47,0.0704651132592427,1
681,690,47,0.0771609733036472,1
681,691,47,0.0785068798502853,1
643,703,48,0.0705246243840762,1
643,704,48,0.0706808297907032,1
648,697,48,0.0769817934468888,1
648,698,48,0.080048170018661,1
648,699,48,0.0709044987490777,1
649,697,48,0.0848118058170835,1
649,698,48,0.0915678304200016,1
649,699,48,0.0788832437471124,1
650,697,48,0.0709083081284036,1
650,698,48,0.0762964874964492,1
652,682,48,0.0729766134139535,1
653,677,48,0.117491115526407,1
653,679,48,0.0811645197523826,1
654,677,48,0.151182378511942,1
654,678,48,0.149357699717694,1
654,679,48,0.107475582990749,1
655,677,48,0.157952966344217,1
655,678,48,0.166679086540868,1
655,679,48,0.119334438034801,1
656,677,48,0.117963770522545,1
656,678,48,0.124934892980354,1
656,679,48,0.0946584118436217,1
657,676,48,0.072033263722719,1
657,677,48,0.0799771264845179,1
657,678,48,0.0849519325843296,1
657,679,48,0.0776527169049466,1
658,677,48,0.0702576619686917,1
658,678,48,0.0819490363994258,1
658,679,48,0.08641158525124,1
658,680,48,0.0730596968112214,1
659,677,48,0.0700664700544969,1
659,678,48,0.0855891555479133,1
659,679,48,0.0901152403979728,1
659,680,48,0.0719101053768861,1
660,678,48,0.0772611780536152,1
660,679,48,0.0778904972502398,1
663,676,48,0.0777608462761399,1
663,677,48,0.0801595318011435,1
663,678,48,0.070292738844747,1
664,676,48,0.086755777966461,1
664,677,48,0.089140087950505,1
664,678,48,0.0767637412375934,1
665,676,48,0.0793140094735093,1
665,677,48,0.0825751857475604,1
665,678,48,0.0736268702940262,1
675,680,48,0.0736390908941264,1
675,681,48,0.0751428364315914,1
676,680,48,0.0809296729072271,1
676,681,48,0.0852617435657081,1
676,682,48,0.0785699640060923,1
677,680,48,0.0723592089548554,1
677,681,48,0.0822072817314625,1
677,682,48,0.0922762289947487,1
677,683,48,0.0858582172927803,1
678,681,48,0.0760543069009492,1
678,682,48,0.0967999781669734,1
678,683,48,0.100664885452798,1
678,684,48,0.0769568100357626,1
679,682,48,0.091684419671924,1
679,683,48,0.106662155379077,1
679,684,48,0.0887494736383165,1
679,696,48,0.0735852451783268,1
679,697,48,0.076583365736229,1
680,682,48,0.0846367064451139,1
680,683,48,0.102433132602214,1
680,684,48,0.0919068999371147,1
680,685,48,0.0721299023931355,1
680,695,48,0.0770096825524643,1
680,697,48,0.106092750489769,1
681,682,48,0.0704995019445074,1
681,683,48,0.0796950169203176,1
681,684,48,0.0767525772536566,1
681,685,48,0.070412789904889,1
648,697,49,0.0732519314387353,1
648,698,49,0.0747610504255049,1
649,697,49,0.0799131942552113,1
649,698,49,0.0811217059434993,1
651,677,49,0.0902077082151128,1
652,677,49,0.10946129147858,1
652,678,49,0.0992012287667421,1
652,679,49,0.0750628881257031,1
653,676,49,0.126699247333379,1
653,677,49,0.158843665964258,1
653,678,49,0.144752883060619,1
653,679,49,0.0974334682168746,1
654,676,49,0.143998890108137,1
654,677,49,0.208617308195805,1
654,678,49,0.201322930706222,1
654,679,49,0.129490187706193,1
654,680,49,0.0709043110606802,1
655,676,49,0.129605011296895,1
655,677,49,0.197388648227565,1
655,678,49,0.200351525075281,1
655,679,49,0.13298555739172,1
655,680,49,0.0724747415906144,1
656,676,49,0.0924647515628465,1
656,677,49,0.126293534532329,1
656,678,49,0.130910238121243,1
656,679,49,0.0983384738636538,1
656,713,49,0.0734985331387083,1
657,676,49,0.0708601764815927,1
657,677,49,0.0825645987316602,1
657,678,49,0.0934044170003535,1
657,679,49,0.0907640027222881,1
657,680,49,0.0709761957169007,1
657,713,49,0.072462069148076,1
658,677,49,0.0858942882221999,1
658,678,49,0.111125267296084,1
658,679,49,0.118866301463046,1
658,680,49,0.0889310795413974,1
659,677,49,0.0945333418567037,1
659,680,49,0.0921242013928203,1
660,677,49,0.0852717119050389,1
660,678,49,0.108844352764764,1
660,679,49,0.110768541166767,1
660,680,49,0.0756119948623985,1
661,677,49,0.0732554905668646,1
661,678,49,0.083301546797085,1
661,679,49,0.0822398560955519,1
662,677,49,0.0721824203873088,1
662,678,49,0.0705415580483788,1
663,675,49,0.0697574932437738,1
663,676,49,0.0776512084463449,1
663,677,49,0.0884317102300242,1
663,678,49,0.0799363911508508,1
664,676,49,0.0858036347262352,1
664,677,49,0.100938270982228,1
664,678,49,0.0918017944345468,1
665,676,49,0.0842166876173261,1
665,677,49,0.0963506312892297,1
665,678,49,0.09035094226805,1
665,679,49,0.0713757565093673,1
666,676,49,0.0708945721182796,1
666,677,49,0.0764943458244643,1
666,678,49,0.0761102171891207,1
675,681,49,0.0738447695720349,1
676,680,49,0.0733882557780777,1
676,681,49,0.0792800934849492,1
676,682,49,0.0761060532872664,1
677,681,49,0.0756126274418121,1
677,682,49,0.0805178428547055,1
677,683,49,0.0783314468100536,1
678,681,49,0.0730166675082522,1
678,682,49,0.0837880629289445,1
678,683,49,0.0871175369253982,1
678,684,49,0.0744991625482735,1
678,696,49,0.0743503117462573,1
678,697,49,0.0738623497185953,1
679,681,49,0.0699546564295761,1
679,682,49,0.0816000472029368,1
679,683,49,0.089760099192901,1
679,684,49,0.0824098392208357,1
679,685,49,0.0705509980796279,1
679,695,49,0.0731281057563781,1
679,696,49,0.0931463245996036,1
679,697,49,0.0977599000485599,1
680,682,49,0.0756667720687632,1
680,683,49,0.0836570842332181,1
680,684,49,0.0823261162927321,1
680,685,49,0.0741326210109125,1
680,696,49,0.105414903415273,1
680,697,49,0.115120534601065,1
680,698,49,0.0968721339286568,1
681,683,49,0.0701095827745317,1
681,684,49,0.0727676258591124,1
681,685,49,0.072718208199208,1
681,697,49,0.111496952885819,1
650,676,50,0.080980696345643,1
650,677,50,0.0913032940509396,1
651,676,50,0.0969652343252104,1
651,677,50,0.110976346979846,1
651,678,50,0.105185805396217,1
651,679,50,0.0785015689637799,1
652,676,50,0.109604935665422,1
652,677,50,0.136822714600411,1
652,678,50,0.132726130317921,1
652,679,50,0.0963629561606617,1
653,676,50,0.135011757913443,1
653,677,50,0.192916895692854,1
653,678,50,0.187157211472049,1
653,679,50,0.124634396904626,1
653,680,50,0.0711174138574209,1
654,676,50,0.15636230022447,1
654,677,50,0.239072892723652,1
654,678,50,0.227995009101358,1
654,679,50,0.143106980940646,1
654,680,50,0.074811594215794,1
655,676,50,0.138930010412674,1
655,677,50,0.2068677881776,1
655,678,50,0.197268333013383,1
655,679,50,0.127300670473006,1
655,680,50,0.0712999929595997,1
656,676,50,0.0923688705974419,1
656,677,50,0.122913502842742,1
656,678,50,0.121871762722715,1
656,679,50,0.0938817642064268,1
656,711,50,0.0704784113297726,1
656,712,50,0.071063387404646,1
656,713,50,0.0758825928715557,1
657,676,50,0.0697377025449768,1
657,677,50,0.0885275216812076,1
657,678,50,0.104246563995459,1
657,679,50,0.102606111790435,1
657,680,50,0.0746403876402157,1
657,713,50,0.0721916866330047,1
658,676,50,0.0747634834232495,1
658,677,50,0.111293957456852,1
658,680,50,0.097808810254649,1
659,676,50,0.0793791790559546,1
660,676,50,0.0727173601257084,1
660,677,50,0.11202771481952,1
660,680,50,0.0864727855716505,1
661,677,50,0.0839522902767066,1
661,678,50,0.103028695692988,1
661,679,50,0.101677971810815,1
662,677,50,0.0788925656041854,1
662,678,50,0.0885114499932488,1
662,679,50,0.0832382680014584,1
663,675,50,0.0703834340492445,1
663,676,50,0.0808644963733597,1
663,677,50,0.105156797111679,1
663,678,50,0.110314084993759,1
663,679,50,0.0894641215415563,1
664,675,50,0.0865877134336844,1
664,676,50,0.0973893405892092,1
664,677,50,0.129054389150176,1
664,678,50,0.129504146161825,1
664,679,50,0.0940733940602156,1
665,676,50,0.102740635711446,1
665,677,50,0.128683822739403,1
665,678,50,0.127143262470351,1
665,679,50,0.091324196977277,1
666,676,50,0.0873608784083935,1
666,677,50,0.0998865972799808,1
666,678,50,0.102373211343475,1
666,679,50,0.0804664370880726,1
667,678,50,0.0702468664101277,1
675,682,50,0.0725054251678852,1
676,681,50,0.0706170087841507,1
676,682,50,0.0729078151891576,1
677,682,50,0.0727285658181779,1
677,683,50,0.072947090724178,1
678,682,50,0.0748375994859729,1
678,683,50,0.0782059041264309,1
678,684,50,0.0757223000287177,1
678,685,50,0.0706896650482273,1
678,695,50,0.0744165101391775,1
678,696,50,0.0983752607895525,1
678,697,50,0.100461931732363,1
678,698,50,0.0796428743029392,1
679,682,50,0.0753496690455731,1
679,683,50,0.080654556473687,1
679,684,50,0.0817097128384203,1
679,685,50,0.0793687727770297,1
679,686,50,0.0724572865696523,1
679,695,50,0.0828143077173243,1
679,696,50,0.107500893118715,1
679,697,50,0.113511537581168,1
679,698,50,0.0945824049940796,1
680,683,50,0.0760260354671567,1
680,684,50,0.0808388734313977,1
680,685,50,0.0828181309994944,1
680,686,50,0.0795206335448271,1
680,687,50,0.0744152658346167,1
680,696,50,0.103343782803761,1
680,697,50,0.111632832334145,1
680,698,50,0.100294485876156,1
681,684,50,0.0738336403452087,1
681,685,50,0.0799141257457764,1
681,686,50,0.0814377523505261,1
681,697,50,0.102403373564086,1
682,685,50,0.07216798228355,1
649,676,51,0.0771246173659204,1
649,677,51,0.0855267595828969,1
649,678,51,0.0739914515303472,1
650,675,51,0.0753185475287083,1
650,676,51,0.0921930204718825,1
650,677,51,0.103517957636588,1
650,678,51,0.0921804453492539,1
651,675,51,0.0862970327660009,1
651,676,51,0.108388381181733,1
651,677,51,0.124812714785041,1
651,678,51,0.118192055225212,1
651,679,51,0.0874278692634362,1
652,676,51,0.120031623965656,1
652,677,51,0.156114704471132,1
652,678,51,0.160326904806447,1
652,679,51,0.116439851958065,1
652,680,51,0.0717702844722135,1
653,676,51,0.140981875584893,1
653,677,51,0.20699645900118,1
653,678,51,0.213207526866412,1
653,679,51,0.146279915862211,1
653,680,51,0.0801863434362893,1
654,676,51,0.151469833719758,1
654,677,51,0.222745434139113,1
654,678,51,0.21630407956164,1
654,679,51,0.140988757492799,1
654,680,51,0.076564937516169,1
654,710,51,0.0739191358859549,1
654,711,51,0.0711996769868777,1
655,676,51,0.129583573111054,1
655,677,51,0.176332415226573,1
655,678,51,0.164054034905704,1
655,679,51,0.110941770606184,1
655,710,51,0.0888176462351209,1
655,711,51,0.0828451025173491,1
655,712,51,0.0698995177492608,1
656,676,51,0.0875294156378747,1
656,677,51,0.109776601034861,1
656,678,51,0.108792801018267,1
656,679,51,0.0897870011965344,1
656,710,51,0.0812918420000698,1
656,711,51,0.0793577547729577,1
656,712,51,0.07153456174787,1
657,676,51,0.072853642756518,1
657,677,51,0.0997807688295118,1
657,679,51,0.114478299662128,1
657,680,51,0.0768191301691053,1
658,676,51,0.0845936562878783,1
658,680,51,0.102889465659196,1
660,676,51,0.083438997266812,1
660,680,51,0.0919636443959414,1
661,677,51,0.0922574462521602,1
661,679,51,0.111383922762026,1
661,680,51,0.0753571974357372,1
662,676,51,0.0705175061278176,1
662,677,51,0.0872758625157742,1
662,678,51,0.109174587024353,1
662,679,51,0.108169244550586,1
662,680,51,0.0772675177505954,1
663,675,51,0.0860033560353804,1
663,676,51,0.0924794399178019,1
663,677,51,0.12032099776598,1
663,679,51,0.121796506626763,1
663,680,51,0.0796447372840694,1
664,675,51,0.112620344410156,1
664,676,51,0.120125537678599,1
664,679,51,0.119258750950676,1
664,680,51,0.0699807520682427,1
665,676,51,0.129987228291154,1
665,679,51,0.11009755514591,1
666,676,51,0.107067652686041,1
666,677,51,0.128280153656459,1
666,678,51,0.127674531857867,1
666,679,51,0.0948972766107669,1
667,677,51,0.0785837695304376,1
667,678,51,0.0821162528587028,1
667,679,51,0.0707053126994363,1
675,683,51,0.0721183560809817,1
677,683,51,0.0717962549852819,1
677,684,51,0.0724180040832098,1
677,696,51,0.0832155994139006,1
677,697,51,0.0874413063624087,1
677,698,51,0.075440113998874,1
678,682,51,0.0705791165821337,1
678,683,51,0.0752825947734648,1
678,684,51,0.0789563796593158,1
678,685,51,0.0790931627925186,1
678,686,51,0.0751366010059431,1
678,694,51,0.0726740110573213,1
678,695,51,0.0925186598414453,1
678,696,51,0.118439873424057,1
678,697,51,0.123081240658679,1
678,698,51,0.101412031254484,1
678,699,51,0.0843368151431114,1
679,683,51,0.0769799999799799,1
679,684,51,0.0827170573217605,1
679,685,51,0.0881573932100288,1
679,686,51,0.0899736121235471,1
679,687,51,0.0850763560889898,1
679,694,51,0.0865278130292118,1
679,695,51,0.102454369196814,1
679,696,51,0.119519651725966,1
679,697,51,0.121679291746849,1
679,698,51,0.105921724651167,1
679,699,51,0.090449902713457,1
680,683,51,0.0732923122498739,1
680,684,51,0.0815262300513649,1
680,685,51,0.0907105740918162,1
680,686,51,0.0957967211198441,1
680,687,51,0.0935927727343202,1
680,688,51,0.0834101071564502,1
680,694,51,0.0967749808530029,1
680,695,51,0.102226244376856,1
680,696,51,0.104771479783151,1
680,697,51,0.106030667338749,1
680,698,51,0.100269266116678,1
681,684,51,0.0755041644023568,1
681,685,51,0.0851306884043383,1
681,686,51,0.0910321190737458,1
681,687,51,0.092595028164938,1
682,685,51,0.0739833948321015,1
682,686,51,0.0795139671310068,1
648,676,52,0.071006357937512,1
648,677,52,0.0802231373136101,1
649,675,52,0.0712759827475713,1
649,676,52,0.089925188517007,1
649,677,52,0.102403846260791,1
649,678,52,0.0849960254548844,1
650,675,52,0.0815421070995041,1
650,676,52,0.10318550587334,1
650,677,52,0.115109739042501,1
650,678,52,0.0977535742544238,1
650,679,52,0.0727189798070641,1
651,675,52,0.0922949700288045,1
651,676,52,0.118735308864476,1
651,677,52,0.137235406629277,1
651,678,52,0.127686001704377,1
651,679,52,0.0938920036512206,1
652,675,52,0.0954820719486649,1
652,676,52,0.132965022890755,1
652,677,52,0.172379210976885,1
652,678,52,0.177266241469493,1
652,679,52,0.127532611623712,1
652,680,52,0.0794887960314832,1
653,675,52,0.0978936801674036,1
653,676,52,0.146872135318941,1
653,677,52,0.207024125661247,1
653,678,52,0.216449892592186,1
653,679,52,0.151957378662093,1
653,680,52,0.0857480024949488,1
654,676,52,0.137199175817148,1
654,677,52,0.184867190577742,1
654,678,52,0.183090810264437,1
654,679,52,0.12669408937816,1
654,680,52,0.0743637140881191,1
654,710,52,0.0921276840553062,1
654,711,52,0.0871284437067163,1
655,676,52,0.111597296664229,1
655,677,52,0.135655306671163,1
655,678,52,0.126847173596252,1
655,679,52,0.0931338259426184,1
655,709,52,0.0729163237298417,1
655,710,52,0.112271820958949,1
655,711,52,0.10387238284518,1
655,712,52,0.0772062896244964,1
656,676,52,0.0813822660991044,1
656,677,52,0.0979433341756603,1
656,678,52,0.0999432722245863,1
656,679,52,0.0852100597421901,1
656,710,52,0.0892022545185912,1
656,711,52,0.0871277833216142,1
656,712,52,0.0723959819779098,1
657,676,52,0.0763883366370199,1
657,680,52,0.0743729664309708,1
660,675,52,0.073393615324538,1
660,676,52,0.090632217661595,1
661,675,52,0.0769720823101767,1
661,676,52,0.0740512337606437,1
661,677,52,0.0969658390989355,1
661,680,52,0.091001762213315,1
662,675,52,0.0853018046114288,1
662,676,52,0.076224727965827,1
662,677,52,0.0935950110922453,1
662,680,52,0.108255866221716,1
663,676,52,0.10379223294805,1
663,680,52,0.113967891492416,1
664,680,52,0.0981611013766485,1
665,680,52,0.0822900453633125,1
666,676,52,0.131158250959908,1
666,679,52,0.11188463369787,1
667,677,52,0.0940273061315102,1
667,678,52,0.0919484972471256,1
667,679,52,0.0756927147761431,1
676,683,52,0.071651672356452,1
676,684,52,0.0709434545186802,1
676,696,52,0.0748178435442866,1
676,697,52,0.0836331782925216,1
676,698,52,0.0814279438939042,1
677,682,52,0.0697767764887555,1
677,683,52,0.0779592398636587,1
677,684,52,0.0825602540928305,1
677,685,52,0.0824185632556057,1
677,686,52,0.0790892213361723,1
677,694,52,0.0762254995736832,1
677,695,52,0.0840853891561819,1
677,696,52,0.100810177126685,1
677,697,52,0.117119047608455,1
677,698,52,0.109783879173828,1
677,699,52,0.0918714546356865,1
678,682,52,0.0733846410385714,1
678,683,52,0.0817246792502608,1
678,684,52,0.0896964936804343,1
678,685,52,0.101415048171687,1
678,686,52,0.114060755540617,1
678,687,52,0.108258806673276,1
678,688,52,0.0855951546252093,1
678,693,52,0.0796305633343514,1
678,694,52,0.0997111294826385,1
678,695,52,0.115785785698667,1
678,696,52,0.130982227048795,1
678,697,52,0.142076780181351,1
678,698,52,0.130190918862334,1
678,699,52,0.109402906484131,1
679,683,52,0.0793828355039937,1
679,684,52,0.0913299388519543,1
679,685,52,0.114182530553447,1
679,686,52,0.13870167009863,1
679,687,52,0.137030284065138,1
679,688,52,0.10838242381297,1
679,693,52,0.0890162483653036,1
679,694,52,0.117830901039999,1
679,695,52,0.130258792547987,1
679,696,52,0.127409613160588,1
679,697,52,0.12430793031583,1
679,698,52,0.116133766938947,1
679,699,52,0.104517022976174,1
680,683,52,0.0738798951080451,1
680,684,52,0.0881114095526554,1
680,685,52,0.110343072424031,1
680,686,52,0.130455489988506,1
680,687,52,0.131238400857038,1
680,688,52,0.111616913577473,1
680,693,52,0.0923626560260599,1
680,694,52,0.114907786326853,1
680,695,52,0.118968932259337,1
680,696,52,0.107638837139413,1
680,697,52,0.101806545314486,1
680,698,52,0.0996913457352636,1
681,684,52,0.0801974379060048,1
681,685,52,0.0951682291424525,1
681,686,52,0.106152115634738,1
681,687,52,0.109497904618925,1
681,694,52,0.0962849264472805,1
681,695,52,0.0960776211365942,1
682,686,52,0.0830969803467169,1
646,696,53,0.0705250414694038,1
646,697,53,0.0715024878861737,1
647,696,53,0.0766496336433705,1
647,697,53,0.0761786608913881,1
647,698,53,0.0703006217574396,1
648,676,53,0.0779877754514921,1
648,677,53,0.0897928960024985,1
648,678,53,0.079015112224871,1
648,696,53,0.0814297999236122,1
648,697,53,0.0817788169257897,1
648,698,53,0.0720311157332816,1
649,675,53,0.0759320313857265,1
649,676,53,0.0981683517099275,1
649,677,53,0.112365060383945,1
649,678,53,0.0936071691295463,1
649,679,53,0.0738793042371643,1
649,696,53,0.0811296097104583,1
649,697,53,0.0804452282991616,1
650,675,53,0.0864002057732172,1
650,676,53,0.11098835208586,1
650,677,53,0.123524018442512,1
650,678,53,0.104692018076812,1
650,679,53,0.0861145787894204,1
650,680,53,0.0809307712319232,1
650,681,53,0.071152970381603,1
650,696,53,0.0698907589573801,1
651,675,53,0.0959804472066739,1
651,676,53,0.126216943763329,1
651,677,53,0.145355321107876,1
651,678,53,0.132150955748248,1
651,679,53,0.107535267901135,1
651,680,53,0.0940234133351188,1
651,681,53,0.079007695057461,1
652,675,53,0.100146789010213,1
652,676,53,0.142301033059184,1
652,677,53,0.177996224209946,1
652,678,53,0.173375655630329,1
652,679,53,0.129919424119722,1
652,680,53,0.0966039272087115,1
652,681,53,0.0754208655110029,1
653,675,53,0.100991504972881,1
653,676,53,0.145824750644147,1
653,677,53,0.189955520352318,1
653,678,53,0.188676097206907,1
653,679,53,0.134692882277611,1
653,680,53,0.0865379273484073,1
653,710,53,0.0837737708050503,1
653,711,53,0.0798612462776525,1
654,676,53,0.120255251215498,1
654,677,53,0.146394920189888,1
654,678,53,0.142495742392975,1
654,679,53,0.10391456407465,1
654,709,53,0.0707639340422375,1
654,710,53,0.105337436767084,1
654,711,53,0.100787508539127,1
654,712,53,0.0749076211610632,1
655,677,53,0.103361070990592,1
655,678,53,0.0985096109250107,1
655,679,53,0.0789050573097485,1
655,709,53,0.0743719723776066,1
655,710,53,0.119010835431921,1
655,711,53,0.115830990796762,1
655,712,53,0.0829270806384987,1
656,676,53,0.077425766875328,1
656,677,53,0.0906759282039327,1
656,678,53,0.0962017596329471,1
656,679,53,0.0820126280090482,1
656,710,53,0.0853378894436927,1
656,711,53,0.0887895902954143,1
657,676,53,0.0801130963013318,1
657,680,53,0.0713368633025639,1
660,676,53,0.0931741024824251,1
661,676,53,0.0808309627130166,1
661,677,53,0.100056844559305,1
661,680,53,0.117021018653613,1
661,681,53,0.0744390257954484,1
662,676,53,0.0834262414072081,1
662,677,53,0.0997566543461515,1
662,681,53,0.0876979598187781,1
663,676,53,0.113146372425388,1
663,681,53,0.0852807000938498,1
664,681,53,0.0729754803321467,1
665,680,53,0.099801171253456,1
666,679,53,0.116302199897097,1
666,680,53,0.0748113439645973,1
667,677,53,0.0976662365868139,1
667,678,53,0.0906489149775452,1
667,679,53,0.0751417103012068,1
675,695,53,0.0731416957866374,1
675,696,53,0.0764203340330728,1
675,697,53,0.0787361655577387,1
675,698,53,0.0806961885408086,1
675,699,53,0.0774976237258599,1
676,683,53,0.0745103404350545,1
676,684,53,0.0784041030741302,1
676,685,53,0.0757293974307099,1
676,686,53,0.0722004662791518,1
676,693,53,0.0705948406989861,1
676,694,53,0.0791234848958388,1
676,695,53,0.0836770487175683,1
676,696,53,0.0948413524197511,1
676,697,53,0.111244984687963,1
676,698,53,0.118802751561957,1
676,699,53,0.103709295530647,1
677,682,53,0.073387894304127,1
677,683,53,0.0849789527621392,1
677,684,53,0.0952149426991493,1
677,685,53,0.104945835352953,1
677,686,53,0.118797690926648,1
677,687,53,0.116597885588712,1
677,688,53,0.0975542839334505,1
677,689,53,0.0789111467555322,1
677,693,53,0.0847614636180361,1
677,694,53,0.10349476769237,1
677,695,53,0.106746670769303,1
677,696,53,0.116105843076261,1
677,697,53,0.141460550512592,1
677,698,53,0.153687337378431,1
677,699,53,0.131077558851852,1
678,682,53,0.0770084730050141,1
678,683,53,0.0878929541608766,1
678,684,53,0.107020445578373,1
678,685,53,0.141552629050093,1
678,686,53,0.185675307302908,1
678,687,53,0.192650878670879,3
678,688,53,0.156126243831864,1
678,689,53,0.110818911171503,1
678,693,53,0.101803055700578,1
678,694,53,0.141487424710537,1
678,695,53,0.146947155066541,1
678,696,53,0.136739728523053,1
678,697,53,0.146969830605521,1
678,698,53,0.155882568680607,1
678,699,53,0.137998088859417,1
679,683,53,0.0817138211288976,1
679,684,53,0.108669684380966,1
679,685,53,0.159318239552902,1
679,686,53,0.215610174702029,1
679,687,53,0.228214952097472,3
679,688,53,0.189993210963093,1
679,689,53,0.132994900103059,1
679,693,53,0.109177110390585,1
679,694,53,0.156220032419208,1
679,695,53,0.162364672494591,1
679,696,53,0.132976228583225,1
679,697,53,0.119734144807132,1
679,698,53,0.12084211807719,1
679,699,53,0.113728039623329,1
680,684,53,0.100084532073639,1
680,685,53,0.139340867266098,1
680,686,53,0.176044390002142,1
680,687,53,0.185529994774755,1
680,688,53,0.164347857616189,1
680,689,53,0.123639884746533,1
680,693,53,0.101552609864168,1
680,694,53,0.129419130269206,1
680,695,53,0.132838145534084,1
680,696,53,0.112042750745582,1
680,697,53,0.102726468713151,1
681,685,53,0.106462093450248,1
681,686,53,0.121424716765696,1
681,687,53,0.126019982168768,1
681,688,53,0.118916949524667,1
681,694,53,0.10258119789353,1
681,695,53,0.0996427066346375,1
646,693,54,0.0728973254931673,1
647,677,54,0.0749916151946298,1
647,695,54,0.0791127797057624,1
647,696,54,0.106414517917207,1
647,697,54,0.114191595207901,1
648,676,54,0.0856039203685121,1
648,677,54,0.0978401403141776,1
648,678,54,0.0867052689332826,1
648,695,54,0.0855432900647161,1
648,696,54,0.131890652795261,1
648,697,54,0.144291878647967,1
648,698,54,0.108831923622,1
648,699,54,0.0720675133795412,1
649,675,54,0.0821791354232682,1
649,676,54,0.104278561391512,1
649,677,54,0.117485623902927,1
649,678,54,0.101546006013147,1
649,695,54,0.0798727717355399,1
649,696,54,0.125569001706824,1
649,697,54,0.135664176685798,1
649,698,54,0.101833704520738,1
650,674,54,0.0872024415952635,1
650,675,54,0.0957186705521965,1
650,676,54,0.120450697400035,1
650,677,54,0.13085664265664,1
650,678,54,0.115861521442746,1
650,679,54,0.11503595664804,1
650,680,54,0.1224265835284,1
650,681,54,0.0993532563686705,1
650,696,54,0.0889700839709548,1
650,697,54,0.0936830578049122,1
650,698,54,0.0746051578328736,1
651,674,54,0.0866518263999664,1
651,675,54,0.105811071913741,1
651,676,54,0.135952160201696,1
651,677,54,0.150133339398681,1
651,678,54,0.137732614048368,1
651,679,54,0.141913824943838,1
651,680,54,0.150832638561863,1
651,681,54,0.117498678673682,1
652,675,54,0.108356140485906,1
652,676,54,0.147132813648722,1
652,677,54,0.171816368230066,1
652,678,54,0.159491038004148,1
652,679,54,0.143099904392921,1
652,680,54,0.134405719029524,1
652,681,54,0.10201864710644,1
653,675,54,0.102564702168821,1
653,676,54,0.135908074282563,1
653,677,54,0.161425090474149,1
653,678,54,0.149887648335007,1
653,679,54,0.117703884654886,1
653,680,54,0.0925830995245672,1
653,709,54,0.0712480310791966,1
653,710,54,0.0936365319366128,1
653,711,54,0.0853422340825224,1
654,676,54,0.105607061577143,1
654,677,54,0.117898496668767,1
654,678,54,0.110150677913808,1
654,679,54,0.0864020548515032,1
654,709,54,0.0715661629128616,1
654,710,54,0.103735822157486,1
654,711,54,0.100054369853028,1
654,712,54,0.0740429963254226,1
655,677,54,0.0876897432378234,1
655,678,54,0.0848357465148906,1
655,679,54,0.0723636231079063,1
655,710,54,0.103688976523768,1
655,711,54,0.106968296009572,1
655,712,54,0.080112505430451,1
656,677,54,0.0869446550570873,1
656,678,54,0.0946585091635315,1
656,679,54,0.0806781496003878,1
656,710,54,0.0715056507832418,1
656,711,54,0.079932150783353,1
657,676,54,0.0807691298131925,1
657,679,54,0.111498461344421,1
657,680,54,0.0699828027377703,1
658,680,54,0.085859510257296,1
660,676,54,0.0873697275687618,1
660,681,54,0.0706863283656061,1
661,676,54,0.0810998228666419,1
661,681,54,0.0932769835299121,1
662,676,54,0.0857341135535381,1
662,677,54,0.101264000720279,1
662,681,54,0.105391831645231,1
663,676,54,0.113304927412694,1
663,681,54,0.0968605389565482,1
664,681,54,0.0854280632915306,1
665,680,54,0.109631941940388,1
665,681,54,0.0707191807865807,1
666,679,54,0.110977229810456,1
666,680,54,0.0780637823010342,1
667,678,54,0.0833128984694192,1
667,679,54,0.072253908812468,1
674,695,54,0.0703034162291349,1
674,696,54,0.0709958265329888,1
674,698,54,0.0720000915363266,1
674,699,54,0.0721842903198611,1
675,683,54,0.0715907848500373,1
675,684,54,0.071120910422751,1
675,694,54,0.0745970316204065,1
675,695,54,0.0861852330439243,1
675,696,54,0.0948738711724636,1
675,697,54,0.101989312105062,1
675,698,54,0.108849941708155,1
675,699,54,0.0973371632147202,1
676,682,54,0.0764301216354283,1
676,683,54,0.0813940487596105,1
676,684,54,0.0850393119604723,1
676,685,54,0.0944114695239644,1
676,686,54,0.109893280655271,1
676,687,54,0.114239420992138,1
676,688,54,0.0992480744004593,1
676,689,54,0.0827646676119118,1
676,690,54,0.0716786091171961,1
676,693,54,0.0748064640662638,1
676,694,54,0.0885756185709077,1
676,695,54,0.0975205417304437,1
676,696,54,0.112504922997151,1
676,697,54,0.137271609635717,1
676,698,54,0.160728196503023,1
676,699,54,0.142693134975708,1
676,700,54,0.106179267889568,1
677,681,54,0.0705241447359494,1
677,682,54,0.0815277663156551,1
677,683,54,0.0914566910830271,1
677,684,54,0.111860859834194,1
677,685,54,0.151168183707958,1
677,686,54,0.197113177271497,3
677,687,54,0.21105514413023,3
677,688,54,0.179449863896716,1
677,689,54,0.127177088090423,1
677,693,54,0.0938345501473368,1
677,694,54,0.125468192183131,1
677,695,54,0.126632972474815,1
677,696,54,0.126934149789911,1
677,697,54,0.156175515511904,1
677,698,54,0.193251564959761,1
677,699,54,0.179049434176483,1
678,682,54,0.080104163723898,1
678,683,54,0.0938622307102485,1
678,684,54,0.139014970693917,1
678,685,54,0.220505102010173,1
678,686,54,0.297055177385834,3
678,687,54,0.321538391981462,3
678,688,54,0.280369623241819,3
678,689,54,0.191554653304217,1
678,690,54,0.103710477272409,1
678,692,54,0.0773923652920053,1
678,693,54,0.115088558059279,1
678,694,54,0.169554069607203,1
678,695,54,0.166438720266543,1
678,696,54,0.134835303014159,1
678,697,54,0.139783200158915,1
678,698,54,0.169559269270955,1
678,699,54,0.166511307016398,1
679,683,54,0.08623602708541,1
679,684,54,0.139584806571396,1
679,685,54,0.232469528302076,1
679,686,54,0.310298415098,3
679,687,54,0.336352929151328,3
679,688,54,0.303963500696143,3
679,689,54,0.211902995184277,1
679,690,54,0.111186891653244,1
679,692,54,0.0814562083762746,1
679,693,54,0.116669040345609,1
679,694,54,0.169002098884592,1
679,695,54,0.167066127822083,1
679,696,54,0.12412430154891,1
679,697,54,0.10730368822438,1
679,698,54,0.117998388604739,1
679,699,54,0.119136113961503,1
680,684,54,0.115299026267033,1
680,685,54,0.176592412316986,1
680,686,54,0.222529244910947,1
680,687,54,0.237622853873544,3
680,688,54,0.220522522274025,1
680,689,54,0.163154687716537,1
680,690,54,0.0966584402610354,1
680,693,54,0.103863776984587,1
680,694,54,0.126795788683886,1
680,695,54,0.124791262696355,1
680,696,54,0.105552367787844,1
681,685,54,0.112705381157041,1
681,686,54,0.130304268751545,1
681,687,54,0.135061516193032,1
681,688,54,0.12879631065227,1
681,689,54,0.107168726363774,1
681,694,54,0.105180376335535,1
681,695,54,0.0962193050223969,1
647,676,55,0.0735599489532048,1
647,677,55,0.0791904618480372,1
647,697,55,0.161742534117024,1
648,675,55,0.0753229338760707,1
648,676,55,0.0891530314985064,1
648,677,55,0.0976694689981032,1
648,678,55,0.0876068753346415,1
648,688,55,0.0827191288455545,1
648,696,55,0.188549122530327,1
648,697,55,0.216623080323071,1
648,698,55,0.154056819367352,1
648,699,55,0.0855624968440544,1
649,674,55,0.0843963401707892,1
649,675,55,0.089008963274914,1
649,676,55,0.104065472497616,1
649,677,55,0.112115219321261,1
649,678,55,0.104664615570785,1
649,679,55,0.104157321638187,1
649,680,55,0.107682665855927,1
649,695,55,0.0968971242912052,1
649,696,55,0.168398923986588,1
649,697,55,0.191663623797487,1
649,698,55,0.136384997451887,1
649,699,55,0.0789413784903647,1
650,674,55,0.0908058294292293,1
650,675,55,0.102966862793164,1
650,676,55,0.11970702035799,1
650,677,55,0.124475793257365,1
650,678,55,0.123705812033991,1
650,679,55,0.148674374922561,1
650,680,55,0.169312771842314,1
650,681,55,0.132372859045402,1
650,696,55,0.101621185643456,1
650,697,55,0.112804035739875,1
650,698,55,0.0864992218300014,1
650,702,55,0.0709427176679347,1
651,674,55,0.0894808605660393,1
651,675,55,0.110316483234393,1
651,676,55,0.132321029242019,1
651,677,55,0.137432326515304,1
651,678,55,0.139776054096968,1
651,679,55,0.179631754808104,1
651,680,55,0.210440040591856,1
651,681,55,0.157047515806422,1
651,682,55,0.0804413424541923,1
652,675,55,0.1080776734669,1
652,676,55,0.135506866003052,1
652,677,55,0.145600414349248,1
652,678,55,0.139873457423819,1
652,679,55,0.155459713672591,1
652,680,55,0.168584165483442,1
652,681,55,0.12363902277019,1
653,676,55,0.117355159612438,1
653,677,55,0.126317016436276,1
653,678,55,0.114982486309035,1
653,679,55,0.104746016723898,1
653,680,55,0.0973976544900737,1
653,681,55,0.0740854764660438,1
654,679,55,0.0762014754588105,1
654,710,55,0.0909557785559416,1
654,711,55,0.0869907568886369,1
655,678,55,0.079229702625947,1
655,679,55,0.0707772738213002,1
655,711,55,0.0847160708315436,1
656,677,55,0.0856165997624727,1
656,678,55,0.0897834768255157,1
656,679,55,0.0787370831454596,1
657,677,55,0.105093719907294,1
657,679,55,0.0992230840379109,1
658,680,55,0.0800985886833517,1
659,676,55,0.0893591411645868,1
659,680,55,0.0990762282940454,1
660,676,55,0.085251601440824,1
660,681,55,0.0844106461975276,1
661,676,55,0.0838449116591032,1
662,676,55,0.0885025313186592,1
662,677,55,0.102275147631523,1
663,677,55,0.119585745847554,1
663,681,55,0.10301834502544,1
664,680,55,0.128720804305121,1
664,681,55,0.091207308814203,1
665,679,55,0.132750919089228,1
665,680,55,0.10513180674913,1
665,681,55,0.0769653046736024,1
666,677,55,0.122007760345218,1
666,678,55,0.10946907011994,1
666,679,55,0.0947283014416916,1
666,680,55,0.0767790760748066,1
667,678,55,0.0727189589527977,1
674,695,55,0.0773094904374013,1
674,696,55,0.082375888475165,1
674,697,55,0.0841259785099844,1
674,698,55,0.0880870865266313,1
675,681,55,0.0863334373636826,1
675,682,55,0.0937973739417989,1
675,683,55,0.0880681299984896,1
675,684,55,0.0815442689917858,1
675,685,55,0.0809051204842728,1
675,686,55,0.0881032346802335,1
675,687,55,0.093965737385727,1
675,688,55,0.0904709516196591,1
675,689,55,0.0847082504816501,1
675,690,55,0.0790400747817309,1
675,691,55,0.0718210437565886,1
675,693,55,0.0705210652559469,1
675,694,55,0.080509202237001,1
675,695,55,0.0945912124459152,1
675,696,55,0.110395937989311,1
675,697,55,0.127985719220827,1
675,698,55,0.142997788001868,1
675,699,55,0.123038892595078,1
676,681,55,0.0888136005074427,1
676,682,55,0.100471441277834,1
676,683,55,0.0971978984238179,1
676,684,55,0.0965093670135111,1
676,685,55,0.123358560693033,1
676,686,55,0.169985321933149,3
676,687,55,0.195169712575935,3
676,688,55,0.169803055644966,1
676,689,55,0.123650631645142,1
676,694,55,0.0986751798972435,1
676,695,55,0.110167667189488,1
676,696,55,0.12707264992438,1
676,697,55,0.160646517293025,1
676,698,55,0.197419053747951,1
676,699,55,0.182282846470557,1
676,700,55,0.128646785562308,1
677,681,55,0.0805043709986224,1
677,682,55,0.093006225638046,1
677,683,55,0.0989080594899369,1
677,684,55,0.1292181646555,1
677,685,55,0.211422512886824,3
677,686,55,0.301419141169036,3
677,687,55,0.338433350765646,3
677,688,55,0.297131031304089,3
677,689,55,0.198873694439507,1
677,690,55,0.109191180068971,1
677,693,55,0.10150102336056,1
677,694,55,0.136872792645418,1
677,695,55,0.138856353143811,1
677,696,55,0.133170117649205,1
677,697,55,0.163833952881148,1
677,698,55,0.214941753755937,1
677,699,55,0.217996000096096,1
677,700,55,0.164478808506227,1
678,682,55,0.0826306789504042,1
678,683,55,0.0988040106035325,1
678,684,55,0.166245762691128,1
678,685,55,0.3002223009185,3
678,686,55,0.409506442355582,3
678,687,55,0.447685765912139,3
678,688,55,0.408303707299082,3
678,689,55,0.27660631794181,3
678,690,55,0.134771739210225,1
678,692,55,0.0874800952978801,1
678,693,55,0.122973424101481,1
678,694,55,0.174029478589954,1
678,695,55,0.16772577607345,1
678,696,55,0.129863923965456,1
678,697,55,0.131464363784715,1
678,698,55,0.165839493776308,1
678,699,55,0.178315127651467,1
678,700,55,0.149787061256822,1
679,683,55,0.0916044296575029,1
679,684,55,0.16108253829455,1
679,685,55,0.289106281794414,3
679,686,55,0.38380394831879,3
679,687,55,0.416445490951695,3
679,688,55,0.393925024296611,3
679,689,55,0.273937110873292,3
679,690,55,0.135241891694396,1
679,692,55,0.0894483696190154,1
679,693,55,0.117730425184569,1
679,694,55,0.158339340288908,1
679,695,55,0.151691361640117,1
679,696,55,0.113469717825649,1
679,697,55,0.101907174101203,1
679,698,55,0.113271268626753,1
679,699,55,0.11789844105739,1
680,684,55,0.121049117525303,1
680,685,55,0.194517627471842,1
680,686,55,0.247591193204379,3
680,687,55,0.26375672536188,3
680,688,55,0.250044961798321,3
680,689,55,0.181750520466878,1
680,690,55,0.106388596064094,1
680,693,55,0.104677586924475,1
680,694,55,0.11814607851926,1
680,695,55,0.112557044760263,1
681,685,55,0.110300216906615,1
681,686,55,0.13060005176307,1
681,687,55,0.13425462291816,1
681,688,55,0.127945039498537,1
681,689,55,0.107192986826999,1
681,694,55,0.10674146415413,1
646,697,56,0.114544094872564,1
647,696,56,0.17352847569438,1
647,697,56,0.207435010320359,1
647,698,56,0.155658329705618,1
648,675,56,0.0816782367990269,1
648,676,56,0.0886856526317639,1
648,677,56,0.0917381472135475,1
648,695,56,0.123042827100002,1
648,696,56,0.228074616787562,1
648,697,56,0.273112672208971,1
648,698,56,0.194415358149503,1
649,674,56,0.0874227391139061,1
649,675,56,0.0962692440389609,1
649,676,56,0.100232361016603,1
649,677,56,0.101029279000721,1
649,679,56,0.113523445367272,1
649,680,56,0.121836338275553,1
649,696,56,0.187546741362385,1
649,697,56,0.222116247019508,1
649,698,56,0.158653516763382,1
649,699,56,0.0869735729731377,1
650,674,56,0.0917177239353369,1
650,675,56,0.106681035441575,1
650,676,56,0.111264101098814,1
650,677,56,0.109975363047753,1
650,678,56,0.124915415095553,1
650,679,56,0.1708255403257,1
650,680,56,0.200886019922665,1
650,681,56,0.156696246543475,1
650,696,56,0.101329754222183,1
650,697,56,0.117359539008378,1
650,698,56,0.0913198592898694,1
650,702,56,0.0711667481002597,1
651,674,56,0.08828459728354,1
651,675,56,0.106981747011389,1
651,676,56,0.118232123222355,1
651,677,56,0.117849628171211,1
651,678,56,0.138171429521589,1
651,679,56,0.200249492101294,1
651,680,56,0.240506442800473,1
651,681,56,0.177892759243,1
651,682,56,0.0881225735365922,1
652,675,56,0.10079127620992,1
652,676,56,0.116211977389304,1
652,677,56,0.117440300630655,1
652,678,56,0.124400022756175,1
652,679,56,0.158177914364263,1
652,680,56,0.178540534465373,1
652,681,56,0.128992090505069,1
653,676,56,0.0999471511181335,1
653,680,56,0.0960689527132012,1
653,681,56,0.0728995221425595,1
653,699,56,0.0720412439553214,1
655,679,56,0.0716628293889667,1
656,678,56,0.0828190138301046,1
656,679,56,0.0764308932432844,1
657,678,56,0.0967918032945514,1
657,679,56,0.0861973702269589,1
658,677,56,0.103102206981986,1
658,679,56,0.10265445197991,1
658,680,56,0.0776443891012378,1
659,677,56,0.101803055700578,1
659,680,56,0.103120871550398,1
659,681,56,0.0718462148561122,1
660,677,56,0.102157279317929,1
660,681,56,0.0936880906345325,1
662,677,56,0.103114163428045,1
662,682,56,0.0740360727089837,1
663,677,56,0.106496857512307,1
663,682,56,0.0725423997821814,1
664,677,56,0.115436775647911,1
664,678,56,0.122217401333739,1
664,681,56,0.0999210276737783,1
665,678,56,0.109718160429035,1
665,679,56,0.106570702469568,1
665,680,56,0.0978310130969242,1
665,681,56,0.0809593971882443,1
666,678,56,0.0861267368267214,1
666,679,56,0.0813131064003579,1
666,680,56,0.0758588815706788,1
666,681,56,0.070104257985182,1
674,681,56,0.0981166053236104,1
674,682,56,0.103805802124043,1
674,683,56,0.0903989626921067,1
674,684,56,0.0788537419116033,1
674,689,56,0.0745993881525077,1
674,690,56,0.0777392899161225,1
674,691,56,0.0724993843820564,1
674,694,56,0.0708431107402697,1
674,695,56,0.0786218772265405,1
674,696,56,0.0874671517498787,1
674,697,56,0.099427761711033,1
674,698,56,0.103359479114925,1
675,680,56,0.0849881842507246,1
675,681,56,0.121030195754272,1
675,682,56,0.138225483780052,1
675,683,56,0.120774049751717,1
675,684,56,0.0968816573769715,1
675,685,56,0.0895829213457152,1
675,686,56,0.107441924204807,1
675,687,56,0.123299167742376,1
675,688,56,0.115811728406047,1
675,689,56,0.0985998403842257,1
675,695,56,0.0975766536098568,1
675,696,56,0.120364694405473,1
675,697,56,0.156500146925258,1
675,698,56,0.173310437387929,1
675,699,56,0.143264027469351,1
676,680,56,0.079448387414656,1
676,681,56,0.11354882500946,1
676,682,56,0.134032816940916,1
676,683,56,0.121329690825213,1
676,684,56,0.109863980411004,1
676,685,56,0.150079507585725,1
676,686,56,0.230814422499206,3
676,687,56,0.278797573030529,3
676,688,56,0.244796109783977,3
676,689,56,0.164861331363059,1
676,690,56,0.102383131022851,1
676,693,56,0.0845500500168725,1
676,694,56,0.100710361656356,1
676,695,56,0.113201233048818,1
676,696,56,0.133729748839001,1
676,697,56,0.179596719640581,1
676,698,56,0.215657221926988,1
676,699,56,0.197503165955694,1
676,700,56,0.134305451716757,1
677,681,56,0.0881959875056807,1
677,682,56,0.102855250759485,1
677,683,56,0.10451873997744,1
677,684,56,0.139536897370094,1
677,685,56,0.256110105410253,3
677,686,56,0.386587631406903,3
677,687,56,0.44530696145442,3
677,688,56,0.398048552291267,3
677,689,56,0.260976879458781,3
677,690,56,0.129549386017031,1
677,692,56,0.0849108774852446,1
677,693,56,0.105178680188536,1
677,694,56,0.130087384381167,1
677,695,56,0.132832528785005,1
677,696,56,0.12958355920821,1
677,697,56,0.160529288510267,1
677,698,56,0.205670892315687,1
677,699,56,0.213779003279514,1
677,700,56,0.160024392818302,1
678,682,56,0.0809981235609166,1
678,683,56,0.0963486431825012,1
678,684,56,0.172229115870308,3
678,685,56,0.336281468531857,3
678,686,56,0.469923309686634,3
678,687,56,0.518375333640456,3
678,688,56,0.480847386142935,3
678,689,56,0.325167228971837,3
678,690,56,0.153100706865091,3
678,692,56,0.0961010404777418,1
678,693,56,0.122901393465396,1
678,694,56,0.15198112472008,1
678,695,56,0.144500880105653,1
678,696,56,0.117222470866868,1
678,697,56,0.119557008668479,1
678,698,56,0.145559442667228,1
678,699,56,0.159553503483385,1
679,683,56,0.0895326069523564,1
679,684,56,0.159654910829381,1
679,685,56,0.299912406520056,3
679,686,56,0.405712578603901,3
679,687,56,0.441379102089809,3
679,688,56,0.418265123013478,3
679,689,56,0.288636393464284,3
679,690,56,0.142967229550195,1
679,692,56,0.0949300595175201,1
679,693,56,0.113285470382159,1
679,694,56,0.132864908509275,1
679,695,56,0.125167306827765,1
679,696,56,0.102340414533878,1
679,698,56,0.107093915158838,1
680,684,56,0.111475744096908,1
680,685,56,0.184242869453627,1
680,686,56,0.243918617865978,3
680,687,56,0.262256163575749,3
680,688,56,0.244739247150974,3
680,689,56,0.174285986066458,1
680,690,56,0.107853928042882,1
680,693,56,0.102620007683268,1
680,694,56,0.109605234576574,1
680,695,56,0.105873898866929,1
681,685,56,0.100594113024118,1
681,686,56,0.122762823816707,1
681,687,56,0.12749784061023,1
681,688,56,0.118672412397066,1
681,689,56,0.0996818014326825,1
646,697,57,0.12122617024689,1
647,696,57,0.175651592943406,1
647,697,57,0.216891544245635,1
647,698,57,0.168123564253274,1
648,675,57,0.0877868685077888,1
648,696,57,0.220544252419595,1
648,697,57,0.272201730047695,1
648,698,57,0.203723618240799,1
648,699,57,0.107298912597378,1
649,674,57,0.0895397182571928,1
649,675,57,0.101656359839421,1
649,676,57,0.0961377717922635,1
649,679,57,0.114060581755064,1
649,680,57,0.124190228836368,1
649,696,57,0.1738882813037,1
649,697,57,0.21186572165883,1
649,698,57,0.16247693796195,1
650,674,57,0.0900161270212789,1
650,675,57,0.105114351728168,1
650,676,57,0.10067577137985,1
650,677,57,0.0973702172269365,1
650,678,57,0.119913908583349,1
650,679,57,0.169780115951946,1
650,680,57,0.200967393270089,1
650,681,57,0.162938206528642,1
650,696,57,0.0943078446743097,1
650,697,57,0.115191508620987,1
650,698,57,0.102045708992782,1
650,699,57,0.0787534676474141,1
650,700,57,0.0705380892887372,1
651,675,57,0.097602012397778,1
651,676,57,0.100086534083212,1
651,677,57,0.101714814348091,1
651,678,57,0.129012305240616,1
651,679,57,0.187930751823553,1
651,680,57,0.223739918491517,1
651,681,57,0.173771344480671,1
651,698,57,0.0798770121030376,1
651,699,57,0.0768679778123952,1
651,700,57,0.0700101426809978,1
652,676,57,0.0974364781826558,1
652,679,57,0.144638434846712,1
652,680,57,0.161008311009073,1
652,698,57,0.0725283092495289,1
652,699,57,0.0802068014716105,1
652,700,57,0.0755765217552819,1
653,699,57,0.0771179300978338,1
653,700,57,0.0763805301899707,1
656,679,57,0.0739177942614842,1
657,679,57,0.0764650942401517,1
658,678,57,0.0887205348679997,1
658,679,57,0.087155470835948,1
658,680,57,0.0776339897737351,1
659,678,57,0.105031706270494,1
659,679,57,0.112866751470309,1
659,680,57,0.102554921517888,1
659,681,57,0.0794759706576579,1
660,678,57,0.128554512384987,1
660,681,57,0.0978995263134128,1
661,682,57,0.0714024916788697,1
662,682,57,0.0844636716455162,1
663,678,57,0.113555644354567,1
663,681,57,0.134768263499161,1
663,682,57,0.0824907259687113,1
664,678,57,0.0931405271135493,1
664,679,57,0.105145188236726,1
664,680,57,0.113590498785114,1
664,681,57,0.101765038372962,1
665,679,57,0.0825026129005493,1
665,680,57,0.0851865430811328,1
665,681,57,0.0796493877854727,1
666,679,57,0.0698016417257056,1
666,680,57,0.0732045783512028,1
666,681,57,0.0744142300727197,1
667,681,57,0.070991857270954,1
673,681,57,0.0754463355216781,1
673,682,57,0.0825720715104473,1
673,683,57,0.0753507395645807,1
674,680,57,0.0813490661070234,1
674,681,57,0.118319391375743,1
674,682,57,0.140341051784647,1
674,683,57,0.124851406400603,1
674,684,57,0.0946127201459776,1
674,697,57,0.105745652080099,1
674,698,57,0.107449459546394,1
675,680,57,0.0912815986624796,1
675,681,57,0.144485211600177,1
675,682,57,0.180659355735524,1
675,683,57,0.162747417796931,1
675,684,57,0.119368778060111,1
675,685,57,0.102574371597001,1
675,686,57,0.128253390681268,1
675,687,57,0.149145069617658,3
675,688,57,0.136322768321001,1
675,689,57,0.107494435247558,1
675,696,57,0.122071921971454,1
675,697,57,0.16707971090092,1
675,698,57,0.178613997094417,1
675,699,57,0.143135301034394,1
676,680,57,0.0825317393592635,1
676,681,57,0.125992746496873,1
676,682,57,0.158493967722712,1
676,683,57,0.148269788251896,1
676,684,57,0.127752804871023,1
676,685,57,0.169350559772999,1
676,686,57,0.266011154974894,3
676,687,57,0.323330023714916,3
676,688,57,0.285576127192562,3
676,689,57,0.185669037120149,1
676,690,57,0.10703696910877,1
676,694,57,0.0936682304215142,1
676,696,57,0.129947090779789,1
676,697,57,0.179324057059052,1
676,698,57,0.203987216167873,1
676,699,57,0.179162658940096,1
676,700,57,0.123933304274535,1
677,681,57,0.0907124370729463,1
677,682,57,0.108047546003399,1
677,683,57,0.112013429647048,1
677,684,57,0.144915435115648,1
677,685,57,0.265562871664735,3
677,686,57,0.412220527805355,3
677,687,57,0.48052072491432,3
677,688,57,0.431299651227688,3
677,689,57,0.278041508554253,3
677,690,57,0.134710135707331,1
677,693,57,0.10110445863103,1
677,694,57,0.110329885576255,1
677,695,57,0.11268469372479,1
677,696,57,0.116792428088372,1
677,697,57,0.144687011384539,1
677,698,57,0.17355340349413,1
677,699,57,0.173261123999357,1
678,682,57,0.0806227398146095,1
678,683,57,0.0946531009571163,1
678,684,57,0.161284226856158,3
678,685,57,0.315289452768479,3
678,686,57,0.454848400049561,3
678,687,57,0.507992967607708,3
678,688,57,0.466315382574019,3
678,689,57,0.310965139897092,3
678,690,57,0.150190633019856,3
678,692,57,0.09458515080582,1
678,693,57,0.111974689371531,1
678,694,57,0.119880180283186,1
678,695,57,0.114016572301575,1
678,698,57,0.121273704071398,1
679,684,57,0.144253242643783,1
679,685,57,0.267705411187185,3
679,686,57,0.373258946813946,3
679,687,57,0.408716566162079,3
679,688,57,0.374433236651101,3
679,689,57,0.253922020170024,3
679,690,57,0.134917524435083,1
679,693,57,0.103543643141349,1
679,694,57,0.113495472844631,1
679,695,57,0.111766153659129,1
680,685,57,0.161402248101038,1
680,686,57,0.220148855528983,3
680,687,57,0.239059128907839,3
680,688,57,0.213595610860946,3
680,689,57,0.150549117858971,1
680,694,57,0.118537916281743,1
681,686,57,0.112302567099019,1
681,687,57,0.117913636866161,1
681,688,57,0.106955964186718,1
646,697,58,0.119381860636555,1
647,696,58,0.152833994700903,1
647,697,58,0.194864447824628,1
647,698,58,0.162385999457678,1
648,696,58,0.179222037987909,1
648,697,58,0.227476502524868,1
648,698,58,0.184171408834156,1
649,675,58,0.103349038078889,1
649,697,58,0.172615517620687,1
650,675,58,0.0953474507077438,1
650,679,58,0.147628269309438,1
650,680,58,0.172686088458126,1
651,679,58,0.153354795246695,1
651,680,58,0.178453321923362,1
651,698,58,0.100878815468772,1
651,699,58,0.106493027278715,1
651,700,58,0.091575595158518,1
652,699,58,0.0908335238949853,1
652,700,58,0.0852162951678385,1
653,699,58,0.0718628635121076,1
653,700,58,0.075332109753279,1
658,679,58,0.0805720013845008,1
658,680,58,0.0777902299374728,1
658,690,58,0.104937271200892,1
658,691,58,0.107394008052083,1
659,679,58,0.105427395120836,1
659,680,58,0.10021751973036,1
659,681,58,0.0851389327909815,1
659,689,58,0.0751996295503731,1
659,690,58,0.116949905605249,1
659,691,58,0.108080043901845,1
660,679,58,0.134212302660248,1
660,680,58,0.124165231522397,1
660,681,58,0.101266051389806,1
660,682,58,0.0703279825549335,1
660,689,58,0.0720644617052272,1
660,690,58,0.0906783125417224,1
660,691,58,0.0723249036866561,1
661,681,58,0.122187927303918,1
661,682,58,0.0791681686372744,1
662,681,58,0.145878499040036,1
662,682,58,0.0920008623100121,1
663,679,58,0.123225871947464,1
663,680,58,0.1397566179207,1
663,681,58,0.133799791368358,1
663,682,58,0.0869112673766089,1
664,679,58,0.0871032308986598,1
664,680,58,0.0974130866471968,1
664,681,58,0.0951488555289832,1
665,680,58,0.0728034117802247,1
665,681,58,0.0735661565731647,1
666,681,58,0.0744907860846098,1
666,682,58,0.0704344088277055,1
667,681,58,0.0716848792999551,1
673,681,58,0.0789123006916053,1
673,682,58,0.0960629814415937,1
673,683,58,0.0907065075098716,1
674,680,58,0.0794597321355681,1
674,681,58,0.128558488598444,1
674,682,58,0.168872579987512,1
674,683,58,0.155394453721658,1
674,684,58,0.106911155319684,1
675,680,58,0.0888361787265128,1
675,681,58,0.151749517237636,1
675,682,58,0.204255346422175,1
675,683,58,0.192082321855071,1
675,684,58,0.138134781624132,1
675,685,58,0.115760385202213,1
675,686,58,0.138939533860989,1
675,687,58,0.155414515525918,1
675,688,58,0.140624753224514,1
675,689,58,0.10790224737809,1
675,697,58,0.154280404908661,1
675,698,58,0.158105160780277,1
676,680,58,0.0787957322939493,1
676,681,58,0.123863261745178,1
676,682,58,0.163656941868093,1
676,683,58,0.16339433104296,1
676,684,58,0.144916964428516,1
676,685,58,0.17804430024538,1
676,686,58,0.25916205778111,3
676,687,58,0.303331505201999,3
676,688,58,0.267375163024752,3
676,689,58,0.172586724830235,1
676,690,58,0.0987621769451692,1
676,697,58,0.156471854637199,1
676,698,58,0.168295250476979,1
676,699,58,0.139324253367213,1
677,681,58,0.0854204723385674,1
677,682,58,0.103680655671482,1
677,683,58,0.115037701454994,1
677,684,58,0.147791113324197,1
677,685,58,0.247851788117094,3
677,686,58,0.375916864772929,3
677,687,58,0.433663329390857,3
677,688,58,0.385173322866531,3
677,689,58,0.242001193197705,3
677,690,58,0.12087757033004,1
677,694,58,0.0911756937463672,1
677,698,58,0.133766466250679,1
678,683,58,0.0914204741737428,1
678,684,58,0.144931562414984,1
678,685,58,0.265023330084887,3
678,686,58,0.3865259305841,3
678,687,58,0.431910319758744,3
678,688,58,0.384804035517429,3
678,689,58,0.247916269508749,3
678,690,58,0.128961490344864,1
678,693,58,0.0979673374362666,1
678,694,58,0.0968489370330174,1
679,684,58,0.123744086564225,1
679,685,58,0.217097264632076,3
679,686,58,0.307404760511829,3
679,687,58,0.334956110389028,3
679,688,58,0.29334403555747,3
679,689,58,0.193766957299138,1
679,690,58,0.116954757697894,1
679,694,58,0.111796072579965,1
680,685,58,0.133975745765249,1
680,686,58,0.182617724280127,3
680,687,58,0.196935262573566,3
680,688,58,0.169093176417306,1
680,689,58,0.119844672418959,1
681,687,58,0.103072434041014,1
647,697,59,0.147155419673481,1
648,697,59,0.155248835330931,1
658,680,59,0.0788591362151742,1
659,680,59,0.0973840714112366,1
659,681,59,0.0874214739550789,1
660,680,59,0.116070536803276,1
660,681,59,0.102510599250403,1
661,680,59,0.128428413587594,1
661,681,59,0.117002931053237,1
661,682,59,0.0837465907445318,1
662,681,59,0.128336529689913,1
662,682,59,0.0909149250480983,1
663,681,59,0.113773022275916,1
663,682,59,0.0839027196855154,1
664,681,59,0.083744095183988,1
673,681,59,0.0799467140127101,1
673,682,59,0.100661659992931,1
673,683,59,0.0984725598450712,1
674,680,59,0.07786455454286,1
674,681,59,0.126932425837224,1
674,682,59,0.171793206091537,1
674,683,59,0.163037584059377,1
674,684,59,0.111061640929351,1
675,680,59,0.0852995036907046,1
675,681,59,0.142700503483163,1
675,682,59,0.194651776016059,1
675,683,59,0.189283164901302,1
675,684,59,0.142314852486374,1
675,685,59,0.121312868383664,1
675,686,59,0.132017446734867,1
675,687,59,0.140471446560915,1
675,688,59,0.128727630601651,1
676,681,59,0.11188695547286,1
676,682,59,0.147971933716577,1
676,683,59,0.156434191832112,1
676,684,59,0.150236637531495,1
676,685,59,0.169952622443462,1
676,686,59,0.21394386320669,1
676,687,59,0.235844791316083,3
676,688,59,0.207636393019393,1
676,689,59,0.140360946754776,1
676,698,59,0.122779117950174,1
677,682,59,0.0944742686714642,1
677,683,59,0.110248081240659,1
677,684,59,0.141798292308079,1
677,685,59,0.207390368287457,1
677,686,59,0.290187839660388,3
677,687,59,0.326444121799593,3
677,688,59,0.282914483271319,3
677,689,59,0.178992321292284,1
678,684,59,0.124961808886832,1
678,685,59,0.202629019506914,1
678,686,59,0.28721819212752,3
678,687,59,0.317257400372774,3
678,688,59,0.270412155935191,3
678,689,59,0.172746496316414,1
679,685,59,0.160652926504227,1
679,686,59,0.223116362023836,3
679,687,59,0.240027100536249,3
679,688,59,0.202136747597533,1
679,689,59,0.136440817371571,1
680,686,59,0.137828821730613,1
680,687,59,0.145402257110081,1
680,688,59,0.123817090399408,1
673,682,60,0.0932201208969092,1
674,681,60,0.113499643697907,1
674,682,60,0.148000517964366,1
674,683,60,0.140745527232558,1
675,681,60,0.121107356539887,1
675,682,60,0.159390131160545,1
675,683,60,0.158124735984988,1
675,684,60,0.132541292003551,1
676,682,60,0.119633641146013,1
676,683,60,0.134257709349585,1
676,684,60,0.145265439219768,1
676,685,60,0.156594227472332,1
676,686,60,0.164562739976995,1
676,687,60,0.1645305409897,1
676,688,60,0.144222058564119,1
677,684,60,0.13337549046454,1
677,685,60,0.169800400201714,1
677,686,60,0.203057310527033,1
677,687,60,0.213661148868764,3
677,688,60,0.179208621743203,1
678,685,60,0.152481515890506,1
678,686,60,0.195946381067396,1
678,687,60,0.208083077502462,3
678,688,60,0.170552043573516,1
679,686,60,0.149226081491132,1
679,687,60,0.157076489333849,1
679,688,60,0.131574251865706,1
674,682,61,0.108442386780241,1
675,682,61,0.112776271759898,1
675,683,61,0.114842790529961,1
677,686,61,0.137657872357653,1
677,687,61,0.132607052456877,1
678,686,61,0.129706891339596,1
678,687,61,0.130382722501676,1
