x,y,z,signal,cytoplasm.p
591,697,8,0.0746722042992933,1
592,697,8,0.0723581870958026,1
593,695,8,0.0727563158953109,1
594,696,8,0.0819680624417888,1
576,690,9,0.0698010578062468,1
577,690,9,0.0706913681466485,1
577,691,9,0.0719287560424542,1
591,697,9,0.0702974936174823,1
592,697,9,0.0715550545403019,1
592,698,9,0.0734493865842669,1
575,689,10,0.0709728729371238,1
576,682,10,0.112884262102648,1
576,689,10,0.0700057076736804,1
577,681,10,0.171451210025708,1
577,682,10,0.109885731410841,1
577,690,10,0.074097697066144,1
578,681,10,0.134204002662228,1
578,691,10,0.0697962960820895,1
579,681,10,0.127026520287142,1
580,681,10,0.118724325617514,1
580,682,10,0.0919696990846145,1
580,692,10,0.0701890722865596,1
580,693,10,0.0717970752530929,1
581,692,10,0.0790049075371879,1
581,693,10,0.0818804536687159,1
581,694,10,0.0741275951327143,1
582,692,10,0.0859092546340404,1
582,693,10,0.0885136813997517,1
582,694,10,0.0765758860060198,1
583,678,10,0.151155295771333,1
583,692,10,0.084576465420957,1
583,693,10,0.0848342450077111,1
584,678,10,0.18114331374404,1
584,692,10,0.0718366844563754,1
584,693,10,0.0718922819305512,1
585,678,10,0.1368781591433,1
592,697,10,0.0723060027698915,1
592,698,10,0.07959788469893,1
592,699,10,0.0725969197859273,1
593,697,10,0.0703865830434683,1
593,698,10,0.0803792871088602,1
594,698,10,0.0726276242174645,1
573,687,11,0.0821639465659196,1
574,683,11,0.0929508158522677,1
574,684,11,0.119147403071038,1
574,686,11,0.0983787573548827,1
574,687,11,0.0735649609285587,1
575,682,11,0.099399956022523,1
575,683,11,0.0760787828582602,1
575,685,11,0.0801129850785778,1
576,681,11,0.192529715383197,1
576,682,11,0.116274915565246,1
576,689,11,0.073152032551341,1
577,680,11,0.17681608127536,1
577,681,11,0.170147999113777,1
577,682,11,0.105150804985805,1
577,689,11,0.0701152203778771,1
577,690,11,0.075895967407729,1
578,680,11,0.115189402340082,1
578,681,11,0.121073975810831,1
578,682,11,0.0867590659891273,1
578,690,11,0.0710848672990199,1
579,680,11,0.101868816153904,1
579,681,11,0.120067020607129,1
579,682,11,0.0904942944951633,1
579,691,11,0.0703357194877614,1
579,693,11,0.0719935850052152,1
580,680,11,0.0979357293198528,1
580,681,11,0.116508114923358,1
580,682,11,0.0875254394244178,1
580,692,11,0.0790457888507197,1
580,693,11,0.0834070068221813,1
580,694,11,0.0726276242174645,1
581,680,11,0.0757458583983078,1
581,681,11,0.0811871883399403,1
581,692,11,0.102365849787442,1
581,693,11,0.117572669610807,1
581,694,11,0.0933228907216421,1
582,678,11,0.0933646340115178,1
582,679,11,0.0762556617942944,1
582,692,11,0.116929941120898,1
582,693,11,0.136698117310198,1
582,694,11,0.10321023903327,1
583,678,11,0.151946367609443,1
583,679,11,0.105423502324444,1
583,692,11,0.100486998560555,1
583,693,11,0.112215319799897,1
583,694,11,0.0846850396831664,1
584,679,11,0.123709718733226,1
584,693,11,0.0719900189256638,1
585,679,11,0.086414532654222,1
591,698,11,0.0699465163142648,1
592,698,11,0.0795341540608651,1
592,699,11,0.0760021225750381,1
593,698,11,0.0809817112532736,1
573,683,12,0.102219800408543,1
573,687,12,0.0810885198542626,1
574,682,12,0.0807132890392423,1
574,683,12,0.085164639150009,1
574,684,12,0.104210479163196,1
574,685,12,0.112868510180107,1
574,686,12,0.0895303129830543,1
574,687,12,0.0729096990245542,1
575,681,12,0.130522751949012,1
575,682,12,0.0916292670887644,1
575,683,12,0.0711418203005105,1
575,685,12,0.0698005155953209,1
576,680,12,0.177341636593888,1
576,681,12,0.17261957725121,1
576,682,12,0.105266511407117,1
576,689,12,0.0723813214286429,1
577,679,12,0.0896433431068475,1
577,680,12,0.142626331809063,1
577,681,12,0.140699675652205,1
577,682,12,0.0890587702144575,1
578,679,12,0.0717185311344743,1
578,680,12,0.0941328356708278,1
578,681,12,0.0993383594710513,1
578,682,12,0.0737001382832501,1
578,698,12,0.0738593745099247,1
579,679,12,0.0733420149180855,1
579,680,12,0.089781148099103,1
579,681,12,0.100967460003742,1
579,682,12,0.0770404217411121,1
579,691,12,0.0724841677190193,1
579,699,12,0.0733501967419296,1
580,679,12,0.0746681446687708,1
580,680,12,0.0887927253867938,1
580,681,12,0.0991262507276749,1
580,682,12,0.074989828679143,1
580,692,12,0.078456815708123,1
580,693,12,0.0860326006682708,1
580,694,12,0.0705863252068799,1
581,678,12,0.0725245207244694,1
581,680,12,0.0704476165297478,1
581,681,12,0.0712640610586226,1
581,692,12,0.109217984752695,1
581,693,12,0.138509365956895,1
581,694,12,0.0981275746677276,1
582,678,12,0.0879473629418685,1
582,679,12,0.0728390725757388,1
582,692,12,0.128467230328754,1
582,693,12,0.167974595277081,1
582,694,12,0.113955754309381,1
583,678,12,0.131262675223107,1
583,679,12,0.0925801938301179,1
583,692,12,0.0961798000904463,1
583,693,12,0.121086349342218,1
583,694,12,0.0847307661379211,1
584,678,12,0.155014044097153,1
584,679,12,0.105633831503756,1
585,678,12,0.106729959550509,1
585,679,12,0.0729525267362817,1
591,698,12,0.0721830460153002,1
591,699,12,0.0747758152461037,1
592,698,12,0.0815491697443856,1
592,699,12,0.0896175602821766,1
573,682,13,0.0761165221289904,1
573,683,13,0.0888880224327397,1
573,687,13,0.0767352334554485,1
574,681,13,0.088177190860248,1
574,682,13,0.0778635674409179,1
574,683,13,0.0752021737708718,1
574,684,13,0.0851950307675504,1
574,685,13,0.0923679808154096,1
574,686,13,0.077936140287929,1
575,680,13,0.113373426726338,1
575,681,13,0.110464437302955,1
575,682,13,0.0820026457668731,1
576,679,13,0.0927511501544995,1
576,680,13,0.136529364586631,1
576,681,13,0.135596261291612,1
576,682,13,0.0895931121305542,1
577,679,13,0.0777920303558038,1
577,680,13,0.10774707773336,1
577,681,13,0.108466028566897,1
577,682,13,0.074393751183132,1
577,690,13,0.0702260329980116,1
578,679,13,0.0699486504008579,1
578,680,13,0.0800000105661616,1
578,681,13,0.0817189026184728,1
578,698,13,0.0793788662419589,1
578,699,13,0.105499495271142,1
579,678,13,0.07333484105045,1
579,679,13,0.0714164987944566,1
579,680,13,0.077651973102779,1
579,681,13,0.0799142300171083,1
579,699,13,0.0803195743927849,1
579,700,13,0.0824466539524229,1
580,678,13,0.0712921517554398,1
580,680,13,0.0745514511455165,1
580,681,13,0.0759456839787849,1
580,692,13,0.0703344265232457,1
580,693,13,0.0806931438179168,1
581,678,13,0.070268964981071,1
581,692,13,0.098319677218221,1
581,693,13,0.136479564598509,1
581,694,13,0.0918049712344591,1
582,678,13,0.0809132397453177,1
582,692,13,0.116586102928206,1
582,693,13,0.167749271880241,1
582,694,13,0.109552049245876,1
583,678,13,0.105360021937576,1
583,679,13,0.07867899011074,1
583,692,13,0.0759960331292544,1
583,693,13,0.107810349577565,1
583,694,13,0.0732279629352397,1
584,678,13,0.116967284160567,1
584,679,13,0.0853696991513481,1
585,678,13,0.0858800308554164,1
590,699,13,0.070039707079306,1
590,700,13,0.0728574243301554,1
590,701,13,0.071974273954545,1
591,698,13,0.0713280767049948,1
591,699,13,0.0885546183246606,1
591,700,13,0.0921899201376137,1
592,698,13,0.0776818364122387,1
592,699,13,0.103365137572537,1
572,683,14,0.0878572029968749,1
573,682,14,0.0721623585830488,1
573,683,14,0.076718251131191,1
573,684,14,0.0987420317238437,1
573,687,14,0.0735728716469398,1
574,681,14,0.0827884970869649,1
574,682,14,0.0729654355271725,1
574,685,14,0.0729665199490244,1
575,680,14,0.0914806943436334,1
575,681,14,0.0902037180988116,1
575,682,14,0.0727014066119258,1
576,679,14,0.0776729316404934,1
576,680,14,0.0981994384696817,1
576,681,14,0.0988322750859029,1
576,682,14,0.0737436680886125,1
577,679,14,0.0707205988766947,1
577,680,14,0.0828189512673054,1
577,681,14,0.0831243967555878,1
578,680,14,0.0700638076598221,1
578,698,14,0.0772287705236567,1
579,699,14,0.0789522227088836,1
579,700,14,0.0855562892240945,1
579,701,14,0.0717498472911587,1
581,692,14,0.0720234344118307,1
581,693,14,0.104800230865071,1
581,694,14,0.0707644275932086,1
582,678,14,0.0744177544437383,1
582,692,14,0.0834911885441453,1
582,693,14,0.127120253263109,1
582,694,14,0.0840804536464714,1
583,678,14,0.0853760805568612,1
583,693,14,0.0758284551960268,1
584,678,14,0.0880664894628675,1
585,678,14,0.0714994848718147,1
589,702,14,0.0699863201573668,1
590,699,14,0.0875418308777944,1
590,700,14,0.1024708579701,1
590,701,14,0.0946056783553625,1
590,702,14,0.0822585762753413,1
591,698,14,0.0707224549064027,1
591,699,14,0.120840449735879,1
591,700,14,0.145969534864218,1
591,701,14,0.123316045795302,1
592,699,14,0.128162479982685,1
592,700,14,0.153296570134955,1
592,701,14,0.121410980755572,1
572,683,15,0.0745601612774423,1
572,684,15,0.0940275702855511,1
573,684,15,0.0766840014743688,1
573,685,15,0.086091222011072,1
573,686,15,0.0776984572625455,1
573,687,15,0.0706133870932222,1
574,680,15,0.0732017491223969,1
574,681,15,0.0722359324348463,1
575,680,15,0.0736344542955674,1
575,681,15,0.0729661376208074,1
576,680,15,0.0723997357458587,1
576,681,15,0.0721647359694164,1
578,678,15,0.0711416951749122,1
578,698,15,0.0746251223172237,1
579,678,15,0.070938428640482,1
579,698,15,0.0706948647119787,1
579,699,15,0.0751018091381949,1
579,700,15,0.0836949972895015,1
579,701,15,0.0715530664335734,1
580,701,15,0.0722339651823842,1
580,702,15,0.0710033201660422,1
581,693,15,0.0710366869922542,1
581,700,15,0.0704844104070686,1
581,701,15,0.075111846991747,1
581,702,15,0.0712808417916384,1
582,693,15,0.0821151823396952,1
582,701,15,0.0707370737471368,1
583,678,15,0.0704125813622252,1
589,700,15,0.0721079845591675,1
589,701,15,0.0709025245451935,1
589,702,15,0.0725854638422612,1
590,699,15,0.10098320497486,1
590,700,15,0.129260304176437,1
590,701,15,0.104575623464709,1
590,702,15,0.0823296267609065,1
591,698,15,0.0728088825494391,1
591,699,15,0.152529995108423,1
591,700,15,0.201665468982977,1
591,701,15,0.147466412396621,1
592,698,15,0.0706161468078069,1
592,699,15,0.146801494967282,1
592,700,15,0.194003778348178,1
592,701,15,0.138966018779295,1
593,700,15,0.125548105731909,1
572,684,16,0.071837803635338,1
577,698,16,0.0751867277109045,1
578,699,16,0.090591106951133,1
578,701,16,0.0884610243771359,1
579,700,16,0.0767834624221691,1
579,701,16,0.0701277190348623,1
580,701,16,0.0758561149046721,1
580,702,16,0.0765132050326962,1
581,700,16,0.071936541635237,1
581,701,16,0.0794011385984554,1
581,702,16,0.0768179345244994,1
582,701,16,0.0739499445888239,1
582,702,16,0.0701769212006808,1
589,702,16,0.0707839193808541,1
590,699,16,0.096182559805031,1
590,700,16,0.130342223516361,1
590,701,16,0.0958973707608281,1
590,702,16,0.0762260973959862,1
591,699,16,0.152061747313915,1
591,700,16,0.21264866033305,1
591,701,16,0.139971792241234,1
592,699,16,0.13614027958731,1
592,700,16,0.192589177848075,1
593,699,16,0.0812405613590353,1
593,700,16,0.110225482167322,1
576,698,17,0.0724437312965036,1
577,698,17,0.073234469466351,1
577,699,17,0.102525572613666,1
578,699,17,0.0804913996449325,1
578,700,17,0.103781986551834,1
578,701,17,0.0839062510079562,1
579,700,17,0.0758518675857522,1
579,701,17,0.0734195302262293,1
579,702,17,0.0708694635815551,1
580,700,17,0.0708661408017781,1
580,701,17,0.0773844476222021,1
580,702,17,0.0784197646281834,1
581,700,17,0.0705774343379788,1
581,701,17,0.0784880345448976,1
581,702,17,0.0775066536232036,1
582,701,17,0.0736399459190481,1
582,702,17,0.0723012688514226,1
590,699,17,0.0836745044970696,1
590,700,17,0.114642791163931,1
590,701,17,0.0850327637208282,1
590,702,17,0.0699664112843937,1
591,699,17,0.127474261386374,1
591,700,17,0.180569334818973,1
591,701,17,0.118845183042623,1
591,702,17,0.0725928045440279,1
592,699,17,0.109854192808648,1
592,700,17,0.157932918442801,1
592,701,17,0.105592797258937,1
593,700,17,0.0908311534600398,1
569,690,18,0.0745412673120997,1
570,690,18,0.076166822619505,1
571,689,18,0.074750859640666,1
572,689,18,0.0728687690510675,1
576,697,18,0.070628478630661,1
576,698,18,0.075304846275695,1
577,677,18,0.0719317312511247,1
577,698,18,0.0719057120781015,1
577,699,18,0.0913178503288746,1
577,701,18,0.0947249717104925,1
578,699,18,0.0763283111069489,1
578,700,18,0.0907723791859518,1
578,701,18,0.0823810881389163,1
579,700,18,0.0744434955598764,1
579,701,18,0.0747075244751231,1
579,702,18,0.073569444595831,1
580,700,18,0.0703841291914573,1
580,701,18,0.0766803102692191,1
580,702,18,0.0781338595875015,1
581,701,18,0.076643335654923,1
581,702,18,0.0765152765564902,1
582,701,18,0.0714757666195156,1
582,702,18,0.0724696601010392,1
583,702,18,0.0701283516142759,1
586,703,18,0.0702990229303503,1
587,703,18,0.0711009181327123,1
588,703,18,0.0701568941535314,1
590,700,18,0.0930080052021107,1
590,701,18,0.0755046440504836,1
591,699,18,0.0953156131943998,1
591,700,18,0.133537055417627,1
591,701,18,0.0977689855572805,1
592,699,18,0.083997015726675,1
592,700,18,0.117655224699993,1
592,701,18,0.0898851830826632,1
593,700,18,0.0770367583416509,1
593,701,18,0.0718164419151402,1
569,684,19,0.0733425988375443,1
569,690,19,0.0750069847889537,1
569,691,19,0.0753081134440949,1
570,685,19,0.0706211101232059,1
570,690,19,0.0749938396497106,1
571,690,19,0.0743874949032173,1
572,689,19,0.0705081217079455,1
572,690,19,0.0719087568009934,1
574,698,19,0.0801749709096887,1
575,697,19,0.0787031184969446,1
575,698,19,0.0807148670120652,1
576,677,19,0.0723227835029072,1
576,698,19,0.0767551701341102,1
577,677,19,0.0746027456893953,1
577,698,19,0.0703291364910066,1
577,699,19,0.0847627287768633,1
577,701,19,0.0879889741547238,1
578,699,19,0.0734195580319178,1
578,700,19,0.0838060115008777,1
578,701,19,0.0808701339767051,1
578,702,19,0.0735700215638675,1
579,700,19,0.0723747940432652,1
579,701,19,0.0745899828783692,1
579,702,19,0.0736039097467391,1
580,701,19,0.0754804391986356,1
580,702,19,0.0763456688080013,1
580,703,19,0.070139098512885,1
581,701,19,0.075113536187324,1
581,702,19,0.0762302960549512,1
582,702,19,0.0738183472165282,1
583,702,19,0.0717315580995413,1
583,703,19,0.070116575905192,1
584,703,19,0.0716075030202539,1
585,703,19,0.0727354338232399,1
585,704,19,0.071082524669763,1
586,703,19,0.0727729784541505,1
586,704,19,0.0722446842753048,1
587,703,19,0.0700918010367295,1
590,700,19,0.0737927729345212,1
591,700,19,0.0943978308337502,1
591,701,19,0.08015595877017,1
592,700,19,0.0865895555605482,1
592,701,19,0.0779986127185889,1
569,683,20,0.0759334981357954,1
569,684,20,0.0737289449765465,1
569,689,20,0.0782815216963339,1
569,690,20,0.0752982910846287,1
569,691,20,0.0767368183796936,1
570,689,20,0.075552316903434,1
570,690,20,0.0738330077657951,1
571,687,20,0.0701780125739548,1
571,689,20,0.0739999531196092,1
571,690,20,0.0709608469768432,1
573,698,20,0.0810846479121376,1
574,677,20,0.0718380886436452,1
574,697,20,0.0810601719548267,1
574,698,20,0.0817149820163929,1
575,677,20,0.0791513809528364,1
575,678,20,0.0699317584450881,1
575,697,20,0.0739501948400205,1
575,698,20,0.0791380203195074,1
576,677,20,0.0833987971926487,1
576,678,20,0.0730165215283875,1
576,698,20,0.0741904151344805,1
576,699,20,0.0823687076561073,1
576,701,20,0.0814977709291749,1
577,677,20,0.0779381840060345,1
577,699,20,0.0790180457250089,1
577,700,20,0.0851841100833882,1
577,701,20,0.0820700189501328,1
577,702,20,0.0764086417410543,1
578,699,20,0.070744226760506,1
578,700,20,0.0783067623100788,1
578,701,20,0.0778979700290269,1
578,702,20,0.0748378914457023,1
579,700,20,0.0700837651927501,1
579,701,20,0.0739265461019428,1
579,702,20,0.073756722859368,1
579,703,20,0.0711995449098573,1
580,701,20,0.074171903497355,1
580,702,20,0.0759673237558678,1
580,703,20,0.0707575039767696,1
581,701,20,0.0737558469801799,1
581,702,20,0.0782971554446986,1
581,703,20,0.071638478557254,1
582,702,20,0.0761469554550646,1
582,703,20,0.0736261612489692,1
583,702,20,0.0719099802512878,1
583,703,20,0.0754489353535538,1
583,704,20,0.0700074733349008,1
584,703,20,0.0749373315392362,1
584,704,20,0.0740413974983333,1
585,703,20,0.0742399023086062,1
585,704,20,0.077508641729932,1
585,705,20,0.0708822124897369,1
586,703,20,0.0715190461736814,1
586,704,20,0.0763653969439991,1
586,705,20,0.0707374908324645,1
568,684,21,0.0851694495341213,1
568,690,21,0.0755133124738766,1
569,683,21,0.0752797307875483,1
569,684,21,0.0746834030403407,1
569,685,21,0.0790106563632873,1
569,689,21,0.0791691765934828,1
569,690,21,0.0756214418450698,1
570,686,21,0.0706738088543545,1
570,687,21,0.0763761021340755,1
570,688,21,0.079695642548309,1
570,689,21,0.0766088913582812,1
570,690,21,0.0739497429975822,1
571,688,21,0.0750455790846056,1
571,689,21,0.0733764383604609,1
571,690,21,0.0698361416337243,1
573,677,21,0.0773942143702912,1
573,697,21,0.0843020649838961,1
573,698,21,0.0856713283088825,1
574,677,21,0.0845111429072249,1
574,678,21,0.0729139463434741,1
574,696,21,0.0725147609278024,1
574,697,21,0.0770876358002021,1
574,698,21,0.082043311586319,1
575,677,21,0.0946380511282102,1
575,678,21,0.0772848059374265,1
575,698,21,0.0752574653824739,1
575,699,21,0.0811773173205193,1
576,677,21,0.0963073725893302,1
576,678,21,0.0769572340725123,1
576,699,21,0.0762006621424216,1
576,700,21,0.0790413260377139,1
576,701,21,0.07673618580028,1
577,699,21,0.0721814332853667,1
577,700,21,0.0758237421318243,1
577,701,21,0.0759166687428247,1
577,702,21,0.0752370699099518,1
578,700,21,0.0709926914416093,1
578,701,21,0.073280265435327,1
578,702,21,0.0737039615654202,1
578,703,21,0.0729894804963115,1
579,701,21,0.0708141997756415,1
579,702,21,0.0720583861622878,1
579,703,21,0.0706124625540793,1
580,702,21,0.0733349244675155,1
581,702,21,0.0766608671415285,1
581,703,21,0.0727419473057734,1
582,702,21,0.0742378238333901,1
582,703,21,0.0751061676798689,1
583,703,21,0.075699033618857,1
583,704,21,0.073745551924009,1
584,703,21,0.0729208421542246,1
584,704,21,0.0767133503785911,1
584,705,21,0.0706556100312247,1
585,704,21,0.0787919993802668,1
585,705,21,0.0757416875450313,1
586,704,21,0.0756355879890993,1
586,705,21,0.0750205053049917,1
568,684,22,0.0828217457390007,1
568,690,22,0.0754669673425525,1
568,691,22,0.0758651239477493,1
569,683,22,0.0722125548022315,1
569,684,22,0.0734144695909205,1
569,685,22,0.0764847459105062,1
569,689,22,0.0792967351895225,1
569,690,22,0.0747454861913614,1
569,691,22,0.0788901812663956,1
570,687,22,0.0740635655834979,1
570,688,22,0.0796514523578445,1
570,689,22,0.0760311586652647,1
570,690,22,0.0726022793323876,1
571,691,22,0.0726994393594637,1
572,677,22,0.0859279400567192,1
572,692,22,0.0771177563122806,1
573,677,22,0.107619616457231,1
573,678,22,0.0817181657677273,1
573,693,22,0.0764509272418559,1
574,678,22,0.092432225858712,1
574,697,22,0.0726098980910394,1
574,698,22,0.0820290055595806,1
575,678,22,0.0873464472560568,1
575,698,22,0.0722751315042232,1
575,699,22,0.079369169008091,1
575,701,22,0.0774182662908524,1
576,678,22,0.0760465352110107,1
576,699,22,0.0720950966225431,1
576,700,22,0.0741222216834098,1
576,701,22,0.0747237212886802,1
576,702,22,0.073696752940674,1
577,700,22,0.0697361732321088,1
577,701,22,0.0733915368493219,1
577,702,22,0.075921534738314,1
577,703,22,0.0762925182344144,1
578,701,22,0.0712869590431106,1
578,702,22,0.0741290966398939,1
578,703,22,0.0748021750388112,1
578,704,22,0.0730596411998444,1
579,702,22,0.0717093830629545,1
579,703,22,0.0709854480597524,1
580,702,22,0.0710388836416465,1
581,702,22,0.0722841405473005,1
581,703,22,0.0719769711063305,1
582,703,22,0.0726926200143566,1
583,703,22,0.0716990323954067,1
583,704,22,0.0731101363301785,1
584,704,22,0.075226774853781,1
584,705,22,0.0732503743201787,1
585,704,22,0.0742987599997598,1
585,705,22,0.0767194120186863,1
585,706,22,0.070549260224096,1
586,705,22,0.0754000529531532,1
586,706,22,0.0705807432149115,1
567,683,23,0.0856197974166513,1
567,684,23,0.086680487113398,1
567,690,23,0.0776697826462696,1
568,683,23,0.0792873229639618,1
568,684,23,0.0805373833023059,1
568,685,23,0.0839970087752528,1
568,689,23,0.0795534581601132,1
568,690,23,0.0751897168224193,1
568,691,23,0.0774670166142326,1
569,679,23,0.0805602743353717,1
569,682,23,0.0725554058929819,1
569,683,23,0.0708282485997611,1
569,684,23,0.0725465567326136,1
569,685,23,0.0742983568172764,1
569,686,23,0.0769483432036113,1
569,687,23,0.0810403186932305,1
569,688,23,0.0845232175274603,1
569,689,23,0.0793676188409566,1
569,690,23,0.0747155811733689,1
569,691,23,0.0794611293714157,1
570,678,23,0.0757227935796888,1
570,679,23,0.0711621601616556,1
570,687,23,0.0712646866866141,1
570,688,23,0.0776964830586613,1
570,689,23,0.0751508861784151,1
570,690,23,0.07272955292012,1
570,691,23,0.0782368935662753,1
571,677,23,0.0834269574036872,1
571,678,23,0.072643570779825,1
571,691,23,0.0729932551185268,1
572,677,23,0.106973231519283,1
572,678,23,0.0806835925639136,1
572,692,23,0.0756831426678735,1
573,678,23,0.106962755726137,1
573,693,23,0.0704513146863196,1
573,694,23,0.0774804745674714,1
574,697,23,0.0711673945825176,1
574,698,23,0.082631923254965,1
575,678,23,0.0949724214839651,1
575,698,23,0.0721230899994506,1
575,699,23,0.0789335164319385,1
575,701,23,0.0777352719941328,1
575,702,23,0.0731547992173477,1
576,678,23,0.0710736894122389,1
576,699,23,0.0699350673220208,1
576,700,23,0.0718224409924362,1
576,701,23,0.0747552112309178,1
576,702,23,0.0757444333567717,1
576,703,23,0.0755804284545176,1
577,701,23,0.0731046447066978,1
577,702,23,0.0782114027013338,1
577,703,23,0.0797735749417804,1
577,704,23,0.0784129452830764,1
578,701,23,0.0707486826220898,1
578,702,23,0.0764166567307673,1
578,703,23,0.0780369567630441,1
578,704,23,0.0763963863838435,1
579,702,23,0.0729205432430731,1
579,703,23,0.0741649868323381,1
579,704,23,0.0729698079716907,1
580,703,23,0.0711050750831446,1
580,704,23,0.0700714611755845,1
581,703,23,0.0708185305116269,1
581,704,23,0.0697385923270091,1
582,678,23,0.0713397133856362,1
582,704,23,0.0707304420904272,1
583,678,23,0.0748215834093912,1
583,704,23,0.0723863055983083,1
583,705,23,0.0718004536442469,1
584,678,23,0.0739225837913301,1
584,704,23,0.0727831622875673,1
584,705,23,0.0759726624480618,1
584,706,23,0.0739171964391813,1
585,678,23,0.0700025100195018,1
585,705,23,0.0767956065566258,1
585,706,23,0.0768079175252136,1
586,705,23,0.0732317862174098,1
586,706,23,0.0751781566074213,1
587,706,23,0.0711300445914266,1
588,679,23,0.0701562059627408,1
588,706,23,0.0715834510996927,1
589,706,23,0.0730218046092044,1
590,705,23,0.07268658617995,1
590,706,23,0.0747858322453894,1
591,705,23,0.0751882639751947,1
591,706,23,0.0748461497351897,1
592,705,23,0.0741914369935333,1
567,683,24,0.0835657703521513,1
567,684,24,0.0853730010768587,1
567,685,24,0.0897987143428192,1
567,690,24,0.0800193007625654,1
568,682,24,0.0810546525256574,1
568,683,24,0.0774630125950871,1
568,684,24,0.078761260191619,1
568,685,24,0.0810926907075391,1
568,686,24,0.083652065306442,1
568,689,24,0.0807097577168015,1
568,690,24,0.0768990923778379,1
568,691,24,0.0791435814572094,1
569,679,24,0.0837251873158012,1
569,681,24,0.0797997470460905,1
569,682,24,0.0744052974952858,1
569,683,24,0.0716750291348004,1
569,684,24,0.0715971106441733,1
569,685,24,0.0718943673571894,1
569,686,24,0.0738550646282057,1
569,687,24,0.0784663878163926,1
569,688,24,0.0826475848090183,1
569,689,24,0.0794725853150818,1
569,690,24,0.0758356151608181,1
569,691,24,0.0795179085873531,1
570,678,24,0.0783081247888158,1
570,679,24,0.0734117029249137,1
570,680,24,0.0715583703686567,1
570,681,24,0.0706228966386927,1
570,682,24,0.0701447430676526,1
570,688,24,0.0719627763023462,1
570,689,24,0.0720046516692422,1
570,690,24,0.0720027817366899,1
570,691,24,0.0769744388422779,1
571,677,24,0.0880317114979636,1
571,678,24,0.0772717789723596,1
571,691,24,0.0706638961264007,1
571,692,24,0.0829514940330105,1
572,678,24,0.090863880755416,1
572,693,24,0.0812136802096682,1
573,696,24,0.0734624135493339,1
573,697,24,0.0816942389727644,1
574,698,24,0.0799151337019849,1
574,701,24,0.0842971989884068,1
574,702,24,0.0760926439939824,1
575,678,24,0.0917228818905555,1
575,698,24,0.0712671613928915,1
575,699,24,0.0772422423797398,1
575,700,24,0.0802778241514872,1
575,701,24,0.0793396046097827,1
575,702,24,0.0760783449186661,1
575,703,24,0.0738143431973828,1
576,700,24,0.0705631978254617,1
576,701,24,0.075671721481318,1
576,702,24,0.0784229831366285,1
576,703,24,0.0782505531107558,1
577,677,24,0.0765428111395372,1
577,701,24,0.0732447089111448,1
577,702,24,0.0805615812027317,1
577,703,24,0.0825846466330759,1
578,701,24,0.0700345213183989,1
578,702,24,0.0787937580900651,1
578,703,24,0.0821357863548811,1
578,704,24,0.0814485757147786,1
579,702,24,0.0739947743101242,1
579,703,24,0.0781471576580314,1
579,704,24,0.0777405481235276,1
580,703,24,0.0719397253865714,1
580,704,24,0.0736488784964819,1
581,678,24,0.0711280842903866,1
581,704,24,0.0712516458187029,1
581,705,24,0.0718566489407256,1
582,678,24,0.0761855914592492,1
582,704,24,0.0698621469039033,1
582,705,24,0.071245542470075,1
583,678,24,0.0794153055967512,1
583,705,24,0.0724644117773329,1
583,706,24,0.0744329780581975,1
584,678,24,0.0780304224262443,1
584,705,24,0.075624451810851,1
584,706,24,0.0796847218641467,1
584,707,24,0.0791833435917787,1
585,705,24,0.0738050491459983,1
585,706,24,0.0815676049158678,1
585,707,24,0.0813640047131754,1
586,706,24,0.0770769514643921,1
587,679,24,0.075386518534271,1
587,706,24,0.0729804992589228,1
588,706,24,0.0749727768406643,1
589,706,24,0.0782455411354019,1
590,705,24,0.073464054084956,1
590,706,24,0.0811298877673434,1
591,705,24,0.0779963048464425,1
591,706,24,0.0817668118197755,1
592,705,24,0.0773701624497301,1
592,706,24,0.0798102158878145,1
593,705,24,0.0738320484695415,1
567,683,25,0.087503862210134,1
567,684,25,0.0854571619445564,1
567,685,25,0.0871810520693772,1
567,686,25,0.0884242235483929,1
567,691,25,0.0820731679443566,1
568,683,25,0.0862734187850338,1
568,684,25,0.0795342166236642,1
568,685,25,0.0797991631266318,1
568,686,25,0.0811549754498015,1
568,687,25,0.0834595387191988,1
569,678,25,0.0911891169424954,1
569,679,25,0.0901484264872095,1
569,680,25,0.091723076530375,1
569,681,25,0.0964299470157044,1
569,683,25,0.0836715014827105,1
569,684,25,0.0731906477012592,1
569,685,25,0.0708641318407833,1
569,686,25,0.070996000318542,1
569,687,25,0.0746718358739206,1
569,688,25,0.0785607950803062,1
569,689,25,0.0794682198219858,1
569,690,25,0.0784139810449734,1
570,677,25,0.0880421872911098,1
570,678,25,0.0862521752390121,1
570,679,25,0.0814364732888546,1
570,680,25,0.078025660702087,1
570,681,25,0.0813385138482339,1
570,682,25,0.081096882415082,1
570,683,25,0.0732528142693455,1
570,690,25,0.0729449566375849,1
570,691,25,0.0766899936002427,1
570,692,25,0.0855591462585889,1
571,677,25,0.0961832201901331,1
571,678,25,0.0874378236999228,1
571,679,25,0.0749729992861724,1
571,692,25,0.0745893294446893,1
571,693,25,0.085027244291659,1
572,678,25,0.0997381774661366,1
572,694,25,0.0753412439219545,1
573,696,25,0.0714851023794329,1
573,697,25,0.0804912606164899,1
573,698,25,0.0904479285095728,1
573,701,25,0.0989761347668315,1
574,697,25,0.0708575001840737,1
574,698,25,0.0804853588591037,1
574,699,25,0.0894884167618919,1
574,700,25,0.0940175185291547,1
574,701,25,0.0879900029651986,1
574,702,25,0.0817336604876495,1
575,678,25,0.0854950193894627,1
575,698,25,0.0723746550148227,1
575,699,25,0.0764735263151924,1
575,700,25,0.080687923299899,1
575,701,25,0.0815672573447614,1
575,702,25,0.0803148752314267,1
576,677,25,0.0865526782661618,1
576,700,25,0.0710027223437393,1
576,701,25,0.0774238969427757,1
576,702,25,0.0815913509738553,1
576,703,25,0.0808927330500416,1
577,677,25,0.0798619761769759,1
577,701,25,0.0739251002061403,1
577,702,25,0.0821516564515982,1
577,703,25,0.0843336105375107,1
578,677,25,0.0795524363010604,1
578,702,25,0.0798023468779662,1
578,703,25,0.084702842275235,1
578,704,25,0.0852736930603452,1
579,702,25,0.0743180501961636,1
579,703,25,0.0810365440710153,1
579,704,25,0.0825473661562061,1
580,678,25,0.0699456682407652,1
580,703,25,0.0738023728484792,1
580,704,25,0.078731494202069,1
580,705,25,0.0787235904351101,1
581,678,25,0.075583014383549,1
581,704,25,0.0758460979053864,1
581,705,25,0.077957620182303,1
581,706,25,0.0774785629263863,1
582,704,25,0.073529265375934,1
582,705,25,0.0766673041584186,1
583,678,25,0.0819810824554336,1
583,704,25,0.0708542121614073,1
583,705,25,0.0772310783958031,1
583,706,25,0.0836634308816205,1
584,678,25,0.0794399414367711,1
584,705,25,0.0771225041335937,1
584,706,25,0.0875780130299681,1
584,707,25,0.091698704844396,1
585,705,25,0.0707501563235808,1
585,706,25,0.0852007378851171,1
585,707,25,0.0905328331794381,1
586,679,25,0.0705510467395828,1
586,706,25,0.0780718876592348,1
587,679,25,0.0789821833382531,1
587,706,25,0.074572743351493,1
587,707,25,0.0813427611671538,1
588,706,25,0.0772214576275786,1
588,707,25,0.0804462432067922,1
589,706,25,0.0811077127307566,1
589,707,25,0.0804327713507091,1
590,705,25,0.0703673067499087,1
590,706,25,0.0853394743679378,1
591,705,25,0.0752324680685034,1
591,706,25,0.0864855136255659,1
592,705,25,0.0766746657144516,1
592,706,25,0.0856108161792626,1
593,705,25,0.0755208130583521,1
594,705,25,0.0787067888478279,1
595,705,25,0.0832473048502241,1
567,683,26,0.105609911660215,1
567,684,26,0.0888491709344691,1
567,685,26,0.0860786329855991,1
567,686,26,0.0857462854936833,1
568,684,26,0.0861505176418196,1
568,685,26,0.079066413720172,1
568,686,26,0.079754632316483,1
568,687,26,0.0826271823850741,1
569,678,26,0.104860256395142,1
569,679,26,0.101311569301897,1
569,680,26,0.100945736809593,1
569,684,26,0.0788652604180685,1
569,687,26,0.0713477909381484,1
569,688,26,0.0759100509889594,1
570,677,26,0.0979302446477942,1
570,678,26,0.100814772016711,1
570,679,26,0.0919948145727612,1
570,680,26,0.0825401366771935,1
570,681,26,0.0953639116753417,1
570,683,26,0.0846272525110205,1
570,690,26,0.0741617196639382,1
571,678,26,0.0984603253421268,1
571,679,26,0.0824509012713428,1
571,692,26,0.0700995518724017,1
572,679,26,0.0716315966493478,1
572,695,26,0.0713477283753492,1
572,696,26,0.0797134034318448,1
572,697,26,0.0859581300830189,1
572,698,26,0.0932888009475289,1
573,697,26,0.078694637761949,1
573,698,26,0.0882105507350378,1
573,699,26,0.100060786015652,1
573,700,26,0.10568455603102,1
573,701,26,0.10097056033801,1
574,697,26,0.0719997439652202,1
574,698,26,0.0806759112424627,1
574,699,26,0.0885337779611223,1
574,700,26,0.0941915265278503,1
574,701,26,0.0926967135678191,1
574,702,26,0.0887603248082575,1
575,678,26,0.0762040335821535,1
575,698,26,0.0723862430355092,1
575,699,26,0.0772250584642407,1
575,700,26,0.0817300318452989,1
575,701,26,0.0853026248792399,1
575,702,26,0.086539491418386,1
576,700,26,0.0731277651366939,1
576,701,26,0.0805580359774467,1
576,702,26,0.0862402535500635,1
576,703,26,0.0865716695514142,1
577,701,26,0.0760213919171755,1
577,702,26,0.0842664945568696,1
577,703,26,0.0874463739491396,1
578,677,26,0.0840653204004998,1
578,701,26,0.0715068950878026,1
578,702,26,0.0805937037243829,1
578,703,26,0.085886280183909,1
578,704,26,0.0888056967404837,1
579,677,26,0.0819361971227563,1
579,678,26,0.0697958511910734,1
579,702,26,0.0745922907505156,1
579,703,26,0.0817798179305761,1
579,704,26,0.086888320732166,1
580,678,26,0.0737306272207013,1
580,703,26,0.0752520224189481,1
580,704,26,0.0842555252127524,1
580,705,26,0.0855114873084828,1
581,703,26,0.0722421122491176,1
581,704,26,0.0827918546238524,1
581,705,26,0.0858568409111991,1
581,706,26,0.085426610444306,1
582,704,26,0.0804713030835619,1
582,705,26,0.0865950958439838,1
582,706,26,0.0911358064861996,1
583,678,26,0.0839060563681366,1
583,704,26,0.0745569636232636,1
583,705,26,0.0871663150544669,1
583,707,26,0.104276517673407,1
584,678,26,0.0817891536904933,1
584,705,26,0.0808548269451803,1
584,706,26,0.0966080285477667,1
584,707,26,0.104524815520379,1
585,678,26,0.079436556094195,1
585,706,26,0.086261163427823,1
585,707,26,0.0976371726908988,1
586,679,26,0.0700257972836289,1
586,706,26,0.0777122905925793,1
586,707,26,0.0913837150535326,1
587,679,26,0.0771889249720219,1
587,706,26,0.0747007468385488,1
587,707,26,0.0877360744663032,1
588,706,26,0.0770546930107399,1
588,707,26,0.0865205835501992,1
589,706,26,0.0808445249375874,1
589,707,26,0.0860787233540868,1
590,706,26,0.0867185183438576,1
590,707,26,0.0876345698003974,1
591,706,26,0.089019981278986,1
592,705,26,0.07224943904804,1
592,706,26,0.0884028965853057,1
593,705,26,0.074673497263809,1
593,706,26,0.0857180488170014,1
594,705,26,0.0817803879471905,1
567,684,27,0.0926746706082528,1
567,685,27,0.0850377061819609,1
567,686,27,0.0843494180714286,1
568,685,27,0.0787888434346209,1
568,686,27,0.079200805564163,1
568,687,27,0.0819877975292088,1
569,678,27,0.121919240935846,1
569,679,27,0.11236651323117,1
569,684,27,0.0867961309719111,1
569,687,27,0.0699540377530067,1
569,688,27,0.0757879631621341,1
570,678,27,0.111799868056447,1
570,679,27,0.0986928434608695,1
570,680,27,0.0884557273934747,1
570,683,27,0.0916111725369665,1
571,678,27,0.103841143154139,1
571,679,27,0.0868632886610849,1
571,680,27,0.0721698869732129,1
571,695,27,0.0802927488547949,1
571,698,27,0.0937018127418122,1
571,699,27,0.101600922247954,1
572,678,27,0.0966049490677642,1
572,679,27,0.0726457396235288,1
572,696,27,0.0734673351562001,1
572,697,27,0.0807305216146963,1
572,698,27,0.0879665141098298,1
572,699,27,0.0964517605783405,1
572,700,27,0.101513396891947,1
573,678,27,0.0912170408051816,1
573,697,27,0.0768092035383072,1
573,698,27,0.0861144467124,1
573,699,27,0.0946109753390236,1
573,700,27,0.0989968847618821,1
573,701,27,0.0986963330747775,1
574,678,27,0.0849879061938395,1
574,697,27,0.0716286840034764,1
574,698,27,0.0816336781831897,1
574,699,27,0.0878637234308305,1
574,700,27,0.0917157288771863,1
574,701,27,0.0954042646807918,1
575,698,27,0.0717550330520658,1
575,699,27,0.0785914647547327,1
575,700,27,0.0830267014690079,1
575,701,27,0.0897039873134878,1
575,702,27,0.0960726230640846,1
576,700,27,0.076857877396044,1
576,701,27,0.0853002961528272,1
576,702,27,0.0931890132828886,1
576,703,27,0.0947806247960453,1
577,678,27,0.0718788378801566,1
577,700,27,0.0718847326861207,1
577,701,27,0.0809990063915268,1
577,702,27,0.0879106594330353,1
577,703,27,0.0907897507898484,1
578,678,27,0.0752224024092628,1
578,701,27,0.0767014147867982,1
578,702,27,0.0836132694195485,1
578,703,27,0.0877118140030782,1
578,704,27,0.0926617409630956,1
579,678,27,0.0763687475294646,1
579,701,27,0.0714463551524942,1
579,702,27,0.078942435106528,1
579,703,27,0.0852367810088482,1
579,704,27,0.0930575966475682,1
580,678,27,0.0808224541723325,1
580,702,27,0.072732548983057,1
580,703,27,0.0820800985122177,1
580,704,27,0.093552252894739,1
580,705,27,0.0945492050019987,1
581,703,27,0.0816531421651467,1
581,704,27,0.0961379942377716,1
581,706,27,0.0985149774228932,1
582,703,27,0.0765214494193394,1
582,704,27,0.0935029256033223,1
583,704,27,0.0824711438125781,1
584,678,27,0.0833768446015701,1
584,705,27,0.0856724822449557,1
584,707,27,0.114959386733305,1
585,706,27,0.0892091989892966,1
585,707,27,0.10341438839831,1
586,706,27,0.0794346305502657,1
586,707,27,0.0974502211442019,1
587,679,27,0.0749850739064078,1
587,706,27,0.0761738296530095,1
587,707,27,0.0947254583100414,1
588,706,27,0.0768967080400482,1
588,707,27,0.0931184493968724,1
589,706,27,0.0791290460335408,1
589,707,27,0.0918597484408238,1
590,706,27,0.0848840519472546,1
590,707,27,0.0934851716712086,1
591,706,27,0.0887927392896381,1
591,707,27,0.0941526958838461,1
592,706,27,0.0899394945437453,1
593,705,27,0.0749018653835417,1
593,706,27,0.0893682475275738,1
594,705,27,0.0854530258483905,1
594,706,27,0.0938530617844623,1
567,684,28,0.0938655882471361,1
567,685,28,0.0845732052039792,1
567,686,28,0.0846341761274595,1
567,687,28,0.0867671226873731,1
568,679,28,0.115642016386226,1
568,685,28,0.0792993906327752,1
568,686,28,0.0796312028651871,1
568,687,28,0.082013601208146,1
569,679,28,0.117329717407451,1
569,684,28,0.0888743698396813,1
569,685,28,0.0697661269100562,1
569,687,28,0.0707749937548424,1
569,688,28,0.0765480386089771,1
570,679,28,0.102055413178072,1
570,680,28,0.09318450876135,1
570,683,28,0.088361584283602,1
570,689,28,0.073397925206257,1
571,679,28,0.0893285479558036,1
571,680,28,0.0787836368194474,1
571,681,28,0.0706193027534527,1
571,694,28,0.0727622385069635,1
571,695,28,0.0738840798641659,1
571,696,28,0.0816020075039768,1
571,698,28,0.0932558025466897,1
571,699,28,0.0965272113141124,1
572,679,28,0.073777222603222,1
572,697,28,0.0770679632755813,1
572,698,28,0.0859559056279381,1
572,699,28,0.0913909792896559,1
572,700,28,0.0948524885979994,1
573,697,28,0.07339950317908,1
573,698,28,0.0845907923019618,1
573,699,28,0.0903888831300218,1
573,700,28,0.0933457609004416,1
573,701,28,0.0957559510290663,1
574,698,28,0.0806484392222148,1
574,699,28,0.0871207762881096,1
574,700,28,0.0899982896720997,1
574,701,28,0.0958751887728193,1
575,698,28,0.0703528686461499,1
575,699,28,0.079950579003413,1
575,700,28,0.0852291135902416,1
575,701,28,0.0935900269225798,1
575,702,28,0.107490987342183,1
576,699,28,0.073025655697063,1
576,700,28,0.082941108608352,1
576,701,28,0.091366996883316,1
576,702,28,0.101299737981436,1
576,703,28,0.106376931577764,1
577,678,28,0.0737369043548824,1
577,700,28,0.0808504892577727,1
577,701,28,0.0896163229290379,1
577,702,28,0.0944000900459417,1
577,703,28,0.0968488119074191,1
578,678,28,0.0760115000434881,1
578,700,28,0.0757793781558066,1
578,701,28,0.0866725277350621,1
578,702,28,0.0917081935356001,1
578,703,28,0.0942234683125261,1
578,704,28,0.0983093474049396,1
579,678,28,0.077062874834584,1
579,701,28,0.0834687702077841,1
579,702,28,0.0934403906098633,1
579,703,28,0.0992000539764025,1
579,704,28,0.104539837543597,1
579,705,28,0.105137826680693,1
580,678,28,0.0823675189629234,1
580,701,28,0.077856650775901,1
580,702,28,0.0921710678808039,1
581,702,28,0.0842409272262847,1
581,703,28,0.10339945674358,1
582,703,28,0.0886369857254493,1
583,678,28,0.0847430214951319,1
583,704,28,0.094331681100785,1
584,705,28,0.088395277826654,1
585,706,28,0.0919380214539795,1
585,707,28,0.107059144145357,1
586,706,28,0.0822734106101614,1
586,707,28,0.102861013488428,1
587,706,28,0.0782419611530062,1
587,707,28,0.10120715199012,1
588,706,28,0.0762255343307938,1
588,707,28,0.0991314712456926,1
589,706,28,0.0776647984766042,1
589,707,28,0.0990408942153713,1
590,706,28,0.0826870341295919,1
590,707,28,0.101123811390233,1
591,706,28,0.0876251784291032,1
591,707,28,0.10198221470307,1
592,706,28,0.0893902557300295,1
592,707,28,0.0993912597934415,1
593,705,28,0.0730302714413557,1
593,706,28,0.0915845068816855,1
594,705,28,0.0855921099023175,1
594,706,28,0.0974471555670436,1
595,706,28,0.103897505284749,1
567,685,29,0.0837126539017053,1
567,686,29,0.0831213589841181,1
567,687,29,0.0851858757446085,1
567,688,29,0.0892708372493011,1
568,685,29,0.0800322304077226,1
568,686,29,0.078856564188987,1
568,687,29,0.0803499938160149,1
569,679,29,0.116316061032819,1
569,684,29,0.0872927266658555,1
569,685,29,0.0716379224434838,1
569,686,29,0.0704129150304873,1
569,687,29,0.0717676220775387,1
569,688,29,0.0798203580126985,1
570,679,29,0.10519712231144,1
570,680,29,0.0989172840271001,1
570,683,29,0.0844218518899971,1
570,688,29,0.0697829771572932,1
570,689,29,0.0804047154110026,1
570,695,29,0.0922317398931327,1
570,698,29,0.0995246019726913,1
571,679,29,0.0922470816817681,1
571,680,29,0.084530231512387,1
571,681,29,0.0753340492000526,1
571,694,29,0.0717595445250266,1
571,695,29,0.0719543025187727,1
571,696,29,0.0777620905807007,1
571,697,29,0.0856925440492156,1
571,698,29,0.089235607441959,1
571,699,29,0.0903738541553822,1
572,679,29,0.0761702427191917,1
572,697,29,0.0733316364448492,1
572,698,29,0.0810935665867272,1
572,699,29,0.0848678064737426,1
572,700,29,0.0883010930082485,1
573,698,29,0.0801198808893282,1
573,699,29,0.0853536761233443,1
573,700,29,0.0879499280166336,1
573,701,29,0.092155427181017,1
574,678,29,0.0717288678991779,1
574,698,29,0.0774871687869802,1
574,699,29,0.0850098935420287,1
574,700,29,0.0881792693354641,1
574,701,29,0.0946242247495987,1
575,698,29,0.0697776871250542,1
575,699,29,0.080473325947401,1
575,700,29,0.0873202960060132,1
575,701,29,0.0964603942446229,1
575,702,29,0.114205692691975,1
576,699,29,0.0771987264772217,1
576,700,29,0.0892992755172247,1
576,701,29,0.0982774473287965,1
576,702,29,0.106719337777498,1
576,703,29,0.114061207383055,1
577,678,29,0.0757071876370125,1
577,699,29,0.0746895133403908,1
577,700,29,0.0906092501628857,1
577,701,29,0.100326434612254,1
577,702,29,0.103423946603735,1
577,703,29,0.104097942590373,1
578,678,29,0.0762930882510289,1
578,700,29,0.0862069979466055,1
578,701,29,0.0993443168398145,1
578,702,29,0.106725037943643,1
578,703,29,0.107597121655226,1
578,704,29,0.105864681281188,1
579,678,29,0.0764553692005954,1
579,700,29,0.0811329672473458,1
579,701,29,0.100914935058146,1
580,678,29,0.0810595532782573,1
580,700,29,0.0744533596278754,1
580,701,29,0.0976345798104453,1
581,678,29,0.0860565552689222,1
581,701,29,0.0813477800939298,1
581,702,29,0.109175469854963,1
582,702,29,0.0755051445528767,1
583,703,29,0.0710916379841721,1
584,704,29,0.0704263382266155,1
584,707,29,0.118775223930332,1
585,705,29,0.072192680686369,1
585,706,29,0.0961977625652238,1
585,707,29,0.111536277080794,1
586,706,29,0.0868463688996266,1
586,707,29,0.108018447350374,1
587,706,29,0.0807942174956506,1
587,707,29,0.105091085318307,1
588,706,29,0.0773312414372382,1
588,707,29,0.103159980251288,1
589,706,29,0.078434133217721,1
589,707,29,0.104688792616945,1
590,706,29,0.0821549583771088,1
590,707,29,0.107116263980978,1
591,706,29,0.0859149756544514,1
591,707,29,0.106789067492859,1
592,706,29,0.0876621669462436,1
592,707,29,0.102690314366665,1
593,706,29,0.092120204325097,1
594,706,29,0.0992344565645115,1
594,707,29,0.10374217575731,1
567,685,30,0.0833621910037253,1
567,686,30,0.0823036979563709,1
567,687,30,0.0855080394031075,1
567,688,30,0.0915486931548846,1
568,684,30,0.0967522079941132,1
568,685,30,0.0806287736490161,1
568,686,30,0.0789977128152859,1
568,687,30,0.0815054313963594,1
569,679,30,0.111905147344568,1
569,680,30,0.112947179424324,1
569,683,30,0.112374041621334,1
569,684,30,0.0829368334837436,1
569,685,30,0.073286591229463,1
569,686,30,0.0724592677249586,1
569,687,30,0.0754489562078202,1
570,679,30,0.105477452311576,1
570,680,30,0.102469989042334,1
570,681,30,0.100437254183811,1
570,682,30,0.0971123889802275,1
570,683,30,0.0788027254246095,1
570,688,30,0.0772145270597175,1
570,694,30,0.0924897697310834,1
570,695,30,0.0907992394810524,1
570,696,30,0.0948477129709978,1
570,697,30,0.0999025507937634,1
571,679,30,0.093031959802762,1
571,680,30,0.0867837782947906,1
571,681,30,0.0774807526243565,1
571,691,30,0.0740373239649666,1
571,693,30,0.0759527257694001,1
571,694,30,0.0706347974733749,1
571,695,30,0.0709643852507061,1
571,696,30,0.0755917662240075,1
571,697,30,0.0831333015273331,1
571,698,30,0.0851220338837896,1
572,678,30,0.0858869683746997,1
572,679,30,0.0798200173930143,1
572,680,30,0.0698334166762504,1
572,697,30,0.0709103657493533,1
572,698,30,0.0766992946030493,1
572,699,30,0.0799249074014961,1
573,679,30,0.0720531447900037,1
573,698,30,0.0756897604217389,1
573,699,30,0.08111040293112,1
573,700,30,0.0845536578049567,1
574,678,30,0.0731589422649357,1
574,698,30,0.074369539379862,1
574,699,30,0.0823128877364234,1
574,700,30,0.0870601390328915,1
574,701,30,0.0940639401261222,1
575,678,30,0.0732700329419553,1
575,698,30,0.0715129080679429,1
575,699,30,0.0816998557218435,1
575,700,30,0.0903016288794775,1
575,701,30,0.0998048137986508,1
575,702,30,0.116162670952154,1
576,678,30,0.0737852167386686,1
576,698,30,0.0715131722219837,1
576,699,30,0.0844067673039805,1
576,700,30,0.0975822077961367,1
576,701,30,0.108680410425309,1
576,702,30,0.115305254741259,1
577,678,30,0.0768006810947789,1
577,698,30,0.0715539353613394,1
577,699,30,0.0869116288505595,1
577,700,30,0.104009791606375,1
577,701,30,0.117371829122699,1
577,703,30,0.119648127909726,1
578,678,30,0.0745848388259949,1
578,699,30,0.0834612070605094,1
578,700,30,0.103395362355947,1
579,678,30,0.0724322753528375,1
579,699,30,0.0782159350285609,1
579,700,30,0.100662946006024,1
580,678,30,0.0740551682655679,1
580,700,30,0.0909084880312082,1
581,701,30,0.0942236142923908,1
582,702,30,0.0832462551854829,1
583,703,30,0.0782991296485828,1
584,704,30,0.0805111416837746,1
584,707,30,0.118239672466785,1
585,705,30,0.081118584754964,1
585,706,30,0.102415656726986,1
585,707,30,0.116420075162113,1
585,708,30,0.116631725111629,1
586,706,30,0.0940617365253077,1
586,707,30,0.113535012533692,1
587,706,30,0.0863173517728796,1
587,707,30,0.109666872836578,1
588,706,30,0.080909277434705,1
588,707,30,0.107176039259853,1
589,706,30,0.0796956286454648,1
589,707,30,0.108418168025549,1
590,706,30,0.0813176248247407,1
590,707,30,0.109617754087825,1
591,706,30,0.0836692492219412,1
591,707,30,0.108095079827907,1
592,706,30,0.0865755623478056,1
592,707,30,0.104952543475306,1
593,706,30,0.0933315174365024,1
594,706,30,0.101588465299502,1
594,707,30,0.107518278625456,1
567,684,31,0.0921096451148853,1
567,685,31,0.0819643434309506,1
567,686,31,0.08159019008636,1
567,687,31,0.0883944853645315,1
567,688,31,0.0984212374955038,1
568,683,31,0.108412175899675,1
568,684,31,0.0896550771073987,1
568,685,31,0.0797971263599484,1
568,686,31,0.0797391236937166,1
568,687,31,0.0868587493824357,1
569,679,31,0.104868542490318,1
569,680,31,0.106292701195845,1
569,681,31,0.111448285979504,1
569,682,31,0.109200439363245,1
569,683,31,0.0910721731680445,1
569,684,31,0.0781445856318442,1
569,685,31,0.073297928998953,1
569,686,31,0.074557199971616,1
569,687,31,0.0811276980693732,1
569,695,31,0.101693556899225,1
570,679,31,0.100373801602631,1
570,680,31,0.0992029249137412,1
570,681,31,0.0957421176990326,1
570,682,31,0.0873891637450303,1
570,683,31,0.0739774722204488,1
570,687,31,0.071776360015153,1
570,688,31,0.0809998822707148,1
570,694,31,0.089363242503642,1
570,695,31,0.0862399476874899,1
570,696,31,0.088588937495704,1
571,678,31,0.095088107051011,1
571,679,31,0.090452954387771,1
571,680,31,0.0853734668221413,1
571,681,31,0.0777050333078781,1
571,690,31,0.0718504413207658,1
571,691,31,0.0792461079821679,1
571,692,31,0.0806969462458205,1
571,693,31,0.0754680656672487,1
571,694,31,0.0703223032430553,1
571,696,31,0.0728319821251688,1
571,697,31,0.0778443398073133,1
571,698,31,0.0802814527938377,1
572,679,31,0.083244572941328,1
572,680,31,0.0761581402932677,1
572,698,31,0.0730882254476327,1
572,699,31,0.0760103043988822,1
573,679,31,0.0790897983042089,1
573,680,31,0.0704101970244354,1
573,698,31,0.0724741090112008,1
573,699,31,0.0770759017996509,1
574,679,31,0.0743662861143063,1
574,698,31,0.0733196591445235,1
574,699,31,0.0794755327180639,1
574,700,31,0.086070937761304,1
575,679,31,0.0731117768658006,1
575,698,31,0.0752118431990511,1
575,699,31,0.082820675219993,1
575,700,31,0.0926570139960489,1
575,701,31,0.10296917066531,1
576,679,31,0.0732586673667768,1
576,697,31,0.0699029378489475,1
576,698,31,0.0804548004074312,1
576,699,31,0.0915743160968465,1
576,700,31,0.104561393903614,1
576,701,31,0.119128453494319,1
577,678,31,0.0813190915748097,1
577,679,31,0.0729115828599508,1
577,697,31,0.070043356575923,1
577,698,31,0.0845959780628689,1
577,699,31,0.101585385819499,1
578,679,31,0.0707665130198468,1
578,698,31,0.081163178127912,1
578,699,31,0.102742665526708,1
579,698,31,0.0719784795649322,1
579,699,31,0.0958042147528975,1
580,699,31,0.0789547460751159,1
581,700,31,0.0771045625130826,1
582,701,31,0.0708416926501557,1
582,702,31,0.0932144902449859,1
583,703,31,0.0910639357328234,1
584,703,31,0.0708146377152355,1
584,704,31,0.093960287470779,1
584,707,31,0.120879266477039,1
585,704,31,0.0749044582639952,1
585,705,31,0.093543584471346,1
585,706,31,0.111246069109815,1
585,707,31,0.120687713088894,1
586,705,31,0.0784191529030362,1
586,706,31,0.100693421040631,1
586,707,31,0.11643421435472,1
587,706,31,0.0915413385502737,1
587,707,31,0.112788089177514,1
588,706,31,0.0857349060156606,1
588,707,31,0.110927561899355,1
589,706,31,0.0830322069953329,1
589,707,31,0.111547030930825,1
590,706,31,0.0820945783245093,1
590,707,31,0.1103249361637,1
591,706,31,0.0825145137352316,1
591,707,31,0.107885230296722,1
592,706,31,0.0861661305359179,1
592,707,31,0.10687954720327,1
593,706,31,0.0931653853990772,1
593,707,31,0.107010449433353,1
594,706,31,0.100584832875578,1
594,707,31,0.108437784938793,1
568,684,32,0.0862681843641718,1
568,685,32,0.0802254312829122,1
568,686,32,0.0841258742386524,1
569,681,32,0.102646791512725,1
569,682,32,0.0943149351248798,1
569,683,32,0.0842208862762911,1
569,684,32,0.077401999963074,1
569,685,32,0.0739707571466737,1
569,686,32,0.0796191143421074,1
569,687,32,0.0950660501886004,1
569,694,32,0.0992296392289772,1
570,679,32,0.0983136086267037,1
570,680,32,0.096404136385345,1
570,681,32,0.093547345190717,1
570,682,32,0.0845289037907606,1
570,683,32,0.0741709859096342,1
570,686,32,0.0711521987737469,1
570,687,32,0.0789379931477886,1
570,688,32,0.085179028593813,1
570,693,32,0.0928258501366816,1
570,694,32,0.0833149143818362,1
570,695,32,0.0792313084044584,1
571,678,32,0.095387699441862,1
571,679,32,0.0918798519536166,1
571,680,32,0.0876386155280756,1
571,681,32,0.0808439549209729,1
571,682,32,0.0713100238617296,1
571,690,32,0.0726358616526856,1
571,691,32,0.0808609650509189,1
571,692,32,0.0808525260244561,1
571,693,32,0.0745002122130147,1
572,679,32,0.0898292727944917,1
572,680,32,0.0855982758137446,1
572,681,32,0.0736897945671244,1
572,698,32,0.0698666375225977,1
573,680,32,0.0827757759844715,1
573,698,32,0.0703944659561609,1
574,680,32,0.076367190410908,1
574,697,32,0.0704500773331809,1
574,698,32,0.07392683111025,1
574,699,32,0.0790164538493417,1
575,680,32,0.071808197528497,1
575,696,32,0.0720144879315526,1
575,697,32,0.0773944090101108,1
575,698,32,0.0806224478548801,1
575,699,32,0.0875518200713917,1
575,700,32,0.0983235213546576,1
576,696,32,0.074324890395537,1
576,697,32,0.0827426107495012,1
576,698,32,0.0907009811292802,1
576,699,32,0.10352757145339,1
577,679,32,0.0850599715870353,1
577,696,32,0.0752237370823113,1
577,697,32,0.0870619742083331,1
577,698,32,0.100887261446657,1
578,679,32,0.0825954839001727,1
578,697,32,0.0821404924676614,1
578,698,32,0.0986528797350585,1
579,679,32,0.0788332699734378,1
579,698,32,0.0840543441049605,1
580,679,32,0.0760736110001973,1
580,699,32,0.0840001369152102,1
581,679,32,0.0756389455259869,1
581,700,32,0.0822202947936851,1
582,679,32,0.0769854290406615,1
582,701,32,0.0787561439449332,1
582,702,32,0.10201234216657,1
583,702,32,0.0774470521298824,1
583,703,32,0.103109061084204,1
584,703,32,0.0798826775120716,1
584,704,32,0.1056746224488,1
584,706,32,0.127988777846563,1
584,707,32,0.125815554746843,1
585,680,32,0.0738348220869704,1
585,704,32,0.082474848920572,1
585,705,32,0.104177758819241,1
585,706,32,0.117916334017946,1
585,707,32,0.122003700714695,1
586,705,32,0.085535379346335,1
586,706,32,0.105400729465555,1
586,707,32,0.116608215401994,1
587,705,32,0.0741694774510325,1
587,706,32,0.0965594520099398,1
587,707,32,0.11445465092405,1
588,706,32,0.0907406946038946,1
588,707,32,0.113691982596753,1
589,680,32,0.0747048203719155,1
589,706,32,0.0874552717694628,1
589,707,32,0.114648261933145,1
590,706,32,0.08417415881675,1
590,707,32,0.11193351609827,1
591,706,32,0.0831402042895057,1
591,707,32,0.109451941815818,1
592,706,32,0.0868916296090987,1
592,707,32,0.109863236608836,1
593,706,32,0.0942926071570063,1
594,705,32,0.0711182758337647,1
594,706,32,0.10056579293037,1
594,707,32,0.111353725784304,1
569,684,33,0.079656985689858,1
569,685,33,0.0761085210421216,1
569,686,33,0.0894032687922521,1
570,681,33,0.0954298876227538,1
570,682,33,0.0875609611914893,1
570,683,33,0.0787815444413871,1
570,684,33,0.0720066814845034,1
570,686,33,0.0774741070648026,1
570,687,33,0.0893303205684462,1
570,689,33,0.08847727680207,1
570,690,33,0.0945094498188515,1
570,693,33,0.0835298523540185,1
570,694,33,0.0757316705457456,1
571,679,33,0.0952967400833236,1
571,680,33,0.0934471056836384,1
571,681,33,0.0876302599186784,1
571,682,33,0.0778207536320346,1
571,683,33,0.0701952103922982,1
571,687,33,0.0710047730132669,1
571,688,33,0.0703874102627015,1
571,690,33,0.0719830466492699,1
571,691,33,0.0775218077234415,1
571,692,33,0.0766413823053051,1
571,693,33,0.0722390883804922,1
572,680,33,0.0958569343383125,1
572,681,33,0.0845869620683695,1
572,682,33,0.0712104099826426,1
573,681,33,0.0802304085011555,1
574,681,33,0.0743063579041451,1
574,692,33,0.0703188831433686,1
574,693,33,0.0708873217850006,1
574,696,33,0.070975340691979,1
574,697,33,0.0729687096469945,1
574,698,33,0.0749728394034634,1
574,699,33,0.079558845512262,1
575,692,33,0.0731808809531701,1
575,693,33,0.0751569686727767,1
575,694,33,0.0743545799194436,1
575,695,33,0.0756588265932715,1
575,696,33,0.081173215981464,1
575,697,33,0.0837262717376531,1
575,698,33,0.085324111725036,1
575,699,33,0.0923633233625842,1
575,700,33,0.103702545699761,1
576,694,33,0.0724642379917797,1
576,695,33,0.0783037453928755,1
576,696,33,0.0873866195245316,1
576,697,33,0.0961792300738319,1
576,698,33,0.103332535402759,1
577,680,33,0.0813882790792447,1
577,695,33,0.0770483324594932,1
577,696,33,0.0899357755329071,1
577,697,33,0.10878500152264,1
578,680,33,0.080716111316626,1
578,696,33,0.0815563436120212,1
578,697,33,0.102415698435518,1
579,680,33,0.0834558475140491,1
579,697,33,0.0779202632397898,1
579,698,33,0.0940018361208351,1
580,680,33,0.0863495507601742,1
580,699,33,0.0832275419571156,1
581,680,33,0.0832364189231724,1
581,700,33,0.0821616873537282,1
582,679,33,0.0842021382908132,1
582,680,33,0.0794354786237652,1
582,701,33,0.0840282901748266,1
582,702,33,0.110177267103446,1
583,679,33,0.0845179831065983,1
583,680,33,0.0798110153013592,1
583,702,33,0.0892805553374354,1
583,703,33,0.112347779148536,1
584,680,33,0.0824579569648022,1
584,703,33,0.086211933456316,1
584,704,33,0.111576643989089,1
584,706,33,0.132130588081414,1
585,680,33,0.087268382785565,1
585,704,33,0.0870791720266766,1
585,705,33,0.109542560554672,1
585,706,33,0.119556299623422,1
585,707,33,0.118449633220724,1
586,681,33,0.073152088162718,1
586,704,33,0.070613644295841,1
586,705,33,0.091595274634561,1
586,706,33,0.108277665881508,1
586,707,33,0.113688534691378,1
587,681,33,0.0742705789344549,1
587,705,33,0.0806273972674349,1
587,706,33,0.100877244447371,1
587,707,33,0.112894682284417,1
588,681,33,0.0719153537005923,1
588,705,33,0.0725752661060002,1
588,706,33,0.0953941781672848,1
588,707,33,0.112755438347782,1
589,680,33,0.0778165410702254,1
589,681,33,0.0699326065185877,1
589,706,33,0.0914177214105804,1
589,707,33,0.11390814401923,1
590,680,33,0.0723030206097988,1
590,706,33,0.086924850455446,1
590,707,33,0.11139145115219,1
591,706,33,0.0863612708578811,1
591,707,33,0.110818709580261,1
592,706,33,0.0902333937198739,1
592,707,33,0.111899454129845,1
593,706,33,0.0967882650206885,1
594,705,33,0.0730113913788574,1
594,706,33,0.100303335036524,1
594,707,33,0.112472988163897,1
569,690,34,0.118081193945122,1
570,684,34,0.0764203618387613,1
570,685,34,0.0725444435002868,1
570,686,34,0.079810570410343,1
570,687,34,0.0942498002995451,1
570,689,34,0.0831411218772265,1
570,690,34,0.0888236453124169,1
570,691,34,0.0970630477859665,1
570,692,34,0.0899933680652335,1
571,681,34,0.0940532627417343,1
571,682,34,0.0850161915304763,1
571,683,34,0.0769759055923468,1
571,684,34,0.0719197191936884,1
571,687,34,0.0736326747315027,1
571,688,34,0.0717939749188241,1
571,689,34,0.069994182215793,1
571,690,34,0.0712851586247796,1
571,691,34,0.0743947174308078,1
571,692,34,0.0732764908131117,1
571,693,34,0.0705461807440936,1
572,679,34,0.100633597101802,1
572,680,34,0.101428742473278,1
572,681,34,0.0933221677737409,1
572,682,34,0.0817775726212289,1
572,683,34,0.0737107322505724,1
573,680,34,0.102425868366091,1
573,681,34,0.0902598647353354,1
573,682,34,0.0785196009527786,1
573,683,34,0.0714859713071988,1
573,691,34,0.0698484943108449,1
573,692,34,0.0717721752590322,1
573,693,34,0.0706480746896385,1
574,681,34,0.0876338120953855,1
574,682,34,0.07339045242747,1
574,690,34,0.0713330261175495,1
574,691,34,0.077058349458779,1
574,692,34,0.0818982701636287,1
574,693,34,0.0814333034403645,1
574,694,34,0.074379737116123,1
574,695,34,0.0702802818962946,1
574,696,34,0.0719445844306385,1
574,697,34,0.0732797301758231,1
574,698,34,0.0749726308607996,1
575,681,34,0.0846493649848081,1
575,689,34,0.071321222602777,1
575,690,34,0.0764719483423694,1
575,691,34,0.0836689781164782,1
575,692,34,0.0899512563499851,1
575,693,34,0.0908219289228766,1
575,694,34,0.0837632741576378,1
575,695,34,0.0815138634714001,1
575,696,34,0.0846273776366188,1
575,697,34,0.086288148848522,1
575,698,34,0.0885008629773486,1
575,699,34,0.094986428599552,1
575,700,34,0.106117865977916,1
576,681,34,0.0791295048274012,1
576,689,34,0.0710459879950608,1
576,690,34,0.076060618792241,1
576,691,34,0.0804290314856046,1
576,692,34,0.0831321336884157,1
576,693,34,0.0837434139446195,1
576,694,34,0.0825303838319486,1
576,695,34,0.0857058560225898,1
576,696,34,0.0931923360626656,1
576,697,34,0.10479310565739,1
577,681,34,0.0756817106749152,1
577,690,34,0.0713058738627195,1
577,691,34,0.0734026938818365,1
577,692,34,0.0728233345560421,1
577,693,34,0.0733500368592207,1
577,694,34,0.0770847440085971,1
577,695,34,0.083842284021539,1
577,696,34,0.0962614584461781,1
578,681,34,0.0764033239031268,1
578,695,34,0.0739459405696785,1
578,696,34,0.0859494338539374,1
579,681,34,0.0809112446871671,1
579,697,34,0.0794683588504283,1
580,681,34,0.0835312704441325,1
580,699,34,0.0792948444027038,1
581,681,34,0.0768208471703708,1
581,700,34,0.0784997268369161,1
582,680,34,0.0963617118561009,1
582,681,34,0.0730761786330857,1
582,701,34,0.0825193032650774,1
582,702,34,0.109917575875607,1
582,703,34,0.12798697047681,1
583,680,34,0.0965694064464263,1
583,681,34,0.0754347335981473,1
583,702,34,0.0926646397061228,1
583,703,34,0.111694519254105,1
583,704,34,0.131193300030275,1
583,706,34,0.13610306167324,1
584,681,34,0.0758330709403194,1
584,703,34,0.0860215479070881,1
584,704,34,0.110109421223481,1
584,705,34,0.12796867433377,1
584,706,34,0.12940953730667,1
585,681,34,0.0789914148268384,1
585,704,34,0.0886479133610337,1
585,705,34,0.110159999770881,1
585,706,34,0.118338452175217,1
585,707,34,0.114766575137755,1
586,681,34,0.0809334544808645,1
586,704,34,0.0752174599481302,1
586,705,34,0.0970585919243828,1
586,706,34,0.11120432581994,1
587,681,34,0.0783637570201022,1
587,705,34,0.0883470558113555,1
587,706,34,0.106630519456975,1
588,681,34,0.0737011392880365,1
588,705,34,0.0802340719006167,1
588,706,34,0.101395431258443,1
588,707,34,0.111266839959132,1
589,680,34,0.0787802375740271,1
589,681,34,0.0715191504450134,1
589,705,34,0.0728338381548768,1
589,706,34,0.0957337829439017,1
589,707,34,0.111322458287574,1
590,680,34,0.0761018059683465,1
590,706,34,0.090688482472295,1
590,707,34,0.109925618671008,1
591,706,34,0.0908423730553536,1
591,707,34,0.110851582855502,1
592,705,34,0.0704413463469887,1
592,706,34,0.0948135884397739,1
593,705,34,0.0763059136248541,1
593,706,34,0.100072728558867,1
593,707,34,0.111959285020097,1
594,705,34,0.0779893047643601,1
594,706,34,0.102094507976117,1
594,707,34,0.113028448500417,1
570,685,35,0.0795128896605771,1
570,686,35,0.0838053024558207,1
570,687,35,0.0960662486099936,1
570,688,35,0.093560483378538,1
570,689,35,0.0835153099789277,1
570,690,35,0.0868206903462876,1
570,691,35,0.0904410883101994,1
570,692,35,0.0830506282639707,1
571,682,35,0.0929593035386854,1
571,683,35,0.0859964046132529,1
571,684,35,0.081075944731634,1
571,685,35,0.0769707198314397,1
571,686,35,0.0755774045858921,1
571,687,35,0.077514258479011,1
571,688,35,0.0753219954340835,1
571,689,35,0.0732521677870876,1
571,690,35,0.0737803090346466,1
571,691,35,0.0746418265845961,1
571,692,35,0.0728388848873414,1
571,693,35,0.0705078088939498,1
572,681,35,0.0993968626396763,1
572,682,35,0.0927483348285379,1
572,683,35,0.0854878663760935,1
572,684,35,0.0791954877262354,1
572,685,35,0.0734594105349748,1
572,686,35,0.0705427189358741,1
572,687,35,0.070315310112395,1
572,688,35,0.0701698307501107,1
572,689,35,0.0699458072692078,1
572,690,35,0.0711664630919525,1
572,691,35,0.0735185323801692,1
572,692,35,0.073969193076695,1
572,693,35,0.0710850827931059,1
573,679,35,0.107454297736194,1
573,680,35,0.10626432549072,1
573,681,35,0.097551531170288,1
573,682,35,0.0892684459600893,1
573,683,35,0.0819389985458737,1
573,684,35,0.074934975007135,1
573,688,35,0.069843593558245,1
573,689,35,0.0712540232050705,1
573,690,35,0.0756804524675102,1
573,691,35,0.0826668819568442,1
573,692,35,0.0858106834682725,1
573,693,35,0.0806841625805281,1
573,694,35,0.0709695362545026,1
574,680,35,0.113170834479855,1
574,681,35,0.09725351675226,1
574,682,35,0.0837778860469498,1
574,683,35,0.0750827344358771,1
574,688,35,0.0713601297124247,1
574,689,35,0.0765808145643082,1
574,690,35,0.0843849537413444,1
574,691,35,0.0932307079128094,1
574,692,35,0.0983210049398474,1
574,693,35,0.0930474336684178,1
574,694,35,0.0794755813780188,1
574,695,35,0.0716594370949684,1
574,696,35,0.0712694553621936,1
574,697,35,0.072732277877594,1
574,698,35,0.0741987915981442,1
575,681,35,0.0965088873653843,1
575,682,35,0.0782219063001684,1
575,688,35,0.0728397121065745,1
575,689,35,0.0830402914992672,1
575,690,35,0.0932213582500479,1
575,691,35,0.100636224739366,1
575,692,35,0.104258339704543,1
575,693,35,0.100474006352599,1
575,694,35,0.0885348206744414,1
575,695,35,0.083301220080245,1
575,696,35,0.085408071001492,1
575,697,35,0.088948284311163,1
575,698,35,0.0932446524655971,1
575,699,35,0.0977516000505396,1
575,700,35,0.107901357596058,1
576,681,35,0.0915903947362275,1
576,682,35,0.073318484354184,1
576,688,35,0.070873439795012,1
576,689,35,0.0826044790404057,1
576,690,35,0.093124914219451,1
576,691,35,0.0975728789876416,1
576,692,35,0.0968711815838254,1
576,693,35,0.0935378495480908,1
576,694,35,0.0883379633512128,1
576,695,35,0.0881415439675781,1
576,696,35,0.0948902348201517,1
576,697,35,0.110822338222611,1
577,681,35,0.0894516437388374,1
577,682,35,0.0709127570385652,1
577,689,35,0.0748296818161697,1
577,690,35,0.0830045403352654,1
577,691,35,0.0861234349012108,1
577,692,35,0.0842250015181906,1
577,693,35,0.0823056443545666,1
577,694,35,0.0830348554871635,1
577,695,35,0.0864848184833532,1
577,696,35,0.0987796458689756,1
578,682,35,0.070614958114623,1
578,691,35,0.0714143090964864,1
578,692,35,0.0709368298133927,1
578,693,35,0.0706825676462351,1
578,694,35,0.0730330033502518,1
578,695,35,0.0765431865163321,1
578,696,35,0.086275886539889,1
579,682,35,0.0711070284327624,1
579,697,35,0.0786029763097758,1
580,682,35,0.0731954163768387,1
580,699,35,0.076168463155127,1
581,682,35,0.0732036955205926,1
581,700,35,0.072364040193234,1
581,701,35,0.0931025793001553,1
581,703,35,0.126755442629858,1
582,681,35,0.0933913691810201,1
582,682,35,0.0757629171882087,1
582,701,35,0.0762315542623562,1
582,702,35,0.10016677434883,1
582,703,35,0.115884120516082,1
583,681,35,0.0926180721292907,1
583,682,35,0.0764021838698978,1
583,702,35,0.086481808517572,1
583,703,35,0.102959202325979,1
583,704,35,0.123140411163828,1
583,706,35,0.136511207472034,1
584,681,35,0.0883939222993391,1
584,682,35,0.0747951193453518,1
584,703,35,0.0817938459004294,1
584,704,35,0.103749273159302,1
584,705,35,0.121687883704599,1
584,706,35,0.123509489970266,1
585,681,35,0.0879818002870882,1
585,682,35,0.0750409285832023,1
585,704,35,0.088481913400629,1
585,705,35,0.107987423153419,1
585,706,35,0.115561435500924,1
586,681,35,0.0880252049668523,1
586,682,35,0.0752758657968454,1
586,704,35,0.0780268354924265,1
586,705,35,0.0999812826007795,1
586,706,35,0.113388441798134,1
587,681,35,0.0826990739927167,1
587,682,35,0.0723826282960029,1
587,704,35,0.0717981874806333,1
587,705,35,0.0952362140508595,1
587,706,35,0.112397794630744,1
588,681,35,0.0776231942151711,1
588,705,35,0.0892714420230262,1
588,706,35,0.108520020262561,1
589,680,35,0.0817672428079474,1
589,681,35,0.0765985963021104,1
589,705,35,0.0822234368364868,1
589,706,35,0.102817643565775,1
590,680,35,0.0836111631386438,1
590,681,35,0.0774944330231034,1
590,705,35,0.0785474066412886,1
590,706,35,0.0998641928464639,1
591,681,35,0.0717682268512638,1
591,705,35,0.0814763744518665,1
591,706,35,0.101750245746675,1
592,705,35,0.086257618202538,1
592,706,35,0.104826653220577,1
593,705,35,0.0885872552515492,1
593,706,35,0.106329140550637,1
593,707,35,0.113093499908686,1
594,706,35,0.106083546806873,1
569,689,36,0.102163528646421,1
569,690,36,0.0961662656715641,1
569,691,36,0.0961898935553755,1
570,687,36,0.0916854762880874,1
570,688,36,0.0890661317704905,1
570,689,36,0.0808502042494655,1
570,690,36,0.0805181626201234,1
570,691,36,0.0803773337592423,1
570,692,36,0.0737787588675121,1
571,684,36,0.0928302434354662,1
571,685,36,0.0818153675033361,1
571,686,36,0.0781877261575675,1
571,687,36,0.0782666247987146,1
571,688,36,0.0757179970984208,1
571,689,36,0.0729461383793466,1
571,690,36,0.0726073191134301,1
571,691,36,0.0723487262102871,1
571,692,36,0.0699457933663635,1
572,682,36,0.105816584391488,1
572,684,36,0.088505138101957,1
572,685,36,0.0765284425499996,1
572,686,36,0.0719397184351492,1
572,687,36,0.071468314694995,1
572,688,36,0.071010556596477,1
572,689,36,0.0708013813532384,1
572,690,36,0.0732237712276968,1
572,691,36,0.0768828747100145,1
572,692,36,0.0777082518163232,1
572,693,36,0.0721921106697545,1
573,681,36,0.103116415688815,1
573,682,36,0.0981994454211038,1
573,683,36,0.0906785836471854,1
573,684,36,0.0800916094555357,1
573,685,36,0.0714041739230245,1
573,687,36,0.0698762443879779,1
573,688,36,0.0717713688940654,1
573,689,36,0.0744934276250183,1
573,690,36,0.0813476897254422,1
573,691,36,0.0903651092663458,1
573,692,36,0.0944769588718276,1
573,693,36,0.0856976463930572,1
573,694,36,0.0718960148442336,1
574,679,36,0.114943607005076,1
574,680,36,0.114087365584521,1
574,681,36,0.103319091352364,1
574,682,36,0.0911788149349024,1
574,683,36,0.0812575992946698,1
574,684,36,0.072131181454807,1
574,688,36,0.0740424332602303,1
574,689,36,0.0828939432092169,1
574,690,36,0.0948860639668752,1
574,691,36,0.103468741567925,1
574,692,36,0.10667801157295,1
574,693,36,0.0969669721807423,1
574,694,36,0.0805973393181556,1
574,695,36,0.0700257625265183,1
575,681,36,0.102043901623029,1
575,682,36,0.0842094720411578,1
575,683,36,0.0726464278143194,1
575,688,36,0.0763663631916748,1
575,689,36,0.0924647654656908,1
575,690,36,0.109002539326697,1
575,691,36,0.112635428996172,1
575,692,36,0.10972030146705,1
575,693,36,0.101054297168958,1
575,694,36,0.0885340838236959,1
575,695,36,0.0812344093504524,1
575,696,36,0.0819641140340204,1
575,697,36,0.0868597781929105,1
575,698,36,0.0918813951693289,1
575,699,36,0.0933702229549083,1
575,700,36,0.0987798266059509,1
576,682,36,0.0787595362389314,1
576,688,36,0.0745252303812516,1
576,689,36,0.0914185416783914,1
576,690,36,0.108856601170553,1
576,691,36,0.110684116145028,1
576,692,36,0.104241628485749,1
576,693,36,0.0966700143788776,1
576,694,36,0.0901714495972958,1
576,695,36,0.0867199364339716,1
576,696,36,0.0917572497215538,1
576,697,36,0.108964132719443,1
577,682,36,0.0776067680046838,1
577,688,36,0.0699515004839302,1
577,689,36,0.08046149462694,1
577,690,36,0.0922934129102479,1
577,691,36,0.0953780578193711,1
577,692,36,0.0918936296722733,1
577,693,36,0.0877237009349162,1
577,694,36,0.0865233363133617,1
577,695,36,0.0865217235834281,1
577,696,36,0.096526641297498,1
578,682,36,0.0792851124117253,1
578,689,36,0.0697753931557521,1
578,690,36,0.0757327341133311,1
578,691,36,0.0793153650008242,1
578,692,36,0.0788558690467743,1
578,693,36,0.0769536054301618,1
578,694,36,0.076880393052315,1
578,695,36,0.0773851844729476,1
578,696,36,0.0835912473142486,1
578,697,36,0.104762039751902,1
579,682,36,0.0820930281573749,1
579,683,36,0.071354749311698,1
579,697,36,0.0764316300940299,1
579,698,36,0.0872625992023549,1
580,682,36,0.0867029819154026,1
580,683,36,0.0738742436018555,1
580,699,36,0.0726198733817923,1
580,700,36,0.0877665564523323,1
581,682,36,0.0881014968247016,1
581,683,36,0.0752674406732269,1
581,701,36,0.0819041441153264,1
581,702,36,0.0973340281233407,1
581,703,36,0.110893395659599,1
581,704,36,0.124365919079218,1
581,705,36,0.13691874154568,1
582,681,36,0.109630461287475,1
582,682,36,0.0898263045372433,1
582,683,36,0.0752222842350866,1
582,701,36,0.0702584474793921,1
582,702,36,0.0881629960562636,1
582,703,36,0.102871795144148,1
582,704,36,0.122618887670135,1
583,681,36,0.107176942944729,1
583,682,36,0.0888691632245078,1
583,683,36,0.0743396552161358,1
583,702,36,0.0763861816961603,1
583,703,36,0.0914893141070715,1
583,704,36,0.110981240781024,1
583,705,36,0.134067893816971,1
584,681,36,0.100878460946243,1
584,682,36,0.0865808454286225,1
584,683,36,0.0734776927751701,1
584,703,36,0.0762015797301425,1
584,704,36,0.0959910620282626,1
584,705,36,0.113964659081127,1
585,681,36,0.0967692250754813,1
585,682,36,0.0843811026534857,1
585,683,36,0.072474936230434,1
585,704,36,0.0863345356883788,1
585,705,36,0.10459398912197,1
586,681,36,0.0926363057095311,1
586,682,36,0.0820478022050133,1
586,683,36,0.0713621247705753,1
586,704,36,0.079887501799028,1
586,705,36,0.101670068043856,1
586,706,36,0.114387639214741,1
587,681,36,0.0854201317188832,1
587,682,36,0.0784213495524285,1
587,683,36,0.0698255615692463,1
587,704,36,0.0784606181360268,1
587,705,36,0.10242364391101,1
587,706,36,0.117019975940294,1
588,680,36,0.0810092041277878,1
588,681,36,0.0810375728814901,1
588,682,36,0.0758203359349818,1
588,704,36,0.0775895979920289,1
588,705,36,0.0990610880966517,1
588,706,36,0.11403331827748,1
589,680,36,0.0838834781490665,1
589,681,36,0.0829314739372833,1
589,682,36,0.0744777174110101,1
589,704,36,0.075667355988222,1
589,705,36,0.0938397915196209,1
589,706,36,0.109157556040141,1
590,680,36,0.090007027609714,1
590,681,36,0.087763490875174,1
590,682,36,0.0740976136490784,1
590,704,36,0.0793490793981425,1
590,705,36,0.0968102662717221,1
590,706,36,0.111354817157578,1
591,680,36,0.0877071565502528,1
591,681,36,0.0821468669217523,1
591,704,36,0.0851007903377679,1
591,705,36,0.105164367210375,1
591,706,36,0.116570191122956,1
592,704,36,0.0870882783896636,1
592,705,36,0.108614566554917,1
592,706,36,0.117574685523224,1
592,707,36,0.115950777702863,1
593,704,36,0.0838733846841374,1
593,705,36,0.104013927702541,1
593,706,36,0.113496077618356,1
594,704,36,0.0790695071030187,1
594,705,36,0.096955613556986,1
594,706,36,0.110325207269163,1
595,706,36,0.106870413034595,1
560,685,37,0.0891628469065504,1
562,684,37,0.0945537790377586,1
563,683,37,0.100026849172825,1
564,681,37,0.10193248422917,1
564,682,37,0.100913357085323,1
564,683,37,0.0956048757719693,1
565,682,37,0.0974664805205581,1
566,682,37,0.0978260358786809,1
568,683,37,0.0930734597928632,1
568,689,37,0.102541102090699,1
568,690,37,0.0878049978166973,1
568,691,37,0.0820622055516615,1
569,683,37,0.101329330185433,1
569,684,37,0.0938104148097101,1
569,687,37,0.10525773176097,1
569,688,37,0.102334248622451,1
569,689,37,0.0883356624304886,1
569,690,37,0.0813252644376589,1
569,691,37,0.0780173815583331,1
570,684,37,0.109189205865087,1
570,686,37,0.0853565818177936,1
570,687,37,0.0872571214817184,1
570,688,37,0.0830388247491983,1
570,689,37,0.0768869134862706,1
570,690,37,0.0736657913065181,1
570,691,37,0.0717195460421049,1
571,685,37,0.086279209319666,1
571,686,37,0.0802457641926351,1
571,687,37,0.0794001514965133,1
571,688,37,0.0755569882591036,1
571,689,37,0.0719896365974468,1
571,690,37,0.070248354014463,1
571,691,37,0.0698936090404524,1
572,680,37,0.104883995501707,1
572,681,37,0.109630683732983,1
572,685,37,0.0799622365383208,1
572,686,37,0.0745225610351546,1
572,687,37,0.0740107139210625,1
572,688,37,0.0728416167962375,1
572,689,37,0.0724988421711304,1
572,690,37,0.0742002792024795,1
572,691,37,0.0782503237138256,1
572,692,37,0.079441137081377,1
572,693,37,0.0731472499729173,1
573,680,37,0.108879068166869,1
573,681,37,0.108350607153892,1
573,682,37,0.105979289377804,1
573,684,37,0.0849939678339346,1
573,685,37,0.0745157694957361,1
573,686,37,0.0712052867845346,1
573,687,37,0.0723535644000878,1
573,688,37,0.0758562400302704,1
573,689,37,0.0803896447278301,1
573,690,37,0.0865871781741806,1
573,691,37,0.0942347504706391,1
573,692,37,0.0976243959770285,1
573,693,37,0.0878648634640594,1
573,694,37,0.0717376753510135,1
574,680,37,0.113616962849153,1
574,681,37,0.108206886501406,1
574,682,37,0.0979985006616642,1
574,683,37,0.0870563087992992,1
574,684,37,0.0768850574565625,1
574,685,37,0.0707269802822077,1
574,687,37,0.0721010748455728,1
574,688,37,0.0799885893796062,1
574,689,37,0.0921474956083696,1
574,690,37,0.104347679381726,1
574,691,37,0.108625181376506,1
574,692,37,0.107958004734975,1
574,693,37,0.0963861043963463,1
574,694,37,0.079607317778757,1
575,681,37,0.102786807057217,1
575,682,37,0.088140556865636,1
575,683,37,0.0769694685754567,1
575,687,37,0.0719635965701572,1
575,688,37,0.0820038205572127,1
575,689,37,0.10089237074192,1
575,690,37,0.119367471192751,1
575,691,37,0.117667361883028,1
575,692,37,0.108860042124506,1
575,693,37,0.097932302268744,1
575,694,37,0.0865565710625532,1
575,695,37,0.0780034509083896,1
575,696,37,0.0766246432808221,1
575,697,37,0.0812766253370328,1
575,698,37,0.0862247101701864,1
575,699,37,0.0861397776946326,1
575,700,37,0.0862392594966992,1
575,701,37,0.0900225709895911,1
576,682,37,0.0829974915932281,1
576,683,37,0.0732219986150543,1
576,687,37,0.070868260985527,1
576,688,37,0.0800464669202397,1
576,689,37,0.0977288897544491,1
576,690,37,0.116961458868825,1
576,691,37,0.115246668155569,1
576,692,37,0.105149845689551,1
576,693,37,0.096126732933925,1
576,694,37,0.089900274620102,1
576,695,37,0.0841574267436892,1
576,696,37,0.085831266629192,1
576,697,37,0.0994015270439239,1
576,698,37,0.11513528551882,1
576,699,37,0.115028734120449,1
576,700,37,0.114933423171659,1
576,701,37,0.12039199959159,1
576,702,37,0.117831387639548,1
577,682,37,0.0827832765689471,1
577,683,37,0.0740674166713566,1
577,688,37,0.0760884731407059,1
577,689,37,0.0857344194161117,1
577,690,37,0.0979188790726158,1
577,691,37,0.100014586864192,1
577,692,37,0.0960676945057962,1
577,693,37,0.0910963988741588,1
577,694,37,0.0884800712737652,1
577,695,37,0.0850027822371923,1
577,696,37,0.0894583449097683,1
577,697,37,0.109309013625455,1
578,682,37,0.0858201582566323,1
578,683,37,0.0771199112531401,1
578,684,37,0.0706610182376399,1
578,688,37,0.0698390751338621,1
578,689,37,0.0753221692196367,1
578,690,37,0.0819996358010919,1
578,691,37,0.0862645209647106,1
578,692,37,0.0858834092465704,1
578,693,37,0.082154589951736,1
578,694,37,0.0797548964705239,1
578,695,37,0.0768803235380937,1
578,696,37,0.0788337565729867,1
578,697,37,0.0913520930342746,1
578,698,37,0.108212503250485,1
579,682,37,0.0896969594257169,1
579,683,37,0.080376659471296,1
579,684,37,0.0722827989228299,1
579,690,37,0.0726498270597397,1
579,691,37,0.0762369555173493,1
579,692,37,0.0757447878793002,1
579,693,37,0.0717348044136748,1
579,697,37,0.0732969975083879,1
579,698,37,0.0820485321043367,1
579,699,37,0.0867649607950914,1
579,700,37,0.0994004773791826,1
579,705,37,0.115238229129106,1
580,682,37,0.0962395058550994,1
580,683,37,0.084150767281291,1
580,684,37,0.0739900264888111,1
580,699,37,0.0722656150073307,1
580,700,37,0.0794532742644116,1
580,701,37,0.091192314596674,1
580,702,37,0.0998729168812339,1
580,703,37,0.106443435833258,1
580,704,37,0.111023130050764,1
580,705,37,0.109824871710114,1
580,706,37,0.0933972361812958,1
581,682,37,0.0991917053184274,1
581,683,37,0.085727947642111,1
581,684,37,0.0758596045185801,1
581,685,37,0.0700643846278587,1
581,701,37,0.0765264892003818,1
581,702,37,0.0871492910216767,1
581,703,37,0.0960094068312571,1
581,704,37,0.105422918404986,1
581,705,37,0.115986125684381,1
581,706,37,0.107768328230804,1
582,681,37,0.114807442548443,1
582,682,37,0.0990385098775816,1
582,683,37,0.0842897818209968,1
582,684,37,0.0750294934938026,1
582,702,37,0.0791732431754274,1
582,703,37,0.0892761342329623,1
582,704,37,0.10502175878543,1
582,705,37,0.128353588479814,1
582,706,37,0.128416332015937,1
583,681,37,0.111142764025579,1
583,682,37,0.0964273541352509,1
583,683,37,0.082899073358747,1
583,684,37,0.0739697561418873,1
583,703,37,0.0799262281717004,1
583,704,37,0.0957899434832698,1
583,705,37,0.118592151277182,1
583,706,37,0.123567006036949,1
584,681,37,0.106231605146766,1
584,682,37,0.0944713490741707,1
584,683,37,0.0824900099722321,1
584,684,37,0.0728128518114739,1
584,703,37,0.0721300970329551,1
584,704,37,0.0888838654823075,1
584,705,37,0.105293649759103,1
584,706,37,0.111673908287497,1
585,681,37,0.100371319944931,1
585,682,37,0.0914609036448364,1
585,683,37,0.0818186068660475,1
585,684,37,0.0728121983777939,1
585,704,37,0.0850510668152899,1
585,705,37,0.101199727871288,1
585,706,37,0.108557696970492,1
586,680,37,0.089770456811871,1
586,681,37,0.0933196722131971,1
586,682,37,0.0885355783794533,1
586,683,37,0.0807983953003493,1
586,684,37,0.0721515421702184,1
586,704,37,0.0849315927231846,1
586,705,37,0.104092033881565,1
586,706,37,0.11332432188043,1
587,680,37,0.0820429014524135,1
587,681,37,0.0865998714709854,1
587,682,37,0.0850890354829503,1
587,683,37,0.078199258566877,1
587,704,37,0.0903996786885859,1
587,705,37,0.110246065328242,1
587,706,37,0.119297956971476,1
588,680,37,0.0795808398118734,1
588,681,37,0.0847770765121345,1
588,682,37,0.0830079812892185,1
588,683,37,0.0753956040429916,1
588,703,37,0.0706997585131564,1
588,704,37,0.0954458897964913,1
588,705,37,0.112302198673646,1
588,706,37,0.119415602839561,1
589,680,37,0.083761432030774,1
589,681,37,0.0890704833607423,1
589,682,37,0.082446334187005,1
589,683,37,0.0722777660932096,1
589,703,37,0.0722297526205749,1
589,704,37,0.100323035366834,1
589,705,37,0.121346888643556,1
589,706,37,0.12414426603326,1
590,680,37,0.0915334625890032,1
590,681,37,0.0953375379797899,1
590,682,37,0.0823470539761801,1
590,703,37,0.0763507989575314,1
590,704,37,0.11311194203159,1
590,705,37,0.142049488898078,1
590,706,37,0.138875024663646,1
591,682,37,0.0746663790075505,1
591,703,37,0.0793149548669186,1
591,704,37,0.116185019774293,1
591,705,37,0.146975308326158,1
591,706,37,0.141107098503097,1
592,703,37,0.081686856562465,1
592,704,37,0.110274941535759,1
592,705,37,0.133035134934333,1
592,706,37,0.129691083805678,1
593,703,37,0.0822103334057764,1
593,704,37,0.10355420235156,1
593,705,37,0.118963009647684,1
594,705,37,0.108617882383272,1
560,685,38,0.0883148637754831,1
561,685,38,0.087965707744863,1
561,686,38,0.0821311775620106,1
561,687,38,0.0786062504295979,1
562,685,38,0.0881013786505254,1
562,686,38,0.0841903139217744,1
562,687,38,0.080755748325597,1
562,688,38,0.0758020397919423,1
562,689,38,0.0698243172646855,1
563,684,38,0.0910647003892574,1
563,685,38,0.0854278477974447,1
563,686,38,0.0826779277666048,1
563,687,38,0.0800415592162177,1
563,688,38,0.0764062643546867,1
563,689,38,0.0719866613887762,1
564,683,38,0.0947810071242623,1
564,684,38,0.0870302826748539,1
564,685,38,0.0827904990965376,1
564,686,38,0.0811872856598501,1
564,687,38,0.0809789098301562,1
564,688,38,0.0790560491497799,1
564,689,38,0.0747315833471064,1
564,690,38,0.070576516750258,1
565,683,38,0.0921070035744769,1
565,684,38,0.0849889280528922,1
565,685,38,0.081679168289592,1
565,686,38,0.0834450311012187,1
565,687,38,0.0871605245198347,1
565,688,38,0.0848049725691322,1
565,689,38,0.0779123455699866,1
565,690,38,0.0717366395891165,1
566,683,38,0.0924406996422854,1
566,684,38,0.0851975193766721,1
566,685,38,0.0837316312841134,1
566,686,38,0.0902248851791899,1
566,687,38,0.0980454644695576,1
566,688,38,0.0913631040869246,1
566,689,38,0.0796891985799969,1
566,690,38,0.0719597107251879,1
567,683,38,0.0937577021757173,1
567,684,38,0.0864354842405143,1
567,685,38,0.0867889988128083,1
567,686,38,0.0970331288651297,1
567,687,38,0.107557908683005,1
567,688,38,0.0985125652794149,1
567,689,38,0.082277428532151,1
567,690,38,0.0721790767532654,1
568,684,38,0.0888892041745014,1
568,685,38,0.0881233659987147,1
568,686,38,0.0934048340856811,1
568,687,38,0.100487158443264,1
568,688,38,0.0924703266033928,1
568,689,38,0.0788749298462479,1
569,685,38,0.0898307951559376,1
569,686,38,0.0886683018821337,1
569,687,38,0.0896556262697468,1
569,688,38,0.083266546386673,1
569,689,38,0.0733031564683928,1
570,685,38,0.0922034962650287,1
570,686,38,0.0831202884651104,1
570,687,38,0.0814656553589459,1
570,688,38,0.0749981564828518,1
571,685,38,0.0903488568414117,1
571,686,38,0.0779717732777546,1
571,687,38,0.0765883012459395,1
571,688,38,0.0712844912882553,1
572,679,38,0.109396810086925,1
572,685,38,0.0805619565795266,1
572,686,38,0.0735700285152897,1
572,687,38,0.0731682849762751,1
572,688,38,0.0713334571057214,1
572,689,38,0.070504221960132,1
572,690,38,0.0703751618569128,1
572,691,38,0.0720879644634403,1
572,692,38,0.0722252620018805,1
573,679,38,0.112742800662354,1
573,685,38,0.0748967213311673,1
573,686,38,0.0721951553926464,1
573,687,38,0.0729007733985425,1
573,688,38,0.0771693150102002,1
573,689,38,0.0825056854291296,1
573,690,38,0.0857642827255714,1
573,691,38,0.0880239189537587,1
573,692,38,0.0881962516597215,1
573,693,38,0.0806494888869561,1
574,679,38,0.115740844754613,1
574,684,38,0.0776475728525722,1
574,685,38,0.0725454097479626,1
574,686,38,0.071755749048545,1
574,687,38,0.0748647239351144,1
574,688,38,0.0847594755113077,1
574,691,38,0.103545380996881,1
574,692,38,0.0981867173671884,1
574,693,38,0.0880888035278968,1
574,694,38,0.0755990374115529,1
575,683,38,0.0784068071773378,1
575,684,38,0.0714407175491488,1
575,686,38,0.071268934005534,1
575,687,38,0.0758409608044341,1
575,688,38,0.087253284296704,1
575,691,38,0.111755107849368,1
575,692,38,0.100414390956433,1
575,693,38,0.0907701130223382,1
575,694,38,0.0828813611351661,1
575,695,38,0.0741356240252716,1
575,697,38,0.0707745071552934,1
575,698,38,0.0730427353412303,1
575,699,38,0.0709697447971664,1
576,682,38,0.0852454285779748,1
576,683,38,0.0759292925254083,1
576,684,38,0.0709004530213995,1
576,686,38,0.0715069437477575,1
576,687,38,0.0762203138127761,1
576,688,38,0.0863640166696215,1
576,690,38,0.114972107835799,1
576,691,38,0.108910850068836,1
576,692,38,0.0983421998259141,1
576,693,38,0.0914206549107182,1
576,694,38,0.0875432906764412,1
576,695,38,0.0809618510402553,1
576,696,38,0.0787754619470255,1
576,697,38,0.0849525373580547,1
576,698,38,0.0943915954081019,1
576,699,38,0.094432546235855,1
576,700,38,0.0907914121797369,1
576,701,38,0.0922731147576356,1
576,702,38,0.0906331839092707,1
576,703,38,0.084565016428713,1
577,683,38,0.0780633652157065,1
577,684,38,0.0733002368710993,1
577,685,38,0.0707172552426514,1
577,686,38,0.0713890823855857,1
577,687,38,0.0749138426838673,1
577,688,38,0.0820392519557965,1
577,689,38,0.0901372346975842,1
577,690,38,0.098812977938077,1
577,691,38,0.0978419407325086,1
577,692,38,0.0939602457622462,1
577,693,38,0.0904095914165397,1
577,694,38,0.0880951640791434,1
577,695,38,0.0828144119886562,1
577,696,38,0.0818758726815339,1
577,697,38,0.0898832505873118,1
577,698,38,0.102297468647974,1
577,699,38,0.103182440296182,1
577,700,38,0.100971686468395,1
577,701,38,0.10347578335854,1
577,702,38,0.105203670551084,1
577,703,38,0.10301550189379,1
577,704,38,0.0879171520613024,1
578,683,38,0.0824472795804144,1
578,684,38,0.0751184995027231,1
578,685,38,0.0706998071731113,1
578,687,38,0.070638453921414,1
578,688,38,0.0747304780709881,1
578,689,38,0.0796400520255554,1
578,690,38,0.0856505922166762,1
578,691,38,0.088771690383436,1
578,692,38,0.0879883415753101,1
578,693,38,0.0835636015084475,1
578,694,38,0.0804443037600187,1
578,695,38,0.0759982019729582,1
578,696,38,0.0752549976276187,1
578,697,38,0.0809463146118003,1
578,698,38,0.0904111207294077,1
578,699,38,0.0924712163854251,1
578,700,38,0.0949140364895163,1
578,703,38,0.104210506968884,1
578,704,38,0.0928745935086397,1
578,705,38,0.074021752779401,1
579,683,38,0.087046646322542,1
579,684,38,0.0777873242430235,1
579,685,38,0.0723871397689636,1
579,686,38,0.0698234830940302,1
579,689,38,0.0724991549851262,1
579,690,38,0.0766573219162435,1
579,691,38,0.08010841799424,1
579,692,38,0.079343977054301,1
579,693,38,0.0739493745722095,1
579,694,38,0.0697631377985413,1
579,697,38,0.0724937884872437,1
579,698,38,0.078814744433468,1
579,699,38,0.0796625329247158,1
579,700,38,0.0834111568211914,1
579,701,38,0.0897304513775272,1
579,702,38,0.0939814823568458,1
579,703,38,0.0960031505513423,1
579,704,38,0.0917890316235208,1
579,705,38,0.0806824455792626,1
580,683,38,0.0914339877383587,1
580,684,38,0.0806855042049987,1
580,685,38,0.0749177632859473,1
580,686,38,0.0715524060484713,1
580,689,38,0.0699272747778159,1
580,690,38,0.071020754332738,1
580,691,38,0.0719339696090498,1
580,692,38,0.0704655372959924,1
580,698,38,0.0736474743092122,1
580,699,38,0.0733157107367551,1
580,700,38,0.0750726479223701,1
580,701,38,0.081115310635142,1
580,702,38,0.0861808675508282,1
580,703,38,0.0883012598423796,1
580,704,38,0.0889358273627105,1
580,705,38,0.0844535364720543,1
580,706,38,0.0741169177483265,1
581,683,38,0.0925140927571075,1
581,684,38,0.0826396393335266,1
581,685,38,0.0772426177565347,1
581,686,38,0.0736460145105654,1
581,687,38,0.0711268677915143,1
581,701,38,0.0737878652304991,1
581,702,38,0.0799368082361784,1
581,703,38,0.0832570298897805,1
581,704,38,0.0878130962234759,1
581,705,38,0.0922574671064266,1
581,706,38,0.0874343062803263,1
581,707,38,0.0730768737752985,1
582,683,38,0.0900908061491947,1
582,684,38,0.0822006848318634,1
582,685,38,0.0776260929581983,1
582,686,38,0.0734219979810846,1
582,702,38,0.072829159847785,1
582,703,38,0.0776082417061748,1
582,704,38,0.087198979787044,1
582,705,38,0.101698770465821,1
582,706,38,0.105259622547789,1
582,707,38,0.0874672629726328,1
582,708,38,0.0729249226390134,1
583,683,38,0.0885062086209646,1
583,684,38,0.0814052196949694,1
583,685,38,0.0765525987418927,1
583,686,38,0.0715045037985907,1
583,703,38,0.0709252626469725,1
583,704,38,0.0821680896135076,1
583,705,38,0.098980305620108,1
583,706,38,0.107590788909668,1
583,707,38,0.0939218461064139,1
583,708,38,0.0801511344832135,1
583,709,38,0.0720507813064803,1
584,683,38,0.0884605655832755,1
584,684,38,0.0813212882242019,1
584,685,38,0.0761407964950596,1
584,686,38,0.0699541420243387,1
584,704,38,0.0808153150618076,1
584,705,38,0.0935841529708821,1
584,706,38,0.101339229010542,1
584,707,38,0.0950515981819973,1
584,708,38,0.0869624367948894,1
584,709,38,0.0809954959233524,1
585,680,38,0.093044388945526,1
585,681,38,0.097787823911246,1
585,682,38,0.0941071918745995,1
585,683,38,0.0885553482239839,1
585,684,38,0.0815552035787923,1
585,685,38,0.0760804164424601,1
585,704,38,0.0822930136205609,1
585,705,38,0.0950846243885251,1
585,706,38,0.101164178298528,1
585,707,38,0.0989381104877941,1
585,708,38,0.0945754605233742,1
586,680,38,0.0842984850015004,1
586,681,38,0.0900262969518515,1
586,682,38,0.0912867496662761,1
586,683,38,0.0881974681585939,1
586,684,38,0.0807601346729595,1
586,685,38,0.0747030755649615,1
586,704,38,0.0895007068762133,1
586,705,38,0.103561056453778,1
586,706,38,0.108707326331787,1
586,707,38,0.106599126834647,1
586,708,38,0.10293734705481,1
587,680,38,0.0783550955481313,1
587,681,38,0.0852253250651821,1
587,682,38,0.0877853809034535,1
587,683,38,0.0842734042704644,1
587,684,38,0.0757847029451563,1
587,703,38,0.0743792366137298,1
587,704,38,0.100367844233868,1
587,705,38,0.113279325324998,1
587,706,38,0.11676027080961,1
587,707,38,0.11369357447242,1
588,680,38,0.0769065721080471,1
588,681,38,0.0850155519996405,1
588,682,38,0.0859717062104339,1
588,683,38,0.0808367462962267,1
588,684,38,0.0716464726927006,1
588,703,38,0.0826344049126646,1
588,707,38,0.114542648976762,1
589,680,38,0.079586164601223,1
589,681,38,0.0888727014983707,1
589,682,38,0.0859288784987064,1
589,683,38,0.0776599185782707,1
589,703,38,0.0880465875413165,1
590,682,38,0.0852178036264401,1
590,683,38,0.0734448403541955,1
590,702,38,0.0746723572305801,1
591,702,38,0.0817275432361773,1
591,706,38,0.168304954662269,1
592,702,38,0.0845193664396017,1
592,703,38,0.112106662120622,1
592,704,38,0.138624300770351,1
592,705,38,0.151658745567495,1
593,702,38,0.0815862555814359,1
593,703,38,0.107933619146152,1
593,704,38,0.124738821167826,1
572,678,39,0.117989824452678,1
573,678,39,0.118209781351637,1
574,678,39,0.11602706260929,1
585,680,39,0.0855207744084451,1
586,680,39,0.0787560605278676,1
586,681,39,0.084966127388314,1
587,680,39,0.0748244195896192,1
587,681,39,0.0815097343266563,1
588,680,39,0.073522174925364,1
588,681,39,0.0813991302491857,1
588,682,39,0.0844559625183768,1
589,680,39,0.0731380879985532,1
589,682,39,0.0842508538570828,1
593,703,39,0.126865316808005,1
585,679,40,0.0734552188274319,1
586,679,40,0.0697589599938427,1
586,680,40,0.0757671714585507,1
587,680,40,0.0720698629602203,1
588,681,40,0.0748103846683438,1
589,681,40,0.0739968458339182,1
581,678,41,0.0938645941937718,1
583,679,41,0.0853079496685896,1
584,679,41,0.0778399882170614,1
585,680,41,0.0799366622563137,1
