x,y,z,signal,cytoplasm.p
843,506,3,0.0726845772189551,1
844,506,3,0.0730758588676678,1
842,506,4,0.0714905453429587,1
843,505,4,0.0711843421496644,1
843,506,4,0.0820191901515366,1
843,507,4,0.0749982677056058,1
844,506,4,0.077414588988547,1
844,507,4,0.0721443961082713,1
842,503,5,0.0705000511068555,1
842,504,5,0.0701864307461512,1
842,505,5,0.0743819893768923,1
842,506,5,0.0801961727471776,1
842,507,5,0.0713281531706382,1
843,505,5,0.0768337698641058,1
843,506,5,0.0858283817890091,1
843,507,5,0.0782827242923619,1
844,505,5,0.0710366800408321,1
844,506,5,0.0783875517380446,1
844,507,5,0.0737195118967194,1
845,506,5,0.0736420035399978,1
845,507,5,0.0709372468987203,1
831,495,6,0.0751309981597083,1
832,494,6,0.0708323638416606,1
832,495,6,0.087233493597907,1
832,496,6,0.0739412622625867,1
833,495,6,0.07746524400159,1
833,496,6,0.0701507143392601,1
841,502,6,0.07570770204225,1
841,503,6,0.0888613081175037,1
841,504,6,0.0821024334315134,1
841,505,6,0.0711506068980797,1
841,506,6,0.0716446514201032,1
842,502,6,0.0796670304948323,1
842,503,6,0.0933614711144498,1
842,504,6,0.0865984116723387,1
842,505,6,0.0813058977756116,1
842,506,6,0.0873953922192565,1
842,507,6,0.0783507370064574,1
843,502,6,0.0698785453087021,1
843,503,6,0.0780466748511784,1
843,504,6,0.0768466160921974,1
843,505,6,0.0819141194060794,1
843,506,6,0.0903844064141717,1
843,507,6,0.0832400684197894,1
844,505,6,0.0761109887969769,1
844,506,6,0.0869785988513359,1
844,507,6,0.0821682008362616,1
844,508,6,0.0706330874235316,1
845,506,6,0.082869793968746,1
845,507,6,0.0797357522539847,1
831,494,7,0.0710548719125398,1
831,495,7,0.0944317190166218,1
831,496,7,0.080489849477798,1
832,494,7,0.0786469371033101,1
832,495,7,0.107758033174633,1
832,496,7,0.0921044524025561,1
833,495,7,0.0881167343420051,1
833,496,7,0.0812175452003711,1
834,495,7,0.0700316781867488,1
834,496,7,0.0699998337219827,1
840,503,7,0.0817174358684039,1
840,504,7,0.0747570255520931,1
841,502,7,0.0867688466400607,1
841,503,7,0.11581768577481,1
841,504,7,0.100267458746924,1
841,505,7,0.0785224162787402,1
841,506,7,0.0790255532609066,1
841,507,7,0.0725667367110497,1
842,487,7,0.0702758399375551,1
842,502,7,0.0898498003440342,1
842,503,7,0.117948769353593,1
842,504,7,0.103124236038708,1
842,505,7,0.0885588517407362,1
842,506,7,0.0980939923474296,1
842,507,7,0.0918985373762953,1
842,508,7,0.0729806382873653,1
843,502,7,0.0737116706925596,1
843,503,7,0.0843937194846471,1
843,504,7,0.0806117287619595,1
843,505,7,0.0900721693864708,1
843,506,7,0.110379317139004,1
843,507,7,0.10514631436711,1
843,508,7,0.0820860767352474,1
844,475,7,0.082579148058173,1
844,476,7,0.0788379899890624,1
844,505,7,0.0846629967236001,1
844,506,7,0.110963514654599,1
844,507,7,0.10566511290333,1
844,508,7,0.0824312704552548,1
845,476,7,0.100086012726552,1
845,505,7,0.0705386732081959,1
845,506,7,0.0944285422167095,1
845,507,7,0.0911380170384361,1
845,508,7,0.0738683905044241,1
830,495,8,0.07030532787022,1
831,494,8,0.0727510189116498,1
831,495,8,0.10526812413705,1
831,496,8,0.0956139473778457,1
831,497,8,0.0708562767337792,1
831,507,8,0.0811017275563048,1
831,508,8,0.0800108964932133,1
832,494,8,0.0769561705049268,1
832,495,8,0.115714978512876,1
832,496,8,0.106618312759719,1
832,497,8,0.0772356246258745,1
832,507,8,0.0917610869065682,1
832,508,8,0.0901966902110407,1
833,495,8,0.0890857556351564,1
833,496,8,0.0876817421509546,1
833,497,8,0.0743634568855004,1
833,507,8,0.079069958945457,1
833,508,8,0.0777063123695496,1
834,496,8,0.0719725639047017,1
835,500,8,0.0712536547796978,1
836,500,8,0.0727301090338902,1
836,501,8,0.0701559487601221,1
837,500,8,0.0736500115782887,1
837,501,8,0.0705780877716588,1
840,503,8,0.0777115815475223,1
840,504,8,0.0706371261997877,1
841,487,8,0.0771004750768716,1
841,502,8,0.0783487906082617,1
841,503,8,0.115680235305083,1
841,504,8,0.097252321107654,1
841,505,8,0.0783679000676902,1
841,506,8,0.0848899467532187,1
841,507,8,0.0830086347228985,1
842,486,8,0.087300171638954,1
842,487,8,0.09552018659619,1
842,502,8,0.0785161391445591,1
842,503,8,0.113679741142387,1
842,504,8,0.0969197164131196,1
842,505,8,0.0928492972835177,1
842,506,8,0.122157799840418,1
842,507,8,0.122548553181049,1
842,508,8,0.0872303585065275,1
843,476,8,0.0698975991567536,1
843,477,8,0.0702173367689301,1
843,486,8,0.0778846580556528,1
843,487,8,0.079848295778229,1
843,503,8,0.0720916209114794,1
843,505,8,0.100468792786003,1
843,506,8,0.155554878641516,1
843,507,8,0.156319590686918,1
843,508,8,0.104014998221548,1
844,475,8,0.0779948311449515,1
844,476,8,0.0890493788431632,1
844,477,8,0.0845972154160076,1
844,505,8,0.0910489067581837,1
844,506,8,0.14610918893476,1
844,507,8,0.144772291431199,1
844,508,8,0.097508077830569,1
845,475,8,0.09181232583907,1
845,476,8,0.094611156075999,1
845,477,8,0.0788372670411611,1
845,506,8,0.0989251738912148,1
845,507,8,0.0996827259718255,1
845,508,8,0.0772169183489294,1
830,495,9,0.0772655991580882,1
830,496,9,0.0752545110280697,1
831,494,9,0.077006665635261,1
831,495,9,0.113351779997833,1
831,496,9,0.11021955955567,1
831,497,9,0.0823392127720203,1
831,507,9,0.0899273921178214,1
831,508,9,0.0893522592566805,1
832,494,9,0.0786289954827991,1
832,495,9,0.121162773277087,1
832,496,9,0.1196606543724,1
832,497,9,0.089983907179718,1
832,498,9,0.0751627870130974,1
832,499,9,0.0759257681543896,1
832,500,9,0.0709957987273003,1
832,506,9,0.0712741892806624,1
832,507,9,0.102225597894598,1
832,508,9,0.100603636472432,1
832,509,9,0.0706230634728237,1
833,495,9,0.0879728260011216,1
833,496,9,0.0913989108623033,1
833,497,9,0.0819005432786644,1
833,498,9,0.0796426727116975,1
833,499,9,0.0803488676856302,1
833,500,9,0.0761720987488997,1
833,501,9,0.0716695305598976,1
833,502,9,0.0732847212969107,1
833,507,9,0.0829408305514669,1
833,508,9,0.0816675733174834,1
834,472,9,0.0849443555342107,1
834,496,9,0.0721799387296093,1
834,497,9,0.0751296912923483,1
834,498,9,0.0762821467126002,1
834,499,9,0.0756038686499315,1
834,500,9,0.075678478263626,1
834,501,9,0.0769914698264903,1
834,502,9,0.0816036063310661,1
834,503,9,0.0748057689240511,1
835,472,9,0.0820401208835625,1
835,500,9,0.070526251016854,1
835,501,9,0.0738253472986106,1
835,502,9,0.0767306107597337,1
835,503,9,0.0707995461777967,1
836,500,9,0.0720514834001152,1
836,501,9,0.0711695008634222,1
837,500,9,0.0759684568376746,1
837,501,9,0.0725196755832466,1
841,486,9,0.0728502226568313,1
841,487,9,0.0829380638854601,1
841,503,9,0.096471523471449,1
841,504,9,0.0849372789864849,1
841,505,9,0.0750444599056431,1
841,506,9,0.0882356662231845,1
841,507,9,0.0907207092652781,1
841,508,9,0.0716526594583941,1
842,486,9,0.0955785020764176,1
842,487,9,0.107212652400198,1
842,503,9,0.0896721289458774,1
842,504,9,0.079988311322721,1
842,505,9,0.0930498666661625,1
842,506,9,0.145979809066123,1
842,507,9,0.152719741126816,1
842,508,9,0.0992697975946077,1
843,476,9,0.073039447318564,1
843,477,9,0.0776618371707779,1
843,486,9,0.0742830358829074,1
843,487,9,0.0785668775746677,1
843,505,9,0.106663997505941,1
843,506,9,0.197101345951036,1
843,507,9,0.20592602341061,1
843,508,9,0.124239291973743,1
844,475,9,0.0722416673581015,1
844,476,9,0.0888490666631372,1
844,477,9,0.0967219206479037,1
844,505,9,0.0878725100283996,1
844,506,9,0.163114147022689,1
844,507,9,0.170147609834138,1
844,508,9,0.107734704201973,1
845,475,9,0.0707159344724471,1
845,476,9,0.0781830408990536,1
845,477,9,0.0778237983549265,1
845,506,9,0.0904395729001756,1
845,507,9,0.0983419912832503,1
845,508,9,0.0807753582874187,1
846,508,9,0.0701899690200141,1
830,495,10,0.0811479614648749,1
830,496,10,0.0801025023340095,1
831,494,10,0.0799596506092894,1
831,495,10,0.111565897090479,1
831,496,10,0.112795860867453,1
831,497,10,0.085837425589197,1
831,498,10,0.0757437868745138,1
831,499,10,0.0764953051207178,1
831,507,10,0.082768275399996,1
831,508,10,0.0831551220413913,1
832,494,10,0.0789678981657811,1
832,495,10,0.115887304267417,1
832,496,10,0.118279100933092,1
832,497,10,0.0946640146898565,1
832,498,10,0.0949410775215922,1
832,499,10,0.098562782352864,1
832,500,10,0.0814935931244763,1
832,507,10,0.0943449652684706,1
832,508,10,0.0934873266120682,1
833,472,10,0.0722878387038723,1
833,495,10,0.0795057088415194,1
833,496,10,0.0850380120445345,1
833,497,10,0.0832392551034005,1
833,498,10,0.0961209563021371,1
833,499,10,0.100584693847135,1
833,500,10,0.0857615925252081,1
833,501,10,0.080977755894083,1
833,502,10,0.0889133742692387,1
833,503,10,0.0779790305624557,1
833,507,10,0.0770262755970827,1
833,508,10,0.0764307194577312,1
834,472,10,0.0917946483725998,1
834,473,10,0.0826355518973156,1
834,497,10,0.0751738606285465,1
834,498,10,0.080530626519998,1
834,499,10,0.079944093326568,1
834,500,10,0.0752346160579408,1
834,501,10,0.0831150609956705,1
834,502,10,0.098370158445711,1
834,503,10,0.0885366419470388,1
835,472,10,0.0868313885849418,1
835,473,10,0.0778882241352042,1
835,501,10,0.0716503446348257,1
835,502,10,0.0827039538910502,1
835,503,10,0.0774773047189812,1
841,506,10,0.0784313178917593,1
841,507,10,0.0850628842329067,1
841,508,10,0.0708480045414475,1
842,486,10,0.080287139057138,1
842,487,10,0.0886728898207378,1
842,505,10,0.0770034262725496,1
842,506,10,0.136596292878874,1
842,507,10,0.149398991165132,1
842,508,10,0.0959742534895583,1
843,477,10,0.0741302088674343,1
843,505,10,0.0936270293425645,1
843,506,10,0.191211545010848,1
843,507,10,0.207507471944616,1
843,508,10,0.122236726287253,1
844,476,10,0.0793756894420466,1
844,477,10,0.0915412898903188,1
844,506,10,0.139785202168488,1
844,507,10,0.153604879609154,1
844,508,10,0.0979683175867866,1
845,506,10,0.0700744433356772,1
845,507,10,0.081602459346415,1
845,508,10,0.0739305848781989,1
830,494,11,0.0710143173158479,1
830,495,11,0.0820237155273416,1
830,496,11,0.0806795676905018,1
831,494,11,0.079582563764561,1
831,495,11,0.101072489040666,1
831,496,11,0.103177317098074,1
831,497,11,0.0835364283993511,1
831,498,11,0.0829768528209316,1
831,499,11,0.083191742133159,1
832,494,11,0.0741845898427377,1
832,495,11,0.0978657424018732,1
832,496,11,0.101420560649434,1
832,497,11,0.0903478975451581,1
832,498,11,0.106488884231127,1
832,499,11,0.111904521716576,1
832,500,11,0.0859330632548271,1
832,501,11,0.0735860098347608,1
832,502,11,0.075279550050573,1
832,507,11,0.0782939160819872,1
832,508,11,0.0792228415723071,1
833,496,11,0.0733168438185619,1
833,497,11,0.078245979074996,1
833,498,11,0.100299470045822,1
833,499,11,0.106877663367874,1
833,500,11,0.0865892357951304,1
833,501,11,0.0872866789286046,1
833,502,11,0.0995871995289494,1
833,503,11,0.0846389865115717,1
833,507,11,0.0700439822039145,1
833,508,11,0.0718695507801942,1
834,472,11,0.0861173315525829,1
834,473,11,0.0792697428174014,1
834,498,11,0.0744066460711786,1
834,499,11,0.0753778709651444,1
834,500,11,0.0700097812070472,1
834,501,11,0.0845389346928906,1
834,502,11,0.104281960636933,1
834,503,11,0.0919408159256747,1
834,508,11,0.0699098753682307,1
835,472,11,0.081191588590147,1
835,473,11,0.0746099334598752,1
835,502,11,0.0796851111437859,1
835,503,11,0.0747970587921253,1
835,508,11,0.070541898668063,1
841,507,11,0.07896129431476,1
841,508,11,0.0728673440095313,1
842,474,11,0.0731848154580943,1
842,506,11,0.109546119682802,1
842,507,11,0.127852933155347,1
842,508,11,0.090542752858814,1
843,505,11,0.0728677958519696,1
843,506,11,0.148529743633776,1
843,507,11,0.169757732372695,1
843,508,11,0.10885044916197,1
844,477,11,0.0705162618232568,1
844,506,11,0.0997630496545088,1
844,507,11,0.116882421199235,1
844,508,11,0.0840588069179663,1
855,512,11,0.0788887006134825,1
856,511,11,0.0745035141385253,1
830,495,12,0.0785666273234711,1
830,496,12,0.0748713069318692,1
831,494,12,0.073604229512157,1
831,495,12,0.0855435681216012,1
831,496,12,0.0855503457581755,1
831,497,12,0.0781467614269701,1
831,498,12,0.0850444143043139,1
831,499,12,0.0824167558858525,1
832,495,12,0.0750189134293245,1
832,496,12,0.0782628571279215,1
832,497,12,0.0820354495278928,1
832,498,12,0.106749145475581,1
832,499,12,0.110080816121427,1
832,500,12,0.0825771182429118,1
832,501,12,0.0755348966395824,1
832,502,12,0.0799084394824761,1
833,498,12,0.0930149218671275,1
833,499,12,0.0983123921278314,1
833,500,12,0.0792716544584864,1
833,501,12,0.0848527149363038,1
833,502,12,0.0984034488062795,1
833,503,12,0.0832196798986894,1
834,472,12,0.0752543719996272,1
834,473,12,0.0730457314041672,1
834,501,12,0.076802537124487,1
834,502,12,0.0945910664660505,1
834,503,12,0.0831514099819752,1
834,508,12,0.0699566723419931,1
835,472,12,0.0715154939969743,1
835,473,12,0.0702811994840154,1
835,508,12,0.0700128120270948,1
842,474,12,0.0777110949479733,1
842,506,12,0.0747144133344515,1
842,507,12,0.0934121052732265,1
842,508,12,0.078113658754799,1
843,506,12,0.091191167612023,1
843,507,12,0.11088124457372,1
843,508,12,0.0846089772222473,1
844,507,12,0.0763679272616535,1
856,512,12,0.0773412236794133,1
831,497,13,0.0712476487509796,1
831,498,13,0.0802915115016562,1
831,499,13,0.0748815811337736,1
832,497,13,0.0731868244190891,1
832,498,13,0.0936456104939113,1
832,499,13,0.0930154223695207,1
832,500,13,0.0737074581307504,1
832,501,13,0.0734490737702712,1
832,502,13,0.0796905819130002,1
832,503,13,0.0704053727374789,1
833,477,13,0.073583076334623,1
833,498,13,0.0769111044352743,1
833,499,13,0.0803877261353229,1
833,501,13,0.0767899620018583,1
833,502,13,0.0874455258756401,1
833,503,13,0.075666160343616,1
834,502,13,0.0766660320481692,1
842,474,13,0.0750647789125218,1
832,477,14,0.0770029674786892,1
832,498,14,0.0745239721738465,1
832,499,14,0.0713268184975897,1
832,502,14,0.0738714560815823,1
833,502,14,0.0722681731306736,1
842,512,15,0.0719292009334703,1
842,513,15,0.0719224024426296,1
857,476,15,0.0720135911980982,1
858,476,15,0.0720300035057412,1
864,507,15,0.0872734642751402,1
864,508,15,0.0838817680992232,1
865,507,15,0.0985748222159888,1
865,508,15,0.0950419426566623,1
866,507,15,0.0855119321994989,1
866,508,15,0.0867246912067068,1
842,513,16,0.0701597998479807,1
863,507,16,0.086529627350387,1
863,508,16,0.0888771712627987,1
864,506,16,0.0787896428481656,1
864,507,16,0.117531642317411,1
864,508,16,0.114052997753523,1
864,509,16,0.082218869752149,1
865,506,16,0.0862091806931535,1
865,507,16,0.122176026469236,1
865,508,16,0.115916611463106,1
865,509,16,0.0844891694618798,1
866,506,16,0.0788527061497063,1
866,507,16,0.0973047070248069,1
866,508,16,0.0949189163878498,1
866,509,16,0.0789607799095225,1
867,507,16,0.0765409134012964,1
867,508,16,0.0776210879342665,1
860,513,17,0.0768431890410886,1
860,514,17,0.0715983271430456,1
861,512,17,0.0698775860124485,1
861,513,17,0.077530503952523,1
861,514,17,0.0725372279241185,1
862,507,17,0.0762633361643232,1
862,508,17,0.0903261256910548,1
863,507,17,0.111328464316293,1
863,508,17,0.126602789399938,1
863,509,17,0.0924785570871917,1
864,506,17,0.0789396267319885,1
864,507,17,0.129522956710102,1
864,508,17,0.136684186660254,1
864,509,17,0.0952536273632889,1
865,506,17,0.0893653487845466,1
865,507,17,0.124106255657067,1
865,508,17,0.120604574080249,1
865,509,17,0.0883380815253889,1
866,506,17,0.0897607943351137,1
866,507,17,0.105563079929342,1
866,508,17,0.0987081991523491,1
866,509,17,0.0801610541625894,1
867,506,17,0.0816379950163308,1
867,507,17,0.0868496291166044,1
867,508,17,0.082105464251561,1
868,507,17,0.0717327745984136,1
859,513,18,0.0750034534665129,1
859,514,18,0.0699945575925879,1
860,512,18,0.082633883556005,1
860,513,18,0.106364989034549,1
860,514,18,0.0962205840840684,1
861,512,18,0.0820484556386933,1
861,513,18,0.106285916607848,1
861,514,18,0.0971997753077923,1
861,515,18,0.0715798224573422,1
862,507,18,0.0833202322197637,1
862,508,18,0.105008975120137,1
862,509,18,0.0804041106372775,1
862,513,18,0.07933956290125,1
862,514,18,0.074756587612499,1
863,507,18,0.117477004139488,1
863,508,18,0.143642810461078,1
863,509,18,0.0987098118822827,1
864,506,18,0.0719050447415773,1
864,507,18,0.11534018563745,1
864,508,18,0.131348483577849,1
864,509,18,0.0917046830674257,1
865,506,18,0.0857256953813417,1
865,507,18,0.108489788527729,1
865,508,18,0.107564498631182,1
865,509,18,0.0834160853794798,1
866,505,18,0.0703541338049771,1
866,506,18,0.0943557121670797,1
866,507,18,0.104695431225076,1
866,508,18,0.0945002530873768,1
866,509,18,0.0780633235071738,1
867,506,18,0.0856428274781597,1
867,507,18,0.0907726433399926,1
867,508,18,0.0816113154582055,1
868,507,18,0.0729584493479344,1
830,474,19,0.0734416218457505,1
830,475,19,0.0715281525366685,1
831,474,19,0.0762581712576824,1
831,475,19,0.0756959610902766,1
844,517,19,0.0742781698874181,1
844,518,19,0.0708086316865173,1
845,517,19,0.0703384722509239,1
854,517,19,0.0773133137195714,1
855,517,19,0.0705681472380165,1
859,513,19,0.0843340345742604,1
859,514,19,0.0791402656288546,1
860,512,19,0.0905984337500553,1
860,513,19,0.125052010540358,1
860,514,19,0.112729620766,1
860,515,19,0.0805269422662704,1
861,512,19,0.0888609744492416,1
861,513,19,0.122196227301938,1
861,514,19,0.110384266551559,1
861,515,19,0.0811615723494005,1
862,507,19,0.0806237130137073,1
862,508,19,0.104983386935286,1
862,509,19,0.0798201425186126,1
862,512,19,0.0700677630190126,1
862,513,19,0.0841296419094456,1
862,514,19,0.0785231392266415,1
863,507,19,0.108461788199399,1
863,508,19,0.136896663829003,1
863,509,19,0.0964823398842794,1
864,507,19,0.0947453185230597,1
864,508,19,0.112125500474587,1
864,509,19,0.0838888515983711,1
865,506,19,0.0805288330530891,1
865,507,19,0.0928530162943559,1
865,508,19,0.0922982511000486,1
865,509,19,0.0777590041492761,1
866,506,19,0.0920956797078312,1
866,507,19,0.098100498878541,1
866,508,19,0.0869688390546689,1
866,509,19,0.0738891404994747,1
867,506,19,0.0821469433873958,1
867,507,19,0.0864114809799081,1
867,508,19,0.0774209912483264,1
826,485,20,0.0734442355804704,1
826,486,20,0.0751497669994526,1
827,485,20,0.0729888131597873,1
827,486,20,0.0716341200155801,1
829,474,20,0.0781113508826527,1
829,475,20,0.0811025061155831,1
830,474,20,0.0948991673975855,1
830,475,20,0.104552871460086,1
830,476,20,0.0780785054131002,1
831,474,20,0.094587986986048,1
831,475,20,0.10207719893502,1
831,476,20,0.0763506946861995,1
832,475,20,0.0699703318864736,1
843,517,20,0.0708145890552806,1
844,517,20,0.0764142167816006,1
844,518,20,0.0731122634653495,1
854,517,20,0.0800419832529675,1
854,518,20,0.0743841304149076,1
855,517,20,0.0712355254707892,1
859,513,20,0.0834484512009054,1
859,514,20,0.0829372644719155,1
860,479,20,0.0824981778932319,1
860,480,20,0.0826748969465572,1
860,512,20,0.0869207908249236,1
860,513,20,0.116937893547812,1
860,514,20,0.109767508574718,1
860,515,20,0.083409717876811,1
861,479,20,0.0761054693678076,1
861,480,20,0.0753607982723992,1
861,512,20,0.0856087307526244,1
861,513,20,0.112863407836266,1
861,514,20,0.10477863279652,1
861,515,20,0.0827047950131276,1
861,516,20,0.0701669945698827,1
862,508,20,0.08747757888307,1
862,509,20,0.071862286544071,1
862,513,20,0.0790757633829335,1
862,514,20,0.0749594926729786,1
863,507,20,0.0865985298465148,1
863,508,20,0.107560633640479,1
863,509,20,0.0841604784180031,1
864,507,20,0.0791196755165129,1
864,508,20,0.0912696630706867,1
864,509,20,0.0757836602318372,1
865,506,20,0.0752966018890517,1
865,507,20,0.0833026242675148,1
865,508,20,0.0816679556457004,1
865,509,20,0.0716705037589954,1
866,506,20,0.0851255652062303,1
866,507,20,0.0890178749980814,1
866,508,20,0.0796162434047687,1
867,506,20,0.0750466078950805,1
867,507,20,0.077852938716485,1
868,485,20,0.0708405456655047,1
869,485,20,0.0783253017528928,1
869,486,20,0.0731491060026253,1
825,485,21,0.0698314146666776,1
825,486,21,0.0740069532016916,1
826,485,21,0.0827410675337889,1
826,486,21,0.0893119340569189,1
826,487,21,0.0716966202519284,1
827,485,21,0.0733643984973361,1
827,486,21,0.0780013724331735,1
829,473,21,0.0712023810900853,1
829,474,21,0.0832495501595713,1
829,475,21,0.0943184247387878,1
830,473,21,0.0725453193794749,1
830,474,21,0.102295084310184,1
830,475,21,0.125094747883598,1
830,476,21,0.0865307326265053,1
831,474,21,0.0940147240574594,1
831,475,21,0.111936769363826,1
831,476,21,0.0780115493151681,1
832,475,21,0.0715284931563527,1
835,474,21,0.0709412439664436,1
836,474,21,0.0718066265070961,1
843,517,21,0.0707135223289689,1
844,517,21,0.0699381120449126,1
854,517,21,0.0724848420069657,1
859,513,21,0.0753082107640047,1
859,514,21,0.0791855610954374,1
860,479,21,0.0980935405049913,1
860,480,21,0.103572408126112,1
860,512,21,0.0765800429564521,1
860,513,21,0.0922380448330024,1
860,514,21,0.0902421316574882,1
860,515,21,0.0764131184569044,1
861,479,21,0.0857807993045464,1
861,480,21,0.0891663990832576,1
861,512,21,0.0757838548716567,1
861,513,21,0.0882556585132232,1
861,514,21,0.0841577395576849,1
861,515,21,0.0740906761297952,1
863,508,21,0.0799215985245634,1
863,509,21,0.0729836691074129,1
864,507,21,0.0707641147792128,1
864,508,21,0.0776409272930183,1
864,509,21,0.0702172950603973,1
865,507,21,0.0761233275712532,1
865,508,21,0.0740371988393683,1
866,506,21,0.0740798458141205,1
866,507,21,0.0775863586293175,1
866,508,21,0.071788900380671,1
868,484,21,0.0770720090032595,1
868,485,21,0.0934308115501716,1
868,486,21,0.0889489446962651,1
869,484,21,0.0812264152150058,1
869,485,21,0.0991550921780819,1
869,486,21,0.094903664967702,1
869,487,21,0.0713819849835935,1
870,485,21,0.0850739717512,1
870,486,21,0.0836615400948018,1
825,485,22,0.0753937897218163,1
825,486,22,0.0784222949458379,1
826,485,22,0.0837036170529396,1
826,486,22,0.0931773835536693,1
826,487,22,0.0742876585786221,1
827,486,22,0.0770575917537671,1
828,474,22,0.0718694743145508,1
829,473,22,0.0733156203682674,1
829,474,22,0.0853566791377033,1
829,475,22,0.0958955008282758,1
830,473,22,0.0727641988080035,1
830,474,22,0.0982842249653708,1
830,475,22,0.121339853804363,1
830,476,22,0.0839382205983206,1
831,474,22,0.0837911910689018,1
831,475,22,0.101532645379818,1
831,476,22,0.071577688370749,1
835,473,22,0.071631659212147,1
835,474,22,0.0729452138402036,1
842,516,22,0.0728077633704765,1
843,465,22,0.0719367571293229,1
843,470,22,0.0706707015686635,1
844,465,22,0.0718929492670754,1
844,466,22,0.0697634575639592,1
848,520,22,0.0705088446558468,1
849,520,22,0.0714662501226231,1
849,521,22,0.070959199489799,1
860,479,22,0.0931031423653476,1
860,480,22,0.102100972798696,1
860,481,22,0.0698176160937546,1
860,513,22,0.0699758791213313,1
860,514,22,0.0705012189457729,1
861,479,22,0.0804403692550945,1
861,480,22,0.0862660294233122,1
864,508,22,0.069927775280209,1
867,485,22,0.0750475602399119,1
867,486,22,0.0741607951247953,1
868,484,22,0.0836228067707074,1
868,485,22,0.10793165189369,1
868,486,22,0.10766333395099,1
868,487,22,0.0757185115036582,1
869,484,22,0.0860227713573825,1
869,485,22,0.109577554013662,1
869,486,22,0.110567645067282,1
869,487,22,0.0814357920494861,1
870,485,22,0.0892710179862764,1
870,486,22,0.0910473009796723,1
825,484,23,0.0744613259576335,1
825,485,23,0.078847513437377,1
825,486,23,0.0771795405521498,1
826,485,23,0.0798576176353019,1
826,486,23,0.0881027828377952,1
826,487,23,0.0745058637192044,1
827,474,23,0.0708715698624597,1
827,486,23,0.0749604658720765,1
827,487,23,0.0704159597533791,1
828,473,23,0.0731384842296145,1
828,474,23,0.0744022666752382,1
828,475,23,0.0698491825016355,1
829,473,23,0.073340131082689,1
829,474,23,0.0818802729317406,1
829,475,23,0.0846442209324337,1
830,473,23,0.0711529286730703,1
830,474,23,0.0863461167576432,1
830,475,23,0.0975633972478597,1
830,476,23,0.0732959061351138,1
831,474,23,0.0751375950593073,1
831,475,23,0.0830681527991542,1
834,473,23,0.0698178107335741,1
835,473,23,0.0701968022679654,1
838,467,23,0.0765343165016974,1
839,466,23,0.078749373259781,1
839,467,23,0.0736992415497957,1
840,466,23,0.0744575096268855,1
840,467,23,0.0733942618067958,1
840,468,23,0.0721657578284692,1
841,466,23,0.0716984623787922,1
841,467,23,0.0716312768839299,1
841,468,23,0.0705338489212394,1
842,465,23,0.0745903999636969,1
842,466,23,0.0713394422801732,1
842,467,23,0.0698225237977766,1
842,516,23,0.0701457440724389,1
843,465,23,0.0760373523823803,1
843,466,23,0.0724444264387164,1
844,465,23,0.0759498895891721,1
844,466,23,0.0727419403543512,1
844,467,23,0.0702661635579536,1
845,466,23,0.0713402555965622,1
848,520,23,0.0719826921267414,1
848,521,23,0.070459677247139,1
849,520,23,0.0730863555150804,1
849,521,23,0.0707762172051368,1
860,479,23,0.078319532072527,1
860,480,23,0.0844983244848218,1
861,480,23,0.0757807892944985,1
864,483,23,0.074193001063512,1
864,484,23,0.0767681136821116,1
865,482,23,0.0711753261551651,1
865,483,23,0.0777907999540872,1
865,484,23,0.0790468524183052,1
866,482,23,0.0739439802686385,1
866,483,23,0.0733008624990907,1
866,484,23,0.0710224087712043,1
867,483,23,0.0702439815699448,1
867,484,23,0.0709825145596146,1
867,485,23,0.0794006937074392,1
867,486,23,0.0790375583669208,1
868,484,23,0.0826181733419969,1
868,485,23,0.105005937348668,1
868,486,23,0.108681675584136,1
868,487,23,0.0796337262314194,1
869,485,23,0.103621631146197,1
869,486,23,0.10949262848953,1
869,487,23,0.0862159027183508,1
870,486,23,0.0918729700457103,1
825,484,24,0.0769979902604459,1
825,485,24,0.0755957424374644,1
826,485,24,0.070826225735922,1
826,486,24,0.0740471254701664,1
827,474,24,0.0705939856740644,1
828,473,24,0.0723525008325023,1
828,474,24,0.0721573048991621,1
829,472,24,0.0727662286232647,1
829,473,24,0.071704176447781,1
829,474,24,0.0747192098157195,1
829,475,24,0.0721021036560476,1
830,472,24,0.0706237933721471,1
830,474,24,0.0742103726674086,1
830,475,24,0.075853932158124,1
831,474,24,0.0703597366512119,1
831,475,24,0.0705224763946388,1
832,471,24,0.0700216820417294,1
838,467,24,0.0817957922986251,1
838,468,24,0.0728689497880428,1
839,466,24,0.0840142343992848,1
839,467,24,0.079039588182182,1
839,468,24,0.0723225888630877,1
840,466,24,0.08058209484943,1
840,467,24,0.0783764850740176,1
840,468,24,0.0722028436655194,1
841,465,24,0.0791180836408457,1
841,466,24,0.0766643150469037,1
841,467,24,0.0748950182327461,1
842,466,24,0.0749345231646966,1
842,467,24,0.0720596443696929,1
843,466,24,0.0746031488718787,1
843,467,24,0.070317763964406,1
844,466,24,0.0743368120844857,1
844,467,24,0.0699343235198532,1
848,520,24,0.070195745651802,1
849,520,24,0.0704217502880113,1
864,482,24,0.0700548403252776,1
864,483,24,0.0770161126179323,1
864,484,24,0.0792845354436887,1
865,482,24,0.0752794249249747,1
865,483,24,0.0823644186286546,1
865,484,24,0.084338865812639,1
866,482,24,0.0776221932103847,1
866,483,24,0.0790639112082061,1
866,484,24,0.0789521670975065,1
866,485,24,0.0710634291131787,1
867,483,24,0.0744152171746618,1
867,484,24,0.0757587671891986,1
867,485,24,0.0806655536234927,1
867,486,24,0.0792937808351183,1
868,484,24,0.0788995934919563,1
868,485,24,0.0928891567379968,1
868,486,24,0.0985197739041611,1
868,487,24,0.080260751458742,1
869,485,24,0.0933000970084861,1
869,486,24,0.101620427938444,1
825,484,25,0.0704977154290206,1
828,473,25,0.0727036310670066,1
828,474,25,0.069939328543785,1
829,472,25,0.0753715590738526,1
829,473,25,0.0722199789210637,1
829,474,25,0.0698839813208058,1
830,471,25,0.079787561203101,1
830,472,25,0.0748347007429458,1
830,473,25,0.0712650481605647,1
831,471,25,0.0784061398408135,1
831,472,25,0.0743270661906629,1
831,473,25,0.0700952280878384,1
832,470,25,0.0770729822023573,1
832,471,25,0.0752180230133225,1
832,472,25,0.0708896018514585,1
833,470,25,0.0740032619965419,1
833,471,25,0.0716870898521916,1
834,470,25,0.0705379919688274,1
837,469,25,0.0710843528937825,1
839,467,25,0.082851261477354,1
839,468,25,0.0731619313764505,1
840,466,25,0.0842088603160105,1
840,467,25,0.080283593831853,1
840,468,25,0.070326759104639,1
841,466,25,0.0790594622980445,1
841,467,25,0.0752235146368032,1
842,466,25,0.0766560498059942,1
842,467,25,0.0722174207977207,1
843,467,25,0.0699361656467169,1
847,520,25,0.0697447304327477,1
848,520,25,0.0705380753858929,1
864,483,25,0.0729891468280494,1
864,484,25,0.0703506650453355,1
865,482,25,0.0746536092451023,1
865,483,25,0.0798279559170839,1
865,484,25,0.0795076482882929,1
866,483,25,0.081202432808666,1
866,484,25,0.0834003612626274,1
866,485,25,0.0751337856799814,1
867,483,25,0.0761353187744231,1
867,484,25,0.0793063212006363,1
867,485,25,0.0809655144397165,1
867,486,25,0.0778940772326355,1
868,484,25,0.0744670400266223,1
868,485,25,0.0814245655027502,1
868,486,25,0.0872885975211117,1
868,487,25,0.0792616374592007,1
869,486,25,0.09278813867164,1
828,473,26,0.0732648471810482,1
829,472,26,0.0775902931342416,1
829,473,26,0.0735638904095511,1
830,471,26,0.082830483676615,1
830,472,26,0.0781468865525684,1
830,473,26,0.0739705694582762,1
831,471,26,0.0820921314239204,1
831,472,26,0.0781432857159064,1
831,473,26,0.0717603647928376,1
832,470,26,0.0789074068904276,1
832,471,26,0.0790833612873189,1
832,472,26,0.0747951193453518,1
833,470,26,0.0745985331275861,1
833,471,26,0.0741563531660558,1
833,472,26,0.0699855763551992,1
834,470,26,0.0700353207319436,1
837,469,26,0.0726207214552919,1
839,515,26,0.0720368784622253,1
840,467,26,0.0797712253611014,1
841,467,26,0.0741981381644642,1
842,467,26,0.0718451721427931,1
845,520,26,0.070986080639166,1
846,520,26,0.0769375128879366,1
846,521,26,0.0727339531703267,1
847,519,26,0.0717286941136247,1
847,520,26,0.0826396184792602,1
847,521,26,0.0748694787078496,1
848,519,26,0.0701881338445724,1
848,520,26,0.0767316951815856,1
849,520,26,0.0719486579640052,1
850,519,26,0.0738062100334936,1
850,520,26,0.0745325919372846,1
851,519,26,0.0725853734737736,1
851,520,26,0.0722746935646292,1
865,483,26,0.0729867068788826,1
865,484,26,0.0700077513917859,1
866,483,26,0.0786366350957172,1
866,484,26,0.0810204515287901,1
866,485,26,0.075719860079551,1
867,484,26,0.0783246622220571,1
867,485,26,0.0808347164809654,1
867,486,26,0.0790797952077674,1
868,486,26,0.0822926660494545,1
828,473,27,0.0745039173210087,1
829,472,27,0.079231120716061,1
829,473,27,0.0753556542200249,1
830,471,27,0.084795692420592,1
830,472,27,0.0807967200076165,1
830,473,27,0.0763543302799721,1
831,471,27,0.0846888977224472,1
831,472,27,0.081392005041505,1
831,473,27,0.0725340650270505,1
832,470,27,0.0803769653338696,1
832,471,27,0.0818491236091873,1
832,472,27,0.0792358059745749,1
833,470,27,0.0750270743989022,1
833,471,27,0.0751151280629912,1
833,472,27,0.0716760579452753,1
834,470,27,0.0700181993792436,1
836,469,27,0.07450104638367,1
837,469,27,0.0732134831229481,1
839,515,27,0.0724656421790495,1
843,520,27,0.0698265764768769,1
844,520,27,0.0848921503540331,1
844,521,27,0.0782432819232105,1
845,519,27,0.0729047148548888,1
845,520,27,0.0940338474197322,1
845,521,27,0.085881699196727,1
846,519,27,0.0710572562503295,1
846,520,27,0.0901730067158523,1
846,521,27,0.0805591829620977,1
847,519,27,0.0750227645171831,1
847,520,27,0.0897799176973865,1
847,521,27,0.0779564801490741,1
848,519,27,0.077010370743255,1
848,520,27,0.0860027651644996,1
848,521,27,0.0733374408823257,1
849,519,27,0.0766480626219697,1
849,520,27,0.0802837189574513,1
850,519,27,0.0759849039024283,1
850,520,27,0.076205423866579,1
851,519,27,0.070668928956021,1
866,484,27,0.0727451658142184,1
866,485,27,0.0707518524705799,1
867,486,27,0.0783578135541832,1
829,473,28,0.0763012075120738,1
829,477,28,0.0713582180713396,1
829,506,28,0.0708926952343052,1
830,472,28,0.0797045612228986,1
830,473,28,0.075170127714864,1
831,472,28,0.0802424205585918,1
831,473,28,0.0702106495008434,1
832,471,28,0.0809047520589,1
832,472,28,0.0779303636561411,1
833,471,28,0.0741915899248201,1
834,470,28,0.070169629158869,1
835,469,28,0.0760323682127148,1
837,469,28,0.0724435992194832,1
843,520,28,0.06986622043727,1
844,520,28,0.0925931165238529,1
844,521,28,0.0860428331616425,1
845,519,28,0.0742309627797502,1
845,520,28,0.103115699692336,1
845,521,28,0.0927368997391382,1
846,519,28,0.0709350919578608,1
846,520,28,0.0934704763648311,1
846,521,28,0.0813960785748717,1
847,519,28,0.0816123581715246,1
847,520,28,0.103011087740739,1
847,521,28,0.0868383608613357,1
848,519,28,0.0919424495098747,1
848,520,28,0.111320539695067,1
848,521,28,0.0911629309353411,1
849,469,28,0.0703956546493447,1
849,519,28,0.0852237818494698,1
849,520,28,0.0954076500233679,1
849,521,28,0.0779933922005711,1
850,470,28,0.0708658418906267,1
850,519,28,0.073913143760081,1
850,520,28,0.0737722384335565,1
829,477,29,0.075343447522769,1
829,478,29,0.0712551354326109,1
830,473,29,0.0726013965017775,1
831,472,29,0.0769313608793538,1
832,471,29,0.0786138205282947,1
832,472,29,0.0731809782730799,1
833,470,29,0.0753123260059042,1
833,471,29,0.0727740767788467,1
834,470,29,0.0716654709293751,1
835,470,29,0.0697543581523943,1
836,469,29,0.0757846820908899,1
837,469,29,0.0707725607570977,1
844,520,29,0.0850230178270055,1
844,521,29,0.080684975896917,1
845,520,29,0.0912411830942304,1
845,521,29,0.0846570185005705,1
846,520,29,0.0865785514593204,1
846,521,29,0.077574012903619,1
847,519,29,0.0810798792365581,1
847,520,29,0.107478912721948,1
847,521,29,0.0906486438720823,1
848,519,29,0.094354036874347,1
848,520,29,0.123206505285416,1
848,521,29,0.0997545063567141,1
849,469,29,0.0706506189101371,1
849,519,29,0.0814856824060952,1
849,520,29,0.0970075337288563,1
849,521,29,0.0789151994346325,1
850,469,29,0.0712843314055464,1
825,483,30,0.0718206266712609,1
830,473,30,0.0700731573225836,1
831,472,30,0.0736840735467134,1
832,471,30,0.0756057038253732,1
833,471,30,0.0700667064028493,1
834,470,30,0.0726518499235788,1
836,469,30,0.0734919988019085,1
844,520,30,0.0739101059886112,1
844,521,30,0.0717054694122967,1
845,520,30,0.0742881104210604,1
845,521,30,0.0726660377761411,1
846,520,30,0.0767460846253895,1
846,521,30,0.0727195498236786,1
847,519,30,0.0743004422439146,1
847,520,30,0.0993783440511287,1
847,521,30,0.0870981285548182,1
848,468,30,0.0698467703581573,1
848,519,30,0.0846815917777912,1
848,520,30,0.112297742812063,1
848,521,30,0.0940428634142316,1
849,519,30,0.0728853551442637,1
849,520,30,0.0874812700882197,1
849,521,30,0.0743367634245308,1
852,517,30,0.0748511408562773,1
825,483,31,0.0762142938812137,1
825,484,31,0.0738314854043492,1
826,484,31,0.0720104700095629,1
826,485,31,0.070173772206457,1
831,472,31,0.0723312503350586,1
832,471,31,0.0753847111645178,1
834,470,31,0.0742574059895233,1
836,469,31,0.0711769388850987,1
847,520,31,0.0804940272824967,1
847,521,31,0.0757039760799896,1
848,520,31,0.0854746308683628,1
848,521,31,0.0776591052618818,1
849,520,31,0.072794319320082,1
851,517,31,0.069966265304529,1
852,517,31,0.0786818262909681,1
824,483,32,0.0702540055206526,1
824,484,32,0.0699851523184494,1
825,483,32,0.0778238956748363,1
825,484,32,0.0881373661628795,1
825,485,32,0.0857504007355828,1
826,484,32,0.0838781255540283,1
826,485,32,0.088146660214264,1
831,472,32,0.0720142307289339,1
850,469,32,0.0714878481911732,1
851,517,32,0.0714326538994809,1
852,517,32,0.0785577016974594,1
824,483,33,0.0706923969571234,1
824,484,33,0.0774495754961147,1
824,485,33,0.0752051489795423,1
825,483,33,0.0774504513753027,1
825,484,33,0.0958773993250558,1
825,485,33,0.097491067700623,1
825,486,33,0.0707584910787117,1
826,484,33,0.0862080893198795,1
826,485,33,0.0917242374178703,1
831,472,33,0.0731890975341248,1
833,471,33,0.0717946839638811,1
834,470,33,0.0753426481092243,1
850,469,33,0.0714270510532461,1
852,517,33,0.071876898433383,1
861,478,33,0.0722556883765326,1
862,479,33,0.0701862083006431,1
824,484,34,0.0779624792263701,1
824,485,34,0.0768035798378061,1
825,483,34,0.073994218196354,1
825,484,34,0.0912336616554884,1
825,485,34,0.0919883219444941,1
825,486,34,0.0711832994363453,1
826,484,34,0.0781796903135881,1
826,485,34,0.079920159580183,1
829,474,34,0.0698935673319196,1
830,473,34,0.0713727882521188,1
831,472,34,0.0752183914386952,1
844,468,34,0.0755263394389435,1
844,469,34,0.0732839427376324,1
845,468,34,0.0728927931659401,1
845,469,34,0.0720141403604462,1
850,469,34,0.0707501980321136,1
860,476,34,0.0773885211555688,1
860,477,34,0.0715880668439854,1
861,477,34,0.0842211782360205,1
861,478,34,0.0756630461065029,1
862,479,34,0.0731432250995054,1
824,484,35,0.0711754929892961,1
824,485,35,0.0700474092550233,1
825,484,35,0.0758453054432638,1
825,485,35,0.0752228820573896,1
828,475,35,0.0725602857913154,1
829,474,35,0.0724491812114516,1
830,473,35,0.0731297532434223,1
832,472,35,0.0714066833864125,1
843,468,35,0.075662399624245,1
843,469,35,0.0719007904712352,1
843,519,35,0.0731493701566661,1
843,520,35,0.0836391078555964,1
843,521,35,0.076618692863481,1
844,468,35,0.076806791394829,1
844,469,35,0.0746139235761764,1
844,519,35,0.0716916708393737,1
844,520,35,0.0815430455414913,1
844,521,35,0.0752091390958435,1
845,468,35,0.073205134464973,1
845,469,35,0.0715871492562646,1
860,477,35,0.0741946972105111,1
861,478,35,0.0764381713822519,1
862,479,35,0.0742811868046214,1
828,476,36,0.0709722959690872,1
829,475,36,0.0712307637466319,1
831,473,36,0.0722540061323778,1
838,469,36,0.0712283863602643,1
839,469,36,0.0702260538522779,1
842,520,36,0.09124814146778,1
842,521,36,0.0799277505331463,1
843,468,36,0.0778314796763774,1
843,469,36,0.0728292224105841,1
843,519,36,0.0895302365174109,1
843,520,36,0.118838009174987,1
843,521,36,0.0990053654968776,1
843,522,36,0.0701638386242368,1
844,468,36,0.0778610162689971,1
844,469,36,0.0740226564642776,1
844,519,36,0.0804766209214894,1
844,520,36,0.10240302599298,1
844,521,36,0.0874986764492269,1
845,468,36,0.0739492703008776,1
845,469,36,0.0698824798136263,1
845,520,36,0.0734716658921856,1
860,477,36,0.074340100107152,1
861,478,36,0.0753791500268158,1
862,479,36,0.0748684290431084,1
828,476,37,0.0704750120843522,1
829,475,37,0.0714753842912986,1
830,474,37,0.0708381960848256,1
837,469,37,0.071388282972041,1
838,469,37,0.0739796202098862,1
838,470,37,0.0729194032098442,1
839,469,37,0.0730954479752231,1
839,470,37,0.0709785800546904,1
840,468,37,0.0733694521812228,1
840,469,37,0.0702909801349488,1
841,468,37,0.0758369428824444,1
841,469,37,0.0698152595616533,1
842,468,37,0.0794394409343779,1
842,469,37,0.0715799614857847,1
842,520,37,0.112274010656919,1
842,521,37,0.0962795808036645,1
843,468,37,0.0808770506417219,1
843,469,37,0.0735424661265541,1
843,519,37,0.100826255766066,1
843,520,37,0.145585176831944,1
843,521,37,0.120011951441035,1
843,522,37,0.0808217103701649,1
844,468,37,0.0794769299539115,1
844,469,37,0.0734966354004675,1
844,519,37,0.0833455284448857,1
844,520,37,0.113220453731001,1
844,521,37,0.0955281737802145,1
845,520,37,0.075142322026354,1
859,476,37,0.0709080509257848,1
860,477,37,0.0750097653578047,1
861,478,37,0.0742811937560436,1
837,469,38,0.0714823496162704,1
837,470,38,0.0702754228522274,1
838,469,38,0.0748458160669276,1
838,470,38,0.075976165964814,1
839,469,38,0.0735997945048396,1
839,470,38,0.0726976250382884,1
840,469,38,0.0710548719125398,1
841,469,38,0.0711683886358818,1
841,520,38,0.0737706882664221,1
842,468,38,0.0821350008441807,1
842,469,38,0.0729810762269594,1
842,519,38,0.0816553040574283,1
842,520,38,0.113091970595818,1
842,521,38,0.099980983689628,1
843,468,38,0.0828461660849346,1
843,469,38,0.0741101609660186,1
843,519,38,0.0966954218267537,1
843,520,38,0.138062806599424,1
843,521,38,0.120025520617028,1
843,522,38,0.0843948803721424,1
844,468,38,0.0799931981724767,1
844,469,38,0.0729264171947708,1
844,520,38,0.102591152330017,1
844,521,38,0.0922878726268123,1
849,469,38,0.0778028954285891,1
850,470,38,0.0705926788067044,1
851,470,38,0.0748306133067348,1
852,471,38,0.0717719250078356,1
853,471,38,0.0713502864986921,1
858,475,38,0.0733730113093521,1
859,476,38,0.0743014084915903,1
860,477,38,0.0763374452756244,1
837,470,39,0.0720284880957174,1
838,469,39,0.0755439682454588,1
838,470,39,0.0763147210766896,1
839,469,39,0.0744754442959744,1
839,470,39,0.0730670514158323,1
842,469,39,0.0795415990339636,1
842,520,39,0.101559908857402,1
843,469,39,0.0798582085061828,1
843,520,39,0.111235245745563,1
843,521,39,0.103972761380701,1
844,469,39,0.0757015152765565,1
845,469,39,0.0706170643955277,1
849,470,39,0.0723427479872574,1
850,470,39,0.0779027595588728,1
851,470,39,0.0802528198860945,1
851,471,39,0.0730281373547625,1
852,471,39,0.0769624406876858,1
854,472,39,0.0724594832190445,1
855,473,39,0.0719544206929489,1
856,474,39,0.0704611161915194,1
860,478,39,0.0697538437471569,1
861,479,39,0.0700693687975241,1
838,470,40,0.0743739326786465,1
839,469,40,0.0750765059616508,1
839,470,40,0.0719230350220432,1
840,469,40,0.0749537577497234,1
841,469,40,0.0811564700055589,1
841,470,40,0.0725598339488771,1
842,469,40,0.0890734377151465,1
842,470,40,0.0773878816247331,1
843,469,40,0.0861051179039049,1
843,470,40,0.0737392122270288,1
848,512,40,0.07276967652864,1
848,513,40,0.0703596184770357,1
849,470,40,0.0766997047369549,1
850,470,40,0.0820950649240582,1
850,471,40,0.0747494763076626,1
851,471,40,0.0772948507424008,1
852,471,40,0.0777708076640486,1
852,472,40,0.071882730676548,1
853,472,40,0.0739964287485905,1
854,473,40,0.0733485075463526,1
855,474,40,0.0746656213025386,1
856,474,40,0.0868798956085475,1
856,475,40,0.0744216889486625,1
857,475,40,0.0807884825723954,1
858,476,40,0.0742112972065515,1
859,477,40,0.0712589448119368,1
838,470,41,0.0706825398405466,1
839,469,41,0.0741899841463086,1
839,470,41,0.0704457257429291,1
840,469,41,0.0768282990948915,1
840,470,41,0.0718930674412516,1
841,469,41,0.0841227113415844,1
841,470,41,0.0770260531515746,1
842,469,41,0.0921867711433899,1
842,470,41,0.0813427125071989,1
843,469,41,0.087357910151145,1
843,470,41,0.0753767031262269,1
847,511,41,0.0717796688920857,1
847,512,41,0.0826615363132282,1
848,470,41,0.0703587912578026,1
848,511,41,0.0728671771754003,1
848,512,41,0.0818357073644812,1
849,470,41,0.0771957234628626,1
849,471,41,0.0717889837977365,1
850,470,41,0.0816432155343486,1
850,471,41,0.0780158383426208,1
851,470,41,0.0795462842924776,1
851,471,41,0.076414133364535,1
852,471,41,0.0752092433671755,1
852,472,41,0.0729571285777301,1
853,472,41,0.0762674305519563,1
853,473,41,0.072895128843775,1
854,473,41,0.0806591583151354,1
854,474,41,0.076477759731268,1
855,474,41,0.0940954231169376,1
855,475,41,0.082324913696704,1
856,474,41,0.107796189530691,1
856,475,41,0.0967275791055155,1
856,476,41,0.0735773066542572,1
857,476,41,0.0767433179593828,1
839,470,42,0.071283490283469,1
840,470,42,0.0748556940377708,1
841,469,42,0.0854353970418751,1
841,470,42,0.0791811121852758,1
842,469,42,0.0912145939045927,1
842,470,42,0.080946078263448,1
843,469,42,0.0867424868473532,1
843,470,42,0.0749445610182488,1
846,512,42,0.0760335638573208,1
847,511,42,0.0790238362596411,1
847,512,42,0.0920629176553443,1
847,513,42,0.0784915519644941,1
848,511,42,0.073774011046199,1
848,512,42,0.0841116238232911,1
849,470,42,0.0734462167357768,1
849,471,42,0.0720587962961933,1
850,470,42,0.0770994393149746,1
850,471,42,0.07643097666035,1
851,470,42,0.074934432796209,1
851,471,42,0.0737217015946896,1
851,472,42,0.0699385708387731,1
852,471,42,0.0736043893948659,1
852,472,42,0.0739922509438919,1
852,473,42,0.0717469624509758,1
853,472,42,0.0776343929562185,1
853,473,42,0.0772785496575118,1
853,474,42,0.0728262332990693,1
854,474,42,0.0941255366775939,1
854,475,42,0.0860479007483734,1
855,473,42,0.102568212636996,1
855,474,42,0.117083011436146,1
855,475,42,0.109789676659883,1
855,476,42,0.077636054346107,1
856,473,42,0.10903198555083,1
856,474,42,0.123932205949839,1
856,475,42,0.118343915993009,1
856,476,42,0.0877525354339011,1
857,474,42,0.105792727110746,1
857,475,42,0.101267379111433,1
857,476,42,0.0835370401244983,1
858,477,42,0.0721902615914686,1
841,470,43,0.0782185626661251,1
842,469,43,0.0883590331116812,1
842,470,43,0.077981936256905,1
843,470,43,0.0746924815976392,1
846,512,43,0.0801177607055794,1
847,511,43,0.0787211018259884,1
847,512,43,0.0906043980702407,1
847,513,43,0.0801136176579914,1
848,511,43,0.0698042068004706,1
848,512,43,0.0788692505343697,1
849,471,43,0.0709290094634993,1
850,471,43,0.0729185134278119,1
851,471,43,0.0716291080402262,1
851,472,43,0.0708247450830089,1
852,471,43,0.073379496986197,1
852,472,43,0.0747429072137521,1
852,473,43,0.0744779468079403,1
853,472,43,0.0782591659227718,1
853,473,43,0.0799787461658736,1
853,474,43,0.0782386244703851,1
853,475,43,0.07257307640803,1
854,473,43,0.095335417796041,1
854,474,43,0.105713460044227,1
854,475,43,0.102988377444648,1
854,476,43,0.0738553357336687,1
855,473,43,0.109224296643987,1
855,474,43,0.129090647767993,1
855,475,43,0.129115075065349,1
855,476,43,0.0908893577175133,1
856,473,43,0.110637833576503,1
856,474,43,0.127309304139288,1
856,475,43,0.128717968124893,1
856,476,43,0.097395110269575,1
856,477,43,0.0715935445646219,1
857,474,43,0.10366744796944,1
857,475,43,0.103098668708123,1
857,477,43,0.075522057362913,1
839,470,44,0.0717692139532059,1
842,470,44,0.0754861393647802,1
847,511,44,0.0746538386420325,1
847,512,44,0.0827754701218979,1
851,472,44,0.0716718314806218,1
851,473,44,0.0712090475039056,1
852,472,44,0.0752398643816471,1
852,473,44,0.0743700746393658,1
853,473,44,0.0790411870092713,1
853,474,44,0.0788968685344823,1
853,475,44,0.0766112061818496,1
854,473,44,0.094431294979872,1
854,474,44,0.106818110534508,1
854,475,44,0.109132572629015,1
854,476,44,0.0801399148878997,1
855,473,44,0.106873735814372,1
855,474,44,0.127432497242232,1
855,475,44,0.133043115166935,1
855,476,44,0.097176314258112,1
856,474,44,0.120263148031035,1
856,475,44,0.125164109173586,1
856,476,44,0.0995466101751469,1
856,477,44,0.0783128587072846,1
857,475,44,0.0985576800090224,1
857,477,44,0.0790537690833221,1
844,470,45,0.0698153221244525,1
851,472,45,0.0699538292103429,1
851,473,45,0.0701334956666503,1
852,473,45,0.0726164324278392,1
853,474,45,0.0786781072801299,1
853,475,45,0.0776146787230649,1
854,473,45,0.0894776003490615,1
854,474,45,0.0988013621117019,1
854,475,45,0.101803514494438,1
854,476,45,0.0818642012437818,1
855,473,45,0.0976951823085528,1
855,474,45,0.112372783413929,1
855,475,45,0.117249915081427,1
855,476,45,0.0940808946446911,1
855,477,45,0.0723616558554442,1
856,474,45,0.105290459056346,1
856,475,45,0.107786248997049,1
856,476,45,0.0919119119124686,1
856,477,45,0.0776639573545268,1
857,475,45,0.090256243044407,1
857,477,45,0.076898550166912,1
858,478,45,0.0700730878083623,1
852,473,46,0.0707947914050615,1
853,474,46,0.0790104547720456,1
853,475,46,0.0766752982938652,1
854,473,46,0.0862304450934416,1
854,474,46,0.0920094542677617,1
854,475,46,0.0923805142295055,1
854,476,46,0.0814273808287118,1
855,474,46,0.0981654182097897,1
855,475,46,0.0997156340041771,1
855,476,46,0.0881730130555493,1
855,477,46,0.0748336858353151,1
856,475,46,0.0931055197517152,1
856,477,46,0.075232989425163,1
857,478,46,0.071128105144653,1
858,479,46,0.0704026547314271,1
830,478,47,0.0732527517065463,1
831,478,47,0.0736008928295358,1
853,475,47,0.0725504425775829,1
854,474,47,0.0836059704263146,1
854,475,47,0.0804804998150366,1
854,476,47,0.0747410442326219,1
855,475,47,0.0833995548976606,1
855,476,47,0.0780538417673918,1
855,477,47,0.0729431840249424,1
856,477,47,0.0722962429732245,1
856,478,47,0.0708067200454323,1
857,478,47,0.072289291551097,1
857,479,47,0.0724770147056501,1
858,479,47,0.073565795099214,1
829,478,48,0.0731734776886043,1
829,479,48,0.0700784473548226,1
830,477,48,0.0706627908502824,1
830,478,48,0.0877568592184644,1
830,479,48,0.0791007885025925,1
831,478,48,0.0782700309955571,1
831,479,48,0.0698309558728172,1
831,484,48,0.0714342110180374,1
855,477,48,0.069943965142344,1
856,478,48,0.0726774728655408,1
856,479,48,0.0757443082311734,1
857,479,48,0.0764483482642466,1
829,478,49,0.0800247228718249,1
829,479,49,0.0762728526612157,1
830,477,49,0.0729125282533601,1
830,478,49,0.0927013918749109,1
830,479,49,0.0854760698127432,1
830,483,49,0.0732199548969488,1
830,484,49,0.0814950181660124,1
831,478,49,0.0736854638311389,1
831,484,49,0.0756680580818568,1
856,478,49,0.0721635542276547,1
856,479,49,0.0750890393757467,1
829,478,50,0.0773761059156491,1
829,479,50,0.0739303554812686,1
830,478,50,0.0839899113732607,1
830,479,50,0.0792598857008246,1
830,483,50,0.0835174996768979,1
830,484,50,0.0861427807089917,1
859,492,57,0.0811404956375099,1
859,493,57,0.0735607970267044,1
860,492,57,0.0779688814861495,1
845,484,58,0.0787662999726614,1
846,484,58,0.0707150516418369,1
858,492,58,0.0714471337117725,1
859,492,58,0.0893968943381612,1
845,484,59,0.0829032303091792,1
845,485,59,0.0729910028577574,1
846,484,59,0.0716518044334724,1
858,492,59,0.0707954587415857,1
845,484,60,0.0727690161435379,1
