x,y,z,signal,cytoplasm.p
903,731,8,0.0885984817982851,1
903,732,8,0.0864270035055188,1
902,731,9,0.0887166420716083,1
902,732,9,0.086655566265071,1
903,731,9,0.100383867261872,1
903,732,9,0.0987247226827462,1
906,745,9,0.0697820804238388,1
908,744,9,0.0705576714448703,1
901,732,10,0.0708032373829464,1
902,731,10,0.0938202580234426,1
902,732,10,0.0955962838142197,1
903,731,10,0.0937285687655809,1
903,732,10,0.0938102896841118,1
906,745,10,0.0710930838799746,1
907,744,10,0.0736313053013436,1
907,745,10,0.0705399661727116,1
908,743,10,0.0707153575044105,1
908,744,10,0.0828625575383112,1
909,744,10,0.0750242590729406,1
911,743,10,0.0748695134649603,1
912,743,10,0.0712673560327111,1
953,749,10,0.0986075356085208,1
954,748,10,0.11085713009036,1
954,749,10,0.113211326513747,1
901,731,11,0.071670100576512,1
901,732,11,0.0862164101721661,1
901,733,11,0.0699526474685812,1
902,731,11,0.081615215206019,1
902,732,11,0.0892580396811644,1
903,731,11,0.0738604172232439,1
903,732,11,0.0749914136033881,1
907,744,11,0.0774751428266996,1
908,743,11,0.0733317963275581,1
908,744,11,0.0810580587224999,1
909,743,11,0.070757580442413,1
909,744,11,0.0766827780240744,1
910,743,11,0.07708893571614,1
910,744,11,0.0756373814560082,1
911,743,11,0.0852681388740654,1
911,744,11,0.0756417052405715,1
912,736,11,0.0725219973582371,1
912,743,11,0.0736128840327057,1
913,736,11,0.0701616489262667,1
952,749,11,0.0816291597588068,1
953,748,11,0.100628605980714,1
953,749,11,0.106426432654734,1
953,750,11,0.115469204032136,1
953,751,11,0.12592644383262,1
954,747,11,0.108777056047148,1
954,748,11,0.116888302102355,1
954,749,11,0.121810145316977,1
954,750,11,0.125463437410396,1
955,748,11,0.120529693361092,1
955,749,11,0.122972923599088,1
900,732,12,0.0710300831412331,1
901,732,12,0.0852688479191224,1
901,733,12,0.0753725809329053,1
902,732,12,0.073733664992171,1
907,744,12,0.0770575222395458,1
908,743,12,0.0711236284288029,1
908,744,12,0.0746750682852098,1
909,743,12,0.0756009699069043,1
909,744,12,0.0770546513022071,1
910,743,12,0.0823133951902387,1
910,744,12,0.0816960185368291,1
911,743,12,0.0797268544336615,1
911,744,12,0.0764038174540978,1
911,746,12,0.0806857544561952,1
912,736,12,0.0764973140817127,1
913,736,12,0.0776450286320736,1
923,741,12,0.0741386548453192,1
924,740,12,0.0726826794807143,1
924,741,12,0.080619771557361,1
924,742,12,0.0733439752191255,1
952,749,12,0.0863547643267698,1
952,750,12,0.0979162166779409,1
952,751,12,0.111718557271822,1
953,748,12,0.105914411755088,1
953,749,12,0.11372876257123,1
953,750,12,0.126498629290779,1
953,751,12,0.140034688708644,1
953,752,12,0.13054519113964,1
954,747,12,0.114050717687065,1
954,748,12,0.123204127899049,1
954,749,12,0.128741436125996,1
954,750,12,0.133604623240706,1
954,751,12,0.13936956273664,1
955,748,12,0.128827063743762,1
955,749,12,0.130184745999484,1
900,733,13,0.0766566545797192,1
901,732,13,0.0708539688616329,1
901,733,13,0.0709141612258349,1
902,729,13,0.0705068009377413,1
902,730,13,0.0718467501156161,1
906,744,13,0.0699269689152422,1
907,744,13,0.070828623976556,1
909,743,13,0.074715365679283,1
909,744,13,0.0755135488222289,1
910,743,13,0.0765657299782915,1
910,744,13,0.0803720020184705,1
910,745,13,0.071163981434253,1
910,746,13,0.0701029580692442,1
910,747,13,0.0794916391631333,1
911,745,13,0.0708403857827958,1
911,746,13,0.0853027986647931,1
911,747,13,0.103596126378411,1
912,746,13,0.0861979889035283,1
913,735,13,0.0704397822770101,1
913,736,13,0.0733858158289109,1
923,740,13,0.0759631598540135,1
923,741,13,0.083162845071375,1
923,742,13,0.0759961513034306,1
924,740,13,0.0802485656157525,1
924,741,13,0.0916987187472403,1
924,742,13,0.0830047141208186,1
924,743,13,0.0716053063708616,1
925,741,13,0.079639975559912,1
925,742,13,0.0734955926871484,1
925,744,13,0.074743664918764,1
951,750,13,0.0742699741607298,1
952,749,13,0.0952040637235198,1
952,750,13,0.104579467601145,1
952,751,13,0.11616553493807,1
953,748,13,0.112747374698114,1
953,749,13,0.120954216710418,1
953,750,13,0.132729467000543,1
953,751,13,0.144002254596447,1
953,752,13,0.134288657080897,1
954,748,13,0.129479607641715,1
954,749,13,0.133398736020134,1
954,750,13,0.13789324751089,1
954,751,13,0.142956329720299,1
900,733,14,0.0728960255772294,1
902,729,14,0.0757055123442798,1
902,730,14,0.077199449425123,1
903,747,14,0.0702460808994273,1
907,757,14,0.0742581497916909,1
907,758,14,0.123883698926233,1
907,759,14,0.153867573851353,1
908,758,14,0.0919615311636147,1
908,759,14,0.107435292548098,1
909,743,14,0.0699405241883909,1
909,744,14,0.071547428830228,1
910,744,14,0.072149776508998,1
910,745,14,0.0723109660852905,1
910,746,14,0.0717449465385588,1
910,747,14,0.0758131203588135,1
911,745,14,0.071301480563935,1
911,746,14,0.0841280917423111,1
911,747,14,0.0945310339845574,1
911,748,14,0.0867063742094009,1
912,746,14,0.082218980974903,1
912,747,14,0.0929227599125611,1
912,748,14,0.0888455492435407,1
912,749,14,0.0796349705359802,1
913,745,14,0.0827998348564548,1
913,746,14,0.0771579355321775,1
913,747,14,0.0802589301861446,1
913,748,14,0.0815101722662504,1
913,749,14,0.0754617329216905,1
914,746,14,0.0738957026419631,1
922,741,14,0.0743139697113747,1
923,740,14,0.0779610333305676,1
923,741,14,0.08752926965801,1
923,742,14,0.0799015367203035,1
924,740,14,0.0799752843576541,1
924,741,14,0.0956364908398052,1
924,742,14,0.0896206953735561,1
924,743,14,0.0776128574504675,1
924,744,14,0.0768144171049029,1
925,741,14,0.0841646006113247,1
925,742,14,0.081629229273028,1
925,743,14,0.0709278068674712,1
929,757,14,0.0699466066827524,1
929,758,14,0.0743197880516955,1
929,759,14,0.0712424490872282,1
930,757,14,0.0752334412676013,1
951,749,14,0.0798160342281352,1
951,750,14,0.0791314512255969,1
951,751,14,0.0842137958257211,1
952,748,14,0.0970973739084321,1
952,749,14,0.102873713736655,1
952,750,14,0.108096463160911,1
952,751,14,0.115345579941021,1
952,752,14,0.113332607975606,1
953,748,14,0.115874367670838,1
953,749,14,0.124002026033688,1
953,750,14,0.133317320964177,1
953,751,14,0.140773027058494,1
953,752,14,0.133386529322878,1
954,749,14,0.134628526011554,1
954,750,14,0.140928891845437,1
954,751,14,0.14558954232504,1
902,729,15,0.0720299270400978,1
902,730,15,0.0735270200665868,1
906,758,15,0.0924894569170877,1
906,759,15,0.107643786551968,1
907,758,15,0.10667637798875,1
907,759,15,0.125922106145213,1
907,760,15,0.0924515925207592,1
908,758,15,0.0814175167607129,1
908,759,15,0.0932514301021714,1
908,760,15,0.070501552614035,1
910,745,15,0.0703819116877986,1
910,746,15,0.0731113180719402,1
911,746,15,0.0799045953460396,1
911,747,15,0.0809607388127149,1
911,748,15,0.0729136752380111,1
912,746,15,0.0749069955330718,1
912,747,15,0.080804053757961,1
912,748,15,0.0768377391261406,1
913,744,15,0.0962275841661508,1
913,745,15,0.092410912798469,1
913,746,15,0.0763318007208569,1
913,747,15,0.0739930990173915,1
913,748,15,0.0732981166873504,1
914,745,15,0.136993844710346,1
914,746,15,0.0847407066715634,1
915,745,15,0.114515253422157,1
920,765,15,0.0736249447500969,1
921,765,15,0.082448892310348,1
922,741,15,0.0709473612179159,1
922,764,15,0.0725023039793499,1
922,765,15,0.0865681312775513,1
923,740,15,0.0706326981438924,1
923,741,15,0.0830461376452764,1
923,742,15,0.0796167856156947,1
923,763,15,0.0719292773991137,1
923,764,15,0.0805736905800778,1
923,765,15,0.0919046407249232,1
924,740,15,0.0726335746348056,1
924,741,15,0.09006383463134,1
924,742,15,0.0894794355245031,1
924,743,15,0.0770908821143357,1
924,763,15,0.078270677477815,1
924,764,15,0.089330042511561,1
925,741,15,0.0814485479090901,1
925,742,15,0.084165156725095,1
925,743,15,0.0720889515653824,1
925,764,15,0.0916098031068074,1
926,764,15,0.0881339321603485,1
927,762,15,0.0722352859525884,1
928,758,15,0.0721910957621239,1
929,757,15,0.0750132549717127,1
929,758,15,0.0850394648917591,1
929,759,15,0.0779932392692843,1
929,760,15,0.0705580676759316,1
930,756,15,0.0723914913592155,1
930,757,15,0.0803642650856426,1
930,758,15,0.0848343701333094,1
930,759,15,0.0774751845352324,1
931,755,15,0.0701203922359399,1
931,756,15,0.0787919368174677,1
931,757,15,0.0805819627724095,1
931,758,15,0.078705975531439,1
931,759,15,0.0746861488520811,1
932,755,15,0.071130176668447,1
932,756,15,0.0770082158023954,1
932,757,15,0.0762072451391764,1
932,758,15,0.0742019614466343,1
934,754,15,0.0706056015004394,1
934,755,15,0.0701343089830392,1
935,746,15,0.0795000086753748,1
935,753,15,0.0735210557464014,1
935,754,15,0.0796190795849968,1
935,755,15,0.074195016975929,1
936,746,15,0.0766778286115196,1
950,748,15,0.0713751169785316,1
950,749,15,0.0716121118131244,1
950,750,15,0.0710319808794739,1
950,751,15,0.070847761241673,1
951,748,15,0.0866603210378062,1
951,749,15,0.0901266059731513,1
951,750,15,0.0899499008226702,1
951,751,15,0.090476505805939,1
951,752,15,0.0905924694298699,1
952,748,15,0.100301277415575,1
952,749,15,0.10749388608521,1
952,750,15,0.111452526347002,1
952,751,15,0.114540382813148,1
952,752,15,0.112590738303315,1
953,749,15,0.122976677367037,1
953,750,15,0.130214067098018,1
953,751,15,0.135077615686679,1
954,750,15,0.140387668021434,1
906,758,16,0.0827459126750118,1
906,759,16,0.0941797299644999,1
906,760,16,0.0779914527537975,1
907,758,16,0.0901912472475149,1
907,759,16,0.108179629975244,1
907,760,16,0.0872016004731861,1
908,759,16,0.0802774279204259,1
910,746,16,0.0716331259622159,1
911,746,16,0.0726401506801383,1
913,744,16,0.0893929667846592,1
913,745,16,0.0880702432308164,1
914,744,16,0.150631923199354,1
914,745,16,0.143411870315159,1
914,746,16,0.084708028036142,1
915,744,16,0.123523573551496,1
915,745,16,0.116835012500325,1
915,767,16,0.0796818231211196,1
915,768,16,0.117594358047845,1
916,767,16,0.0835309228730261,1
916,768,16,0.123966851837722,1
916,772,16,0.108769666685426,1
916,773,16,0.101823652764341,1
917,767,16,0.0831270035388856,1
917,768,16,0.111099373248659,1
917,769,16,0.130600357625643,1
917,770,16,0.128581497805686,1
917,771,16,0.114889983734784,1
917,772,16,0.107725215510769,1
917,773,16,0.105029996220651,1
918,766,16,0.0716111177597602,1
918,767,16,0.0837753418264511,1
918,768,16,0.0961847495030011,1
918,769,16,0.10496072529915,1
918,770,16,0.105612928577419,1
918,771,16,0.1027195729024,1
918,772,16,0.103384399963252,1
919,766,16,0.0799276323589701,1
919,767,16,0.0865744084117324,1
919,768,16,0.0904064146166274,1
919,769,16,0.0941882246023397,1
919,770,16,0.0968059146814703,1
919,771,16,0.0981769436676771,1
919,772,16,0.100577054234217,1
920,765,16,0.0778109868839455,1
920,766,16,0.0932038893262415,1
920,767,16,0.0949467081735155,1
920,768,16,0.0925418219799741,1
920,769,16,0.0928316684770024,1
920,770,16,0.0957346310174012,1
921,764,16,0.0707989135983831,1
921,765,16,0.0885971401738145,1
921,766,16,0.105724137428614,1
921,767,16,0.105967346834589,1
921,768,16,0.100824740356042,1
921,769,16,0.0994843879956837,1
921,770,16,0.101781110060921,1
922,763,16,0.0703068988916208,1
922,764,16,0.0784149542440712,1
922,765,16,0.0934665627141733,1
922,766,16,0.106628677330111,1
922,767,16,0.107916330959321,1
922,768,16,0.105994179324001,1
922,769,16,0.10491609021767,1
923,741,16,0.0750168627597969,1
923,742,16,0.0757743800832969,1
923,763,16,0.0760389512094696,1
923,764,16,0.0867386079538061,1
923,765,16,0.099169273079222,1
923,766,16,0.106102628460613,1
923,767,16,0.106658172214198,1
923,768,16,0.105893884205546,1
923,769,16,0.105503756492906,1
924,741,16,0.0794939053267469,1
924,742,16,0.0824916087993215,1
924,743,16,0.0716551897760485,1
924,763,16,0.079461039002928,1
924,764,16,0.0921271070872696,1
924,765,16,0.103562703940822,1
924,766,16,0.107031651270842,1
924,767,16,0.10508325106557,1
924,768,16,0.102483620781126,1
925,741,16,0.0715192060563904,1
925,742,16,0.0773081627157749,1
925,763,16,0.0781145415854092,1
925,764,16,0.0888461262115773,1
925,765,16,0.0990033634873049,1
925,766,16,0.103160807470521,1
925,767,16,0.102969490430728,1
925,768,16,0.0995314352206426,1
926,763,16,0.076939660877374,1
926,764,16,0.0851995561433554,1
926,765,16,0.0943522016989053,1
926,766,16,0.101902447134157,1
926,767,16,0.103993476618641,1
927,762,16,0.072226979003146,1
927,763,16,0.0793459721124515,1
927,764,16,0.0859692176013123,1
927,765,16,0.0941322169942585,1
927,766,16,0.101856171517054,1
927,767,16,0.10316871123748,1
928,758,16,0.0737136101393332,1
928,759,16,0.07172276455055,1
928,762,16,0.0755917801268518,1
928,763,16,0.0844684333696735,1
928,765,16,0.0970684768466481,1
928,766,16,0.101257139666639,1
929,757,16,0.0749536604298137,1
929,758,16,0.0884498742960434,1
929,759,16,0.081762529743745,1
929,760,16,0.0725692322715935,1
929,761,16,0.0707101300349707,1
929,762,16,0.0790123872673971,1
929,763,16,0.0901788598132837,1
930,756,16,0.0744168368560175,1
930,757,16,0.0801652250158659,1
930,758,16,0.0861830850544869,1
930,759,16,0.0789529108996742,1
930,760,16,0.0727456385109231,1
930,761,16,0.0727190771269739,1
930,762,16,0.082096907050922,1
930,763,16,0.0940416747210478,1
931,755,16,0.0700005149613512,1
931,756,16,0.0778513398893956,1
931,757,16,0.0781687765808479,1
931,758,16,0.0773674096865676,1
931,759,16,0.074268458750706,1
931,760,16,0.0734681067640563,1
931,761,16,0.076899857034272,1
931,762,16,0.0875924233280384,1
932,755,16,0.0697540383869764,1
932,756,16,0.0744334646577465,1
932,757,16,0.0732762822704479,1
932,758,16,0.0719247728775751,1
932,759,16,0.0726258237991335,1
932,760,16,0.0752888301991132,1
932,761,16,0.0823357857209114,1
932,763,16,0.104770687321029,1
933,758,16,0.0699757887528437,1
934,746,16,0.0824793673449549,1
934,754,16,0.0699215815630934,1
934,755,16,0.0700452056542089,1
935,745,16,0.0850066680821616,1
935,746,16,0.0969005443908919,1
935,747,16,0.0827735167722801,1
935,753,16,0.0739015487879723,1
935,754,16,0.0846003296531207,1
935,755,16,0.0799781761492592,1
935,756,16,0.0715996896217826,1
936,745,16,0.084288106528264,1
936,746,16,0.0878942749310808,1
936,747,16,0.0739959212947752,1
936,753,16,0.0924800516429492,1
936,754,16,0.106956972142927,1
936,755,16,0.0954865764702035,1
950,748,16,0.0748786337307916,1
950,749,16,0.0823199434298828,1
950,750,16,0.0884298194432055,1
950,751,16,0.0851644584130337,1
950,752,16,0.0783680877560876,1
951,747,16,0.0807068450709301,1
951,748,16,0.0895134210272845,1
951,749,16,0.100436906612704,1
951,750,16,0.105958455965688,1
951,751,16,0.102292477526886,1
951,752,16,0.0952834350613716,1
952,748,16,0.0994972898351523,1
952,749,16,0.109736254980833,1
952,750,16,0.11562337267208,1
952,751,16,0.11624362721425,1
952,752,16,0.113334797673576,1
953,749,16,0.121033782688089,1
953,750,16,0.127638287142894,1
953,751,16,0.131754905423956,1
906,759,17,0.0760208219005611,1
907,759,17,0.0846903714239382,1
907,760,17,0.0750145131791178,1
912,767,17,0.0748098285545736,1
912,768,17,0.0856252751372878,1
913,744,17,0.0733473188531688,1
913,745,17,0.0752910268485055,1
913,767,17,0.0763700682996688,1
913,768,17,0.0945271342367439,1
913,769,17,0.107553869906749,1
913,770,17,0.107736761822923,1
914,744,17,0.114938845280919,1
914,745,17,0.117420502980436,1
914,746,17,0.0728731901555406,1
914,767,17,0.0805351171386923,1
914,768,17,0.111697424948554,1
914,771,17,0.126312706554557,1
914,772,17,0.104373065975336,1
915,744,17,0.0950554423184339,1
915,745,17,0.0974098889930181,1
915,767,17,0.0838978258843377,1
915,772,17,0.119969172389263,1
915,773,17,0.107534246042083,1
915,774,17,0.0993241646670669,1
916,767,17,0.0869093904926345,1
916,768,17,0.128549410041146,1
916,771,17,0.148827459140653,1
916,772,17,0.122597755346867,1
916,773,17,0.11168205535423,1
916,774,17,0.102788822969634,1
917,767,17,0.0879615786001193,1
917,768,17,0.114141190446054,1
917,769,17,0.135698794767993,1
917,770,17,0.138349274705299,1
917,771,17,0.126363146073514,1
917,772,17,0.116760215198233,1
917,773,17,0.112842421492863,1
917,774,17,0.105807297291526,1
917,775,17,0.100067056198411,1
918,766,17,0.0775988920434134,1
918,767,17,0.0932081574994278,1
918,768,17,0.105036002249369,1
918,769,17,0.113414912813595,1
918,770,17,0.115971256592451,1
918,771,17,0.114916350478914,1
918,772,17,0.113353079913771,1
918,773,17,0.112619072299906,1
918,774,17,0.107861400821669,1
918,775,17,0.103008077774958,1
918,776,17,0.0990009582952488,1
919,765,17,0.0719576878613488,1
919,766,17,0.088612544525249,1
919,767,17,0.101544441943168,1
919,768,17,0.106418591450574,1
919,769,17,0.109029302301888,1
919,770,17,0.111622697160683,1
919,771,17,0.113748928646822,1
919,772,17,0.112875329525215,1
919,773,17,0.111689854849857,1
919,774,17,0.108422915846862,1
919,775,17,0.10450325220894,1
919,776,17,0.0991961889856997,1
919,777,17,0.0964254285913216,1
919,778,17,0.0926537815847596,1
920,765,17,0.0811909421078892,1
920,766,17,0.100662188301012,1
920,767,17,0.110517066519882,1
920,768,17,0.112835435313625,1
920,769,17,0.112663526644412,1
920,770,17,0.112897671395932,1
920,771,17,0.113529924092695,1
920,772,17,0.112099356175966,1
920,773,17,0.110390265628855,1
920,774,17,0.108137900588213,1
920,775,17,0.1051634009627,1
920,776,17,0.0994243207570799,1
920,777,17,0.0948491797210667,1
920,778,17,0.0905448660911408,1
920,779,17,0.086368569851115,1
921,764,17,0.0750152291755969,1
921,765,17,0.0919999377708691,1
921,766,17,0.110539380584912,1
921,767,17,0.11707211160625,1
921,768,17,0.118402266230347,1
921,769,17,0.118225992068038,1
921,770,17,0.117882077409702,1
921,771,17,0.117393906839376,1
921,772,17,0.115926134911421,1
921,773,17,0.114067839039765,1
921,774,17,0.111932084105312,1
921,775,17,0.108956270661017,1
921,776,17,0.103257223695429,1
921,777,17,0.0970587031471368,1
921,778,17,0.0908545310926546,1
921,779,17,0.0856073613224652,1
922,763,17,0.0729678754763392,1
922,764,17,0.0831357414764999,1
922,765,17,0.0967584156140731,1
922,766,17,0.108679944680027,1
922,767,17,0.111816238655557,1
922,768,17,0.114109408544087,1
922,769,17,0.115654125763572,1
922,770,17,0.117556889882578,1
922,771,17,0.118490451971457,1
922,772,17,0.119372948913387,1
922,773,17,0.11881873983285,1
922,774,17,0.115896445387515,1
922,775,17,0.111756623259392,1
922,776,17,0.106200879860963,1
922,777,17,0.100301638889525,1
922,778,17,0.0927657620438115,1
922,779,17,0.0858379260915902,1
923,763,17,0.0777485214047078,1
923,764,17,0.0898623407095522,1
923,765,17,0.101460531326667,1
923,766,17,0.108287543852351,1
923,768,17,0.110695989174022,1
923,769,17,0.111930853703595,1
923,770,17,0.114896038423457,1
923,771,17,0.118278044316929,1
923,772,17,0.123032108007082,1
923,773,17,0.12501810150322,1
923,774,17,0.120349929584874,1
923,775,17,0.114004581098405,1
923,776,17,0.108938676611612,1
923,777,17,0.10422108008194,1
923,778,17,0.0960551193831675,1
923,779,17,0.0865010778597094,1
924,763,17,0.0784738188866469,1
924,764,17,0.0902671150686144,1
924,765,17,0.101578920996921,1
924,766,17,0.109051762346782,1
924,768,17,0.108477053522391,1
924,769,17,0.106538837150535,1
924,770,17,0.108103303360284,1
924,771,17,0.112075172178384,1
924,772,17,0.118609613249566,1
924,773,17,0.122089801029166,1
924,774,17,0.117855467365798,1
924,775,17,0.1123757586226,1
924,776,17,0.108815393140181,1
924,777,17,0.105350150918155,1
924,778,17,0.0975477774023392,1
925,763,17,0.07588228005756,1
925,764,17,0.0852199724701439,1
925,765,17,0.0965057383711606,1
925,766,17,0.106637644664656,1
925,767,17,0.110398558675453,1
925,768,17,0.105461033052511,1
925,769,17,0.100711543398118,1
925,770,17,0.0998310067572272,1
925,771,17,0.102291003825395,1
925,772,17,0.106959460752048,1
925,774,17,0.10961244320132,1
925,775,17,0.108147493550749,1
925,776,17,0.105851835053097,1
925,777,17,0.102126679157723,1
926,763,17,0.0760260910785337,1
926,764,17,0.0835425039422905,1
926,765,17,0.0934191192581531,1
926,766,17,0.104546149434888,1
926,767,17,0.108706082027226,1
926,768,17,0.102840840461414,1
926,769,17,0.0966952410897783,1
926,770,17,0.0939990764062505,1
927,762,17,0.0721507288538295,1
927,763,17,0.0793978505757891,1
927,764,17,0.0859674171829812,1
927,765,17,0.0935626591736639,1
927,766,17,0.102213822185514,1
927,767,17,0.105147468303183,1
927,768,17,0.0996899971593709,1
927,769,17,0.0936486760710696,1
928,758,17,0.0721510555706695,1
928,759,17,0.0725771986013516,1
928,762,17,0.0748441685798834,1
928,763,17,0.0845811159223603,1
928,764,17,0.0926893103032533,1
928,765,17,0.0987661740128925,1
928,766,17,0.103360633050998,1
928,767,17,0.103267908031239,1
928,768,17,0.0979270400421935,1
928,769,17,0.0915035506195886,1
929,757,17,0.0734116195078482,1
929,758,17,0.0823302454374758,1
929,759,17,0.079441519409594,1
929,760,17,0.0723074973256489,1
929,761,17,0.0703934023885754,1
929,762,17,0.0779191788179379,1
929,763,17,0.0895732380146916,1
929,764,17,0.0990946843197939,1
929,765,17,0.104608413322884,1
929,766,17,0.105120183971333,1
929,767,17,0.101348863681611,1
929,768,17,0.0949388461150893,1
930,756,17,0.0721797162841012,1
930,757,17,0.0765370136534828,1
930,758,17,0.0794344428618682,1
930,759,17,0.0754492829246601,1
930,760,17,0.0714245068327475,1
930,761,17,0.0725330779251084,1
930,762,17,0.0820987283235194,1
930,763,17,0.0951572876040239,1
930,764,17,0.104789226763843,1
930,765,17,0.109000015960465,1
930,766,17,0.106187873750162,1
930,767,17,0.0999502236467138,1
930,768,17,0.0929221412359918,1
931,756,17,0.0719583830035616,1
931,757,17,0.0733442046160557,1
931,758,17,0.0726154314230529,1
931,759,17,0.071108203223102,1
931,760,17,0.0716074752145654,1
931,761,17,0.076571916743985,1
931,762,17,0.0890072323708042,1
931,763,17,0.103521064922279,1
931,764,17,0.112286516265327,1
931,765,17,0.114201320247457,1
931,766,17,0.108617986654604,1
931,767,17,0.101570641853167,1
932,757,17,0.0701276495206411,1
932,760,17,0.0724656213247831,1
932,761,17,0.0810695563746988,1
932,762,17,0.0969004262167158,1
932,763,17,0.112718776547481,1
932,764,17,0.119700527729723,1
932,765,17,0.118429738250595,1
933,760,17,0.0736481972571134,1
933,761,17,0.0857696492234539,1
933,762,17,0.10392795946509,1
933,763,17,0.119552253895744,1
933,764,17,0.122693837903513,1
933,765,17,0.117804179773341,1
933,766,17,0.111549359657238,1
934,746,17,0.0842328427223504,1
934,747,17,0.0758844210955753,1
934,754,17,0.0707528534753663,1
934,755,17,0.0727949588509177,1
934,760,17,0.0781751788406274,1
934,761,17,0.0950431661069567,1
934,762,17,0.116036801551691,1
934,763,17,0.131529901792533,1
934,764,17,0.128942471253923,1
934,765,17,0.121521508367399,1
935,745,17,0.0815405708352139,1
935,746,17,0.102329751052334,1
935,747,17,0.0856414510965785,1
935,753,17,0.0752580771076211,1
935,754,17,0.0921946192989719,1
935,755,17,0.0925895017843466,1
935,756,17,0.0796312376222978,1
935,759,17,0.0744150155834201,1
935,761,17,0.107205318649854,1
935,762,17,0.129676513624899,1
935,763,17,0.144429989502796,1
936,745,17,0.0796108977611527,1
936,746,17,0.0910753916764895,1
936,747,17,0.0761562217007605,1
936,753,17,0.092967895496435,1
936,754,17,0.116346028613611,1
936,755,17,0.11204003273953,1
936,756,17,0.0923566430459196,1
936,757,17,0.0765552611365675,1
936,760,17,0.097261858458813,1
936,761,17,0.118004464147679,1
937,746,17,0.070170880414852,1
937,753,17,0.103917886854427,1
937,754,17,0.123376759516163,1
937,755,17,0.115117427315374,1
937,756,17,0.0974174799459813,1
937,757,17,0.082839534428225,1
942,745,17,0.0705690300686267,1
943,746,17,0.0697624009477958,1
946,746,17,0.0701214001921484,1
947,745,17,0.0700342154558253,1
947,746,17,0.070439886548342,1
948,745,17,0.0736938124891141,1
948,746,17,0.0730315018430723,1
949,749,17,0.0740699191833225,1
949,750,17,0.0823316704790119,1
949,751,17,0.0795060842183142,1
949,752,17,0.0717612406720257,1
950,748,17,0.0768857456473531,1
950,749,17,0.09186084676552,1
950,750,17,0.106663524809236,1
950,751,17,0.0997540614656979,1
950,752,17,0.0850138419497972,1
950,753,17,0.0814568618099546,1
951,748,17,0.0870844203503828,1
951,749,17,0.103247234501832,1
951,750,17,0.116440123063528,1
951,751,17,0.109754822229336,1
951,752,17,0.0974949396427481,1
951,753,17,0.0949809369760713,1
952,748,17,0.0947352320095527,1
952,749,17,0.105866300962544,1
952,750,17,0.114859884076972,1
952,751,17,0.114231760524954,1
952,752,17,0.111543791568114,1
953,749,17,0.117028248132626,1
953,750,17,0.124175797684031,1
953,751,17,0.127172875528614,1
911,767,18,0.07282365432146,1
911,768,18,0.0806540142627611,1
912,767,18,0.0754072198693666,1
912,768,18,0.0877907195956475,1
912,769,18,0.0957465388035057,1
913,767,18,0.077734027689572,1
913,768,18,0.0986132774831981,1
914,744,18,0.0745514163884059,1
914,745,18,0.0782923867691191,1
914,767,18,0.083114484027634,1
915,767,18,0.0875326410977419,1
915,773,18,0.118839079693995,1
916,767,18,0.091378557098314,1
916,772,18,0.130438180947409,1
916,773,18,0.119215040408339,1
916,774,18,0.109250427039764,1
916,775,18,0.102892788438973,1
917,766,18,0.0736095612529288,1
917,767,18,0.0955738515750143,1
917,768,18,0.119701792888551,1
917,771,18,0.130859367614114,1
917,772,18,0.120414605616349,1
917,773,18,0.1163476274407,1
917,774,18,0.110023863119936,1
917,775,18,0.105178151880454,1
917,776,18,0.102641244277867,1
918,766,18,0.083136401861602,1
918,767,18,0.104388289589795,1
918,768,18,0.117484928760714,1
918,769,18,0.122496612154912,1
918,770,18,0.12605576808988,1
918,771,18,0.12461052572104,1
918,772,18,0.119224049451416,1
918,773,18,0.115231604423818,1
918,774,18,0.110888147335893,1
918,775,18,0.106161687743008,1
918,776,18,0.101647816541626,1
918,777,18,0.100810343960816,1
918,778,18,0.0976821275377974,1
918,779,18,0.09334033183976,1
918,780,18,0.0841768073085806,1
919,765,18,0.0732535441686689,1
919,766,18,0.0940127011936203,1
919,767,18,0.116022731873305,1
919,768,18,0.125548675748524,1
919,769,18,0.124656113147353,1
919,770,18,0.126940920475064,1
919,771,18,0.12744970896342,1
919,772,18,0.121491172361235,1
919,773,18,0.115367914860316,1
919,774,18,0.110730947875901,1
919,775,18,0.105977363833875,1
919,776,18,0.100077469428758,1
919,777,18,0.0972302990023541,1
919,778,18,0.0945056404395256,1
919,779,18,0.0920517675742517,1
919,780,18,0.0847252119516412,1
919,781,18,0.0783979927740801,1
920,765,18,0.0810668870286018,1
920,766,18,0.101799357544006,1
920,767,18,0.121736460242426,1
920,768,18,0.13175416857321,1
920,769,18,0.130235296741196,1
920,770,18,0.127791621612183,1
920,771,18,0.125915460585659,1
920,772,18,0.120876124434238,1
920,773,18,0.115595553080726,1
920,774,18,0.110600532245367,1
920,775,18,0.10650268280405,1
920,776,18,0.101152861383304,1
920,777,18,0.0966086124672254,1
920,778,18,0.0923759679994341,1
920,779,18,0.0904841454188571,1
920,780,18,0.085597643234331,1
920,781,18,0.0810272847767415,1
921,764,18,0.0758693295581365,1
921,765,18,0.0906661058444665,1
921,766,18,0.106718482752576,1
921,767,18,0.119831979122154,1
921,768,18,0.128811047667181,1
921,769,18,0.130403521156681,1
921,770,18,0.12801412273164,1
921,771,18,0.125204163267885,1
921,772,18,0.121537872015087,1
921,773,18,0.118071559274054,1
921,774,18,0.11347315182818,1
921,775,18,0.110066280697758,1
921,776,18,0.10619626411667,1
921,777,18,0.101031406135892,1
921,778,18,0.0943263285057468,1
921,779,18,0.0905353009342934,1
921,780,18,0.0866893154195,1
921,781,18,0.0830407433417054,1
922,763,18,0.0706844236759432,1
922,764,18,0.0827417001132025,1
922,765,18,0.096198429901748,1
922,766,18,0.105415702828817,1
922,768,18,0.117303302003366,1
922,769,18,0.121555528627291,1
922,770,18,0.123222006956761,1
922,771,18,0.122212173864299,1
922,772,18,0.120831093121696,1
922,773,18,0.12019464871739,1
922,774,18,0.116226269513198,1
922,775,18,0.112289408056932,1
922,776,18,0.109422662425817,1
922,777,18,0.1061052004868,1
922,778,18,0.0984386438565111,1
922,779,18,0.0921667997076176,1
922,780,18,0.0873262950833092,1
922,781,18,0.0828055558768657,1
923,763,18,0.0746433767517306,1
923,764,18,0.0875021869174013,1
923,765,18,0.0997045395344616,1
923,769,18,0.117007227032112,1
923,770,18,0.119721201259131,1
923,771,18,0.120271322903457,1
923,772,18,0.121904934909108,1
923,773,18,0.124560475481722,1
923,774,18,0.120398923208029,1
923,775,18,0.113717271870453,1
923,776,18,0.110253642378361,1
923,777,18,0.108666966374915,1
923,778,18,0.101222570244399,1
923,779,18,0.0926046906416952,1
923,780,18,0.0859158932421722,1
923,781,18,0.0803894709422769,1
924,763,18,0.0748932942800584,1
924,764,18,0.0860923411900345,1
924,765,18,0.0982780312482552,1
924,769,18,0.112111194447849,1
924,770,18,0.112452975019592,1
924,771,18,0.113141256178702,1
924,772,18,0.116356163787072,1
924,773,18,0.120642473233688,1
924,774,18,0.117783353312647,1
924,775,18,0.111716916736199,1
924,776,18,0.108444854535097,1
924,777,18,0.107689853626407,1
924,778,18,0.101266044438384,1
924,779,18,0.092564657401663,1
924,780,18,0.084658408784996,1
924,781,18,0.0781269012139519,1
925,763,18,0.0733146263149032,1
925,764,18,0.0831995763858967,1
925,765,18,0.0962938659761365,1
925,766,18,0.112564587053271,1
925,768,18,0.114277042088692,1
925,769,18,0.105676520187041,1
925,770,18,0.103985614560215,1
925,771,18,0.10408675775217,1
925,772,18,0.10615199050914,1
925,773,18,0.109489799260725,1
925,774,18,0.109238560962192,1
925,775,18,0.1069222497894,1
925,776,18,0.104669843040225,1
925,777,18,0.103244398321604,1
925,778,18,0.098118162442167,1
925,779,18,0.0912369913866875,1
925,780,18,0.0832940462126094,1
925,781,18,0.0759976389077659,1
926,763,18,0.0758590692590763,1
926,764,18,0.084647891283317,1
926,765,18,0.0955560003229909,1
926,766,18,0.10988229740831,1
926,767,18,0.11623169857388,1
926,768,18,0.109950052919786,1
926,769,18,0.102234335832212,1
926,770,18,0.0995014398341624,1
926,771,18,0.0983584105423155,1
926,772,18,0.098431330960433,1
926,773,18,0.100597164698432,1
926,774,18,0.103104320214313,1
926,775,18,0.10405891730655,1
926,776,18,0.101265870652831,1
926,777,18,0.0990968670663419,1
926,778,18,0.0954335927307477,1
926,779,18,0.089906329308775,1
926,780,18,0.0809088116894225,1
926,781,18,0.0719782432165798,1
927,762,18,0.0706110583668095,1
927,763,18,0.080679254876506,1
927,764,18,0.0890893217147078,1
927,765,18,0.0967790404835254,1
927,766,18,0.106160686738221,1
927,767,18,0.110394735393283,1
927,768,18,0.106539122158843,1
927,769,18,0.100799193879723,1
927,770,18,0.0968974232023567,1
927,771,18,0.0948594817286596,1
927,772,18,0.0942315875735711,1
927,773,18,0.0966568344825239,1
927,774,18,0.101731011161648,1
927,775,18,0.104232132843123,1
927,776,18,0.100326684863451,1
927,777,18,0.0976398767941064,1
927,778,18,0.0949270426003168,1
927,779,18,0.0891207768998348,1
927,780,18,0.0785496936591685,1
928,759,18,0.0703189387547456,1
928,762,18,0.074091649328893,1
928,763,18,0.086560540324588,1
928,764,18,0.0966278470522522,1
928,765,18,0.103707258763964,1
928,766,18,0.10874076267222,1
928,767,18,0.109660317645512,1
928,768,18,0.105788876022888,1
928,769,18,0.0997403949697952,1
928,770,18,0.0948080968162932,1
928,771,18,0.0928677672121105,1
928,772,18,0.0923260428857144,1
928,773,18,0.0939692895624341,1
928,774,18,0.0981792793455119,1
928,775,18,0.100131836501217,1
928,776,18,0.0964035455144642,1
928,777,18,0.0941763168162353,1
928,778,18,0.0910951615210201,1
928,779,18,0.0841516223062127,1
929,757,18,0.070230690450837,1
929,758,18,0.0730999246910732,1
929,759,18,0.0734964477120701,1
929,762,18,0.0772615117218773,1
929,763,18,0.0905046799198217,1
929,764,18,0.102196408873084,1
929,765,18,0.110179324724396,1
929,766,18,0.111516013685293,1
929,767,18,0.107752736190972,1
929,768,18,0.101957245194788,1
929,769,18,0.0959167930342524,1
929,770,18,0.0912555238780794,1
929,771,18,0.0891759016773059,1
929,772,18,0.0881017192702097,1
929,773,18,0.0886476283527265,1
929,774,18,0.0916690361747559,1
929,775,18,0.0933823740407872,1
929,776,18,0.0922490975941851,1
929,777,18,0.090747367969137,1
929,778,18,0.0863077171018109,1
929,779,18,0.0778252651049954,1
930,757,18,0.0713311561849972,1
930,758,18,0.0712606270560916,1
930,759,18,0.0706517867490545,1
930,761,18,0.0726074372876063,1
930,762,18,0.082390827081317,1
930,763,18,0.0971833977572599,1
930,764,18,0.109870382670783,1
930,765,18,0.11685871684978,1
930,766,18,0.113975962093506,1
930,767,18,0.10625821519067,1
930,768,18,0.0991862345492131,1
930,769,18,0.093681959480216,1
930,770,18,0.0893493744164976,1
930,771,18,0.0861098379195294,1
930,772,18,0.084044556502605,1
930,773,18,0.0847642094297765,1
930,774,18,0.088393970959294,1
930,775,18,0.0905144883764436,1
930,776,18,0.0907621119354694,1
930,777,18,0.0882220970471916,1
930,778,18,0.0797599918629433,1
931,760,18,0.0705594996688899,1
931,761,18,0.0764971194418931,1
931,762,18,0.0895782986500005,1
931,763,18,0.108085771873679,1
931,764,18,0.121885707275503,1
931,765,18,0.124459596443808,1
931,766,18,0.117645881988654,1
931,767,18,0.108307981033406,1
931,768,18,0.100687859902929,1
931,769,18,0.0938833630335161,1
931,770,18,0.0878389277081017,1
931,771,18,0.0830372189706868,1
931,772,18,0.0808114987310596,1
931,773,18,0.0827739686147184,1
931,774,18,0.0876031771780696,1
931,775,18,0.0898024194508132,1
931,776,18,0.0921583189726221,1
931,777,18,0.0885443232684897,1
932,760,18,0.0709618271273632,1
932,761,18,0.0796385922269087,1
932,762,18,0.0976439642303174,1
932,763,18,0.121551135328506,1
932,764,18,0.135333636563635,1
932,765,18,0.131437183724196,1
932,766,18,0.120807235840954,1
932,767,18,0.111636495733606,1
932,768,18,0.103508309062675,1
932,769,18,0.0938530687358844,1
932,770,18,0.0854348270252607,1
932,771,18,0.0800749886052289,1
932,772,18,0.0788553754958032,1
932,773,18,0.082384994838152,1
932,774,18,0.0889282294583252,1
933,760,18,0.0708028828604179,1
933,761,18,0.0831074908969737,1
933,762,18,0.105914668957707,1
933,763,18,0.131712529554666,1
933,764,18,0.141830685935193,1
933,765,18,0.132924370974153,1
933,766,18,0.122439513173557,1
933,767,18,0.114429910812698,1
933,768,18,0.105529942500061,1
933,769,18,0.0940933585445657,1
934,746,18,0.0787346292934486,1
934,747,18,0.0712639289816022,1
934,760,18,0.0749166788640954,1
934,761,18,0.0929337292566783,1
934,762,18,0.120321275822865,1
934,763,18,0.143865047426495,1
934,764,18,0.148726357657231,1
934,765,18,0.142755308495216,1
934,766,18,0.134975749546823,1
934,767,18,0.120192465970842,1
935,745,18,0.0744593865108599,1
935,746,18,0.0987858534889355,1
935,747,18,0.0840184608639383,1
935,754,18,0.08497147303193,1
935,755,18,0.0902904648955407,1
935,756,18,0.0776494844936573,1
935,759,18,0.0716397437160812,1
935,760,18,0.0842942029254699,1
935,761,18,0.107397678402966,1
935,762,18,0.135500693140203,1
935,763,18,0.152056269593278,1
935,764,18,0.155018312270339,1
936,745,18,0.0736295535429675,1
936,746,18,0.0892035127259963,1
936,747,18,0.0756036323015792,1
936,753,18,0.0811419137276239,1
936,754,18,0.104184835366967,1
936,755,18,0.109140066262068,1
936,756,18,0.0906587095313229,1
936,757,18,0.0732588481037521,1
936,758,18,0.0714165266001451,1
936,759,18,0.0791630454391664,1
936,760,18,0.0948273731098527,1
936,761,18,0.119410097313236,1
936,762,18,0.141879109541733,1
936,763,18,0.148790088295296,1
937,746,18,0.0707116593478387,1
937,753,18,0.0842035702837715,1
937,754,18,0.103037920230151,1
937,755,18,0.106041219597538,1
937,756,18,0.0922116085746515,1
937,757,18,0.0784765368926987,1
937,758,18,0.0773154895146973,1
937,759,18,0.0864412886779908,1
937,760,18,0.102737952462505,1
937,761,18,0.124704647976647,1
937,762,18,0.141674696022652,1
938,753,18,0.0881720259536072,1
938,754,18,0.102654173923025,1
938,755,18,0.101160160376538,1
938,756,18,0.0913384334897941,1
938,757,18,0.0817409803351497,1
938,758,18,0.0818020624813841,1
938,759,18,0.0913163279674286,1
938,760,18,0.106457804422795,1
942,745,18,0.0700130831325577,1
942,746,18,0.070244322189629,1
943,746,18,0.0706809896734122,1
944,745,18,0.0709765085308965,1
944,746,18,0.074185041685176,1
944,747,18,0.0715752484215823,1
945,745,18,0.0714168811226736,1
945,746,18,0.0754169101518124,1
945,747,18,0.0710694559961633,1
946,745,18,0.0738266958745034,1
946,746,18,0.0763656124380851,1
946,747,18,0.0717865507999919,1
947,745,18,0.0744957494000089,1
947,746,18,0.0756073791181059,1
947,747,18,0.0722692227954149,1
948,745,18,0.076396796517749,1
948,746,18,0.0763908600032522,1
948,747,18,0.0743255229749506,1
948,748,18,0.0707291074173787,1
949,745,18,0.075431389964104,1
949,746,18,0.0760438519620695,1
949,747,18,0.0747984282222845,1
949,748,18,0.0731592133703987,1
949,749,18,0.0802078511363518,1
949,750,18,0.0905287179375386,1
949,751,18,0.0854694590102999,1
949,752,18,0.0749060640425067,1
950,747,18,0.0763503888236259,1
950,748,18,0.077494085451997,1
950,749,18,0.093211494182049,1
950,750,18,0.111339711717295,1
950,751,18,0.102369867709432,1
950,752,18,0.085318877304174,1
950,753,18,0.0808129793839728,1
951,748,18,0.0836908959504463,1
951,749,18,0.0979780843348757,1
951,750,18,0.11235419531116,1
951,751,18,0.104158920465276,1
951,752,18,0.092024629222266,1
951,753,18,0.0896194858261059,1
952,748,18,0.0903417802936859,1
952,749,18,0.0991696484560168,1
952,750,18,0.106667542731226,1
952,751,18,0.104373274518,1
952,752,18,0.10211036416999,1
953,749,18,0.111139774914064,1
953,750,18,0.116421201292497,1
953,751,18,0.11741558137357,1
910,767,19,0.0715525728826024,1
910,768,19,0.0763449528115221,1
911,767,19,0.0737185734547322,1
911,768,19,0.0815553287043906,1
912,767,19,0.0770639036450588,1
912,768,19,0.0904273592514976,1
913,767,19,0.0809439372254327,1
914,767,19,0.087839546384671,1
915,767,19,0.0923811190032306,1
916,766,19,0.0729782956581084,1
916,767,19,0.0973526301289539,1
916,776,19,0.106431333407334,1
917,766,19,0.0798930837909964,1
917,767,19,0.104678608783528,1
917,775,19,0.109216462391249,1
917,776,19,0.106281363426355,1
917,777,19,0.106677441556336,1
918,766,19,0.0879158590967867,1
918,774,19,0.111854395011615,1
918,775,19,0.107371117019017,1
918,776,19,0.102254279462296,1
918,777,19,0.10106332011488,1
918,778,19,0.10049721019966,1
918,779,19,0.0999237109227195,1
918,780,19,0.0936238872997629,1
918,781,19,0.0864743913501619,1
919,765,19,0.0740801864338048,1
919,766,19,0.0958170470781449,1
919,773,19,0.118276751352413,1
919,774,19,0.110085480525674,1
919,775,19,0.105178311763163,1
919,776,19,0.100228280531814,1
919,777,19,0.0971512057213874,1
919,778,19,0.0957618458350304,1
919,779,19,0.0967604593321785,1
919,780,19,0.0935799751661835,1
919,781,19,0.0891351593922166,1
919,782,19,0.0821271874457094,1
920,764,19,0.0715955535256167,1
920,765,19,0.081130416075425,1
920,766,19,0.0994217000709379,1
920,773,19,0.118096222919762,1
920,774,19,0.109563067249948,1
920,775,19,0.104986925209149,1
920,776,19,0.101729050860608,1
920,777,19,0.0975809287344652,1
920,778,19,0.0939017703993097,1
920,779,19,0.0941786942026029,1
920,780,19,0.093982260916124,1
920,781,19,0.0925575391454044,1
920,782,19,0.0864994442755094,1
921,764,19,0.0769495249453729,1
921,765,19,0.0881539314018093,1
921,766,19,0.100728741216461,1
921,772,19,0.125579206394508,1
921,773,19,0.11964954599984,1
921,774,19,0.112035667246434,1
921,775,19,0.10784800543123,1
921,776,19,0.106662641978626,1
921,777,19,0.103478612587346,1
921,778,19,0.0977427578415934,1
921,779,19,0.0947854838401124,1
921,780,19,0.0944589755427837,1
921,781,19,0.0941028750414583,1
921,782,19,0.0886081095179317,1
922,764,19,0.0792865444046836,1
922,765,19,0.0921877234882214,1
922,766,19,0.101675448444583,1
922,771,19,0.12299034386294,1
922,772,19,0.120968258583116,1
922,773,19,0.118909845171253,1
922,774,19,0.114034833687504,1
922,775,19,0.109521810559622,1
922,776,19,0.109359508755789,1
922,777,19,0.109155901601674,1
922,778,19,0.10313231359122,1
922,779,19,0.0966859122812832,1
922,780,19,0.0942678670456545,1
922,781,19,0.0929982245511773,1
922,782,19,0.0869784042115163,1
923,764,19,0.0801043514122954,1
923,765,19,0.093721978817404,1
923,770,19,0.120628083789884,1
923,771,19,0.119714333254069,1
923,772,19,0.118864007493744,1
923,773,19,0.120501498392942,1
923,774,19,0.117694222178129,1
923,775,19,0.111083524006208,1
923,776,19,0.109137528992991,1
923,777,19,0.110226191212379,1
923,778,19,0.104975538779704,1
923,779,19,0.096851752358979,1
923,780,19,0.0926541152530218,1
923,781,19,0.0903058970526638,1
923,782,19,0.0834110734041259,1
924,764,19,0.0800053562097777,1
924,765,19,0.0943100691293906,1
924,770,19,0.1138067575275,1
924,771,19,0.113018667849484,1
924,772,19,0.11293256058359,1
924,773,19,0.115863217589745,1
924,774,19,0.115056956894287,1
924,775,19,0.109497452776487,1
924,776,19,0.106326248759032,1
924,777,19,0.10685141479792,1
924,778,19,0.102933058027358,1
924,779,19,0.0964549304268307,1
924,780,19,0.0925759117540874,1
924,781,19,0.0893151108568312,1
924,782,19,0.0807986664058122,1
925,764,19,0.0807837486539266,1
925,765,19,0.0960974465925019,1
925,766,19,0.116681858768012,1
925,769,19,0.109762364522344,1
925,770,19,0.106635552286595,1
925,771,19,0.105783530379272,1
925,772,19,0.10471808590979,1
925,773,19,0.105792768819279,1
925,774,19,0.106092222181688,1
925,775,19,0.103957794968861,1
925,776,19,0.101751218945773,1
925,777,19,0.101473898911418,1
925,778,19,0.0991054659755136,1
925,779,19,0.0954420317572105,1
925,780,19,0.0924736563345919,1
925,781,19,0.0883120693037878,1
925,782,19,0.0786802483181451,1
926,763,19,0.0734265650654223,1
926,764,19,0.0849188785721134,1
926,765,19,0.0973111092845863,1
926,766,19,0.113490300986568,1
926,769,19,0.107209218397667,1
926,770,19,0.103026707586259,1
926,771,19,0.100931486394232,1
926,772,19,0.0984926216493311,1
926,773,19,0.0986145009334926,1
926,774,19,0.100261084292833,1
926,775,19,0.100744527896113,1
926,776,19,0.0983676698365893,1
926,777,19,0.0975296689476971,1
926,778,19,0.0965835386876115,1
926,779,19,0.0942560009680829,1
926,780,19,0.0905064316781979,1
926,781,19,0.0847069436142902,1
926,782,19,0.0739989382119786,1
927,763,19,0.0793624122257831,1
927,764,19,0.0911222303587846,1
927,765,19,0.10056477802274,1
927,766,19,0.111080180372165,1
927,768,19,0.114239469652093,1
927,769,19,0.107714621543447,1
927,770,19,0.102444115849176,1
927,771,19,0.0989217120829953,1
927,772,19,0.0959611361560037,1
927,773,19,0.09659588441331,1
927,774,19,0.100100144967738,1
927,775,19,0.101527070339272,1
927,776,19,0.0981779585753077,1
927,777,19,0.0968488119074191,1
927,778,19,0.0966643420184216,1
927,779,19,0.0942441348905112,1
927,780,19,0.0885689173999768,1
927,781,19,0.0804476126369514,1
928,762,19,0.0724591495507824,1
928,763,19,0.0861080027440878,1
928,764,19,0.0987267038380526,1
928,765,19,0.107895713041291,1
928,766,19,0.114809660052101,1
928,767,19,0.116609716909173,1
928,768,19,0.113165572253304,1
928,769,19,0.1073454454171,1
928,770,19,0.101972489663513,1
928,771,19,0.0985072474414874,1
928,772,19,0.0958237969090307,1
928,773,19,0.0960695574869263,1
928,774,19,0.0989582418062753,1
928,775,19,0.100101618669229,1
928,776,19,0.0968814627371519,1
928,777,19,0.0955910424419356,1
928,778,19,0.0946203389046294,1
928,779,19,0.0910599247622558,1
928,780,19,0.0833027215874245,1
929,757,19,0.0731406808790068,1
929,758,19,0.0702998640524277,1
929,762,19,0.0763162017296028,1
929,763,19,0.0903229349882983,1
929,764,19,0.104255350593029,1
929,765,19,0.114152298818614,1
929,766,19,0.117379795452457,1
929,767,19,0.113698496079287,1
929,768,19,0.107924193017747,1
929,769,19,0.102640118147483,1
929,770,19,0.097660188849563,1
929,771,19,0.0942767301088671,1
929,772,19,0.0918808738126693,1
929,773,19,0.0917142899328059,1
929,774,19,0.094456862310457,1
929,775,19,0.0964505440794682,1
929,776,19,0.0957808996830819,1
929,777,19,0.0945564692381219,1
929,778,19,0.0914143013108936,1
929,779,19,0.085742448308669,1
929,780,19,0.0763939950946317,1
930,757,19,0.0711286612584232,1
930,761,19,0.0719537881135353,1
930,762,19,0.0826476334689732,1
930,763,19,0.0992321486923652,1
930,764,19,0.115318865625785,1
930,765,19,0.123753095607302,1
930,766,19,0.121246301565371,1
930,768,19,0.1052791977525,1
930,769,19,0.100077337351737,1
930,770,19,0.0946162584198405,1
930,771,19,0.0900822002886008,1
930,772,19,0.0872215649575363,1
930,773,19,0.0880177252366431,1
930,774,19,0.092761264473695,1
930,775,19,0.0966369186581286,1
930,776,19,0.0973574961244431,1
930,777,19,0.0953383095876461,1
930,778,19,0.0871743439470242,1
930,779,19,0.0776379312300814,1
931,760,19,0.06975859156847,1
931,761,19,0.0762247071115607,1
931,762,19,0.0906322315644392,1
931,763,19,0.113397527306854,1
931,764,19,0.133829960540391,1
931,765,19,0.136849783438176,1
931,766,19,0.128032933279917,1
931,767,19,0.116733702474239,1
931,768,19,0.107139356605286,1
931,769,19,0.0988481521340421,1
931,770,19,0.0908593901367217,1
931,771,19,0.0852448168528276,1
931,772,19,0.08284405980403,1
931,773,19,0.0862959066356162,1
931,774,19,0.0941266558565565,1
931,775,19,0.0990212216907505,1
931,776,19,0.10225024068604,1
931,777,19,0.100868569072556,1
931,778,19,0.0863697515928767,1
932,760,19,0.0703563374057915,1
932,761,19,0.0795863522896205,1
932,762,19,0.100010263079629,1
932,763,19,0.13197233200526,1
932,764,19,0.156384197204171,1
932,766,19,0.135971693697874,1
932,767,19,0.123213526221765,1
932,768,19,0.111396344953368,1
932,769,19,0.0977490836357295,1
932,770,19,0.0869163697204505,1
932,771,19,0.0816109887413655,1
932,772,19,0.0809935217194682,1
932,773,19,0.0869427434160022,1
932,774,19,0.0968965334203244,1
932,775,19,0.103681232639518,1
932,776,19,0.10812403945249,1
932,777,19,0.10555290999877,1
933,761,19,0.0823302732431643,1
933,762,19,0.109485218273543,1
933,763,19,0.146065005695717,1
933,766,19,0.141732837717326,1
933,767,19,0.125683491629264,1
933,768,19,0.110744767303091,1
933,769,19,0.0945795410081631,1
933,770,19,0.0840227220857025,1
933,771,19,0.0808629462062252,1
933,772,19,0.0813245971011346,1
933,773,19,0.0867056304072332,1
933,774,19,0.0963241950308788,1
934,746,19,0.0723335234500942,1
934,760,19,0.072285044232177,1
934,761,19,0.0914409322090641,1
934,762,19,0.123952462393919,1
934,767,19,0.130051987739693,1
934,768,19,0.105616084523065,1
934,769,19,0.0889326505627983,1
935,745,19,0.0709943875886084,1
935,746,19,0.0917348174823484,1
935,747,19,0.0809855345354437,1
935,754,19,0.075056993319739,1
935,755,19,0.0815419680710616,1
935,756,19,0.071975469599151,1
935,760,19,0.0802742511205136,1
935,761,19,0.105924929256767,1
935,762,19,0.14062633814876,1
935,767,19,0.136007729870183,1
936,745,19,0.0715978127378081,1
936,746,19,0.086651749934323,1
936,747,19,0.0752636104396346,1
936,753,19,0.0706617411855411,1
936,754,19,0.0891435289044581,1
936,755,19,0.0978188342053568,1
936,756,19,0.0843514965466447,1
936,757,19,0.0698133618234125,1
936,759,19,0.0741824905132552,1
936,760,19,0.0890494136002739,1
936,761,19,0.118661915749654,1
936,762,19,0.15206454178561,1
937,746,19,0.0706982500545548,1
937,753,19,0.0710864383204207,1
937,754,19,0.0861248807970134,1
937,755,19,0.0941085334990701,1
937,756,19,0.084967434255674,1
937,757,19,0.0746416736533093,1
937,758,19,0.0737320105537047,1
937,759,19,0.0815466463781534,1
937,760,19,0.0968510085568114,1
937,761,19,0.125124791930033,1
937,762,19,0.155304113039689,1
938,753,19,0.0725205653652789,1
938,754,19,0.0839853720946114,1
938,755,19,0.0877589376936805,1
938,756,19,0.0824690722887841,1
938,757,19,0.0775290719595648,1
938,758,19,0.0789605644154366,1
938,759,19,0.0877663618125127,1
938,760,19,0.101787783426164,1
938,761,19,0.123454101038754,1
938,762,19,0.146884898129967,1
939,753,19,0.0716650399412032,1
939,754,19,0.0816357358041394,1
939,755,19,0.0827835824315207,1
939,756,19,0.0803401575537045,1
939,757,19,0.0804487248644918,1
939,758,19,0.0842519799874674,1
939,759,19,0.0933162521135104,1
939,760,19,0.106074315318287,1
942,745,19,0.0704528787562983,1
943,745,19,0.0728038497198188,1
943,746,19,0.070973595885025,1
944,745,19,0.0758370888623091,1
944,746,19,0.0778938408842832,1
944,747,19,0.0727480645572456,1
945,745,19,0.0757626808398564,1
945,746,19,0.0805479911724725,1
945,747,19,0.0780268702495372,1
945,748,19,0.0742492450199456,1
945,749,19,0.0714763435875522,1
946,745,19,0.0775261732165376,1
946,746,19,0.0807581326633868,1
946,747,19,0.081326091656892,1
946,748,19,0.0799200761631175,1
946,749,19,0.0785151798483055,1
946,750,19,0.0727008991581105,1
947,745,19,0.0808871232523847,1
947,746,19,0.08161864920855,1
947,747,19,0.0811164854254815,1
947,748,19,0.0798378477907713,1
947,749,19,0.0784148152156287,1
947,750,19,0.0724319069274647,1
948,745,19,0.0787831015599436,1
948,746,19,0.0795151488727685,1
948,747,19,0.0790529418640889,1
948,748,19,0.0777295648765661,1
948,749,19,0.0782269113241002,1
948,750,19,0.0775840855142818,1
948,751,19,0.0743888295762658,1
948,752,19,0.0708518139207734,1
949,745,19,0.0744473675020015,1
949,746,19,0.0769901142991754,1
949,747,19,0.0770353333001148,1
949,748,19,0.0765867232731166,1
949,749,19,0.084688070503214,1
949,750,19,0.0952451535797155,1
949,751,19,0.0896892989585324,1
949,752,19,0.0782732008440472,1
949,753,19,0.0750467399721009,1
950,747,19,0.0779888529219219,1
950,748,19,0.07760623274518,1
950,749,19,0.0914985108385462,1
950,750,19,0.108443519862048,1
950,751,19,0.0999892489305376,1
950,752,19,0.0832007303219699,1
950,753,19,0.0779190606437618,1
951,748,19,0.0798114601923753,1
951,749,19,0.0909527060273612,1
951,750,19,0.10324788098409,1
951,751,19,0.0958761272148065,1
951,752,19,0.08464783567194,1
952,748,19,0.0854490357320893,1
952,749,19,0.09251040850338,1
952,750,19,0.0975641966614044,1
952,751,19,0.0948605035877124,1
952,752,19,0.0919550107296591,1
953,749,19,0.104148833951769,1
953,750,19,0.106506394863466,1
953,751,19,0.106296406303839,1
909,767,20,0.070175517013411,1
910,767,20,0.0733183731314299,1
911,767,20,0.0762551056805242,1
912,767,20,0.0796634366095923,1
913,767,20,0.0828463051133771,1
914,767,20,0.0890960854484379,1
915,766,20,0.0698280154212573,1
916,766,20,0.0748877818023113,1
917,766,20,0.081243710353259,1
918,782,20,0.0882557210760223,1
919,765,20,0.0749453048204164,1
920,764,20,0.0759904233315975,1
920,765,20,0.0828655744555146,1
921,764,20,0.0803611438971074,1
921,765,20,0.086803374353768,1
922,764,20,0.0770458508017937,1
922,765,20,0.0866175836945663,1
923,764,20,0.0730509102136522,1
923,765,20,0.0861164556733948,1
924,764,20,0.0734445344916219,1
924,765,20,0.0887115883877216,1
925,764,20,0.0768427371986503,1
925,765,20,0.0934270855879112,1
926,764,20,0.0836545886726743,1
926,765,20,0.0978254102506894,1
926,782,20,0.0838019032104003,1
927,763,20,0.0763589599271091,1
927,764,20,0.0914669305278209,1
927,765,20,0.10375534175082,1
927,782,20,0.0790463588673342,1
928,756,20,0.0702768965537185,1
928,763,20,0.0833965588347237,1
928,764,20,0.0980675977976115,1
928,765,20,0.109985665055346,1
929,755,20,0.0711091486165113,1
929,756,20,0.074099553095852,1
929,757,20,0.0724867605994728,1
929,762,20,0.0745847484575072,1
929,763,20,0.0886587575795526,1
929,764,20,0.104966960724799,1
929,765,20,0.117607968932371,1
930,761,20,0.0698653167523935,1
930,762,20,0.0813386389738322,1
930,763,20,0.0992493326078644,1
930,764,20,0.12024196009639,1
930,765,20,0.132533548119301,1
930,780,20,0.074583587570012,1
931,761,20,0.0741919235930822,1
931,762,20,0.089456419365839,1
931,763,20,0.115709041998379,1
931,764,20,0.14608043785284,1
931,766,20,0.146579953144078,1
931,779,20,0.0784669230758964,1
932,761,20,0.0773825012240064,1
932,762,20,0.0985688439929591,1
932,763,20,0.13716069274425,1
932,777,20,0.112779483316921,1
932,778,20,0.0947056119998674,1
933,761,20,0.0809612671207966,1
933,762,20,0.1098177673567,1
933,774,20,0.0954894404561201,1
933,775,20,0.102923576287576,1
934,761,20,0.0892056815697001,1
934,768,20,0.106171843770736,1
934,769,20,0.0867942401850925,1
934,770,20,0.0776932158902614,1
935,746,20,0.0778414410642861,1
935,747,20,0.0742542917524101,1
935,760,20,0.0747003714617539,1
935,761,20,0.101431877564658,1
935,768,20,0.097987044717998,1
936,746,20,0.0783322601264425,1
936,747,20,0.0744161903737596,1
936,754,20,0.070415188145523,1
936,755,20,0.0778236037151069,1
936,756,20,0.0717798148719504,1
936,760,20,0.0813467651862992,1
936,761,20,0.112367542041645,1
936,767,20,0.124589866094478,1
937,755,20,0.0766754303708856,1
937,756,20,0.0737611856723738,1
937,759,20,0.0759081462992964,1
937,760,20,0.0889451422683614,1
937,761,20,0.117753990505581,1
938,755,20,0.0725447215571719,1
938,756,20,0.0729538892150187,1
938,757,20,0.0723899689977695,1
938,758,20,0.0750931198605356,1
938,759,20,0.0829764704927146,1
938,760,20,0.0951589003339574,1
938,761,20,0.116361328693713,1
938,762,20,0.143745093686262,1
939,756,20,0.0714607167906096,1
939,757,20,0.0760864780825553,1
939,758,20,0.0807883922039078,1
939,759,20,0.0890107914989335,1
939,760,20,0.101181056351453,1
939,761,20,0.115547789859288,1
939,762,20,0.128651192763937,1
940,756,20,0.0711181020482115,1
940,757,20,0.0791562191426372,1
940,758,20,0.0843889716633341,1
940,759,20,0.0915154306000045,1
940,760,20,0.103184921953881,1
943,745,20,0.0720424674056158,1
944,745,20,0.0778084843719796,1
944,746,20,0.0774038003814051,1
944,747,20,0.0700345908326202,1
945,745,20,0.075490762060495,1
945,746,20,0.0803230362010044,1
945,747,20,0.0791483501327888,1
945,748,20,0.0793934572770045,1
945,749,20,0.0765123639106187,1
945,750,20,0.0748094809834672,1
945,751,20,0.0708853058725837,1
946,745,20,0.0763841240752106,1
946,746,20,0.0818481434586673,1
946,747,20,0.0862657722206935,1
946,748,20,0.0916640589565126,1
946,749,20,0.0906347688335158,1
946,750,20,0.0859919904602019,1
946,751,20,0.078521311002622,1
946,752,20,0.0723528762092972,1
947,745,20,0.0828870960584213,1
947,746,20,0.0858131929316605,1
947,747,20,0.08580760398827,1
947,748,20,0.0881216837545599,1
947,749,20,0.0871833738443678,1
947,750,20,0.0824439220435268,1
947,751,20,0.076716012773266,1
947,752,20,0.07299016173568,1
948,745,20,0.0785537254840025,1
948,746,20,0.0812843483670164,1
948,747,20,0.0804627180772344,1
948,748,20,0.0810500367813648,1
948,749,20,0.0827158616771546,1
948,750,20,0.0820490882181069,1
948,751,20,0.0779509190113721,1
948,752,20,0.0747355665119855,1
948,753,20,0.0747880636518924,1
949,745,20,0.0720703982197241,1
949,746,20,0.0763271085109209,1
949,747,20,0.0767893294224447,1
949,748,20,0.0779347639063478,1
949,749,20,0.0857537652238925,1
949,750,20,0.0931640924345615,1
949,751,20,0.0875318625384636,1
949,752,20,0.078183172976074,1
949,753,20,0.0757537482624225,1
950,746,20,0.0786837518348974,1
950,747,20,0.0783751782066577,1
950,748,20,0.0783041068668261,1
950,749,20,0.0888895795512963,1
950,750,20,0.100067848660533,1
950,751,20,0.092407478795938,1
950,752,20,0.0787674400058904,1
950,753,20,0.0752090973873108,1
951,748,20,0.0787985059113782,1
951,749,20,0.086343162403239,1
951,750,20,0.0939877316853384,1
951,751,20,0.0873728765629856,1
951,752,20,0.0776289917012254,1
952,749,20,0.0877244586399281,1
952,750,20,0.0895701307290006,1
952,751,20,0.0861288639618924,1
953,750,20,0.0968769234585027,1
892,738,21,0.073392523951264,1
909,767,21,0.0726850151585492,1
910,766,21,0.0697873774074999,1
910,767,21,0.0751126742109802,1
911,766,21,0.0698695640713134,1
911,767,21,0.0774100983698526,1
912,767,21,0.0796398782400022,1
920,764,21,0.0770448219913188,1
921,764,21,0.0801255810554728,1
922,764,21,0.0723256683430902,1
925,764,21,0.0722409583130444,1
926,764,21,0.0805868009622103,1
927,763,21,0.07177478204233,1
927,764,21,0.0889651415098222,1
928,755,21,0.0735033713285091,1
928,756,21,0.0756492961935347,1
928,763,21,0.0796395515231623,1
928,764,21,0.0966043790511498,1
929,755,21,0.0743832058757646,1
929,756,21,0.0772184893703302,1
929,757,21,0.0719627067881249,1
929,762,21,0.0712456119842962,1
929,763,21,0.086673563496959,1
929,764,21,0.106309224726242,1
930,762,21,0.0788923570615215,1
930,763,21,0.0999118935051028,1
930,764,21,0.125677360474948,1
931,761,21,0.0711714194559294,1
931,762,21,0.0874964519941461,1
931,763,21,0.117584264582916,1
932,761,21,0.0756122798707058,1
932,762,21,0.0972497212757784,1
933,761,21,0.0805016321383042,1
933,762,21,0.111922498094198,1
934,761,21,0.0877743559479593,1
935,761,21,0.0959750876602136,1
935,768,21,0.0965225886183976,1
936,746,21,0.0708363678608061,1
936,747,21,0.0706329066865563,1
936,760,21,0.0736539877917456,1
937,760,21,0.0810167116636855,1
937,761,21,0.108080544404239,1
938,758,21,0.0703383471253256,1
938,759,21,0.076483807468519,1
938,760,21,0.088282908087963,1
938,761,21,0.10812479020608,1
939,757,21,0.0715421666036775,1
939,758,21,0.0759418259395042,1
939,759,21,0.0826002873328628,1
939,760,21,0.0950811764831499,1
939,761,21,0.109825893569167,1
939,762,21,0.124711112799225,1
940,757,21,0.0747410164269334,1
940,758,21,0.0802444086653203,1
940,759,21,0.0869805800066422,1
940,760,21,0.0987858882460461,1
940,761,21,0.111805950550808,1
941,758,21,0.0832931008192001,1
944,745,21,0.0730341364320586,1
944,746,21,0.0708627346049357,1
945,746,21,0.074010136953026,1
945,747,21,0.075821163154215,1
945,748,21,0.0824592360264737,1
945,749,21,0.0817638088054165,1
945,750,21,0.0818892055091744,1
945,751,21,0.0771837670168033,1
945,752,21,0.0750085071503996,1
945,753,21,0.0767061765109556,1
946,746,21,0.0784703292727389,1
946,747,21,0.0845720929764388,1
946,748,21,0.0968646681012919,1
946,749,21,0.0968666492565982,1
946,750,21,0.0946410680454136,1
946,751,21,0.085355351416077,1
946,752,21,0.0787919785260004,1
946,753,21,0.077194270615638,1
947,745,21,0.0773808259312737,1
947,746,21,0.0848736734740183,1
947,747,21,0.0837016358976332,1
947,748,21,0.0893644659539364,1
947,749,21,0.0886959963478896,1
947,750,21,0.087049211397307,1
947,751,21,0.0807293746300453,1
947,752,21,0.0764853576356534,1
947,753,21,0.075166040278653,1
948,745,21,0.0745000870874164,1
948,746,21,0.0804041106372775,1
948,747,21,0.0782901762168826,1
948,748,21,0.0809964830252945,1
948,749,21,0.0837478072434041,1
948,750,21,0.0841428704657542,1
948,751,21,0.0798659384875885,1
948,752,21,0.0769627256959931,1
948,753,21,0.0766436415174966,1
949,745,21,0.0699639504809606,1
949,746,21,0.0748189418689827,1
949,747,21,0.0752571386656339,1
949,748,21,0.0783354021692441,1
949,749,21,0.0852120895574513,1
949,750,21,0.0884771030165168,1
949,751,21,0.0828199314178254,1
949,752,21,0.0760056330432125,1
949,753,21,0.0750930781520028,1
950,746,21,0.0752620116125453,1
950,747,21,0.0769060716056539,1
950,748,21,0.0792733923140183,1
950,749,21,0.086711122030714,1
950,750,21,0.0905884237021917,1
950,751,21,0.08296139285812,1
950,752,21,0.0730265454790953,1
951,747,21,0.0779326576254431,1
951,748,21,0.079143998542537,1
951,749,21,0.0838672604812431,1
951,750,21,0.0856298074645149,1
951,751,21,0.0789294081414611,1
951,752,21,0.0712084218759141,1
952,748,21,0.0823346526391046,1
952,749,21,0.0852022393922967,1
952,750,21,0.0836604834786384,1
952,751,21,0.0791801876461328,1
953,749,21,0.0927999908463673,1
900,746,22,0.0703492121981109,1
909,766,22,0.0706140474783244,1
911,767,22,0.0755223562740644,1
913,767,22,0.0796563044504895,1
921,764,22,0.0716797143933144,1
926,764,22,0.0750034673693572,1
927,764,22,0.083055605482214,1
928,755,22,0.0714980042189015,1
928,756,22,0.0761428819216979,1
928,763,22,0.075773511155531,1
929,755,22,0.069900129474408,1
929,756,22,0.0743646803357948,1
929,763,22,0.084724711449248,1
930,762,22,0.0775274244725205,1
930,763,22,0.0987978516435275,1
931,762,22,0.086603444501959,1
931,763,22,0.114095957542271,1
932,761,22,0.0753552649403857,1
932,762,22,0.0971492245660811,1
933,761,22,0.0806024486134193,1
933,762,22,0.112178108837248,1
934,761,22,0.0857778171444537,1
935,761,22,0.089153281749703,1
937,760,22,0.07327017892182,1
937,761,22,0.0973014468078291,1
938,759,22,0.0700014812090269,1
938,760,22,0.0817655049524156,1
938,761,22,0.101033832182215,1
939,758,22,0.0708477959987837,1
939,759,22,0.07722535042397,1
939,760,22,0.0904145269262502,1
939,761,22,0.106204717045977,1
940,758,22,0.0757847863622218,1
940,759,22,0.0838712992574991,1
940,760,22,0.0961594741321455,1
944,753,22,0.0714424623561028,1
945,748,22,0.0773831755119528,1
945,749,22,0.0804048752937115,1
945,750,22,0.0802735907354115,1
945,751,22,0.0785682887133596,1
945,752,22,0.0796421513550379,1
945,753,22,0.0811614819809128,1
945,754,22,0.079651751268996,1
946,746,22,0.0698144670995308,1
946,747,22,0.0775672630727332,1
946,748,22,0.0899432691659606,1
946,749,22,0.0934661734345342,1
946,750,22,0.090777356404195,1
946,751,22,0.0852308166886628,1
946,752,22,0.0822348232659316,1
946,753,22,0.0796717088019241,1
946,754,22,0.0773290725935344,1
947,746,22,0.0765553306507888,1
947,747,22,0.0761841733691352,1
947,748,22,0.0813835243065094,1
947,749,22,0.0842808283892965,1
947,750,22,0.0836685401768842,1
947,751,22,0.0802643522954041,1
947,752,22,0.0783876629607986,1
947,753,22,0.0769093735311645,1
948,746,22,0.0746089394065109,1
948,747,22,0.0723108062025816,1
948,748,22,0.0752819343883627,1
948,749,22,0.0810087522853495,1
948,750,22,0.0819462905876855,1
948,751,22,0.0779445445572812,1
948,752,22,0.075926331219582,1
948,753,22,0.0768126722979489,1
949,746,22,0.0708233617500055,1
949,747,22,0.0712922421239275,1
949,748,22,0.0756494282705551,1
949,749,22,0.0825121154945976,1
949,750,22,0.0828011278209705,1
949,751,22,0.0763181620306428,1
949,752,22,0.0713688954557274,1
950,746,22,0.0703399807095255,1
950,747,22,0.0740229206183184,1
950,748,22,0.0794285132987935,1
950,749,22,0.0845204439100315,1
950,750,22,0.0827345331969891,1
950,751,22,0.0747017686976016,1
951,746,22,0.0703631497994765,1
951,747,22,0.0756452713201229,1
951,748,22,0.0806785319286048,1
951,749,22,0.0829080337418693,1
951,750,22,0.0791890924178781,1
951,751,22,0.0723207606390681,1
952,747,22,0.0788827015361864,1
952,748,22,0.083169879910568,1
952,749,22,0.0836532818053144,1
952,750,22,0.0787264127124939,1
953,748,22,0.086433941024802,1
953,749,22,0.0868073922757577,1
911,767,23,0.0721526335434924,1
918,734,23,0.075786162743803,1
918,735,23,0.0799136043891168,1
919,734,23,0.0708691994275142,1
919,735,23,0.0717028765318432,1
921,737,23,0.0712285670972396,1
928,756,23,0.0701324599047533,1
928,763,23,0.070978719083133,1
929,763,23,0.0808130141410834,1
930,762,23,0.0747681478274971,1
931,762,23,0.0824316458320496,1
932,738,23,0.0834655934078719,1
932,739,23,0.075768061240583,1
932,761,23,0.0709228157463836,1
932,762,23,0.090924233002327,1
933,738,23,0.072511410342337,1
933,761,23,0.074363762748074,1
933,762,23,0.102628780377993,1
934,761,23,0.0794934882414192,1
935,761,23,0.0816880591584931,1
937,761,23,0.0890967944934949,1
938,760,23,0.076194795142146,1
938,761,23,0.0964653714628662,1
939,759,23,0.0722212996912679,1
939,760,23,0.0862644097419565,1
944,753,23,0.071779905240438,1
945,749,23,0.0725052791880205,1
945,750,23,0.0755452473071303,1
945,751,23,0.0771066479397208,1
945,752,23,0.0808092117131796,1
945,753,23,0.080127117319763,1
945,754,23,0.0774193507127043,1
946,748,23,0.0757362376300834,1
946,749,23,0.0826848861401545,1
946,750,23,0.0837616753305485,1
946,751,23,0.0822356991451197,1
946,752,23,0.0827311895629457,1
946,753,23,0.0792329489400805,1
946,754,23,0.0759053587790233,1
947,748,23,0.0717705486262544,1
947,749,23,0.079323317427738,1
947,750,23,0.0820706723838128,1
947,751,23,0.0796370003512415,1
947,752,23,0.0784869292687794,1
947,753,23,0.0770586692241968,1
948,748,23,0.071078381622175,1
948,749,23,0.0792455866255083,1
948,750,23,0.0814588707709494,1
948,751,23,0.0765119885338238,1
948,752,23,0.0737236966528402,1
949,748,23,0.075220177954182,1
949,749,23,0.0799151128477185,1
949,750,23,0.0776903658071891,1
949,751,23,0.0707920455933211,1
950,747,23,0.0739278807749913,1
950,748,23,0.0815830579272572,1
950,749,23,0.0813927001837177,1
950,750,23,0.0744309065344035,1
951,747,23,0.0756163534040725,1
951,748,23,0.0832488480659364,1
951,749,23,0.0802625101685403,1
951,750,23,0.071549500354022,1
952,747,23,0.0760762594920279,1
952,748,23,0.0810732962398034,1
952,749,23,0.0784095877461888,1
952,750,23,0.0717989590884895,1
953,748,23,0.0781925434931019,1
953,749,23,0.0773258818907779,1
917,735,24,0.0853614756189713,1
917,736,24,0.076516520861051,1
918,734,24,0.0900845776749684,1
918,735,24,0.105250974978662,1
918,736,24,0.0864901085155922,1
919,734,24,0.0768549091387955,1
919,735,24,0.084685727873957,1
919,736,24,0.0722476525325532,1
921,737,24,0.0741598149742753,1
929,763,24,0.0746434045574191,1
930,762,24,0.0702381354239355,1
931,762,24,0.0758117926371872,1
934,761,24,0.0702655935413392,1
935,761,24,0.0719437294057168,1
936,761,24,0.0745845816233762,1
937,761,24,0.0811076640708017,1
938,760,24,0.0724924121056625,1
943,754,24,0.0700806579070592,1
944,753,24,0.0726758114756523,1
945,751,24,0.0728512653701504,1
945,752,24,0.0796791537750226,1
945,753,24,0.0799142578227968,1
945,754,24,0.0762088300634214,1
946,750,24,0.0771861235489045,1
946,751,24,0.0790631326489278,1
946,752,24,0.0818192116397726,1
946,753,24,0.0795171856394519,1
946,754,24,0.075916953751132,1
947,749,24,0.0725817726371115,1
947,750,24,0.0816579734035253,1
947,751,24,0.0796098272421451,1
947,752,24,0.076924339943005,1
947,753,24,0.0753278763372034,1
948,749,24,0.0753654001138476,1
948,750,24,0.0794535592727189,1
948,751,24,0.0744630360074768,1
948,752,24,0.0707243387417993,1
949,747,24,0.0699636724240755,1
949,748,24,0.0765824550999303,1
949,749,24,0.0761256423948216,1
949,750,24,0.0713315037561036,1
950,747,24,0.0760877779984932,1
950,748,24,0.0837830996135454,1
950,749,24,0.0771285310165782,1
951,747,24,0.0757360707959523,1
951,748,24,0.0827376265798358,1
951,749,24,0.0752396836446718,1
952,747,24,0.0724009870018416,1
952,748,24,0.0759269081876185,1
952,749,24,0.0713184767910367,1
953,748,24,0.0698868383553002,1
911,768,25,0.073945092496179,1
912,768,25,0.0788359045624241,1
917,735,25,0.0883776351172944,1
917,736,25,0.0779908896886052,1
918,734,25,0.0821319978298216,1
918,735,25,0.104863433195054,1
918,736,25,0.0896887636990286,1
919,735,25,0.0833906223202268,1
919,736,25,0.0750864047867604,1
921,735,25,0.0723656181660569,1
921,737,25,0.0700076888289868,1
921,738,25,0.0702904170697565,1
922,734,25,0.0734420667367667,1
922,735,25,0.0900121230021335,1
922,736,25,0.0773184577719458,1
923,735,25,0.0806168519600675,1
930,763,25,0.076072179007239,1
937,761,25,0.0768996067830754,1
938,760,25,0.0721987840349969,1
938,761,25,0.0911934337756366,1
939,760,25,0.0841489460086936,1
943,755,25,0.0709269170854389,1
944,753,25,0.0736151223906308,1
944,754,25,0.074827353089757,1
945,752,25,0.0789134407248342,1
945,753,25,0.0821015575523253,1
945,754,25,0.0765010887039279,1
946,751,25,0.0764366698750724,1
946,752,25,0.0827435839485991,1
946,753,25,0.0830133616899452,1
946,754,25,0.0759186638009753,1
947,750,25,0.0766663518135871,1
947,751,25,0.0779996901890186,1
947,752,25,0.0775900567858893,1
947,753,25,0.0768426398787405,1
948,750,25,0.0737518290581902,1
948,751,25,0.0711314209730078,1
949,748,25,0.0739496595805167,1
949,749,25,0.0707680909926698,1
950,747,25,0.0709467494927686,1
950,748,25,0.0768398732127338,1
951,747,25,0.0699663695758609,1
951,748,25,0.0734367488988391,1
917,735,26,0.0853946269510974,1
917,736,26,0.0736608488453855,1
918,734,26,0.0697633741468937,1
918,735,26,0.0933123384628526,1
918,736,26,0.0844701990308939,1
919,735,26,0.072910234284058,1
919,736,26,0.0707210159620223,1
921,735,26,0.072958977656016,1
921,738,26,0.0707928380554436,1
922,734,26,0.0811097425460179,1
922,735,26,0.102646631630016,1
922,736,26,0.0755009319910675,1
923,734,26,0.0727800550018763,1
923,735,26,0.0903559542434039,1
933,762,26,0.0730894558493492,1
936,762,26,0.102261126613091,1
937,761,26,0.0749920183771132,1
937,762,26,0.104029505839528,1
938,760,26,0.0722563348587905,1
938,761,26,0.0892208009128274,1
939,760,26,0.0843866707426099,1
940,759,26,0.0774691507008257,1
941,758,26,0.0742560574136305,1
942,757,26,0.0727773230929802,1
943,755,26,0.0712510062878672,1
943,756,26,0.0714838997834048,1
944,753,26,0.0753621885568247,1
944,754,26,0.0764280779173228,1
945,752,26,0.082468300680928,1
945,753,26,0.0880756583886537,1
945,754,26,0.0789441660106378,1
946,751,26,0.0751750840788409,1
946,752,26,0.089048217955668,1
946,753,26,0.0916107415487946,1
946,754,26,0.0784748824542324,1
947,750,26,0.0708560959968039,1
947,751,26,0.0752641317962942,1
947,752,26,0.0809583822806137,1
947,753,26,0.0826117085194183,1
907,740,27,0.085749538759239,1
917,735,27,0.0739590648546552,1
918,735,27,0.0710764074182908,1
922,734,27,0.0792004997015893,1
922,735,27,0.0955801843205725,1
923,735,27,0.0831289221313928,1
937,761,27,0.0757782589768441,1
938,760,27,0.0741210260388038,1
938,761,27,0.0879544325381722,1
939,759,27,0.0726559651654783,1
939,760,27,0.0848525481021728,1
940,758,27,0.0704589403963934,1
940,759,27,0.0808155722644263,1
941,757,27,0.0708096187884594,1
941,758,27,0.0779939205086528,1
942,756,27,0.070005464373906,1
942,757,27,0.074620284127423,1
943,755,27,0.0719155135833013,1
943,756,27,0.0724531435220643,1
944,753,27,0.0758505259612816,1
944,754,27,0.0781856754880399,1
944,755,27,0.0771028107547064,1
945,752,27,0.0830358842976383,1
945,753,27,0.0941237293078408,1
945,754,27,0.0871056152364496,1
946,751,27,0.0742182138715684,1
946,752,27,0.090177566848768,1
946,753,27,0.0984066812175688,1
946,754,27,0.0870103459961922,1
947,751,27,0.0728212977893588,1
947,752,27,0.0803228137554964,1
947,753,27,0.0842366451502542,1
907,740,28,0.109728330359608,1
908,768,28,0.0699285190823767,1
922,735,28,0.0755601024962168,1
938,760,28,0.0757993148344683,1
938,761,28,0.0861495791998324,1
939,759,28,0.0759945733306076,1
939,760,28,0.0859537367842343,1
940,758,28,0.072874684711298,1
940,759,28,0.0837835514559837,1
941,757,28,0.0706024803119042,1
941,758,28,0.0787734043260758,1
942,757,28,0.072375002585929,1
943,756,28,0.0697424851234005,1
944,753,28,0.0767712835306017,1
944,754,28,0.0852962643279932,1
944,755,28,0.0818987289574891,1
945,752,28,0.0789373258112643,1
945,753,28,0.103977696890412,1
945,754,28,0.112247358904483,1
946,751,28,0.0706060394400335,1
946,752,28,0.0846612310623797,1
946,753,28,0.108131234174392,1
946,754,28,0.113917438070614,1
946,755,28,0.0955323793906016,1
947,752,28,0.0744678533430112,1
947,753,28,0.0845714882027137,1
947,754,28,0.0867711614636292,1
938,760,29,0.0778283584878421,1
939,759,29,0.0801313020758837,1
939,760,29,0.0891862523448537,1
940,758,29,0.0751525823254142,1
940,759,29,0.0902727665748041,1
941,758,29,0.0781968533748209,1
944,754,29,0.0833958845467773,1
945,752,29,0.0722125130936987,1
945,753,29,0.101888961375229,1
945,754,29,0.127188502325557,1
945,755,29,0.104898475313999,1
946,752,29,0.0777299263505167,1
946,753,29,0.111535060581922,1
946,754,29,0.137980863235385,1
946,755,29,0.111101952226268,1
947,753,29,0.0847693326278845,1
947,754,29,0.0989700800781585,1
939,759,30,0.0807477680929947,1
939,760,30,0.087756184930518,1
940,758,30,0.0720642531625634,1
940,759,30,0.0919264681904036,1
940,760,30,0.0976756974723294,1
941,758,30,0.0721106886623751,1
941,759,30,0.0880131790065717,1
942,758,30,0.0698116170164585,1
944,754,30,0.0705021017763831,1
945,753,30,0.0952646731730495,1
945,754,30,0.126938042586303,1
945,755,30,0.101174070172215,1
946,752,30,0.0734590699152905,1
946,753,30,0.120947154065536,1
946,754,30,0.158525318636507,1
946,755,30,0.119737773449483,1
947,753,30,0.0956812997068391,1
947,754,30,0.118045922429247,1
917,736,31,0.0758049385349694,1
917,737,31,0.0706240019148109,1
918,736,31,0.0725902950806398,1
939,759,31,0.0736359001913699,1
939,760,31,0.0800583747063441,1
940,759,31,0.0833447498856074,1
940,760,31,0.0888329393638014,1
941,759,31,0.0770485131964685,1
945,753,31,0.0835865203472018,1
945,754,31,0.111178341404027,1
946,752,31,0.0711085368913641,1
946,753,31,0.120877695455638,1
946,754,31,0.155987284903535,1
946,755,31,0.116069925078128,1
947,753,31,0.103446010417568,1
947,754,31,0.12493030504175,1
947,755,31,0.0942770985342398,1
948,754,31,0.0773993723255098,1
917,736,32,0.0778101666161345,1
917,737,32,0.0703220738461251,1
940,760,32,0.0770363064992127,1
945,753,32,0.0720633772833753,1
945,754,32,0.0922193663617458,1
946,753,32,0.115176417083548,1
946,754,32,0.139989671298946,1
946,755,32,0.103392908503936,1
947,754,32,0.123546707884336,1
945,754,33,0.0721011860683268,1
946,753,33,0.0938127643903892,1
946,754,33,0.106238007406546,1
946,753,34,0.0707012808746024,1
946,754,34,0.0784332990470657,1
947,753,34,0.0848487248200026,1
919,767,41,0.0702760832373296,1
920,767,41,0.0699791393383091,1
945,751,48,0.0700106014748582,1
945,751,49,0.0782630656705853,1
945,752,49,0.0762014546045442,1
943,740,52,0.0715444536215575,1
944,754,52,0.0721370276008162,1
909,753,53,0.0700851624285978,1
909,754,53,0.0850426973030484,1
910,754,53,0.0789743490855154,1
942,739,53,0.0803052336089359,1
942,740,53,0.0726414784017646,1
943,740,53,0.0965663200150017,1
944,753,53,0.0825858422776818,1
944,754,53,0.0845059780005841,1
905,755,54,0.0748094740320451,1
906,754,54,0.0849331845988518,1
906,755,54,0.086930738309988,1
907,754,54,0.100041773876133,1
907,755,54,0.0975084949158967,1
908,753,54,0.0748271236928268,1
908,754,54,0.103569759634282,1
908,755,54,0.0924010070219373,1
909,753,54,0.0770351317088731,1
909,754,54,0.0932326056510502,1
909,755,54,0.0746928291687456,1
910,754,54,0.0753019266784014,1
941,739,54,0.0709978076882951,1
942,740,54,0.0932273851330324,1
943,741,54,0.0707435733268261,1
943,753,54,0.076188253853924,1
943,754,54,0.0750366951671266,1
906,753,55,0.0779990159010722,1
906,755,55,0.137466861180434,1
906,756,55,0.0841509619211106,1
907,753,55,0.0826166648833952,1
907,754,55,0.140722837790733,1
907,755,55,0.141663226176142,1
907,756,55,0.0823841467646524,1
908,753,55,0.077038996699576,1
908,754,55,0.111715012046536,1
908,755,55,0.105434103243189,1
909,753,55,0.0722223563074313,1
909,754,55,0.0811307914522199,1
941,740,55,0.0722843907984971,1
907,753,56,0.0838010829425893,1
907,755,56,0.144894733780553,1
907,756,56,0.0815165119632306,1
908,753,56,0.0712925271322347,1
908,754,56,0.0935725927558841,1
908,755,56,0.0913121710169964,1
910,752,56,0.0716221496666765,1
908,753,57,0.0717720431820118,1
908,755,57,0.0786229060370154,1
909,752,57,0.0734363943763106,1
909,753,57,0.0724918977004251,1
910,751,57,0.0701518474210669,1
910,752,57,0.0759905693114622,1
910,753,57,0.0727635453743235,1
909,753,58,0.0775962991629598,1
910,751,58,0.0725512489425497,1
910,752,58,0.0820965455769714,1
910,753,58,0.0831260720483205,1
911,752,58,0.0777872686316465,1
