x,y,z,signal,cytoplasm.p
702,764,26,0.111523757569543,1
747,698,26,0.0924324135471094,1
748,699,26,0.079802061869659,1
750,701,26,0.128482453943214,1
701,763,27,0.10118941196085,1
701,764,27,0.10015948925844,1
702,763,27,0.114930559185743,1
702,764,27,0.109340322830717,1
702,765,27,0.0997368497445102,1
703,764,27,0.111811463028556,1
704,764,27,0.103655373349204,1
709,698,27,0.0812380866527579,1
710,697,27,0.0915166331960326,1
710,698,27,0.08460388878125,1
711,697,27,0.092331638780527,1
711,698,27,0.0838416514421254,1
712,697,27,0.086514904238321,1
712,698,27,0.0772539485746025,1
713,696,27,0.078696000240686,1
713,697,27,0.0787880370696541,1
713,698,27,0.0702999683237596,1
714,696,27,0.0796453003492617,1
714,697,27,0.0766783708224456,1
715,696,27,0.0794160493989189,1
715,697,27,0.075871157782156,1
716,696,27,0.0791210518980942,1
716,697,27,0.0731314424389993,1
717,697,27,0.0706099461392691,1
728,749,27,0.0898656356836407,1
729,748,27,0.0867302801500973,1
730,747,27,0.0783671145569898,1
731,746,27,0.0746667543843453,1
732,745,27,0.0728186562489503,1
732,746,27,0.0936891889592286,1
733,744,27,0.0728570906618933,1
734,743,27,0.075222193866599,1
735,742,27,0.0782417178532318,1
736,740,27,0.0737927312259884,1
737,738,27,0.0709166011750017,1
737,739,27,0.0779658784717905,1
747,699,27,0.0724663164669959,1
748,699,27,0.0845054079839697,1
749,699,27,0.0949736796913702,1
749,700,27,0.0823115600147971,1
749,701,27,0.0741605031650659,1
750,700,27,0.106143322085747,1
750,701,27,0.103150776568391,1
750,702,27,0.0803024877971955,1
751,701,27,0.11497698078271,1
751,702,27,0.0925434277584856,1
700,763,28,0.0928370697319954,1
700,764,28,0.0911556319421072,1
701,762,28,0.0957528993547523,1
701,763,28,0.100457774781931,1
701,764,28,0.097142349609597,1
701,765,28,0.0897353104215943,1
702,762,28,0.107405415335794,1
702,763,28,0.11250933019878,1
702,764,28,0.105219707481932,1
702,765,28,0.094351311916873,1
703,702,28,0.0758518675857522,1
703,763,28,0.118025860624987,1
703,764,28,0.107675123562919,1
703,765,28,0.0945103535037281,1
704,763,28,0.10982387765675,1
704,764,28,0.101544275109037,1
704,765,28,0.0905707462357215,1
705,763,28,0.0997028016789297,1
705,764,28,0.094348586959399,1
706,700,28,0.0762155590400409,1
706,763,28,0.0970190035753666,1
707,699,28,0.108424222714222,1
707,700,28,0.0732010122716514,1
708,699,28,0.103793414689812,1
709,698,28,0.118390142950157,1
709,699,28,0.0898721561175963,1
710,698,28,0.102459075309594,1
710,699,28,0.0751711148168061,1
711,698,28,0.0865086201527177,1
712,698,28,0.0759722453627341,1
713,697,28,0.0812770702280489,1
713,698,28,0.0747475855208439,1
714,697,28,0.0810596853552777,1
714,698,28,0.073968810748478,1
715,697,28,0.0800617252918096,1
715,698,28,0.0719603085474909,1
716,697,28,0.07810510155416,1
717,697,28,0.0771983371975826,1
718,697,28,0.0743698382910134,1
719,697,28,0.0701677800805831,1
724,752,28,0.0706551651402085,1
727,750,28,0.0794752755154452,1
728,749,28,0.0886689761700801,1
728,750,28,0.102537953096475,1
729,748,28,0.0862730712139274,1
729,749,28,0.108849128391766,1
730,747,28,0.0806756123313112,1
730,748,28,0.103658153918055,1
731,746,28,0.0774978600742123,1
731,747,28,0.10100238394851,1
732,745,28,0.0740411681014031,1
732,746,28,0.0949582266799808,1
732,747,28,0.115873547403027,1
733,744,28,0.0745254250210712,1
733,745,28,0.0917154230146127,1
733,746,28,0.108702300453589,1
734,743,28,0.0796975750436605,1
734,744,28,0.0953422232383039,1
735,742,28,0.0837463126876467,1
735,743,28,0.0989017962586,1
736,740,28,0.0707044298688261,1
736,741,28,0.0850277934540071,1
736,742,28,0.101655720308585,1
737,739,28,0.0754798205220663,1
737,740,28,0.086471617732733,1
738,738,28,0.0774459746594526,1
738,739,28,0.091652144218986,1
749,699,28,0.0920219181676363,1
749,700,28,0.0764571001047051,1
750,699,28,0.101810445062299,1
750,700,28,0.0930687953886156,1
750,701,28,0.0819494743390199,1
751,700,28,0.0978930823451006,1
751,701,28,0.0879966415733304,1
751,702,28,0.0731311157221593,1
752,702,28,0.0772865646472248,1
699,763,29,0.0858048859822182,1
699,764,29,0.0840917705616949,1
700,762,29,0.0828473756323848,1
700,763,29,0.0890406478569711,1
700,764,29,0.0881305051092397,1
700,765,29,0.0808613404277138,1
701,703,29,0.0708418664357089,1
701,762,29,0.0895941478924512,1
701,763,29,0.0959265597823415,1
701,764,29,0.0928758030560899,1
701,765,29,0.0842704151589495,1
702,762,29,0.096906001257262,1
702,763,29,0.103054624497523,1
702,764,29,0.0977712030609392,1
702,765,29,0.0880194978492856,1
703,702,29,0.0775379350227773,1
703,762,29,0.100151196211842,1
703,763,29,0.10647347292827,1
703,764,29,0.100502660114608,1
703,765,29,0.0903548837243962,1
704,701,29,0.0827699784984172,1
704,762,29,0.099276297174297,1
704,763,29,0.104573663163669,1
704,764,29,0.0993527141577446,1
704,765,29,0.0895211788143788,1
705,700,29,0.0857315137216624,1
705,762,29,0.098037039345939,1
705,763,29,0.100927732626283,1
705,764,29,0.0957192475202331,1
705,765,29,0.0860121217786832,1
706,699,29,0.14281374214962,1
706,700,29,0.0888423029294071,1
706,762,29,0.0991673266810263,1
706,763,29,0.0996411842731916,1
706,764,29,0.094569774260074,1
707,699,29,0.186596537568933,1
707,700,29,0.0979721617232231,1
707,762,29,0.0992706526195294,1
707,763,29,0.0977220495550756,1
708,698,29,0.193622645775771,1
708,699,29,0.161788316183155,1
708,700,29,0.0850684384191865,1
708,762,29,0.0986435995865183,1
709,697,29,0.13237513911186,1
709,698,29,0.143201992978285,1
709,699,29,0.109686322915691,1
710,697,29,0.107737088539763,1
710,698,29,0.105015280060007,1
710,699,29,0.0783052051915222,1
711,697,29,0.0898471588036258,1
711,698,29,0.0868623154619871,1
712,697,29,0.0832899448735542,1
712,698,29,0.0800968160707092,1
713,697,29,0.0856947824071407,1
713,698,29,0.0812286535729309,1
714,697,29,0.0840969493711799,1
714,698,29,0.0779599489087157,1
715,697,29,0.081809257203286,1
715,698,29,0.0741767277843115,1
716,697,29,0.0796538366956343,1
716,698,29,0.0703213508982238,1
717,697,29,0.0810560567129272,1
717,698,29,0.0698754936343881,1
718,697,29,0.0812645437653752,1
719,697,29,0.0778466129223489,1
720,697,29,0.0716057373590335,1
725,751,29,0.0742383729957382,1
728,749,29,0.0879799790144908,1
729,697,29,0.0698861223588211,1
729,748,29,0.087640541072005,1
730,697,29,0.0800409961510254,1
730,747,29,0.0859793597261963,1
730,748,29,0.103897692973147,1
731,697,29,0.0874231561992338,1
731,746,29,0.0823827703830712,1
731,747,29,0.103900244145067,1
732,697,29,0.0836365705865198,1
732,745,29,0.0786746593747546,1
732,746,29,0.0980846774417788,1
733,697,29,0.0728444668793097,1
733,744,29,0.079138437404835,1
733,745,29,0.0946543244074107,1
734,742,29,0.0716121743759236,1
734,743,29,0.0855759478458711,1
734,744,29,0.0987786240099228,1
735,741,29,0.0736640534509862,1
735,742,29,0.0918854965083841,1
735,743,29,0.10422500068402,1
736,740,29,0.0743020063138933,1
736,741,29,0.0900302453596199,1
736,742,29,0.106674487201931,1
737,739,29,0.078933328743541,1
737,740,29,0.092396787508706,1
738,738,29,0.0786025592244482,1
738,739,29,0.0960719140190275,1
750,699,29,0.0957187331149957,1
750,700,29,0.0800574015072463,1
751,700,29,0.0827390377185277,1
751,701,29,0.0708471634193701,1
695,761,30,0.0746467690457288,1
696,761,30,0.0781751232292503,1
697,761,30,0.0721359501303864,1
698,704,30,0.0768440996773873,1
699,704,30,0.0760877640956489,1
699,763,30,0.0802776364630897,1
699,764,30,0.0795476884797473,1
700,703,30,0.081115095141056,1
700,762,30,0.0784292950279202,1
700,763,30,0.085793263204421,1
700,764,30,0.0853650486499448,1
700,765,30,0.0769198632271549,1
701,762,30,0.0831486363645464,1
701,763,30,0.0904750807644028,1
701,764,30,0.0888327169182933,1
701,765,30,0.0800541065331578,1
702,702,30,0.0822502415202104,1
702,762,30,0.0848738055510387,1
702,763,30,0.0925347662865147,1
702,764,30,0.090655769079763,1
702,765,30,0.0828521512593864,1
703,701,30,0.097959239029488,1
703,702,30,0.0780580751834675,1
703,762,30,0.087336319034017,1
703,763,30,0.0968401851925588,1
703,764,30,0.0948364655699955,1
703,765,30,0.0862071022179374,1
704,700,30,0.10247030185633,1
704,701,30,0.088309678014576,1
704,761,30,0.0767797781684415,1
704,762,30,0.0925623425780945,1
704,763,30,0.102485052774085,1
704,764,30,0.0990648627188669,1
704,765,30,0.0878031417869893,1
705,700,30,0.0917631862360507,1
705,701,30,0.0714750575744586,1
705,761,30,0.0822627123715071,1
705,762,30,0.0960041446047065,1
705,763,30,0.102904522439524,1
705,764,30,0.0975550555413067,1
705,765,30,0.0850908567555477,1
706,699,30,0.17296657834097,1
706,700,30,0.101220366643584,1
706,761,30,0.0852746871137095,1
706,762,30,0.0967963773303113,1
706,763,30,0.0999466853728509,1
706,764,30,0.0944384201875527,1
707,698,30,0.273619514299131,1
707,699,30,0.238576644600814,1
707,700,30,0.120494533067971,1
707,761,30,0.0892975237588486,1
707,762,30,0.0970422074224283,1
707,763,30,0.095215797724071,1
707,764,30,0.0894611810899963,1
708,697,30,0.148695757497025,1
708,698,30,0.22350836662045,1
708,699,30,0.189669274691952,1
708,700,30,0.097823151038498,1
708,761,30,0.0921767471926821,1
708,762,30,0.0972279633245193,1
708,763,30,0.0923814526714927,1
709,697,30,0.121442901685981,1
709,698,30,0.139604632027304,1
709,699,30,0.112359033500961,1
709,762,30,0.0931681729193504,1
710,696,30,0.0899987623688044,1
710,697,30,0.098683055858514,1
710,698,30,0.0972873145666439,1
710,699,30,0.0771313671968062,1
711,697,30,0.0878705775330482,1
711,698,30,0.0875858125255951,1
711,699,30,0.0714749533031267,1
712,697,30,0.0868380549987621,1
712,698,30,0.0877565255502023,1
712,699,30,0.0716778375093399,1
713,697,30,0.0891363550368225,1
713,698,30,0.0886150817943255,1
713,699,30,0.0708012492762179,1
714,697,30,0.0859420097351052,1
714,698,30,0.082837629738562,1
715,697,30,0.0824328345252334,1
715,698,30,0.0781170093402644,1
716,696,30,0.0719103764823491,1
716,697,30,0.0798772623542342,1
716,698,30,0.0751366357630537,1
717,696,30,0.0729482933202061,1
717,697,30,0.0825039406221756,1
717,698,30,0.0764947976669025,1
718,696,30,0.0764295724730802,1
718,697,30,0.0858108155452929,1
718,698,30,0.0770708481157642,1
719,696,30,0.0791980736552668,1
719,697,30,0.083682811446512,1
719,698,30,0.07090571524795,1
719,754,30,0.073101926700646,1
720,697,30,0.0765775821530189,1
721,697,30,0.0713992801218468,1
721,753,30,0.0757071528799019,1
723,752,30,0.0853510137286694,1
724,751,30,0.0841590186193564,1
724,752,30,0.0985022493689777,1
725,751,30,0.0887456781618349,1
726,750,30,0.0757046920764688,1
727,749,30,0.0720432112077835,1
727,750,30,0.0897525012885156,1
728,697,30,0.0730332257957599,1
728,748,30,0.0757326576476877,1
728,749,30,0.0903048543393446,1
729,747,30,0.0738187434475895,1
729,748,30,0.0909838414470703,1
730,698,30,0.0805713062422881,1
730,746,30,0.0720732969627513,1
730,747,30,0.0917066781255763,1
731,698,30,0.0860095984124509,1
731,746,30,0.0884279147535426,1
732,698,30,0.0739207972758433,1
732,744,30,0.0700240663795192,1
732,745,30,0.086018106953135,1
733,744,30,0.0852828480832872,1
734,742,30,0.0785708954966574,1
734,743,30,0.0906197259560319,1
735,741,30,0.0796142344437739,1
735,742,30,0.0979258513490097,1
736,740,30,0.0810198259007986,1
736,741,30,0.0951647464799667,1
737,739,30,0.0861811734134019,1
737,740,30,0.100667749438714,1
750,700,30,0.0728146730840713,1
751,700,30,0.0749489126085006,1
694,708,31,0.0707905579889858,1
694,709,31,0.0714414683027386,1
697,704,31,0.0752529747637796,1
697,705,31,0.0715289658530574,1
698,704,31,0.0855703449996363,1
698,705,31,0.0713720444499512,1
699,703,31,0.110353471751534,1
699,704,31,0.0837436085844391,1
699,763,31,0.0768143267364152,1
699,764,31,0.076237810542271,1
700,703,31,0.0872716151968543,1
700,762,31,0.0770039823863198,1
700,763,31,0.083357429279568,1
700,764,31,0.0829663700763633,1
700,765,31,0.074711771794043,1
701,702,31,0.0858685749117503,1
701,762,31,0.0788642733161264,1
701,763,31,0.0855862707077304,1
701,764,31,0.0853614547647049,1
702,701,31,0.100424658206916,1
702,702,31,0.0803664964921456,1
702,762,31,0.0786594288088733,1
702,763,31,0.0864750795409526,1
702,764,31,0.0869576959249985,1
703,701,31,0.0991561974542001,1
703,702,31,0.075784362325472,1
703,762,31,0.0826793458567188,1
703,763,31,0.0937753865936096,1
703,764,31,0.0939546776731221,1
703,765,31,0.0846775321472687,1
704,700,31,0.10309947507309,1
704,701,31,0.0883637739815722,1
704,761,31,0.0741742044180792,1
704,762,31,0.0918027120222677,1
704,763,31,0.104414357422773,1
704,764,31,0.10223050559862,1
704,765,31,0.0879063704055827,1
705,700,31,0.0957536640111863,1
705,701,31,0.0727641988080035,1
705,761,31,0.0796011935758627,1
705,762,31,0.0960233791897333,1
705,763,31,0.105067311454631,1
705,764,31,0.100015956294351,1
705,765,31,0.085021245214363,1
706,700,31,0.104739218233057,1
706,761,31,0.0827117672895215,1
706,762,31,0.0957027656983688,1
706,763,31,0.0994479416894692,1
706,764,31,0.0934155601300238,1
707,699,31,0.230803953657482,1
707,700,31,0.12142286768741,1
707,760,31,0.0729176236457796,1
707,761,31,0.0870838225280798,1
707,762,31,0.0944403248772156,1
707,763,31,0.0923968848286157,1
707,764,31,0.0865423415014582,1
708,698,31,0.199513183566705,1
708,699,31,0.173529004002462,1
708,700,31,0.094374918946418,1
708,761,31,0.090692792354014,1
708,762,31,0.0938229899323387,1
708,763,31,0.0890606888069647,1
709,698,31,0.119609047014525,1
709,699,31,0.101826384673238,1
710,697,31,0.0926412898791965,1
710,698,31,0.0901166028767098,1
710,699,31,0.075051870121631,1
711,698,31,0.0896961878178607,1
711,699,31,0.074386278404345,1
712,698,31,0.09394594668693,1
712,699,31,0.0772905408606817,1
713,698,31,0.0922368700426628,1
713,699,31,0.0744448927957241,1
714,698,31,0.0850347587789788,1
715,698,31,0.0798747667936905,1
716,697,31,0.077402382291291,1
716,698,31,0.0773403478002253,1
717,697,31,0.0805464618596044,1
717,698,31,0.079154516044216,1
718,698,31,0.0815636495566772,1
718,754,31,0.0785656749786397,1
719,698,31,0.0771984553717587,1
719,753,31,0.0723180217787499,1
719,754,31,0.0879745777594977,1
720,753,31,0.0840919026387154,1
721,752,31,0.0730612052698231,1
721,753,31,0.0914052644621279,1
722,752,31,0.0856815886079427,1
723,751,31,0.0869819633396456,1
723,752,31,0.100772528224442,1
724,750,31,0.0715282498565783,1
724,751,31,0.0989310130858019,1
725,750,31,0.078081438913238,1
727,749,31,0.0827010342937567,1
728,747,31,0.0702900486443837,1
728,748,31,0.0849315927231846,1
729,698,31,0.0802529241574265,1
729,747,31,0.084931071366525,1
730,698,31,0.0945909065833415,1
730,699,31,0.0709993509040074,1
730,746,31,0.0821185398765828,1
730,747,31,0.0984586917579268,1
731,745,31,0.0793879865077902,1
731,746,31,0.0959977284420829,1
732,744,31,0.0779084597250173,1
732,745,31,0.0942462064143052,1
733,743,31,0.0762732349894327,1
733,744,31,0.0913417632209932,1
734,742,31,0.0843435788768415,1
734,743,31,0.0950391134278564,1
735,740,31,0.0702762848285713,1
735,741,31,0.0853996180721849,1
736,739,31,0.0747903159126617,1
736,740,31,0.090047755991959,1
737,738,31,0.0741538437026678,1
737,739,31,0.0942053181493512,1
738,738,31,0.087245484801077,1
750,699,31,0.080797943457911,1
751,700,31,0.070579568424572,1
688,713,32,0.0700728236543215,1
689,712,32,0.0707365037305224,1
689,713,32,0.069806625895371,1
690,711,32,0.0733941783897303,1
690,712,32,0.0738823628629004,1
690,759,32,0.0738116460455973,1
691,710,32,0.0713476310554394,1
691,711,32,0.0740008915615964,1
691,712,32,0.0707545218166769,1
692,707,32,0.0704575709662343,1
692,708,32,0.0737693813990621,1
692,709,32,0.0746993496027012,1
692,710,32,0.0749989002850194,1
692,711,32,0.0720644408509608,1
693,706,32,0.0719383768106786,1
693,707,32,0.0756639636942237,1
693,708,32,0.0786452479077332,1
693,709,32,0.0790080565314116,1
693,710,32,0.0760874512816532,1
694,705,32,0.0710087700809902,1
694,706,32,0.0740969532639763,1
694,707,32,0.0772170712802162,1
694,708,32,0.0791534177195198,1
694,709,32,0.0781120599277097,1
694,710,32,0.0716690161546601,1
695,705,32,0.0711703419854997,1
695,706,32,0.0722662336839,1
695,707,32,0.073727450420789,1
695,708,32,0.0735881230670876,1
696,704,32,0.0718273765021467,1
696,705,32,0.0727419681600397,1
696,706,32,0.0698045752258434,1
697,704,32,0.0808034281299696,1
697,705,32,0.074466045973258,1
698,703,32,0.112616743573494,1
698,704,32,0.0895735438772653,1
698,705,32,0.0708203448328022,1
699,703,32,0.117389221580862,1
699,704,32,0.0846025958167343,1
699,762,32,0.0733322690242628,1
700,703,32,0.0883500588257146,1
700,763,32,0.0813803057980644,1
700,764,32,0.0805445363156751,1
701,702,32,0.0882793837169443,1
701,763,32,0.0824060367929319,1
702,702,32,0.081386388292426,1
702,762,32,0.078994716752349,1
702,763,32,0.0863753335848451,1
702,764,32,0.0863149952407784,1
703,701,32,0.0986426194359983,1
703,702,32,0.0749705871426941,1
703,762,32,0.0849118089758097,1
703,763,32,0.0962291412847073,1
703,764,32,0.0956103395897615,1
703,765,32,0.0839704334884594,1
704,700,32,0.100922859679371,1
704,701,32,0.0870148227120423,1
704,761,32,0.0747083516943563,1
704,762,32,0.0935288544078578,1
704,763,32,0.106771445637766,1
704,764,32,0.1043332829865,1
704,765,32,0.0875497485475977,1
705,700,32,0.0986649474038718,1
705,701,32,0.0743525431527602,1
705,761,32,0.0795006134490999,1
705,762,32,0.096347162529588,1
705,763,32,0.104889188214036,1
705,764,32,0.0991548697325738,1
705,765,32,0.0831365408900445,1
706,700,32,0.105010928469755,1
706,761,32,0.0838082776644912,1
706,762,32,0.0959131018291027,1
706,763,32,0.0976169440525078,1
706,764,32,0.0903299281189585,1
707,699,32,0.187752712000023,1
707,700,32,0.110850519287916,1
707,760,32,0.073883377770531,1
707,761,32,0.087350055044141,1
707,762,32,0.0932887175304634,1
707,763,32,0.0897753575644708,1
708,699,32,0.14203331989021,1
708,700,32,0.0871793767766445,1
708,761,32,0.0897960449967223,1
708,762,32,0.0915419850325315,1
709,698,32,0.10671794054165,1
709,699,32,0.0938006202559325,1
710,698,32,0.0901757108190599,1
710,699,32,0.0767460081597461,1
711,698,32,0.0921171874078937,1
711,699,32,0.077544949007704,1
712,698,32,0.0963135871607122,1
712,699,32,0.0810320256466324,1
713,698,32,0.0935738926718219,1
713,699,32,0.0779298840080143,1
714,698,32,0.0862283666182254,1
714,699,32,0.0705901206833615,1
715,698,32,0.0806967029460461,1
715,755,32,0.0724843901645274,1
716,697,32,0.0742235178066517,1
716,698,32,0.0785641804228823,1
717,698,32,0.0811199402822789,1
717,754,32,0.0810022248999718,1
718,753,32,0.0778180286745607,1
718,754,32,0.0943276284216846,1
719,753,32,0.0917288948706958,1
720,752,32,0.0812548743371958,1
720,753,32,0.10093435733157,1
721,752,32,0.0906984577630479,1
722,751,32,0.0845564105681191,1
722,752,32,0.101256215127496,1
723,750,32,0.0748882405961718,1
723,751,32,0.101841066076771,1
724,750,32,0.0864946477942415,1
725,749,32,0.0715684082222088,1
725,750,32,0.094305293502389,1
726,749,32,0.0848075098382087,1
727,748,32,0.0826675631962127,1
728,747,32,0.0849524886980998,1
728,748,32,0.0954845536063644,1
729,699,32,0.075073572461513,1
729,746,32,0.0811927008176874,1
729,747,32,0.0967094636994512,1
730,699,32,0.0869827627531903,1
730,745,32,0.0755345907770088,1
730,746,32,0.0950403785866836,1
731,699,32,0.0811472385169736,1
731,744,32,0.0700144525627168,1
731,745,32,0.0897538151072977,1
732,744,32,0.0851259336316031,1
733,743,32,0.082577618745305,1
734,741,32,0.0741738777012392,1
734,742,32,0.0892289966395157,1
735,740,32,0.0768672965730268,1
735,741,32,0.0890083237440782,1
736,739,32,0.0812895132736571,1
736,740,32,0.0954364011052872,1
737,738,32,0.0780420382526194,1
737,739,32,0.0982892995035239,1
738,737,32,0.0712510758020884,1
738,738,32,0.0900674215651577,1
739,736,32,0.070379207584591,1
739,737,32,0.0816638195495345,1
740,734,32,0.073441322934599,1
740,735,32,0.0842254533606289,1
740,736,32,0.087368650098332,1
741,734,32,0.092978802277753,1
741,735,32,0.103600158203245,1
751,700,32,0.0705925884382168,1
688,713,33,0.0729817713691721,1
688,714,33,0.0705308598097246,1
688,758,33,0.0726927034314222,1
688,759,33,0.0821370445622862,1
689,712,33,0.0739624988571862,1
689,713,33,0.0728273177209212,1
689,758,33,0.071187970792015,1
690,710,33,0.0725513115053488,1
690,711,33,0.0759811848915901,1
690,712,33,0.0738025813911431,1
690,759,33,0.076301110192164,1
691,709,33,0.0763691576633701,1
691,710,33,0.0770616374814453,1
691,711,33,0.0754285398810317,1
692,707,33,0.0813764616616279,1
692,708,33,0.0839127714419118,1
692,709,33,0.0841104281786851,1
692,710,33,0.0808477643002988,1
692,711,33,0.0721123500522636,1
693,705,33,0.0762605973040049,1
693,706,33,0.0806089620959528,1
693,707,33,0.0847316142114207,1
693,708,33,0.0864788472117457,1
693,709,33,0.0854395470408853,1
693,710,33,0.0784983087468021,1
694,705,33,0.0778413159386878,1
694,706,33,0.0809042654593511,1
694,707,33,0.0830909256580439,1
694,708,33,0.0826171862400547,1
694,709,33,0.0792405816015765,1
695,705,33,0.0779453995822028,1
695,706,33,0.0776920967112989,1
695,707,33,0.0767731187060434,1
695,708,33,0.0731631061667901,1
696,705,33,0.0780782621133257,1
696,706,33,0.0728923343720797,1
697,705,33,0.0760036518879061,1
698,704,33,0.0857317014100598,1
698,762,33,0.0746622568142289,1
699,703,33,0.106351148753093,1
699,704,33,0.0778124536340144,1
699,761,33,0.0702692499893782,1
699,762,33,0.077509677491829,1
699,763,33,0.0790003960642271,1
700,703,33,0.0836646265262264,1
700,762,33,0.0776542323149704,1
701,702,33,0.0883963066371289,1
701,762,33,0.0775216895492653,1
701,763,33,0.081697812003738,1
702,701,33,0.0998576098497091,1
702,702,33,0.0799987801644451,1
702,762,33,0.0828412653323347,1
702,763,33,0.0885140845822351,1
702,764,33,0.0859087124231145,1
703,700,33,0.1029959962033,1
703,701,33,0.0932628234830384,1
703,702,33,0.0709979189110492,1
703,761,33,0.0715859675145029,1
703,762,33,0.0876452402333631,1
703,763,33,0.0964114284271568,1
703,764,33,0.0936876109864057,1
703,765,33,0.0831826983329711,1
704,699,33,0.107601410682679,1
704,700,33,0.0986026279044988,1
704,701,33,0.0839735546769947,1
704,761,33,0.0754592443125689,1
704,762,33,0.0911677552222976,1
704,763,33,0.100986659831658,1
704,764,33,0.097865026405394,1
704,765,33,0.0847026754411039,1
705,699,33,0.119601831438357,1
705,700,33,0.0987142607924443,1
705,701,33,0.0757616867864921,1
705,761,33,0.0801295016575527,1
705,762,33,0.0926052884639982,1
705,763,33,0.0971696965042466,1
705,764,33,0.0912327023592348,1
706,699,33,0.133663362757684,1
706,700,33,0.0981736208879001,1
706,760,33,0.0713201173266588,1
706,761,33,0.0850130981476295,1
706,762,33,0.0933263594812838,1
706,763,33,0.0918734079853044,1
706,764,33,0.0844748703865636,1
707,699,33,0.133105789188837,1
707,700,33,0.092072879043253,1
707,760,33,0.0755050333301227,1
707,761,33,0.0862669122539224,1
707,762,33,0.090219824543881,1
707,763,33,0.0862813434062591,1
708,699,33,0.105826427605221,1
708,700,33,0.0752843326289967,1
708,761,33,0.0871857581821575,1
708,762,33,0.0883411262482808,1
709,699,33,0.0829559985545491,1
710,699,33,0.0747252019415934,1
710,758,33,0.0714796455130628,1
711,699,33,0.0759916259276256,1
712,699,33,0.0784476606851811,1
713,699,33,0.0770272905047133,1
714,699,33,0.0716442621404641,1
714,755,33,0.0721054194844025,1
716,754,33,0.0796944677579695,1
717,753,33,0.0717513974582931,1
717,754,33,0.0906006443022919,1
718,753,33,0.0873668913885338,1
719,752,33,0.0778144834492756,1
719,753,33,0.0985352269155506,1
720,752,33,0.0922077852924814,1
721,751,33,0.0793237623187542,1
721,752,33,0.101599420740775,1
722,751,33,0.0934574772054527,1
723,750,33,0.0873869740470601,1
723,751,33,0.107303722981491,1
724,749,33,0.0775103031198205,1
724,750,33,0.101848323361472,1
725,749,33,0.0895972134696094,1
726,748,33,0.0839912529977313,1
727,747,33,0.0827315788425849,1
727,748,33,0.094493447645114,1
728,746,33,0.0810702376140673,1
728,747,33,0.0950572288339206,1
729,745,33,0.071737320828485,1
729,746,33,0.092465050473998,1
730,700,33,0.0700208617739184,1
730,745,33,0.0852716215365512,1
731,744,33,0.0781710427444615,1
734,741,33,0.0777185955324489,1
735,740,33,0.0802488228183712,1
736,739,33,0.0852239486836009,1
737,738,33,0.0819068760242225,1
738,736,33,0.0698336182674921,1
738,737,33,0.0799766468363911,1
739,735,33,0.0841866574737353,1
739,736,33,0.0929810128299896,1
740,734,33,0.105985900180248,1
740,735,33,0.12476327627087,1
741,733,33,0.083010511606873,1
741,734,33,0.133542171664313,1
742,733,33,0.0817842668407377,1
750,700,33,0.0703575747589302,1
688,713,34,0.0725758361226146,1
688,758,34,0.0724220289566216,1
688,759,34,0.0806068836207366,1
689,711,34,0.0726974790584238,1
689,712,34,0.0728651056516063,1
689,713,34,0.0725170340428381,1
689,758,34,0.0730416092108456,1
689,759,34,0.080762943047499,1
690,709,34,0.0711281190474972,1
690,710,34,0.0722902786530391,1
690,711,34,0.073804979631777,1
690,712,34,0.0704357852092867,1
690,719,34,0.0799016270887911,1
690,720,34,0.0808545002283403,1
690,759,34,0.0774516539713308,1
691,708,34,0.0800856868438831,1
691,709,34,0.0793982746125389,1
691,710,34,0.0766016201707358,1
691,711,34,0.0718432744045523,1
691,719,34,0.0963681280187246,1
691,720,34,0.100193335732779,1
691,721,34,0.0745245352390388,1
692,707,34,0.0871466216755797,1
692,708,34,0.0873159096586507,1
692,709,34,0.0861963344650619,1
692,710,34,0.07874822627513,1
692,719,34,0.0824091440786229,1
692,720,34,0.0864925554161811,1
693,705,34,0.0800182024378693,1
693,706,34,0.0839186940535644,1
693,707,34,0.087140205512956,1
693,708,34,0.0869701042134961,1
693,709,34,0.0841783783299815,1
693,710,34,0.0737908195849033,1
694,705,34,0.0811844147225115,1
694,706,34,0.0831394952444487,1
694,707,34,0.0834298074867595,1
694,708,34,0.0807839641480126,1
694,709,34,0.0748862455380212,1
695,705,34,0.0813549400587212,1
695,706,34,0.0793734580355437,1
695,707,34,0.0761597182660907,1
695,708,34,0.0701997010109926,1
696,705,34,0.0796131986818769,1
696,706,34,0.0731308932766512,1
697,704,34,0.0841045125184546,1
697,705,34,0.0740541325036709,1
697,762,34,0.0750415403083495,1
698,703,34,0.0957923625781701,1
698,704,34,0.0792030300192438,1
698,761,34,0.0733066113251902,1
698,762,34,0.0803261295838512,1
698,763,34,0.0793290453995711,1
699,702,34,0.107755662739688,1
699,703,34,0.0925020389911384,1
699,704,34,0.0710547606897857,1
699,761,34,0.0742437116879321,1
699,762,34,0.0810555492591119,1
699,763,34,0.0802278364749683,1
700,702,34,0.0982327079759839,1
700,703,34,0.080372787529171,1
700,761,34,0.0708227569762804,1
700,762,34,0.0780696562527319,1
701,701,34,0.104629406617709,1
701,702,34,0.0900045598548588,1
701,703,34,0.0704815533725742,1
701,761,34,0.0699907551646842,1
701,762,34,0.07996840940117,1
701,763,34,0.0817869639925232,1
702,699,34,0.111353114059157,1
702,700,34,0.105733931982392,1
702,701,34,0.0980148365036638,1
702,702,34,0.0807610592121025,1
702,761,34,0.0757148967641519,1
702,762,34,0.0884227498469019,1
702,763,34,0.0901933187713089,1
702,764,34,0.08618946646,1
703,699,34,0.105933069372079,1
703,700,34,0.0997476035945414,1
703,701,34,0.0901754675192855,1
703,702,34,0.0700793649425434,1
703,761,34,0.0796001647653878,1
703,762,34,0.0924380650532991,1
703,763,34,0.0945718805409786,1
703,764,34,0.089887678643207,1
703,765,34,0.0804591380948387,1
704,698,34,0.109706614116881,1
704,699,34,0.106355416926279,1
704,700,34,0.096965811293247,1
704,701,34,0.0833731047364655,1
704,761,34,0.0809106538162863,1
704,762,34,0.0911073056554768,1
704,763,34,0.0926718066223362,1
704,764,34,0.087873024433637,1
705,698,34,0.117910049932343,1
705,699,34,0.111738702493147,1
705,700,34,0.0966509813850926,1
705,701,34,0.0778775467508163,1
705,760,34,0.0722641691115282,1
705,761,34,0.0837101166326288,1
705,762,34,0.090307711373839,1
705,763,34,0.0877348023560538,1
706,698,34,0.119376313401697,1
706,699,34,0.111303571273654,1
706,700,34,0.0915621719623898,1
706,701,34,0.0703189804632784,1
706,760,34,0.0752481921853558,1
706,761,34,0.0856174756416608,1
706,762,34,0.0898390812511136,1
706,763,34,0.084900811826004,1
707,699,34,0.101150449239826,1
707,700,34,0.0818894279546825,1
707,760,34,0.0768941707709717,1
707,761,34,0.0837903986067793,1
707,762,34,0.0857349894327261,1
708,699,34,0.0878448850768649,1
708,700,34,0.0717758803670262,1
708,759,34,0.0704533653558472,1
709,699,34,0.0792926686075779,1
710,699,34,0.0753610693778622,1
710,758,34,0.0757062561464475,1
711,757,34,0.071047141931134,1
715,754,34,0.0786000011011053,1
716,753,34,0.0714517772617536,1
716,754,34,0.0889180734305969,1
717,753,34,0.082880756361441,1
718,752,34,0.0744532623079656,1
718,753,34,0.0948383980653469,1
719,752,34,0.0864754479663253,1
720,751,34,0.0767213236597714,1
720,752,34,0.099946469878765,1
721,751,34,0.0895894904396257,1
722,750,34,0.0792722661836337,1
722,751,34,0.0998415451131725,1
723,749,34,0.0758805422020281,1
723,750,34,0.0978244509544358,1
724,748,34,0.0713533520758504,1
724,749,34,0.0961102441606386,1
725,748,34,0.0843554866629459,1
726,747,34,0.0816102449391979,1
726,748,34,0.0956596043183791,1
727,746,34,0.0787926389111025,1
727,747,34,0.0926927095486736,1
728,745,34,0.0703731250902295,1
728,746,34,0.089585903505808,1
729,700,34,0.0759264285394917,1
729,745,34,0.0800221786513262,1
730,700,34,0.0822982063328901,1
730,744,34,0.0734288312290359,1
731,700,34,0.0743006021266236,1
735,739,34,0.0745903026437871,1
735,740,34,0.0834639181151391,1
736,738,34,0.0756322165493674,1
736,739,34,0.088549738426327,1
737,737,34,0.0717397607776517,1
737,738,34,0.0854428767720843,1
738,735,34,0.101753054121215,1
738,736,34,0.115761177664336,1
738,737,34,0.102330091672018,1
739,734,34,0.107527746462393,1
739,735,34,0.176126347269025,1
739,736,34,0.182404120980994,1
740,733,34,0.0710870848026786,1
740,734,34,0.148166476216237,1
740,735,34,0.215924448496413,1
741,733,34,0.0892120143152582,1
741,734,34,0.157925744575166,1
687,713,35,0.0712675089639979,1
688,711,35,0.0710675582579225,1
688,712,35,0.0711462692106721,1
688,713,35,0.0707337440159378,1
688,758,35,0.0740568227040343,1
689,709,35,0.0703282884175071,1
689,710,35,0.0704027450999147,1
689,711,35,0.071513352958959,1
689,712,35,0.0710596336366971,1
689,713,35,0.0705525691010288,1
689,719,35,0.0725983309246192,1
689,720,35,0.0735371969485815,1
689,758,35,0.0753496203856182,1
689,759,35,0.0799465888871118,1
690,708,35,0.0757338950008264,1
690,709,35,0.0736270788366901,1
690,710,35,0.0724633551611696,1
690,711,35,0.0713164956357304,1
690,718,35,0.0799067363840548,1
690,719,35,0.119315446749548,1
690,720,35,0.127786936353669,1
690,721,35,0.0875759415061741,1
690,758,35,0.0723338849240449,1
691,707,35,0.0865777937543085,1
691,708,35,0.0836272834865575,1
691,709,35,0.0807953922859902,1
691,710,35,0.0754133023637282,1
691,718,35,0.0887089885558459,1
691,719,35,0.146840061457245,1
691,720,35,0.160165937675662,1
691,721,35,0.105977391639564,1
691,759,35,0.0724557572567842,1
692,706,35,0.0875325159721436,1
692,707,35,0.0900796282624136,1
692,708,35,0.0884081796661226,1
692,709,35,0.0851194618576024,1
692,710,35,0.0752843048233082,1
692,718,35,0.0698860528445998,1
692,719,35,0.107220618729956,1
692,720,35,0.117414747202915,1
692,721,35,0.0832616247798068,1
692,760,35,0.0717350199077608,1
693,705,35,0.0836818451988363,1
693,706,35,0.0867550619699819,1
693,707,35,0.0880332130051432,1
693,708,35,0.0861208628750237,1
693,709,35,0.0807341294027805,1
694,704,35,0.08288735326104,1
694,705,35,0.0841765153488513,1
694,706,35,0.0851543927537931,1
694,707,35,0.083277557439323,1
694,708,35,0.078567711745323,1
694,709,35,0.07032986639033,1
695,704,35,0.0857211282970039,1
695,705,35,0.083706800804274,1
695,706,35,0.0808354463802888,1
695,707,35,0.0757831180209112,1
696,704,35,0.0866990960704334,1
696,705,35,0.0796882323323211,1
696,706,35,0.0728861615092305,1
696,762,35,0.0733490775629671,1
697,703,35,0.0893737808595873,1
697,704,35,0.0823139304497426,1
697,705,35,0.0714405368121735,1
697,761,35,0.0730249953119609,1
697,762,35,0.077917274128275,1
697,763,35,0.0768828816614366,1
698,702,35,0.0981115168826131,1
698,703,35,0.0884085063829626,1
698,704,35,0.0747871669184379,1
698,761,35,0.0789757185156745,1
698,762,35,0.0836620892571499,1
698,763,35,0.0814662114727161,1
699,701,35,0.113965972899909,1
699,702,35,0.102641995031457,1
699,703,35,0.0856619299861661,1
699,761,35,0.0774159584187061,1
699,762,35,0.0827801831861004,1
700,700,35,0.115186295054391,1
700,701,35,0.110482010498093,1
700,702,35,0.0967286357216788,1
700,703,35,0.0790778279553054,1
700,761,35,0.0742390681379509,1
701,700,35,0.111135763943496,1
701,701,35,0.103141294828609,1
701,702,35,0.0896168025771647,1
701,703,35,0.0717749141193505,1
701,761,35,0.0766890482068334,1
701,762,35,0.0855919152624979,1
701,763,35,0.0856439258028559,1
702,700,35,0.10569020753721,1
702,701,35,0.096843737369266,1
702,702,35,0.0817377479238605,1
702,761,35,0.0847053656414672,1
702,762,35,0.093512018063465,1
702,763,35,0.0910386603619678,1
702,764,35,0.0866055785885521,1
703,699,35,0.108929973431109,1
703,700,35,0.101423125724199,1
703,701,35,0.0913543731007325,1
703,702,35,0.0737655928740026,1
703,760,35,0.0729009263298293,1
703,761,35,0.0881180203550987,1
703,762,35,0.0947340572192132,1
703,763,35,0.0906412406075165,1
703,764,35,0.0852228781645932,1
704,699,35,0.106155973674019,1
704,700,35,0.09807765650543,1
704,701,35,0.0864208932054687,1
704,760,35,0.0765196003410535,1
704,761,35,0.0877713737878666,1
704,762,35,0.0902419231148244,1
704,763,35,0.084945572033083,1
705,698,35,0.10919078383791,1
705,699,35,0.105032255432842,1
705,700,35,0.0954991237871437,1
705,701,35,0.0810224465869407,1
705,760,35,0.079485570571616,1
705,761,35,0.0886056139573879,1
705,762,35,0.0877630320813136,1
705,763,35,0.0800678981546588,1
706,698,35,0.105873266287516,1
706,699,35,0.100523882806364,1
706,700,35,0.0892316034228135,1
706,701,35,0.0735821448440579,1
706,760,35,0.0792161334499541,1
706,761,35,0.086395833328699,1
706,762,35,0.0850224895189238,1
707,698,35,0.0988076879058379,1
707,699,35,0.0922320735613948,1
707,700,35,0.0806845935687,1
707,760,35,0.078829849873751,1
707,761,35,0.0819796713167417,1
708,698,35,0.0916282938896666,1
708,699,35,0.084908659981586,1
708,700,35,0.0737950390981347,1
708,759,35,0.0751478901154781,1
709,698,35,0.0861406257681321,1
709,699,35,0.0805632982039972,1
710,698,35,0.0812962909102315,1
710,699,35,0.0779587046041549,1
711,699,35,0.0766417646335221,1
712,699,35,0.0762233307299794,1
713,699,35,0.0759546652161737,1
714,699,35,0.072933674479472,1
714,754,35,0.073725705613835,1
715,753,35,0.0697370977712517,1
715,754,35,0.0858614497040696,1
716,753,35,0.0816016182243376,1
717,699,35,0.0723984010728102,1
717,752,35,0.0735730732381815,1
717,753,35,0.0914068076778402,1
718,699,35,0.0747910805690957,1
718,752,35,0.0847589889117588,1
719,699,35,0.0760003360595513,1
719,751,35,0.0764015512904842,1
719,752,35,0.0950859660129957,1
720,699,35,0.0750634789965839,1
720,751,35,0.088417411154708,1
721,699,35,0.072679502680802,1
721,750,35,0.078207051111082,1
722,699,35,0.0742467494594018,1
722,749,35,0.0739033492063033,1
722,750,35,0.0919024510269531,1
723,699,35,0.0833455423477299,1
723,748,35,0.0729977596400654,1
723,749,35,0.0953327693042105,1
724,700,35,0.0708001231458333,1
724,748,35,0.0911001456906855,1
725,700,35,0.0755439404397703,1
725,747,35,0.0802129534801933,1
726,700,35,0.0741159028406959,1
726,746,35,0.0799099896496105,1
726,747,35,0.0915655503535438,1
727,700,35,0.0709170669202842,1
727,745,35,0.0718781079808332,1
727,746,35,0.0893541987034541,1
728,700,35,0.0719675310750814,1
728,745,35,0.0802335853010678,1
729,700,35,0.0793936380139798,1
729,744,35,0.0719831926291346,1
730,700,35,0.0825952475518203,1
731,700,35,0.0756110077604564,1
735,739,35,0.0798869804423685,1
736,738,35,0.0821125338478646,1
737,736,35,0.0726182884575473,1
737,737,35,0.081904609860609,1
738,734,35,0.0754046339403352,1
738,735,35,0.140956044100267,1
738,736,35,0.160504416321895,1
739,734,35,0.131410184400653,1
739,735,35,0.250575188472518,1
740,733,35,0.0739725992735375,1
740,734,35,0.155073214602302,1
741,733,35,0.0872276057433651,1
688,758,36,0.0749600140296382,1
689,708,36,0.0742254711562695,1
689,709,36,0.0718325622630538,1
689,710,36,0.0699287484793069,1
689,718,36,0.0768861627326808,1
689,719,36,0.0872528046485773,1
689,720,36,0.085241236870432,1
689,758,36,0.0755070005825848,1
689,759,36,0.077521453200913,1
690,707,36,0.0817879093859325,1
690,708,36,0.0796135601558275,1
690,709,36,0.0758924430367104,1
690,710,36,0.0726351456562065,1
690,718,36,0.0994966989642715,1
690,719,36,0.144014377876638,1
690,720,36,0.152150781128524,1
690,721,36,0.0971044713104243,1
690,758,36,0.0734922142959945,1
691,706,36,0.0895842004073867,1
691,707,36,0.0895650561908476,1
691,708,36,0.0867428483213039,1
691,709,36,0.0818326973987,1
691,710,36,0.0749168943581813,1
691,718,36,0.101688155644232,1
691,719,36,0.164451406000201,1
691,720,36,0.18114500989104,1
691,721,36,0.114451856452355,1
691,759,36,0.0744803450485743,1
692,706,36,0.0917671207409749,1
692,707,36,0.091781246030738,1
692,708,36,0.0896695291140018,1
692,709,36,0.0835366716991255,1
692,710,36,0.0728150276065998,1
692,719,36,0.103602771937965,1
692,720,36,0.116670458435723,1
692,721,36,0.0816220554053925,1
692,724,36,0.0703451595190105,1
692,759,36,0.0719181064637548,1
692,760,36,0.0743644022789097,1
693,705,36,0.0867341451408002,1
693,706,36,0.0892607715900605,1
693,707,36,0.0891526839274,1
693,708,36,0.086232210754662,1
693,709,36,0.0776577983945218,1
693,760,36,0.0710337117835837,1
694,704,36,0.0843343265339898,1
694,705,36,0.085811204824932,1
694,706,36,0.0862740235587589,1
694,707,36,0.0838779726227415,1
694,708,36,0.0776723755267232,1
695,703,36,0.0837338487877721,1
695,704,36,0.0857406131332273,1
695,705,36,0.0842778184235153,1
695,706,36,0.0815546127079115,1
695,707,36,0.0764670614926138,1
696,703,36,0.0875317165585989,1
696,704,36,0.0852781211162405,1
696,705,36,0.0792646613278262,1
696,706,36,0.072813241091113,1
696,761,36,0.0703946536445583,1
696,762,36,0.0743504646775441,1
697,702,36,0.0876992458318717,1
697,703,36,0.0882831374848932,1
697,704,36,0.0806622795036707,1
697,705,36,0.0708361245610316,1
697,761,36,0.0755031842518368,1
697,762,36,0.0788464290155251,1
697,763,36,0.0781616444217451,1
698,701,36,0.101179096050413,1
698,702,36,0.0963158324700594,1
698,703,36,0.0875864729106973,1
698,704,36,0.0747318544525694,1
698,760,36,0.0719229724592441,1
698,761,36,0.0818446468933372,1
698,762,36,0.0837265011345833,1
698,763,36,0.0809844570650139,1
699,701,36,0.112962437795894,1
699,702,36,0.1014385509299,1
699,703,36,0.086459181638547,1
699,761,36,0.0809157353058615,1
699,762,36,0.0837692662835117,1
700,701,36,0.108266828614411,1
700,702,36,0.0957284442517078,1
700,703,36,0.0807868837453061,1
700,761,36,0.0842025762304073,1
700,762,36,0.0899004970656101,1
701,700,36,0.108148584924023,1
701,701,36,0.100226980615876,1
701,702,36,0.0884661684295102,1
701,703,36,0.073600086464569,1
701,760,36,0.0722927255536279,1
701,761,36,0.0913816921896935,1
701,762,36,0.0980722691532812,1
701,763,36,0.0928041756024881,1
702,700,36,0.104769053736829,1
702,701,36,0.0952740714957659,1
702,702,36,0.0822448055081067,1
702,760,36,0.0787046617126569,1
702,761,36,0.0983125172534297,1
702,762,36,0.102592236751868,1
702,763,36,0.094573319485359,1
703,700,36,0.102249482981028,1
703,701,36,0.0924636184810397,1
703,702,36,0.0776560952961006,1
703,760,36,0.0814600108041783,1
703,761,36,0.0963572907516278,1
703,762,36,0.0971103591649663,1
703,763,36,0.0886603216495313,1
704,699,36,0.105765268993343,1
704,700,36,0.0984888748328044,1
704,701,36,0.0894023512045313,1
704,702,36,0.0726790925468965,1
704,760,36,0.0838007492743271,1
704,761,36,0.0930200033567027,1
704,762,36,0.0897643117547102,1
704,763,36,0.0809355190532363,1
705,699,36,0.100729610144227,1
705,700,36,0.0948925148866095,1
705,701,36,0.0852046862928856,1
705,760,36,0.0833082618708602,1
705,761,36,0.089364987310596,1
705,762,36,0.0841781072245185,1
706,699,36,0.096023413946844,1
706,700,36,0.0902462955593426,1
706,701,36,0.0796987359311558,1
706,760,36,0.0815002942954072,1
706,761,36,0.08442800389858,1
707,698,36,0.0942966876417951,1
707,699,36,0.0903735830499192,1
707,700,36,0.0839061119795137,1
707,701,36,0.0736408913124574,1
707,759,36,0.070162761153807,1
707,760,36,0.0801413121237473,1
708,697,36,0.0867347082059926,1
708,698,36,0.0893300494629832,1
708,699,36,0.0859342797536994,1
708,700,36,0.0786075711998021,1
709,698,36,0.0839363089572355,1
709,699,36,0.0830362666258553,1
709,700,36,0.0756975877230544,1
710,698,36,0.0778944456580083,1
710,699,36,0.0806768496844499,1
710,700,36,0.0742168722470978,1
711,698,36,0.0724777446049735,1
711,699,36,0.0785832690280444,1
711,700,36,0.0728665167902982,1
712,699,36,0.0771235398954906,1
712,700,36,0.072578581934355,1
713,699,36,0.0756875776751909,1
713,700,36,0.0727766349021896,1
714,699,36,0.0723444580371008,1
714,700,36,0.0708916664238303,1
715,753,36,0.079238155555254,1
717,699,36,0.0700346047354645,1
717,752,36,0.0850831615312526,1
718,699,36,0.0713094121365824,1
719,699,36,0.0725242287647401,1
719,750,36,0.0734694761942154,1
719,751,36,0.089475612242333,1
722,748,36,0.0751221629021843,1
723,747,36,0.0721960660289451,1
723,748,36,0.094893738336904,1
724,701,36,0.0724487432718575,1
724,747,36,0.0854385182304104,1
725,701,36,0.0702180249597207,1
725,746,36,0.0791036316342426,1
726,745,36,0.0738508659692407,1
726,746,36,0.0894262501938057,1
727,745,36,0.0808619730071274,1
728,744,36,0.0712844773854111,1
737,736,36,0.0870540565385299,1
738,734,36,0.0806606320166265,1
738,735,36,0.153778025631506,1
739,734,36,0.134564572927981,1
740,733,36,0.0721591817831365,1
688,758,37,0.0757832570493538,1
689,709,37,0.0721637141103637,1
689,717,37,0.0750585643411398,1
689,718,37,0.0931694380781776,1
689,719,37,0.100133636919548,1
689,720,37,0.0906606628809407,1
689,757,37,0.0699239798037274,1
689,758,37,0.0753727547184585,1
690,707,37,0.0846970447891806,1
690,708,37,0.0827517866267095,1
690,709,37,0.077489177747975,1
690,710,37,0.0722617847737384,1
690,717,37,0.0835963079495574,1
690,718,37,0.121426246078564,1
690,719,37,0.154063061744422,1
690,720,37,0.14997855903359,1
690,721,37,0.0963916168740934,1
690,758,37,0.0739479008707185,1
691,706,37,0.0944764653208565,1
691,707,37,0.0946096615202415,1
691,708,37,0.0907946584938704,1
691,709,37,0.0828575733686458,1
691,710,37,0.0751016144983754,1
691,717,37,0.0736468695354871,1
691,718,37,0.110304276537137,1
691,719,37,0.154252599220151,1
691,720,37,0.160889344370783,1
691,721,37,0.105882254476327,1
691,722,37,0.0704478598295222,1
691,758,37,0.072391359282195,1
692,706,37,0.0969802285427395,1
692,707,37,0.0974602659491761,1
692,708,37,0.0929687574727788,1
692,709,37,0.0826052923567946,1
692,710,37,0.0720642670654077,1
692,718,37,0.0719537046964698,1
692,719,37,0.0933217576398354,1
692,720,37,0.100918230032235,1
692,721,37,0.0766019538389979,1
692,723,37,0.0731675481255296,1
692,724,37,0.0806260556429643,1
692,725,37,0.0738163313041113,1
692,758,37,0.0702875183267293,1
692,759,37,0.0750009579059692,1
693,705,37,0.0895291103870263,1
693,706,37,0.0928646112664646,1
693,707,37,0.0928280537374961,1
693,708,37,0.0874298017587877,1
693,709,37,0.0756192521470996,1
694,704,37,0.0845919462380349,1
694,705,37,0.0867967844055911,1
694,706,37,0.0870215030287068,1
694,707,37,0.0848822237232351,1
694,708,37,0.0771770032830733,1
695,703,37,0.0831785761396495,1
695,704,37,0.0848596802612756,1
695,705,37,0.0840709927609558,1
695,706,37,0.0815333552590456,1
695,707,37,0.0771189728111529,1
696,703,37,0.0859804858565809,1
696,704,37,0.0836483393441817,1
696,705,37,0.0788745475180309,1
696,706,37,0.0727602712545015,1
696,761,37,0.0708217629229162,1
696,762,37,0.0742984332829198,1
697,702,37,0.087466185502203,1
697,703,37,0.0871961853153488,1
697,704,37,0.0803398725453972,1
697,705,37,0.0719086525296614,1
697,761,37,0.0749131544930767,1
697,762,37,0.0775202436534628,1
697,763,37,0.0779623401979276,1
698,702,37,0.0958853030920148,1
698,703,37,0.0888393972349578,1
698,704,37,0.0771749873706563,1
698,761,37,0.0787245288770973,1
698,762,37,0.0804308180010913,1
699,701,37,0.108608970660105,1
699,702,37,0.100443142038353,1
699,703,37,0.0887098783378783,1
699,704,37,0.073440884995005,1
699,761,37,0.0824331751449177,1
700,701,37,0.104543785951365,1
700,702,37,0.0949241508087118,1
700,703,37,0.0836140132217161,1
700,760,37,0.0732449174538086,1
700,761,37,0.0936415647662331,1
700,762,37,0.0995805956779283,1
701,701,37,0.0980446024932137,1
701,702,37,0.0883439902341973,1
701,703,37,0.0770906527174055,1
701,760,37,0.0785361592402863,1
701,761,37,0.103777600204472,1
701,762,37,0.110117985375543,1
701,763,37,0.0982445323450228,1
702,700,37,0.104806709590493,1
702,701,37,0.0955311211831966,1
702,702,37,0.0849558184292989,1
702,703,37,0.0712743005034164,1
702,760,37,0.0824266686138063,1
702,761,37,0.103216641293049,1
702,762,37,0.105928954130179,1
702,763,37,0.0945385971318321,1
703,700,37,0.103755161013844,1
703,701,37,0.095389006309222,1
703,702,37,0.0839959104505567,1
703,760,37,0.0843342153112357,1
703,761,37,0.0970459333846886,1
703,762,37,0.0950175501164169,1
703,763,37,0.0852646562115795,1
704,700,37,0.0995584762527186,1
704,701,37,0.0932279760039133,1
704,702,37,0.080851810027977,1
704,760,37,0.08485446669468,1
704,761,37,0.0921950502871438,1
704,762,37,0.0868179723402357,1
705,699,37,0.0995965909002436,1
705,700,37,0.0966042191684408,1
705,701,37,0.0911496537190776,1
705,702,37,0.0771263552214523,1
705,760,37,0.0819995662868706,1
705,761,37,0.0856653292315865,1
706,699,37,0.0960187912511292,1
706,700,37,0.0943180285077265,1
706,701,37,0.0882437507271187,1
706,702,37,0.0714232694796088,1
706,760,37,0.0813949246387985,1
707,698,37,0.0945896553273586,1
707,699,37,0.0929391930744705,1
707,700,37,0.0907121520646391,1
707,701,37,0.0837674519623364,1
707,759,37,0.0730249883605388,1
708,698,37,0.0914073707430325,1
708,699,37,0.0908761500154711,1
708,700,37,0.0865679852976866,1
708,701,37,0.0784560927602218,1
709,698,37,0.0864291723492225,1
709,699,37,0.0890031518860154,1
709,700,37,0.084475822731395,1
709,701,37,0.0748601985593094,1
710,698,37,0.0781177948509648,1
710,699,37,0.0860789736052834,1
710,700,37,0.0840118639643393,1
710,701,37,0.0729358989345528,1
711,698,37,0.0704692980153634,1
711,699,37,0.0833024852390722,1
711,700,37,0.0839095946419995,1
711,701,37,0.0715246490199162,1
712,699,37,0.0798809257536954,1
712,700,37,0.0835896484871592,1
712,701,37,0.0711142301060865,1
712,755,37,0.072478481455719,1
713,699,37,0.075919192109057,1
713,700,37,0.0825605808096705,1
713,701,37,0.0704516692088481,1
713,754,37,0.0749494965279593,1
714,699,37,0.0708709928944231,1
714,700,37,0.0793452144074396,1
715,700,37,0.075482802682159,1
716,700,37,0.0724591912593152,1
717,700,37,0.0721302638670861,1
717,750,37,0.070224642713586,1
717,751,37,0.0812538663809873,1
718,700,37,0.0729602636691096,1
718,750,37,0.0794728077605899,1
719,700,37,0.0739003809490549,1
719,749,37,0.0730972136364435,1
721,748,37,0.0760411965188168,1
722,747,37,0.0741549559302082,1
722,748,37,0.0947935822468909,1
723,747,37,0.0889677413416979,1
724,746,37,0.0805282630364746,1
725,745,37,0.0722753261440428,1
725,746,37,0.0886737517970816,1
726,745,37,0.0811125022606025,1
727,744,37,0.0697652579822902,1
727,745,37,0.0868161441162162,1
728,744,37,0.0800112927242746,1
736,736,37,0.0730500134801978,1
736,737,37,0.0844281012184898,1
737,735,37,0.0831359013592088,1
737,736,37,0.104512622725967,1
738,734,37,0.0874837865030298,1
738,735,37,0.148741789814354,1
739,734,37,0.129441458237079,1
743,729,37,0.0731883745862235,1
688,757,38,0.0711541243176762,1
689,709,38,0.070936190282557,1
689,757,38,0.0705924146526636,1
690,708,38,0.0838047463420505,1
690,709,38,0.0772937941262374,1
690,710,38,0.0701200863733663,1
691,707,38,0.0974624000357692,1
691,708,38,0.0916874852490822,1
691,709,38,0.0823064715737997,1
691,710,38,0.0737349371024204,1
692,706,38,0.0986115952390433,1
692,707,38,0.101611425846789,1
692,708,38,0.0936187641016549,1
692,709,38,0.0814493473226347,1
692,710,38,0.0709513860913277,1
692,719,38,0.0802928114175941,1
692,720,38,0.080586133625686,1
692,758,38,0.0714700873076375,1
693,705,38,0.0897507912386722,1
693,706,38,0.0934711576041996,1
693,707,38,0.0946288196396249,1
693,708,38,0.086317866178117,1
693,709,38,0.0736603205373038,1
694,704,38,0.0831894481638569,1
694,705,38,0.0861565514762263,1
694,706,38,0.0862127120155943,1
694,707,38,0.0847691935994419,1
694,708,38,0.0758525488251207,1
695,704,38,0.0829366666496125,1
695,705,38,0.0829810028199417,1
695,706,38,0.0809909566447031,1
695,707,38,0.0770600247515117,1
696,703,38,0.0825084938036691,1
696,704,38,0.0811609606242533,1
696,705,38,0.0781945176969861,1
696,706,38,0.0734705675674894,1
697,703,38,0.0850089203429309,1
697,704,38,0.0794023481459056,1
697,705,38,0.0735101628679277,1
697,761,38,0.0732950650130364,1
697,762,38,0.075745107644718,1
698,702,38,0.093650393072335,1
698,703,38,0.0877615027684456,1
698,704,38,0.0781794331109694,1
699,702,38,0.0960885904807114,1
699,703,38,0.0875463145450667,1
699,704,38,0.0757256714684496,1
700,701,38,0.0977584611041795,1
700,702,38,0.0906270805606428,1
700,703,38,0.083159251186135,1
700,704,38,0.070696679033154,1
700,761,38,0.101982826428217,1
700,762,38,0.109118843570313,1
701,701,38,0.0930245078782413,1
701,702,38,0.0855619963416612,1
701,703,38,0.079007910551547,1
701,760,38,0.0820912138361996,1
701,761,38,0.111563366772825,1
701,762,38,0.119870072915413,1
701,763,38,0.102157140289486,1
702,701,38,0.0921284626145845,1
702,702,38,0.0843805951996704,1
702,703,38,0.0760573933323739,1
702,760,38,0.0825599134731463,1
702,761,38,0.102490627814631,1
702,762,38,0.106891712191994,1
702,763,38,0.0938415085208864,1
703,700,38,0.100915206163609,1
703,701,38,0.0937749277997492,1
703,702,38,0.0862255165351532,1
703,703,38,0.07457541269759,1
703,761,38,0.093524885145823,1
703,762,38,0.0919663137420384,1
704,700,38,0.0967768577369773,1
704,701,38,0.0925393681279631,1
704,702,38,0.0851796750760708,1
704,703,38,0.0704122129368524,1
704,761,38,0.0871084236109891,1
705,700,38,0.0947604031090764,1
705,701,38,0.092960533940402,1
705,702,38,0.0846866941216328,1
706,699,38,0.092368001669676,1
706,700,38,0.0943898227954593,1
706,701,38,0.0928297290302288,1
706,702,38,0.0807762967294059,1
707,699,38,0.0903257364114156,1
707,700,38,0.092375474448463,1
707,701,38,0.0892414744422346,1
707,702,38,0.0744581700119876,1
708,698,38,0.0880247670272583,1
708,699,38,0.0898079249771382,1
708,700,38,0.08868162080693,1
708,701,38,0.083280664725014,1
709,698,38,0.0834916264837393,1
709,699,38,0.0885537285426282,1
709,700,38,0.0863436629056322,1
709,701,38,0.0792947331799497,1
710,698,38,0.0738437894215149,1
710,699,38,0.0855674462566091,1
710,700,38,0.08630068921404,1
710,701,38,0.0783819766974984,1
711,699,38,0.0824105482658927,1
711,700,38,0.0869020706451342,1
711,701,38,0.0784486408357011,1
712,699,38,0.0762812499791457,1
712,700,38,0.0851184399985496,1
712,701,38,0.0780694755157566,1
712,754,38,0.0742974531323998,1
713,700,38,0.0816435839597213,1
713,701,38,0.076380217375975,1
713,753,38,0.0722587470022687,1
714,700,38,0.0769095264624513,1
714,701,38,0.0734756907655974,1
715,700,38,0.0723295055281045,1
715,701,38,0.0702530323215548,1
717,749,38,0.0720106507465382,1
717,750,38,0.0800991934570768,1
718,749,38,0.0797452826537215,1
721,747,38,0.0715049417381848,1
721,748,38,0.0897426928318937,1
722,747,38,0.0880445577260552,1
724,745,38,0.0714573940108326,1
724,746,38,0.0877561571248295,1
725,702,38,0.0718171718144635,1
725,745,38,0.0782714699399375,1
727,744,38,0.076172223874498,1
736,736,38,0.0841811032874554,1
737,734,38,0.070123666355762,1
737,735,38,0.0966833750122067,1
738,734,38,0.0956657702298062,1
743,728,38,0.0722218558050381,1
743,729,38,0.0844829687933421,1
744,727,38,0.0719922016722119,1
744,728,38,0.0864260303064209,1
745,726,38,0.0721859725640159,1
745,727,38,0.0869185455155764,1
746,725,38,0.0722603110722474,1
746,726,38,0.0862159027183508,1
690,708,39,0.0811430190037422,1
690,709,39,0.0741857785359215,1
691,707,39,0.0943916718737453,1
691,708,39,0.0876230234882436,1
691,709,39,0.0783833322248132,1
691,710,39,0.070192033592386,1
692,706,39,0.0973893405892092,1
692,707,39,0.0995405554864739,1
692,708,39,0.0897238544779282,1
692,709,39,0.0780471684021495,1
693,705,39,0.0871759288712692,1
693,706,39,0.0917522725033105,1
693,707,39,0.0919921035181314,1
693,708,39,0.0831618371151665,1
693,709,39,0.0718370459303261,1
694,705,39,0.0832722117957069,1
694,706,39,0.0836166547621246,1
694,707,39,0.0824364979246946,1
694,708,39,0.0754250016071688,1
695,704,39,0.0799350078178474,1
695,705,39,0.0799214247390102,1
695,706,39,0.0785914439004663,1
695,707,39,0.0757675954953005,1
696,704,39,0.0780429280346517,1
696,705,39,0.0765093191877269,1
696,706,39,0.0735935799334577,1
697,703,39,0.0816984932431065,1
697,704,39,0.0777100244289657,1
697,705,39,0.074694323724503,1
698,703,39,0.084420864788055,1
698,704,39,0.0781156260072611,1
698,705,39,0.0729054169485237,1
699,702,39,0.0890900863711419,1
699,703,39,0.0844792636853482,1
699,704,39,0.0775621190203589,1
700,702,39,0.0848511578177473,1
700,703,39,0.0814350551987406,1
700,704,39,0.0742130281106613,1
701,701,39,0.0868974896579522,1
701,702,39,0.0823016959467981,1
701,703,39,0.0799413197091391,1
701,704,39,0.0710635403359328,1
701,761,39,0.105440873928341,1
701,762,39,0.11408056709368,1
702,701,39,0.0878739906813128,1
702,702,39,0.0828844406151686,1
702,703,39,0.0795095529779559,1
702,761,39,0.0947463751392231,1
702,762,39,0.0999431749046765,1
703,701,39,0.091256371951579,1
703,702,39,0.0864274901050677,1
703,703,39,0.0799685553810347,1
704,700,39,0.0938548622027933,1
704,701,39,0.0920632513236064,1
704,702,39,0.0880926824214439,1
704,703,39,0.07824805059879,1
705,700,39,0.0934538277088357,1
705,701,39,0.0947536532781906,1
705,702,39,0.0909124503418209,1
705,703,39,0.0765923678278841,1
706,700,39,0.0942843349646745,1
706,701,39,0.0966911119450346,1
706,702,39,0.089399174404619,1
706,703,39,0.0703999992881744,1
707,700,39,0.0922073890614201,1
707,701,39,0.0926518560408303,1
707,702,39,0.0823143266808038,1
708,701,39,0.0859350444101335,1
708,702,39,0.0741822124563701,1
709,701,39,0.0818819273702069,1
710,701,39,0.0815997413403632,1
711,701,39,0.0816568055646078,1
712,701,39,0.079871854147819,1
712,754,39,0.0785515774945651,1
713,701,39,0.0777330266847856,1
714,701,39,0.0758315416274514,1
715,701,39,0.0741677952068777,1
716,701,39,0.0717742606856705,1
716,749,39,0.0716762386822506,1
716,750,39,0.0765388140718139,1
717,748,39,0.0702294461462762,1
717,749,39,0.0799489593220573,1
718,748,39,0.0767991448304887,1
721,747,39,0.0813175553105195,1
722,702,39,0.069842773290434,1
723,702,39,0.099129476187542,1
724,702,39,0.112894904729926,1
724,745,39,0.0763875441748973,1
725,702,39,0.0817648237130471,1
737,734,39,0.0849266294077855,1
743,727,39,0.0701998469908573,1
743,728,39,0.0837963142670098,1
744,727,39,0.0811323833278871,1
745,726,39,0.0802311314490567,1
751,711,39,0.0722365372085714,1
751,712,39,0.0728874544737462,1
751,713,39,0.0731196389242268,1
691,707,40,0.082914721009956,1
691,708,40,0.0777928506236149,1
691,709,40,0.0705114444877225,1
692,706,40,0.087173301233705,1
692,707,40,0.0869749076461862,1
692,708,40,0.0799741721301137,1
692,709,40,0.0713575646376596,1
693,705,40,0.0779190814980281,1
693,706,40,0.0817642884535433,1
693,707,40,0.0809903866280887,1
693,708,40,0.0764854201984525,1
694,705,40,0.0748320313968488,1
694,706,40,0.0747777338386109,1
694,707,40,0.0744489732805129,1
694,708,40,0.0732547259104305,1
695,704,40,0.0726235993440527,1
695,705,40,0.072555412844404,1
695,706,40,0.0717193583537075,1
695,707,40,0.0711033719847233,1
696,704,40,0.0709667973941843,1
696,705,40,0.0709343133985825,1
696,706,40,0.069831762237784,1
697,703,40,0.0740587899564963,1
697,704,40,0.0713233844950587,1
697,705,40,0.0711363356284519,1
698,703,40,0.0760671114205081,1
698,704,40,0.0726863359287534,1
698,705,40,0.0720595261955167,1
699,702,40,0.0788035595952648,1
699,703,40,0.0768893673382816,1
699,704,40,0.0742121730857396,1
699,705,40,0.0721024720814204,1
700,702,40,0.0765629077009078,1
700,703,40,0.0757538525337544,1
700,704,40,0.0732647707154048,1
701,702,40,0.0763239456138528,1
701,703,40,0.0766111297162062,1
701,704,40,0.0725046049000741,1
702,701,40,0.0816664402356766,1
702,702,40,0.0785027924140743,1
702,703,40,0.0786960836577516,1
702,704,40,0.0712046611565431,1
703,701,40,0.0854485769382289,1
703,702,40,0.0826164980492641,1
703,703,40,0.0811461610465438,1
704,701,40,0.0874726155676709,1
704,702,40,0.0859019208836959,1
704,703,40,0.0825445994901994,1
705,701,40,0.0911277914964866,1
705,702,40,0.0901743900488557,1
705,703,40,0.082991652398641,1
706,700,40,0.0875901015530478,1
706,701,40,0.0947411546212053,1
706,702,40,0.0907844329519208,1
706,703,40,0.0772991884298083,1
707,701,40,0.0903350999770214,1
707,702,40,0.0834483399781514,1
708,702,40,0.0746674495265581,1
709,702,40,0.0709880270373617,1
710,702,40,0.0714343430950579,1
711,702,40,0.0699882178956077,1
712,753,40,0.072206910247464,1
716,748,40,0.0706618663111394,1
716,749,40,0.078159948274746,1
717,748,40,0.0779986891842323,1
718,747,40,0.0757220497775211,1
720,746,40,0.0699929935226093,1
722,702,40,0.0727666457085924,1
722,745,40,0.0701666887073091,1
725,702,40,0.0799846201175713,1
742,727,40,0.071662085586799,1
743,726,40,0.0704853697033222,1
743,727,40,0.0805999321986091,1
744,725,40,0.0700146332996922,1
749,713,40,0.0721218874034225,1
749,714,40,0.0744249005056854,1
750,711,40,0.0720368923650696,1
750,712,40,0.0738033112904665,1
750,713,40,0.075592120746536,1
692,707,41,0.0744314139882188,1
692,708,41,0.0714308187240392,1
693,707,41,0.0702423201800563,1
693,708,41,0.0706812607788752,1
693,709,41,0.0706847017328283,1
694,708,41,0.0710488589323995,1
694,709,41,0.0745843105179132,1
694,710,41,0.0698573712769017,1
695,709,41,0.0709479034288418,1
699,704,41,0.0699651461255665,1
699,705,41,0.0724605120295194,1
700,703,41,0.0698215227929902,1
700,704,41,0.0700439335439596,1
701,702,41,0.0705791374364,1
701,703,41,0.0713237112118987,1
701,704,41,0.0701331133384333,1
702,702,41,0.073629143409062,1
702,703,41,0.0742894311912647,1
702,704,41,0.07074727843482,1
703,701,41,0.079321732503493,1
703,702,41,0.0779057278161212,1
703,703,41,0.0782062586489594,1
703,704,41,0.0711818535405428,1
704,701,41,0.0806036720637137,1
704,702,41,0.0809343790200074,1
704,703,41,0.0814145554548866,1
704,704,41,0.0702595736097767,1
705,701,41,0.0828604512574066,1
705,702,41,0.0839719071899504,1
705,703,41,0.0826940828716291,1
706,701,41,0.0858221463633607,1
706,702,41,0.0844202739171742,1
706,703,41,0.0776873488899858,1
707,702,41,0.0781331088339117,1
708,702,41,0.0714665351309303,1
709,702,41,0.0703239437786774,1
710,702,41,0.0717982430920104,1
711,702,41,0.0697532598276982,1
716,747,41,0.0711310455962129,1
716,748,41,0.0748872882513403,1
718,746,41,0.0716333762134124,1
718,747,41,0.082537383914031,1
719,746,41,0.0730872661513791,1
722,702,41,0.0700715723983385,1
723,702,41,0.0869301404876851,1
724,702,41,0.0905098239721961,1
725,702,41,0.072495547197042,1
726,701,41,0.0727239500738853,1
749,712,41,0.0726051850268369,1
749,713,41,0.0763494017216837,1
693,709,42,0.0703718807856686,1
694,709,42,0.0775168652623089,1
694,710,42,0.0758091441453566,1
703,702,42,0.0709237680912151,1
703,703,42,0.0720435448760456,1
703,704,42,0.0699694351530191,1
704,701,42,0.0717635972041269,1
704,702,42,0.0739810383000002,1
704,703,42,0.0762021845038676,1
704,704,42,0.0722387060522751,1
705,701,42,0.0723204130679618,1
705,702,42,0.0753709543001275,1
705,703,42,0.0766036013260422,1
706,701,42,0.0744302322464572,1
706,702,42,0.0754396065450587,1
706,703,42,0.072352535589613,1
707,702,42,0.0699472114564775,1
718,746,42,0.075009508155186,1
723,702,42,0.0701655139169695,1
724,702,42,0.0708885660895615,1
749,711,42,0.0725165474432892,1
693,709,43,0.0701274618322436,1
693,710,43,0.0716247077900194,1
694,709,43,0.0741749829773575,1
694,710,43,0.0758048342636375,1
739,724,44,0.0710545521471219,1
737,724,45,0.0743484140080165,1
737,725,45,0.0757710434006757,1
737,726,45,0.0703838233288837,1
738,724,45,0.0784572049877622,1
738,725,45,0.0809431517147323,1
739,724,45,0.0742124024826698,1
736,724,46,0.0915495064712735,1
736,725,46,0.108685199955155,1
736,726,46,0.0891287015210601,1
737,724,46,0.106662607221515,1
737,725,46,0.126172830038508,1
737,726,46,0.100237824834395,1
738,724,46,0.0915874890417782,1
738,725,46,0.102863794057279,1
745,710,46,0.0822181676585141,1
746,709,46,0.0698727825797584,1
735,724,47,0.0817851844284585,1
735,725,47,0.104186434194057,1
735,726,47,0.0818096395315031,1
736,724,47,0.134632154653905,1
736,725,47,0.183464991414716,1
736,726,47,0.129785776077899,1
737,724,47,0.146882214881026,1
737,725,47,0.198504379284718,1
738,724,47,0.102148159052097,1
728,731,48,0.0715952893715759,1
735,724,48,0.0998959956026972,1
735,725,48,0.140051580664414,1
735,726,48,0.0998259391704962,1
736,723,48,0.0708126635113513,1
736,724,48,0.169635303926185,1
736,725,48,0.251310148431214,1
737,723,48,0.0720345080272798,1
737,724,48,0.168783713007034,1
723,727,49,0.0780584505602624,1
723,728,49,0.0904069776818197,1
723,729,49,0.0775391932301824,1
723,731,49,0.0735071876592571,1
724,727,49,0.102210986005286,1
724,728,49,0.115651338243299,1
724,729,49,0.0904589048051122,1
724,730,49,0.0712364222042437,1
724,731,49,0.072196281523031,1
725,727,49,0.0977008755232752,1
725,728,49,0.109738409921693,1
725,729,49,0.0880344156011712,1
725,730,49,0.0721942169506591,1
725,731,49,0.0710151862436139,1
726,727,49,0.0735255672193622,1
726,728,49,0.082624721581641,1
726,729,49,0.0771719565506087,1
726,730,49,0.0739865924862801,1
726,731,49,0.0730174043589977,1
727,729,49,0.0726979448037063,1
727,730,49,0.0774447929176909,1
728,729,49,0.0706444390958658,1
734,725,49,0.0782278011061325,1
735,724,49,0.116782807320148,1
735,725,49,0.165803415895467,1
736,723,49,0.0789331410551436,1
736,724,49,0.184692362311236,1
737,723,49,0.0757046712222024,1
722,727,50,0.0777036291206084,1
722,728,50,0.0895119334229492,1
722,729,50,0.0794282769504411,1
722,730,50,0.0777223979603526,1
722,731,50,0.0836777925197359,1
722,732,50,0.0756235689802408,1
723,726,50,0.0821122627424016,1
723,727,50,0.151949940640416,1
723,728,50,0.166826637426946,1
723,729,50,0.113936422404445,1
723,730,50,0.086186908336657,1
723,731,50,0.0906197746159868,1
724,726,50,0.101445147829499,1
724,727,50,0.193206811704104,1
724,728,50,0.207112603362086,1
724,729,50,0.130232543978033,1
724,730,50,0.084397146535756,1
724,731,50,0.0843048664070134,1
725,726,50,0.0848838503560129,1
725,727,50,0.147006839976928,1
725,728,50,0.157399674851401,1
725,729,50,0.107976495517834,1
725,730,50,0.0805254546619351,1
726,727,50,0.0836276866690409,1
726,728,50,0.0908328913155717,1
726,729,50,0.0815911424311915,1
721,729,51,0.0728954347063486,1
721,730,51,0.079124152232363,1
722,727,51,0.111727656683386,1
722,728,51,0.125209070971907,1
722,729,51,0.0997653853323436,1
722,731,51,0.0952579441964301,1
723,726,51,0.112739401416933,1
723,727,51,0.224988352197083,1
723,728,51,0.241712987236299,1
724,726,51,0.134284541838997,1
724,727,51,0.269767870326726,1
724,728,51,0.284647611836148,1
725,728,51,0.183415803151741,1
717,729,52,0.0753605341183584,1
718,728,52,0.0710714649571581,1
718,729,52,0.0869141522167918,1
718,730,52,0.0772557698472,1
719,728,52,0.0705449850994876,1
719,729,52,0.084226384851194,1
719,730,52,0.0771255001965306,1
720,729,52,0.0773603817987967,1
720,730,52,0.0778074625129269,1
721,728,52,0.0764509133390116,1
721,729,52,0.0813345445861991,1
722,726,52,0.0831672870301144,1
722,727,52,0.138387729972508,1
722,728,52,0.152460967486697,1
723,726,52,0.130328557020458,1
723,727,52,0.263070647803584,1
716,729,53,0.092754771845428,1
716,730,53,0.0794218816420838,1
717,728,53,0.105039603086031,1
717,729,53,0.155593125366062,1
717,730,53,0.126214482959896,1
718,728,53,0.108880548819782,1
718,729,53,0.158524275923188,1
718,730,53,0.127191046546055,1
718,731,53,0.0718861507762347,1
719,728,53,0.0870685293993994,1
719,729,53,0.112466606758384,1
719,730,53,0.0956622875673204,1
720,728,53,0.0754136221291461,1
720,729,53,0.0851800017929108,1
721,727,53,0.0815345926121843,1
721,728,53,0.0897026734947057,1
722,726,53,0.0953504259164143,1
722,727,53,0.147338019629926,1
716,728,54,0.0878649677353913,1
716,729,54,0.139255420385307,1
716,730,54,0.108509148238354,1
717,728,54,0.14598620437448,1
717,729,54,0.239729663086258,1
717,730,54,0.18190798408091,1
717,731,54,0.0847810944341242,1
718,728,54,0.134964265797468,1
718,729,54,0.217114643187395,1
718,730,54,0.163679756435515,1
719,728,54,0.0896169416056072,1
694,742,55,0.069796157053647,1
695,741,55,0.0753957847799669,1
695,742,55,0.0751720949673261,1
695,743,55,0.0716433236984769,1
696,741,55,0.0708710137486895,1
716,728,55,0.104346316902989,1
716,729,55,0.163181269954752,1
716,730,55,0.121158477298212,1
717,727,55,0.0741823931933454,1
717,728,55,0.164359549908208,1
717,729,55,0.267881170944257,1
717,730,55,0.197348274367849,1
691,734,56,0.0766811166341859,1
692,734,56,0.0698750000834171,1
694,740,56,0.0711443784238535,1
694,741,56,0.0753205703925474,1
694,742,56,0.0763142900885177,1
694,743,56,0.0767101944329452,1
694,744,56,0.0707272235819822,1
695,740,56,0.0731880826264942,1
695,741,56,0.0794742467049703,1
695,742,56,0.0842637487451293,1
695,743,56,0.0856467202745511,1
695,744,56,0.0759037877576225,1
696,740,56,0.0711580240654897,1
696,741,56,0.0743930351866529,1
696,742,56,0.0770469421750677,1
696,743,56,0.0781789117543098,1
696,744,56,0.0705488292359241,1
715,729,56,0.0751466110538067,1
716,727,56,0.0704947541231943,1
716,728,56,0.107680246761027,1
716,729,56,0.149335747126616,1
716,730,56,0.11209695098391,1
717,727,56,0.0838372233862301,1
717,728,56,0.149556454779164,1
717,729,56,0.221237698485346,1
718,727,56,0.0802542032190979,1
693,743,57,0.070031254149999,1
694,740,57,0.0770112674767094,1
694,741,57,0.0768990784749937,1
694,742,57,0.0796978670033898,1
694,743,57,0.0821602970693027,1
694,744,57,0.0748816089394621,1
695,740,57,0.0735549925892279,1
695,741,57,0.0763600513003831,1
695,742,57,0.0852098442481042,1
695,743,57,0.0908830041176888,1
695,744,57,0.0802378048142992,1
696,741,57,0.070778844842701,1
696,742,57,0.0773667701557319,1
696,743,57,0.0816113710695825,1
696,744,57,0.0736663196145998,1
708,740,57,0.0718605764942277,1
709,739,57,0.0724228214187441,1
709,740,57,0.0735804347942145,1
710,738,57,0.0715313571422693,1
710,739,57,0.0725614466788107,1
711,737,57,0.071459646271602,1
711,738,57,0.0724975005466598,1
712,736,57,0.0702566470610611,1
712,737,57,0.0731625431015978,1
715,728,57,0.0767324528865975,1
715,729,57,0.0809206777669941,1
715,730,57,0.0733337010172211,1
716,727,57,0.0799807481754463,1
716,728,57,0.101382439050487,1
716,729,57,0.11991230975626,1
716,730,57,0.0975051582332755,1
716,731,57,0.0744040948992578,1
717,726,57,0.0727957443616181,1
717,727,57,0.0857845322182288,1
717,728,57,0.118818253233301,1
717,729,57,0.149544053442088,1
717,730,57,0.119355917929175,1
718,726,57,0.0725418853769439,1
718,727,57,0.0793566355939951,1
718,728,57,0.0978739311771394,1
719,726,57,0.071903668359996,1
721,724,57,0.0703471754314275,1
721,725,57,0.0717545255982505,1
722,723,57,0.0699915893353395,1
722,724,57,0.0716507200116206,1
723,723,57,0.070457661334722,1
724,722,57,0.0700279313702221,1
724,723,57,0.0721923609209511,1
725,722,57,0.0723838239406088,1
693,740,58,0.0701530708713613,1
694,739,58,0.0710014502334899,1
694,740,58,0.0756842409925697,1
694,741,58,0.0752507920172315,1
694,742,58,0.0792942813375115,1
694,743,58,0.082763534530105,1
695,740,58,0.0703617247579404,1
695,741,58,0.0721205388275298,1
695,742,58,0.0807908738616073,1
695,743,58,0.0880342487670402,1
696,742,58,0.0748887410985649,1
696,743,58,0.080858351316199,1
700,742,58,0.0700007930182363,1
702,731,58,0.0732163471088646,1
703,731,58,0.077259753012079,1
703,732,58,0.070514092979553,1
706,740,58,0.0717224795422427,1
707,738,58,0.071670156187889,1
707,739,58,0.0740479457379774,1
707,740,58,0.0748530803030509,1
708,737,58,0.0706072628903279,1
708,738,58,0.0746211878122996,1
708,739,58,0.0764250053887424,1
709,736,58,0.0707540213142837,1
709,737,58,0.073291172216645,1
709,738,58,0.0765496374360664,1
709,739,58,0.0772501739523873,1
710,734,58,0.0702328940516514,1
710,735,58,0.0707786432514593,1
710,736,58,0.072277460230636,1
710,737,58,0.0748021055245899,1
710,738,58,0.0774618656104361,1
711,733,58,0.0702541515005173,1
711,734,58,0.0720580663968699,1
711,735,58,0.0727234148143815,1
711,736,58,0.0740567045298581,1
711,737,58,0.0758418366836222,1
712,733,58,0.0705557180952525,1
712,734,58,0.0709980301338032,1
712,735,58,0.0712169651737088,1
712,736,58,0.072695859377068,1
713,720,58,0.0781567089120346,1
713,721,58,0.0726498131568955,1
713,733,58,0.0698822782223846,1
713,734,58,0.0703547594329686,1
714,720,58,0.0835873962263899,1
714,721,58,0.0772000820045366,1
715,726,58,0.0709483900283907,1
715,727,58,0.076559918589393,1
715,728,58,0.0787936399158889,1
715,729,58,0.0790189216041969,1
715,730,58,0.0751871517476543,1
715,731,58,0.0713097597076888,1
716,725,58,0.0723584234441549,1
716,726,58,0.0778817523612035,1
716,727,58,0.0828076204492376,1
716,728,58,0.0882822338000166,1
716,729,58,0.0904525512052876,1
716,730,58,0.0808146685795497,1
716,731,58,0.0725538626772696,1
717,725,58,0.0716190006724528,1
717,726,58,0.0758743971448674,1
717,727,58,0.0804881602822211,1
717,728,58,0.089148214162972,1
717,729,58,0.0933140276584296,1
718,726,58,0.0705409046146988,1
718,727,58,0.0737435707687027,1
724,722,58,0.071782901303375,1
694,740,59,0.0718764813480554,1
702,731,59,0.0834169404044015,1
702,732,59,0.0802082404159909,1
703,731,59,0.0832600468069838,1
703,732,59,0.0807155552028558,1
703,733,59,0.0715461845256672,1
704,732,59,0.0715153480171096,1
704,733,59,0.0703125017378555,1
704,739,59,0.0697714308451394,1
705,738,59,0.0711996213755007,1
705,739,59,0.073244229263018,1
706,737,59,0.0733081545409025,1
706,738,59,0.0779967983974136,1
707,734,59,0.0698201533628311,1
707,735,59,0.0718181102564508,1
707,736,59,0.0740899462304718,1
707,737,59,0.0791353162162998,1
707,738,59,0.0854163849023564,1
707,739,59,0.0847166756052687,1
708,734,59,0.0724225503132811,1
708,735,59,0.0745355254374224,1
708,736,59,0.0762351064390634,1
708,737,59,0.0805966372245207,1
708,738,59,0.0862707355360926,1
709,732,59,0.0753068413338455,1
709,733,59,0.0772057960735254,1
709,734,59,0.0769762601148753,1
709,735,59,0.0776903519043449,1
709,736,59,0.0782009825195646,1
709,737,59,0.0814084799119472,1
709,738,59,0.0852233300070315,1
710,731,59,0.0775220162661053,1
710,732,59,0.0874506560251702,1
710,733,59,0.085030407188727,1
710,734,59,0.0794764781114732,1
710,735,59,0.0788096559924707,1
710,736,59,0.0791421564156732,1
710,737,59,0.0819141611146122,1
711,731,59,0.0786105881170054,1
711,732,59,0.0883739161064562,1
711,733,59,0.0858812125971781,1
711,734,59,0.0800150673464898,1
711,735,59,0.0787779018961922,1
711,736,59,0.0787601966240335,1
712,731,59,0.0718607433283587,1
712,732,59,0.0784988579091501,1
712,733,59,0.0796544623236257,1
712,734,59,0.0776135178355696,1
712,735,59,0.0758849772093455,1
713,720,59,0.0840725359766681,1
713,721,59,0.0782271824295632,1
713,731,59,0.072606005294648,1
713,732,59,0.0749925327823506,1
713,733,59,0.0768856691817097,1
714,720,59,0.0840250160550046,1
714,721,59,0.0785656124158405,1
714,725,59,0.0738849974518867,1
714,726,59,0.0769226159903174,1
714,727,59,0.0756775884815936,1
714,728,59,0.0749584291053931,1
714,729,59,0.0746564176196418,1
714,730,59,0.0755747491426394,1
714,731,59,0.0744786836586858,1
715,720,59,0.0698895772156184,1
715,724,59,0.0737445092106899,1
715,725,59,0.0816427080805333,1
715,726,59,0.0850845101071453,1
715,727,59,0.0828682994129886,1
715,728,59,0.0797373580324962,1
715,729,59,0.0769989982166544,1
715,730,59,0.0761364240505414,1
715,731,59,0.0742253946906261,1
716,724,59,0.073735514070457,1
716,725,59,0.081385734858746,1
716,726,59,0.0836178086981977,1
716,727,59,0.0812824506287756,1
716,728,59,0.0783312938787668,1
716,729,59,0.0749862625995916,1
717,724,59,0.0698333054534963,1
717,725,59,0.0732258427514908,1
717,726,59,0.0731201255237758,1
717,727,59,0.0727713240156842,1
707,738,60,0.0921938546425378,1
