x,y,z,signal,mito.p
328,357,9,0.0725549156593303,1
329,356,9,0.0722065435682128,1
330,354,9,0.0721178582147784,1
332,354,9,0.0761742521379716,1
333,354,9,0.077372194833956,1
339,369,9,0.0829019859963263,1
339,370,9,0.0842276883472091,1
340,367,9,0.0903149694000001,1
340,368,9,0.0922406756257842,1
340,369,9,0.103234767132296,1
340,370,9,0.11439914471827,1
340,371,9,0.0906875001327742,1
341,366,9,0.083759767056133,1
341,367,9,0.0916187212240019,1
341,368,9,0.087861660583785,1
341,369,9,0.0872043390253448,1
341,370,9,0.0963450882702927,1
341,371,9,0.0867551151793819,1
342,366,9,0.079593695139034,1
342,367,9,0.0817168441459983,1
342,368,9,0.0783541901249371,1
342,369,9,0.0777450490088944,1
342,370,9,0.0813966986037576,1
342,371,9,0.0813150543374383,1
342,372,9,0.0755048947989945,1
343,366,9,0.0828574193981107,1
343,367,9,0.0794548264898001,1
343,368,9,0.0766794687986082,1
343,369,9,0.0781176792623344,1
343,370,9,0.0793400605018482,1
343,371,9,0.0845207704883562,1
343,372,9,0.089198080066381,1
344,367,9,0.0724004720258771,1
344,368,9,0.0756902582593465,1
344,369,9,0.0793552871637368,1
344,370,9,0.0805256564152145,1
344,371,9,0.0916955200778982,1
345,368,9,0.0742692648708276,1
345,369,9,0.08075860941401,1
345,370,9,0.083614989367359,1
340,369,10,0.0714864244695654,1
340,370,10,0.0761206042789892,1
341,370,10,0.0746192914930164,1
342,370,10,0.0716611143384955,1
342,371,10,0.0723175091107342,1
343,366,10,0.0755845113317453,1
343,367,10,0.0761797444347231,1
343,370,10,0.0731947837809816,1
343,371,10,0.0783132498109867,1
343,372,10,0.083521191139712,1
343,373,10,0.0828411415491882,1
344,369,10,0.0737380733163812,1
344,370,10,0.0763098801455209,1
344,371,10,0.0856515118546656,1
344,372,10,0.100953324286115,1
345,369,10,0.0773426371961723,1
345,370,10,0.0817642470831931,1
345,371,10,0.0910195197344697,1
346,369,10,0.0832380424050339,1
346,370,10,0.092363471687469,1
347,354,10,0.0733489599526451,1
343,371,11,0.0740172350043801,1
343,372,11,0.0810603996134267,1
343,373,11,0.0862938182326323,1
343,374,11,0.0865449337529615,1
344,370,11,0.0736915909453463,1
344,371,11,0.0803553516756274,1
344,372,11,0.0938986650401522,1
344,373,11,0.106447729631702,1
345,369,11,0.0722696396704178,1
345,370,11,0.0785305842852714,1
345,371,11,0.0841666075384894,1
345,372,11,0.0969992189473813,1
346,369,11,0.0777709554822465,1
346,370,11,0.087280155112665,1
346,371,11,0.0925529652554574,1
347,352,11,0.0815905773010889,1
347,353,11,0.0880052689047342,1
347,368,11,0.077603872724219,1
347,369,11,0.10877903855156,1
347,370,11,0.125062572592159,1
348,353,11,0.107830370243585,1
348,354,11,0.0815297079737843,1
349,354,11,0.0845417382486611,1
343,372,12,0.073539299446294,1
343,373,12,0.0847683965653359,1
343,374,12,0.0962422336620453,1
343,375,12,0.098598484948804,1
344,370,12,0.0715062290820872,1
344,371,12,0.0757574222687717,1
344,372,12,0.082795287402357,1
344,373,12,0.100956409426759,1
344,374,12,0.113556067836855,1
345,370,12,0.0734883759655416,1
345,371,12,0.0774980884763681,1
345,372,12,0.0855851004702765,1
345,373,12,0.0997420707010611,1
346,370,12,0.0796920339970644,1
346,371,12,0.085604040497013,1
346,372,12,0.0960513219245673,1
347,352,12,0.0754168314497222,1
347,353,12,0.0759316580746634,1
347,369,12,0.0980213086266524,1
347,370,12,0.116994979568192,1
347,371,12,0.113458475383819,1
348,352,12,0.0894398593042369,1
348,353,12,0.0947788880101281,1
348,354,12,0.0729800368440113,1
348,368,12,0.0758273977370097,1
348,369,12,0.127350092419004,1
348,370,12,0.153066294697915,1
349,353,12,0.0996893247481137,1
349,354,12,0.0806572600558349,1
350,354,12,0.0815367615009827,1
342,375,13,0.0738655903896564,1
343,373,13,0.0801170805412459,1
343,374,13,0.0975524481092915,1
343,375,13,0.106485037441346,1
344,372,13,0.073625167120874,1
344,373,13,0.0921544969491231,1
344,374,13,0.111731468387623,1
344,375,13,0.116653175841026,1
345,372,13,0.0783448600625054,1
345,373,13,0.093027199888779,1
345,374,13,0.10508412234718,1
346,370,13,0.0719669413449244,1
346,371,13,0.0789633499011047,1
346,372,13,0.0896356040140545,1
346,373,13,0.100697182972156,1
347,369,13,0.0805031958449206,1
347,370,13,0.101808617329273,1
347,371,13,0.10192543593096,1
347,372,13,0.104537959152552,1
348,351,13,0.0743151563379085,1
348,352,13,0.0800755555433831,1
348,353,13,0.0818274738062721,1
348,369,13,0.0962611799088234,1
348,370,13,0.119044931125358,1
348,371,13,0.103251617225047,1
349,352,13,0.0869418035085992,1
349,353,13,0.0916633749028001,1
349,354,13,0.0784300248723822,1
349,369,13,0.0756916639887529,1
349,370,13,0.0890372919904742,1
350,353,13,0.0960523731116013,1
322,355,14,0.0763947401733583,1
343,374,14,0.0777710487828708,1
343,375,14,0.0892815965652282,1
343,376,14,0.0898969701629754,1
344,374,14,0.088203868613656,1
344,375,14,0.0973981102165458,1
344,379,14,0.155190289630539,1
345,373,14,0.0726475009788612,1
345,374,14,0.0890474990787745,1
345,375,14,0.0947061943837016,1
346,372,14,0.0718773478654133,1
346,373,14,0.0812333354306196,1
346,374,14,0.0935833462502095,1
347,370,14,0.0826689832371979,1
347,371,14,0.0852810710558762,1
347,372,14,0.0828790838030772,1
347,373,14,0.0917254509181792,1
348,370,14,0.0807255561128352,1
348,371,14,0.0731134380766601,1
348,372,14,0.072024346109046,1
349,352,14,0.0780528602086003,1
349,353,14,0.0796982726988104,1
343,376,15,0.0789873032813878,1
343,379,15,0.157406117257659,1
344,375,15,0.0777466599996742,1
344,376,15,0.0897926165246973,1
344,378,15,0.16914489080718,1
344,379,15,0.216116094913062,1
344,380,15,0.185129439887133,1
345,374,15,0.0767251550043155,1
345,375,15,0.0865803257897859,1
345,379,15,0.152784091409563,1
346,374,15,0.085911652655387,1
346,375,15,0.101617438130005,1
347,374,15,0.0870040785653101,1
343,378,16,0.132648460712818,1
343,379,16,0.172330572204036,1
343,380,16,0.135886601940707,1
344,376,16,0.0771569813938641,1
344,377,16,0.112669077461596,1
344,378,16,0.186158682614269,1
344,379,16,0.251809654475049,1
344,380,16,0.196008827606109,1
344,381,16,0.134208658632818,1
345,375,16,0.0799467073812009,1
345,378,16,0.144831059112174,1
345,379,16,0.1821251722242,1
345,380,16,0.147592558550634,1
346,374,16,0.073672091114864,1
346,375,16,0.106368436541116,1
346,379,16,0.0858490603765534,1
347,374,16,0.0724272990653891,1
321,354,17,0.0731069256930828,1
343,377,17,0.071808970947872,1
343,378,17,0.117002132616056,1
343,379,17,0.151941176249231,1
343,380,17,0.112428996295102,1
344,377,17,0.0892447490386645,1
344,378,17,0.162924998467026,1
344,379,17,0.233197150250242,1
344,380,17,0.176182482258934,1
344,381,17,0.127781576706263,1
345,376,17,0.0825827672402871,1
345,377,17,0.0951927384793915,1
345,378,17,0.13283355671138,1
345,379,17,0.18347254520009,1
345,380,17,0.150100330051284,1
346,375,17,0.094295565895998,1
346,376,17,0.117870326025537,1
346,379,17,0.0886317203966086,1
347,375,17,0.0879675443523019,1
343,378,18,0.0888244172860319,1
343,379,18,0.117227049321077,1
344,378,18,0.120734045627999,1
344,379,18,0.185545125268675,1
344,380,18,0.159820090530662,1
345,377,18,0.0734015317444271,1
345,378,18,0.103690086619047,1
345,379,18,0.161031269475216,1
346,376,18,0.0954269728067608,1
346,377,18,0.0885616329676214,1
347,376,18,0.0817509050939157,1
343,379,19,0.0838319506391465,1
343,380,19,0.0995743597188299,1
344,378,19,0.077878667943,1
344,379,19,0.129986357539464,1
344,380,19,0.150127374792253,1
345,378,19,0.0723055168704886,1
345,379,19,0.122966294164998,1
345,380,19,0.136522762917552,1
345,381,19,0.117940799097104,1
346,380,19,0.0744346122372427,1
320,356,20,0.0769705107661035,1
343,380,20,0.100849667292498,1
343,381,20,0.120705731998539,1
343,382,20,0.0891923140877982,1
344,379,20,0.0839072629030954,1
344,380,20,0.136242450521853,1
344,381,20,0.144277475407892,1
344,382,20,0.120738449417466,1
345,379,20,0.0820809342822925,1
345,380,20,0.112149977668061,1
345,381,20,0.100917223164545,1
345,382,20,0.101757382846439,1
346,382,20,0.0750619967353603,1
347,382,20,0.0732636645218942,1
348,382,20,0.0734291860494747,1
319,356,21,0.0967204491220044,1
319,357,21,0.0748025028189674,1
320,356,21,0.0827465284960888,1
343,380,21,0.0879596635595679,1
343,381,21,0.114579214923202,1
343,382,21,0.0755819611146806,1
344,380,21,0.105625241088054,1
344,381,21,0.120093207179855,1
344,382,21,0.0822746139382919,1
344,383,21,0.0815162229235496,1
345,380,21,0.080375815612561,1
345,381,21,0.0773736254435288,1
345,383,21,0.0821379347437087,1
345,384,21,0.0813028817159857,1
346,383,21,0.0853005771064001,1
346,384,21,0.0771317653451319,1
347,382,21,0.0759297485218857,1
347,383,21,0.0838963778302584,1
348,382,21,0.0779228426785934,1
348,383,21,0.0811268047777741,1
349,382,21,0.0811297281973361,1
349,383,21,0.0831649755761103,1
356,362,21,0.0799207822477239,1
318,357,22,0.0757334004680308,1
319,355,22,0.083248877717538,1
319,356,22,0.100383916795948,1
319,357,22,0.0745586398671685,1
320,356,22,0.077246102150212,1
320,361,22,0.0738441001458554,1
320,362,22,0.0768054619616862,1
343,381,22,0.0903027781184226,1
344,380,22,0.072116371624831,1
344,381,22,0.0853685994815691,1
346,383,22,0.0779545337906532,1
346,384,22,0.0722072277727911,1
347,383,22,0.0841217548183592,1
348,382,22,0.0730742144941971,1
348,383,22,0.0814029684057117,1
349,382,22,0.0736180638333426,1
349,383,22,0.0768090011653687,1
318,356,23,0.101873567003881,1
318,357,23,0.0773668642582866,1
318,358,23,0.0761115043580975,1
319,355,23,0.0813837173768942,1
319,356,23,0.0922125610376566,1
320,361,23,0.0776943370095571,1
320,362,23,0.0796026146787187,1
318,355,24,0.0979709200694794,1
318,356,24,0.0889206537699944,1
318,358,24,0.0808190433384011,1
318,359,24,0.07933753516495,1
319,355,24,0.0748595903609664,1
319,356,24,0.0745156282793583,1
348,387,24,0.0864053497989412,1
356,359,24,0.0744892553028846,1
357,360,24,0.128934971464157,1
357,361,24,0.112054873231673,1
317,355,25,0.0887280253010289,1
317,356,25,0.0727806471898036,1
318,355,25,0.0838748129459578,1
318,356,25,0.0719809115584055,1
318,358,25,0.0766499484810742,1
318,359,25,0.0924887122255109,1
318,360,25,0.0757833536222903,1
348,388,25,0.0964848837057281,1
349,387,25,0.0808888446454737,1
356,359,25,0.0818068170480483,1
356,360,25,0.0723419725344302,1
356,382,25,0.0747286087245081,1
357,359,25,0.117162423088633,1
357,360,25,0.119130817460063,1
357,361,25,0.0965258737800115,1
357,381,25,0.0722843749490183,1
358,360,25,0.133412841627641,1
358,361,25,0.111351585565653,1
360,370,25,0.0987401152965177,1
360,371,25,0.0904473629859063,1
361,372,25,0.0833083848557276,1
317,368,26,0.0769485229189728,1
318,359,26,0.094616544923816,1
318,360,26,0.0968355883124536,1
349,388,26,0.0824997110245198,1
355,383,26,0.0725228513447733,1
356,359,26,0.0874049478077102,1
356,382,26,0.100139935663358,1
357,359,26,0.108485228665543,1
357,360,26,0.101504438633874,1
357,361,26,0.0782571699157304,1
357,381,26,0.0917611663971679,1
358,360,26,0.107478228807245,1
358,379,26,0.0749464532422058,1
358,380,26,0.0805285736147349,1
359,379,26,0.0797678625244679,1
360,369,26,0.0772713803993603,1
360,370,26,0.0889038161173259,1
360,371,26,0.0891250567777487,1
361,370,26,0.132908694814163,1
361,371,26,0.139039565918635,1
361,372,26,0.0852867997142093,1
316,376,27,0.0787130243260614,1
317,360,27,0.0789070336442668,1
317,364,27,0.0719776771367625,1
318,359,27,0.0893428142148636,1
318,360,27,0.104557931706197,1
318,361,27,0.0776403346082022,1
354,384,27,0.0784087709901627,1
354,385,27,0.0837669512042054,1
355,383,27,0.0960349818752285,1
355,384,27,0.116147262535728,1
356,358,27,0.0947886223752652,1
356,359,27,0.0915502136855865,1
356,381,27,0.0835828068720112,1
356,382,27,0.12286942323679,1
356,383,27,0.13471715947543,1
357,358,27,0.0916447520981864,1
357,359,27,0.0950903690343905,1
357,360,27,0.0833333645428781,1
357,380,27,0.0798462661491025,1
357,381,27,0.109004913142991,1
357,382,27,0.133836812104622,1
358,360,27,0.0850537347546647,1
358,379,27,0.087990036022804,1
358,380,27,0.0943865277846657,1
358,381,27,0.0962927341799675,1
359,378,27,0.074557122177013,1
359,379,27,0.0847180702085792,1
360,369,27,0.0839380832093282,1
360,370,27,0.0831904528665905,1
360,371,27,0.0853582182321034,1
361,370,27,0.118455855863585,1
361,371,27,0.132450986831429,1
361,372,27,0.0857403029488075,1
315,377,28,0.0790523151564121,1
316,364,28,0.0942199239698431,1
316,374,28,0.0932091547663225,1
316,375,28,0.104022697124697,1
316,376,28,0.079307523464128,1
317,360,28,0.0732774232539602,1
317,363,28,0.0826429150427637,1
317,364,28,0.0952378213410616,1
317,365,28,0.094227593281162,1
317,366,28,0.0835809159793584,1
317,367,28,0.0714965195971166,1
318,359,28,0.0755723138301262,1
318,360,28,0.0920821454249859,1
318,361,28,0.0725122834940589,1
354,383,28,0.0771103746219968,1
354,384,28,0.106657855077748,1
355,382,28,0.0845884196610279,1
355,383,28,0.125261352682288,1
356,358,28,0.0945287179361253,1
356,359,28,0.0936636034472472,1
356,381,28,0.0936893295393923,1
356,382,28,0.135205631784023,1
357,358,28,0.0765772548546478,1
357,380,28,0.0940268041175896,1
357,381,28,0.116572899983864,1
358,379,28,0.0889288144646013,1
358,380,28,0.0966906675627224,1
359,367,28,0.0729837502088591,1
359,368,28,0.077098090039795,1
359,379,28,0.0782825290254198,1
360,367,28,0.110068478059792,1
360,368,28,0.111367409351537,1
360,369,28,0.0983171711264041,1
360,370,28,0.0861961449190553,1
360,371,28,0.0859836123169022,1
360,372,28,0.0758857479474577,1
361,370,28,0.105166699619743,1
361,371,28,0.118284356876007,1
361,372,28,0.0886082210793639,1
315,374,29,0.0853348433156911,1
315,375,29,0.111697979683535,1
315,376,29,0.0992260249479621,1
315,377,29,0.0766546259523733,1
316,364,29,0.11692410841396,1
316,365,29,0.151550744236671,1
316,366,29,0.145798163623514,1
316,367,29,0.120220444351257,1
316,368,29,0.105293065985318,1
316,369,29,0.0781063339064174,1
316,374,29,0.0716419068499694,1
316,375,29,0.0930413131632174,1
316,376,29,0.0849013561750297,1
317,363,29,0.0907728515438997,1
317,364,29,0.111018191334759,1
317,365,29,0.110441581036395,1
317,366,29,0.09249384997989,1
318,354,29,0.0728736741322896,1
318,360,29,0.0737464392723616,1
319,354,29,0.0796701954309325,1
319,355,29,0.0746078963767664,1
320,354,29,0.0756032834173579,1
324,387,29,0.098365706111174,1
325,388,29,0.0795827292056559,1
327,350,29,0.0746522577136085,1
330,391,29,0.0779573265893411,1
331,390,29,0.0851214399077109,1
332,391,29,0.0760359930528167,1
332,392,29,0.0758998550018545,1
333,391,29,0.0766906088931517,1
353,384,29,0.0813914488886293,1
353,385,29,0.0911495745847264,1
354,383,29,0.0960702495112205,1
354,384,29,0.133975232910859,1
355,358,29,0.0754369532843667,1
355,382,29,0.104784266580708,1
355,383,29,0.150036288502753,1
356,358,29,0.088675845371869,1
356,359,29,0.0882740120230177,1
356,380,29,0.074384827024107,1
356,381,29,0.107768543029871,1
356,382,29,0.139415530114384,1
357,380,29,0.100185111825653,1
357,381,29,0.112245380666446,1
358,379,29,0.0781728074912227,1
358,380,29,0.085240143182009,1
359,366,29,0.0726445588991744,1
359,367,29,0.085142700009972,1
359,368,29,0.0943500596806409,1
359,369,29,0.086085770280488,1
360,367,29,0.117504152175299,1
360,368,29,0.129974439939717,1
360,369,29,0.118357467245222,1
360,370,29,0.0918313844470291,1
360,371,29,0.0853126564272284,1
360,372,29,0.0921952693219498,1
360,373,29,0.0800043982672371,1
361,372,29,0.0954082940217725,1
314,375,30,0.0889770135671236,1
314,376,30,0.0886280443520105,1
315,365,30,0.111679381759087,1
315,366,30,0.138023833121901,1
315,367,30,0.1374249053142,1
315,368,30,0.135482087753916,1
315,369,30,0.10192110056195,1
315,375,30,0.090360450344334,1
316,364,30,0.119913597258002,1
316,365,30,0.163049722741613,1
316,366,30,0.156651713289596,1
316,367,30,0.110223369536242,1
316,368,30,0.0815458552018328,1
316,375,30,0.0777022489024992,1
316,376,30,0.0868815561854567,1
316,377,30,0.0761833022985304,1
317,363,30,0.0833637681063223,1
317,364,30,0.106424989159535,1
317,365,30,0.104462640668561,1
317,366,30,0.0852603831974443,1
319,354,30,0.0935982556899754,1
319,355,30,0.0962668090464905,1
319,356,30,0.0894468941713104,1
319,357,30,0.0795880660013668,1
320,354,30,0.0789620996727389,1
320,355,30,0.0752269211389452,1
327,349,30,0.0716077277212612,1
327,350,30,0.0887539442144642,1
327,351,30,0.0742655266258133,1
328,349,30,0.0772497657547268,1
328,350,30,0.0788582871780818,1
329,348,30,0.080474390832173,1
329,349,30,0.0792559344389221,1
330,348,30,0.079006772011662,1
330,390,30,0.0767874425011098,1
332,390,30,0.0749098420772237,1
338,394,30,0.0860498371000426,1
339,393,30,0.0744358002651924,1
339,394,30,0.103081188084628,1
340,394,30,0.0953366764625466,1
352,385,30,0.0806607370591011,1
352,386,30,0.0786890087453621,1
353,384,30,0.103410769430008,1
353,385,30,0.118562877899719,1
354,382,30,0.0808666204367613,1
354,383,30,0.119931299496456,1
354,384,30,0.151745157857582,1
355,381,30,0.0931196234872277,1
355,382,30,0.133410129689494,1
355,383,30,0.166814788575396,1
356,358,30,0.0737766189143075,1
356,359,30,0.0744618995598347,1
356,380,30,0.0877781316448545,1
356,381,30,0.118423984370319,1
356,382,30,0.136594641718526,1
357,380,30,0.090932022408985,1
357,381,30,0.0952089105876065,1
359,366,30,0.0733171506597945,1
359,367,30,0.0884776810658607,1
359,368,30,0.100336221516797,1
359,369,30,0.090706794701883,1
359,373,30,0.0715172758760064,1
360,367,30,0.109298088584762,1
360,368,30,0.130151561844921,1
360,369,30,0.121098987909995,1
360,372,30,0.0950667142161053,1
360,373,30,0.0853061502636927,1
313,367,31,0.104873051454808,1
313,369,31,0.10608913179216,1
314,367,31,0.135199834705232,1
314,368,31,0.135661411553854,1
314,369,31,0.104236231153551,1
314,375,31,0.076803216526661,1
315,366,31,0.149272977435088,1
315,367,31,0.138607708428879,1
315,368,31,0.104879856180341,1
315,369,31,0.0750353251968888,1
316,364,31,0.105912607010951,1
316,365,31,0.143522947038996,1
316,366,31,0.137375816745726,1
316,367,31,0.0923407623155102,1
317,364,31,0.0877994788276983,1
317,365,31,0.0845321282843564,1
319,357,31,0.0933980387702321,1
319,358,31,0.0775950278250338,1
320,354,31,0.0788503752851397,1
320,355,31,0.0805661737663347,1
320,356,31,0.0718615365196123,1
326,350,31,0.0754567889970965,1
327,349,31,0.0730591246732242,1
327,350,31,0.0973859438151348,1
327,351,31,0.0874123931975307,1
328,348,31,0.0737957082220428,1
328,349,31,0.0867928770520639,1
328,350,31,0.0888883779740222,1
329,348,31,0.0933357263932714,1
329,349,31,0.0992616657864513,1
329,350,31,0.0730041457253349,1
330,348,31,0.0900774757708212,1
330,349,31,0.0854012920203298,1
333,346,31,0.0730356688962709,1
334,346,31,0.0722775391232766,1
334,391,31,0.0864512972463967,1
335,392,31,0.0906938694553943,1
337,393,31,0.0733621402208403,1
338,393,31,0.0861099413622278,1
338,394,31,0.112579782544082,1
339,393,31,0.100193938064713,1
339,394,31,0.141309271546277,1
340,393,31,0.080989615539778,1
340,394,31,0.113316496713775,1
348,390,31,0.0757005648683128,1
349,389,31,0.0729337659543915,1
351,386,31,0.0730955305768328,1
352,384,31,0.0746633045075277,1
352,385,31,0.104056160948619,1
352,386,31,0.0971421803840019,1
353,383,31,0.0841921408093442,1
353,384,31,0.122359877427185,1
353,385,31,0.137207266057876,1
354,381,31,0.0743366341416263,1
354,382,31,0.112231335812465,1
354,383,31,0.144348470962955,1
354,384,31,0.156149059286107,1
355,380,31,0.0819829810668426,1
355,381,31,0.124349146258296,1
355,382,31,0.159241017095816,1
355,383,31,0.168322887426778,1
356,380,31,0.0961614228813033,1
356,381,31,0.117914028037967,1
356,382,31,0.122466464060405,1
357,380,31,0.074220250942853,1
359,367,31,0.0810899323710439,1
359,368,31,0.0915996754565579,1
359,369,31,0.0828284340041562,1
359,373,31,0.0738380293852331,1
360,368,31,0.112084430869457,1
360,369,31,0.106899130492233,1
360,373,31,0.107140194425302,1
313,368,32,0.124962815564639,1
313,369,32,0.0954102160146335,1
313,375,32,0.0717010967660363,1
314,368,32,0.117282432571672,1
314,369,32,0.0820475450988701,1
315,367,32,0.128831208729833,1
315,368,32,0.081771916394512,1
316,366,32,0.100038356163643,1
319,358,32,0.0785144308371813,1
326,350,32,0.0748254112322582,1
326,351,32,0.075055123589369,1
326,390,32,0.0800986318977975,1
327,350,32,0.0903652895367152,1
327,351,32,0.0866895808208614,1
328,348,32,0.074694149693927,1
328,349,32,0.0848154200799918,1
328,350,32,0.0838004896686267,1
329,348,32,0.09052019967329,1
329,349,32,0.0990463341655686,1
329,350,32,0.0735960262258789,1
330,348,32,0.0872266440945982,1
330,349,32,0.0862185308488499,1
331,390,32,0.0729480720501202,1
331,393,32,0.0789070274242252,1
332,346,32,0.0767024269722318,1
333,346,32,0.0803952159223773,1
334,347,32,0.0717048101308841,1
334,391,32,0.0793313089032873,1
335,348,32,0.0723328850536217,1
335,392,32,0.0790943377576046,1
336,393,32,0.0756577523218343,1
337,393,32,0.0784175101486404,1
337,394,32,0.0954272402685505,1
338,393,32,0.0963699497766525,1
338,394,32,0.126642400963516,1
339,393,32,0.112153162329371,1
339,394,32,0.153993304820965,1
340,393,32,0.0927066438237912,1
340,394,32,0.116815083524425,1
348,389,32,0.0727692271933872,1
348,390,32,0.0806092724347277,1
349,389,32,0.0738554144015642,1
351,386,32,0.0821342462590274,1
351,387,32,0.0759444527002782,1
352,384,32,0.0859120756182173,1
352,385,32,0.120643419621578,1
352,386,32,0.105935758005865,1
353,383,32,0.104833890072761,1
353,384,32,0.136186905550176,1
353,385,32,0.13899473185863,1
354,381,32,0.106278992342604,1
354,382,32,0.150221869664561,1
354,383,32,0.170705636090843,1
354,384,32,0.153743906032123,1
355,380,32,0.10549504317684,1
355,381,32,0.152243607112934,1
355,382,32,0.175902679906648,1
355,383,32,0.158864045253324,1
356,380,32,0.0944771786712524,1
356,381,32,0.108702395198704,1
359,368,32,0.0779732436758496,1
359,369,32,0.072866968927422,1
360,369,32,0.0879932144640724,1
312,368,33,0.0979079732482733,1
313,368,33,0.107656358359192,1
313,369,33,0.0724338736493827,1
314,367,33,0.13568073100313,1
314,368,33,0.10075026480735,1
315,366,33,0.108966386205189,1
315,367,33,0.105679032007994,1
321,354,33,0.0713657929823648,1
325,390,33,0.0932611356541505,1
326,351,33,0.0726205308783919,1
326,390,33,0.087982055709404,1
327,350,33,0.0756093106376888,1
327,351,33,0.0751639805377807,1
327,391,33,0.0718034724310788,1
328,348,33,0.0731192102752846,1
328,349,33,0.0780981918719353,1
328,350,33,0.0725967516592742,1
329,348,33,0.080090956366437,1
329,349,33,0.0856106088609649,1
329,392,33,0.0732068693218515,1
330,347,33,0.071673436240947,1
330,348,33,0.078446184540514,1
330,349,33,0.0755883179972174,1
330,391,33,0.0718550179159933,1
330,392,33,0.0817623313103738,1
330,393,33,0.082761400615605,1
331,346,33,0.0782245084771777,1
331,391,33,0.09326028972849,1
331,393,33,0.0868701672892483,1
332,347,33,0.0714314766218842,1
333,347,33,0.077623509395617,1
333,391,33,0.0975077384501186,1
334,348,33,0.0751477275690247,1
334,392,33,0.103379134298323,1
336,393,33,0.0742514568916663,1
337,393,33,0.0803460527134038,1
337,394,33,0.0931406845481569,1
338,393,33,0.0993723265469333,1
338,394,33,0.123831688555749,1
339,393,33,0.112639009780399,1
339,394,33,0.140670274230453,1
340,393,33,0.100451671709327,1
340,394,33,0.108599727191705,1
341,393,33,0.0820474144779961,1
347,390,33,0.0747120758538791,1
347,391,33,0.0768685518438496,1
348,390,33,0.077312463774268,1
351,385,33,0.0739673627106617,1
351,386,33,0.0830115520294829,1
351,387,33,0.0736500721675251,1
352,384,33,0.0916052921541418,1
352,385,33,0.120544259718054,1
352,386,33,0.0996667646571538,1
353,381,33,0.0737906140079551,1
353,382,33,0.0944908689828606,1
353,383,33,0.119979654100019,1
353,384,33,0.135280657926057,1
353,385,33,0.122927953828445,1
354,380,33,0.100955078337852,1
354,381,33,0.148145545130921,1
354,382,33,0.17881919522239,1
354,383,33,0.177120862618067,1
354,384,33,0.138377902771144,1
355,380,33,0.119075819852049,1
355,381,33,0.159807737528002,1
355,382,33,0.166048280406339,1
356,380,33,0.0806111944275886,1
356,381,33,0.089085335591956,1
312,368,34,0.0798322834955382,1
313,367,34,0.0928366426936733,1
313,368,34,0.084528047937053,1
314,366,34,0.0919270735673289,1
314,367,34,0.107665327659209,1
314,368,34,0.0826407815684876,1
315,366,34,0.0761548456081137,1
315,367,34,0.0763873694240372,1
324,389,34,0.0850922430323412,1
325,389,34,0.0716875184151773,1
325,390,34,0.0925275688255182,1
326,390,34,0.0840571285859155,1
327,391,34,0.0755773271836728,1
328,391,34,0.0797756002562446,1
328,392,34,0.0928774710468746,1
329,390,34,0.075292629658631,1
329,391,34,0.0874450235358753,1
330,390,34,0.0783808803235335,1
330,391,34,0.0927244829031607,1
331,390,34,0.0725866751918479,1
331,391,34,0.100690079684624,1
331,392,34,0.110160509795618,1
331,393,34,0.105491410672533,1
332,347,34,0.0715308231266572,1
332,391,34,0.102377346834903,1
333,347,34,0.0867470602254825,1
333,348,34,0.073784655208082,1
333,391,34,0.0807920421377237,1
333,392,34,0.10263194557854,1
334,392,34,0.0854981505084544,1
336,393,34,0.0727130166772568,1
337,393,34,0.0765621525935916,1
337,394,34,0.0860549437542136,1
338,393,34,0.0917377666005891,1
338,394,34,0.105138535271282,1
339,393,34,0.100542988140367,1
339,394,34,0.111624272190324,1
340,393,34,0.0969704761350499,1
340,394,34,0.091787713534807,1
341,393,34,0.0873827111589146,1
342,393,34,0.0713654695402005,1
347,390,34,0.0734130388214262,1
351,385,34,0.0729957548891879,1
351,386,34,0.0733225061156303,1
352,384,34,0.0881868319196556,1
352,385,34,0.101577499242756,1
353,380,34,0.078461485842902,1
353,381,34,0.100261985320048,1
353,382,34,0.109738741213371,1
353,383,34,0.120252514885855,1
353,384,34,0.119494665014734,1
354,379,34,0.0717016068094492,1
354,380,34,0.123859342860797,1
354,381,34,0.165570917092082,1
354,382,34,0.175186118671808,1
354,383,34,0.155552258732641,1
355,380,34,0.107620916562034,1
355,381,34,0.135622897056136,1
355,382,34,0.131815622019912,1
324,389,35,0.081380290133961,1
324,390,35,0.0858082258033105,1
325,389,35,0.0811139044114518,1
325,390,35,0.0926172556056536,1
326,389,35,0.0759117850416839,1
326,390,35,0.0865383156286766,1
326,391,35,0.0788373753981515,1
327,390,35,0.0800112651931868,1
327,391,35,0.0833988367009824,1
328,390,35,0.0865679168067517,1
328,391,35,0.101193019810027,1
329,389,35,0.0734214109974483,1
329,390,35,0.102093240213815,1
330,390,35,0.0964945745305739,1
331,390,35,0.0746468027371067,1
331,391,35,0.106452954466664,1
332,391,35,0.0887265387110814,1
332,392,35,0.104586338636281,1
333,392,35,0.0852173031891761,1
334,392,35,0.0730791158869946,1
337,393,35,0.0719095863411357,1
337,394,35,0.0790677906199655,1
338,393,35,0.0842377274943856,1
338,394,35,0.090208202385573,1
339,393,35,0.0926686331494444,1
339,394,35,0.0924440709867959,1
340,393,35,0.0929463580078288,1
340,394,35,0.0790003156084592,1
341,393,35,0.0847708161615265,1
352,384,35,0.0821080474437191,1
352,385,35,0.0812100911350813,1
353,380,35,0.113518871987961,1
353,381,35,0.131362740789476,1
353,382,35,0.121178753723745,1
353,383,35,0.113059646315071,1
353,384,35,0.10073963475622,1
354,379,35,0.0811492466879432,1
354,380,35,0.131567815561725,1
354,381,35,0.159887354060753,1
354,382,35,0.150580056981357,1
354,383,35,0.122564404835772,1
355,380,35,0.0854561279072619,1
355,381,35,0.100514058726787,1
358,365,35,0.0719501410125056,1
323,390,36,0.0800497050504056,1
324,389,36,0.0802557128288981,1
324,390,36,0.0847671214568036,1
325,389,36,0.0887676656262805,1
325,390,36,0.096454150480078,1
325,391,36,0.0854237028302909,1
326,389,36,0.0937165360014432,1
326,390,36,0.10098887182398,1
326,391,36,0.0902632995142532,1
327,389,36,0.0962723573236166,1
328,389,36,0.0948141991864113,1
329,389,36,0.0897564656427952,1
331,390,36,0.0714410865861889,1
332,391,36,0.0777483518509952,1
333,349,36,0.082975413587664,1
333,392,36,0.0807126744066377,1
334,349,36,0.107543962207097,1
334,392,36,0.0717144014350639,1
335,392,36,0.0736420172136257,1
335,393,36,0.0783714072001445,1
336,392,36,0.0746021863785582,1
336,393,36,0.0760174137884943,1
336,394,36,0.0873881661354163,1
337,392,36,0.0772105670524303,1
337,393,36,0.0775014099785938,1
337,394,36,0.0794731756125825,1
338,392,36,0.0814246701309279,1
338,393,36,0.086378821321427,1
338,394,36,0.0853956193423714,1
339,392,36,0.082131658721713,1
339,393,36,0.0916138011710795,1
340,392,36,0.0783654608403546,1
340,393,36,0.0906627070468723,1
341,393,36,0.0825263950030746,1
352,380,36,0.0842568541223707,1
352,381,36,0.092526324817194,1
352,382,36,0.0751566097884597,1
352,383,36,0.0724069657493296,1
352,384,36,0.075133831996043,1
353,379,36,0.0792804351828678,1
353,380,36,0.13666287557511,1
353,381,36,0.151732779974756,1
353,382,36,0.122802371188114,1
353,383,36,0.100044737926346,1
354,379,36,0.078958025545477,1
354,380,36,0.118494221080305,1
354,381,36,0.13425079319476,1
354,382,36,0.11710136716008,1
355,381,36,0.0726106721124224,1
357,363,36,0.0754741242530947,1
320,356,37,0.0822830296546054,1
320,357,37,0.0726754414058234,1
321,355,37,0.0747499123670606,1
321,356,37,0.0856784757350933,1
322,355,37,0.0729921534850893,1
323,388,37,0.0830505641305308,1
323,389,37,0.0900115868699284,1
323,390,37,0.0874863494924062,1
324,388,37,0.0812511807300307,1
324,389,37,0.0951729587470362,1
324,390,37,0.0986181900406598,1
325,388,37,0.0798384351167015,1
325,389,37,0.109094917145249,1
326,388,37,0.074226900167346,1
326,389,37,0.121978638636142,1
330,389,37,0.0726741538572078,1
332,391,37,0.0823805039268505,1
333,392,37,0.0939266552274474,1
334,350,37,0.0777118961870536,1
334,391,37,0.0740557806023064,1
334,392,37,0.0812069002537297,1
335,391,37,0.0766088464460416,1
335,392,37,0.0853018646550157,1
335,393,37,0.0852761074626625,1
336,391,37,0.0814562803824466,1
336,392,37,0.0942451897789083,1
336,393,37,0.0847035464113938,1
337,391,37,0.0978878576336705,1
337,392,37,0.1098031559644,1
337,393,37,0.0916219183253951,1
338,391,37,0.102017324605829,1
338,392,37,0.113747981001034,1
338,393,37,0.0980979333193834,1
339,391,37,0.0880733161600696,1
339,392,37,0.102263930595983,1
339,393,37,0.0966291886713389,1
340,391,37,0.072188660948552,1
340,392,37,0.0864358839832595,1
340,393,37,0.0925578666482549,1
341,392,37,0.0729769081630758,1
341,393,37,0.0839832904718308,1
352,380,37,0.103825366304266,1
352,381,37,0.120129134140258,1
352,382,37,0.0899283502729541,1
352,383,37,0.0764128404944758,1
352,384,37,0.0724550839913108,1
353,379,37,0.0801222867160828,1
353,380,37,0.138872433400275,1
353,381,37,0.154791721803539,1
353,382,37,0.118683384986087,1
353,383,37,0.0909127216198345,1
354,379,37,0.0721170682694925,1
354,380,37,0.0978533737229229,1
354,381,37,0.105396654558477,1
354,382,37,0.0908043933749605,1
357,364,37,0.0768821426347918,1
320,356,38,0.0838987538861577,1
320,357,38,0.0772128187074972,1
321,356,38,0.0862072539133907,1
322,388,38,0.0826917610296146,1
323,388,38,0.0887504858713229,1
323,389,38,0.0941770554429902,1
323,390,38,0.0998022185035376,1
324,388,38,0.0965064050497373,1
324,389,38,0.113537420152075,1
325,388,38,0.0875599263647429,1
326,388,38,0.0768942157355785,1
330,389,38,0.075013256489217,1
331,390,38,0.0731901063096825,1
333,391,38,0.0803643085355618,1
334,350,38,0.0752881263484973,1
334,391,38,0.0845874120142852,1
334,392,38,0.0879555956523476,1
335,391,38,0.0854229875255044,1
335,392,38,0.0904840425713463,1
335,393,38,0.0920876688219454,1
336,391,38,0.0996839692922779,1
336,392,38,0.10871396447612,1
336,393,38,0.0932096648097355,1
337,391,38,0.133033282247835,1
337,393,38,0.107592416331326,1
338,391,38,0.135054223530881,1
338,392,38,0.139100422805857,1
338,393,38,0.108745947930136,1
339,391,38,0.109808343479112,1
339,392,38,0.112377817792643,1
339,393,38,0.100751571016091,1
340,391,38,0.0874904173996265,1
340,392,38,0.0879131065480335,1
340,393,38,0.0950762619799937,1
341,391,38,0.0803403738154037,1
341,392,38,0.0738453565942628,1
352,380,38,0.100514637190658,1
352,381,38,0.12401286592809,1
352,382,38,0.0942984084550189,1
352,383,38,0.0737974498336967,1
353,380,38,0.113395926645277,1
353,381,38,0.1287012471802,1
353,382,38,0.100539256115395,1
353,383,38,0.0772742789387558,1
354,380,38,0.0743561712923584,1
354,381,38,0.0783428509890617,1
356,363,38,0.0800820368267523,1
320,356,39,0.0755912538568626,1
320,357,39,0.0719668045040087,1
321,356,39,0.0762953874485436,1
321,388,39,0.0846284580689432,1
322,388,39,0.081584829982631,1
322,389,39,0.0928921379050173,1
323,388,39,0.0993820733521536,1
323,389,39,0.112175318117625,1
324,388,39,0.110030510925736,1
325,388,39,0.0934656008623211,1
330,389,39,0.0803791060145786,1
332,390,39,0.0751188852360274,1
333,390,39,0.0756607503818957,1
333,391,39,0.10424029284073,1
334,390,39,0.0720286939181392,1
334,391,39,0.0966608424631489,1
334,392,39,0.106124884591398,1
335,391,39,0.0953038906231615,1
335,392,39,0.104581120021361,1
336,390,39,0.0715077032319514,1
336,391,39,0.123916169161048,1
337,390,39,0.0785220317280423,1
338,390,39,0.0720694662909658,1
338,391,39,0.142701627863172,1
339,391,39,0.112599276154523,1
339,392,39,0.110706442848707,1
340,391,39,0.095218539212036,1
340,392,39,0.0889129035981344,1
341,391,39,0.086290260368825,1
341,392,39,0.0741896358979936,1
352,380,39,0.0808189749179433,1
352,381,39,0.104572772725505,1
352,382,39,0.0864105497537365,1
353,380,39,0.0802110715901831,1
353,381,39,0.093445472807635,1
353,382,39,0.0798658966004589,1
321,388,40,0.0765807691781637,1
322,388,40,0.0806741412487947,1
323,388,40,0.099665595289329,1
333,390,40,0.092753144854951,1
334,390,40,0.0808242681733629,1
334,391,40,0.100807377229516,1
335,390,40,0.0793588388075025,1
335,391,40,0.10114008103579,1
336,390,40,0.0872049174892155,1
337,355,40,0.0768171307597675,1
337,390,40,0.0841769514677053,1
338,355,40,0.0735709096978127,1
338,391,40,0.124992721524753,1
339,391,40,0.0984232103959615,1
340,391,40,0.087667365143665,1
341,391,40,0.0770319585572789,1
351,381,40,0.0723587106664327,1
351,382,40,0.0730225943687832,1
352,381,40,0.0822197967114847,1
352,382,40,0.0772672938320152,1
312,386,41,0.0728643129696497,1
313,386,41,0.0770653104204515,1
320,388,41,0.0777875318931668,1
321,388,41,0.0761463241510927,1
322,388,41,0.0874861317909495,1
323,388,41,0.0995865012400744,1
329,388,41,0.072533002452699,1
331,355,41,0.0789499208312446,1
331,389,41,0.082505700924601,1
332,355,41,0.0770158610895634,1
332,389,41,0.0840492477931815,1
333,389,41,0.0805042843522043,1
333,390,41,0.103042375024912,1
334,389,41,0.0731620850221792,1
334,390,41,0.086875902167623,1
334,391,41,0.101271585155744,1
335,389,41,0.0743538201166256,1
335,390,41,0.0917403230376954,1
335,391,41,0.110672941704535,1
336,389,41,0.0730764474891391,1
336,390,41,0.100260337009019,1
337,390,41,0.0859730133659797,1
338,355,41,0.0744129975926092,1
338,391,41,0.0979987174354843,1
351,382,41,0.0751253976196047,1
305,384,42,0.0778920410324854,1
306,384,42,0.0743213141791134,1
312,387,42,0.0797778456912698,1
313,387,42,0.0890475923793989,1
317,388,42,0.0867419660113948,1
318,388,42,0.0819556626440425,1
319,388,42,0.0778204918937173,1
320,388,42,0.0719677312902103,1
321,388,42,0.0791126806603454,1
322,388,42,0.0940745304969487,1
325,388,42,0.0775597042086672,1
326,388,42,0.0797545889556483,1
329,388,42,0.0823775245269139,1
330,355,42,0.0759180610636796,1
330,356,42,0.0755894500447925,1
331,355,42,0.0873420818470452,1
331,356,42,0.0752665303639887,1
331,389,42,0.0965935602729329,1
332,355,42,0.0846721725214567,1
332,388,42,0.082892419572313,1
332,389,42,0.102897914558261,1
333,387,42,0.0817064442364077,1
333,389,42,0.106138481602382,1
333,390,42,0.106649930744723,1
334,387,42,0.106482449904032,1
334,390,42,0.0938109748933772,1
335,387,42,0.096612817521792,1
335,388,42,0.105783055984066,1
335,389,42,0.096575876694604,1
335,390,42,0.101656954054424,1
336,388,42,0.0719098911231752,1
336,389,42,0.0845258584824023,1
336,390,42,0.104190202845555,1
337,355,42,0.0885409575492727,1
337,356,42,0.0719019854502747,1
337,390,42,0.0834479812498311,1
305,385,43,0.10113843272476,1
306,385,43,0.0856970736595405,1
311,387,43,0.0733047416767603,1
311,388,43,0.0832706416431704,1
312,387,43,0.0808697242375302,1
312,388,43,0.0942205148737972,1
313,387,43,0.0860911568365319,1
314,387,43,0.0813480889784882,1
317,388,43,0.093578625238619,1
318,388,43,0.0854223717413839,1
319,388,43,0.0757084207808803,1
320,388,43,0.074231807780185,1
324,388,43,0.078031768047463,1
325,388,43,0.0740994826147366,1
326,388,43,0.0839492419639966,1
327,388,43,0.10496433678564,1
328,387,43,0.0821633000734398,1
328,388,43,0.111076149682585,1
329,387,43,0.0764570152300693,1
329,388,43,0.0931130551232757,1
330,355,43,0.0754921001733798,1
330,356,43,0.0756941457853597,1
330,388,43,0.0755693966306059,1
331,354,43,0.0747112423683019,1
331,356,43,0.0755231817213607,1
331,388,43,0.0775694261337211,1
332,355,43,0.08618845072757,1
332,387,43,0.0738913351419264,1
334,386,43,0.0735958458446719,1
335,387,43,0.113630671016059,1
336,388,43,0.079761095119184,1
337,356,43,0.0912246567071353,1
338,356,43,0.0824976770709097,1
340,357,43,0.0765892906351847,1
306,386,44,0.0818396775279328,1
311,388,44,0.0828098236396257,1
312,388,44,0.0899953090210058,1
313,388,44,0.0962279835466913,1
328,388,44,0.11628002310409,1
329,388,44,0.0950706701625763,1
330,388,44,0.0781753390481625,1
331,388,44,0.0846392000808229,1
332,354,44,0.0934176070211723,1
332,386,44,0.0733647650784044,1
334,356,44,0.0739728239072051,1
337,356,44,0.109085487562151,1
338,357,44,0.0771696267384799,1
339,357,44,0.105803781162748,1
341,358,44,0.0725695389771817,1
331,387,45,0.0833406171114084,1
332,353,45,0.0889558654256117,1
332,386,45,0.108848690577634,1
333,385,45,0.0742475133852785,1
334,385,45,0.0715234274971697,1
331,386,46,0.0870908419258836,1
333,385,46,0.0934794528950114,1
