x,y,z,signal,mito.p
931,224,8,0.0727499139641535,1
932,223,8,0.0725967018989412,1
932,224,8,0.0734052513293165,1
934,219,8,0.0724323124189358,1
931,222,9,0.0726512019036258,1
931,223,9,0.0884243628690842,1
931,224,9,0.0901112879170738,1
932,222,9,0.0772935610677813,1
932,223,9,0.087317145700186,1
932,224,9,0.084157271256016,1
933,218,9,0.0749967111785047,1
933,219,9,0.0878405684226476,1
933,220,9,0.0819713558090526,1
933,221,9,0.0720867393465478,1
933,222,9,0.0729835511675272,1
933,223,9,0.0769618960084582,1
934,218,9,0.0888580303909526,1
934,219,9,0.0962407097518482,1
934,220,9,0.0805049934369491,1
935,219,9,0.0730216738026233,1
930,223,10,0.0761979442765066,1
930,224,10,0.080062257094397,1
931,222,10,0.084705381323672,1
931,223,10,0.0993123093653308,1
931,224,10,0.0973496001119424,1
931,225,10,0.0729885147607409,1
932,218,10,0.0734939553428758,1
932,219,10,0.0932019830583334,1
932,220,10,0.091455749913486,1
932,221,10,0.0826662775190927,1
932,222,10,0.0911587864663673,1
932,223,10,0.0973486235654079,1
932,224,10,0.0868209480999002,1
933,218,10,0.106103512528388,1
933,219,10,0.121140923430605,1
933,220,10,0.103333715554405,1
933,221,10,0.0841433197026598,1
933,222,10,0.0850209178150715,1
933,223,10,0.0845510372108847,1
934,217,10,0.0790052792016729,1
934,218,10,0.114573281003495,1
934,219,10,0.118326914400779,1
934,220,10,0.092660068152132,1
934,221,10,0.0725559295261146,1
935,218,10,0.0794803162203636,1
935,219,10,0.079490964931619,1
930,222,11,0.0756244564390363,1
930,223,11,0.0872686107154162,1
930,224,11,0.0865481121942299,1
931,219,11,0.0789104360070336,1
931,220,11,0.0857557908524442,1
931,221,11,0.0896940350850437,1
931,222,11,0.104437741841952,1
931,223,11,0.110565098622908,1
931,224,11,0.0994823901834196,1
932,218,11,0.0964288349106799,1
932,219,11,0.113905559535465,1
932,220,11,0.112812984344543,1
932,221,11,0.11147630984024,1
932,222,11,0.118959044790653,1
932,223,11,0.109667434656226,1
932,224,11,0.0874143836108495,1
933,217,11,0.0929288299305404,1
933,218,11,0.131007812774489,1
933,219,11,0.141398305222043,1
933,220,11,0.122182755521981,1
933,221,11,0.110317229964305,1
933,222,11,0.106717816278976,1
933,223,11,0.0900188954188332,1
934,217,11,0.0979640780236961,1
934,218,11,0.130513692668105,1
934,219,11,0.128222913539451,1
934,220,11,0.103425616669358,1
934,221,11,0.0877800971780068,1
934,222,11,0.0759194481329611,1
935,217,11,0.0743906925233558,1
935,218,11,0.0867153006929649,1
935,219,11,0.0818084218187865,1
930,221,12,0.0715888187947329,1
930,222,12,0.0806046758239697,1
930,223,12,0.0914871797837977,1
930,224,12,0.0846662510418333,1
931,218,12,0.0814603669497917,1
931,219,12,0.0883656021358892,1
931,220,12,0.0979427308408523,1
931,221,12,0.111623326743998,1
931,222,12,0.115974059256745,1
931,223,12,0.111709499200617,1
931,224,12,0.0914305960651701,1
932,217,12,0.0850793675461855,1
932,218,12,0.11078848519769,1
932,219,12,0.118338782240192,1
932,220,12,0.122599137548185,1
932,221,12,0.138695050253323,1
932,222,12,0.134553659461377,1
932,223,12,0.108567606896774,1
932,224,12,0.0788604393124827,1
933,216,12,0.073108350082614,1
933,217,12,0.1024745598654,1
933,218,12,0.131732484943603,1
933,219,12,0.133570382841822,1
933,220,12,0.123272954657004,1
933,221,12,0.127579848316406,1
933,222,12,0.112888570290323,1
933,223,12,0.083471412146618,1
934,216,12,0.0750499298546153,1
934,217,12,0.100127240558409,1
934,218,12,0.120205653092282,1
934,219,12,0.114147307673112,1
934,220,12,0.0984895844601009,1
934,221,12,0.0925327314600638,1
934,222,12,0.0748813418465156,1
935,217,12,0.0741689355994784,1
935,218,12,0.0797649328848643,1
935,219,12,0.072932018122696,1
930,221,13,0.0808455469357488,1
930,222,13,0.0838283616751311,1
930,223,13,0.0935281185006553,1
930,224,13,0.081237695679796,1
931,217,13,0.0821819912985114,1
931,218,13,0.0995623799186676,1
931,219,13,0.0918724740419784,1
931,220,13,0.0984740281360064,1
931,221,13,0.125209303374002,1
931,222,13,0.118744739476638,1
931,223,13,0.107698741722798,1
931,224,13,0.0824821020866904,1
932,216,13,0.0753975120004469,1
932,217,13,0.102559575394278,1
932,218,13,0.123114156994416,1
932,219,13,0.1167251292825,1
932,220,13,0.119898756238694,1
932,221,13,0.148389097080639,1
932,222,13,0.129873152781959,1
932,223,13,0.0972597578307665,1
933,216,13,0.0911550544413946,1
933,217,13,0.113460080154558,1
933,218,13,0.128413383653973,1
933,219,13,0.121798344509711,1
933,220,13,0.116722554185269,1
933,221,13,0.127806904715745,1
933,222,13,0.101428050302724,1
934,216,13,0.0858033679508044,1
934,217,13,0.102095299047592,1
934,218,13,0.107617296497811,1
934,219,13,0.098875233260654,1
934,220,13,0.088405534803097,1
934,221,13,0.0859758870252087,1
935,217,13,0.0723973744451498,1
935,218,13,0.0715166787520107,1
929,223,14,0.0722504881622662,1
930,218,14,0.0721517139013223,1
930,221,14,0.0838054532618404,1
930,222,14,0.084154086594706,1
930,223,14,0.0893558700822264,1
930,224,14,0.0744047809176277,1
931,217,14,0.0877894583406466,1
931,218,14,0.104143857315435,1
931,219,14,0.0919924462047672,1
931,220,14,0.0986461429077053,1
931,221,14,0.131067562494302,1
931,222,14,0.116106098300279,1
931,223,14,0.098282481954283,1
931,224,14,0.0721792127053295,1
932,216,14,0.0852943695048622,1
932,217,14,0.104883812126813,1
932,218,14,0.118279256441878,1
932,219,14,0.110852949709051,1
932,220,14,0.117674792797134,1
932,221,14,0.14390959726625,1
932,222,14,0.113878552114746,1
932,223,14,0.0823384253452834,1
933,216,14,0.097023850312201,1
933,217,14,0.108997212731464,1
933,218,14,0.11281738813401,1
933,219,14,0.108238069091685,1
933,220,14,0.109673443216432,1
933,221,14,0.115965649760474,1
933,222,14,0.0847960695305084,1
934,216,14,0.0822199522125253,1
934,217,14,0.0925962816253071,1
934,218,14,0.0908920337614026,1
934,219,14,0.0835026616357226,1
934,220,14,0.0771150520932959,1
934,221,14,0.0737720907240073,1
930,218,15,0.0808837193311778,1
930,221,15,0.0830008162376448,1
930,222,15,0.0825437986795306,1
930,223,15,0.0781307911100718,1
931,216,15,0.0750488911076646,1
931,217,15,0.0943658710264419,1
931,218,15,0.10768750832763,1
931,219,15,0.096358629300902,1
931,220,15,0.103624060877239,1
931,221,15,0.124620165911813,1
931,222,15,0.104715348519545,1
931,223,15,0.0816952854817394,1
932,215,15,0.073576930698102,1
932,216,15,0.0997104106892094,1
932,217,15,0.108210340146138,1
932,218,15,0.11269081028702,1
932,219,15,0.108829918492021,1
932,220,15,0.119683393517603,1
932,221,15,0.127330884930478,1
932,222,15,0.0926436907825435,1
933,215,15,0.0747951134095215,1
933,216,15,0.1034038340836,1
933,217,15,0.106088882990495,1
933,218,15,0.0999844906032039,1
933,219,15,0.0957807127937974,1
933,220,15,0.09996064918367,1
933,221,15,0.0954368191326471,1
934,216,15,0.077997881260711,1
934,217,15,0.0838301157268682,1
934,218,15,0.0775060252494767,1
930,217,16,0.0735923750614473,1
930,218,16,0.0907877547636239,1
930,219,16,0.0801461841159913,1
930,220,16,0.072364271383642,1
930,221,16,0.0745163560242279,1
930,222,16,0.0735496993558846,1
931,216,16,0.0762110934444937,1
931,217,16,0.0927866024588311,1
931,218,16,0.10940727519538,1
931,219,16,0.10487728108311,1
931,220,16,0.106715900506157,1
931,221,16,0.1048832274429,1
931,222,16,0.084984673632545,1
932,216,16,0.0958321960782957,1
932,217,16,0.0999681443338235,1
932,218,16,0.102917283767869,1
932,219,16,0.103952348453962,1
932,220,16,0.11372129702248,1
932,221,16,0.102384294621394,1
932,222,16,0.0720234006627196,1
933,216,16,0.0913502082472583,1
933,217,16,0.0918533660741182,1
933,218,16,0.0835060515584062,1
933,219,16,0.0799336888340878,1
933,220,16,0.083191348552584,1
933,221,16,0.0736695408977993,1
930,217,17,0.0792391963069196,1
930,218,17,0.104383341357933,1
930,219,17,0.107330142056329,1
930,220,17,0.087083726198269,1
931,216,17,0.0813383857135593,1
931,217,17,0.0962582440491782,1
931,218,17,0.11665863703757,1
931,219,17,0.123493728814305,1
931,220,17,0.112838088432526,1
931,221,17,0.0877808995633759,1
932,216,17,0.0898684885923921,1
932,217,17,0.0947388496022127,1
932,218,17,0.0980099757108186,1
932,219,17,0.101011699376729,1
932,220,17,0.102376737270824,1
932,221,17,0.080951163242476,1
932,231,17,0.0820029660605713,1
932,232,17,0.07656920612079,1
933,216,17,0.0767989433580673,1
933,217,17,0.0788208487475641,1
933,218,17,0.0718070800552191,1
933,231,17,0.0715457636666312,1
929,219,18,0.0738908561987216,1
930,217,18,0.0771900844553719,1
930,218,18,0.107117404192802,1
930,219,18,0.129738227639113,1
930,220,18,0.104719043224268,1
931,216,18,0.0805635675688955,1
931,217,18,0.092155106513202,1
931,218,18,0.113965222174695,1
931,219,18,0.134148958673338,1
931,220,18,0.116160722705796,1
931,221,18,0.0776913700497038,1
931,231,18,0.0895120988676249,1
931,232,18,0.0906704261185241,1
932,216,18,0.0779464041962543,1
932,217,18,0.0837109894897399,1
932,218,18,0.0877681484780526,1
932,219,18,0.0926436410222106,1
932,220,18,0.0881422591013984,1
932,226,18,0.0739611737692487,1
932,230,18,0.0883298306765259,1
932,231,18,0.10634462622179,1
932,232,18,0.0979496039868437,1
933,230,18,0.0809593674773743,1
933,231,18,0.0808302083131111,1
929,219,19,0.0793882782644954,1
930,217,19,0.076565610936733,1
930,218,19,0.101092155615099,1
930,219,19,0.132623393945084,1
930,220,19,0.11152641849554,1
930,231,19,0.0850860603109698,1
930,232,19,0.0802910675454728,1
931,216,19,0.0786325991878999,1
931,217,19,0.0888222838117558,1
931,218,19,0.102862441660895,1
931,219,19,0.123741261590661,1
931,220,19,0.106097118325601,1
931,226,19,0.0827080388785371,1
931,230,19,0.0955548257622836,1
931,231,19,0.132800179968041,1
931,232,19,0.123530364859454,1
931,233,19,0.0720784791312749,1
932,217,19,0.073687753179666,1
932,218,19,0.0756342219043815,1
932,219,19,0.0789034882205427,1
932,220,19,0.0734780942367418,1
932,226,19,0.0766021288010908,1
932,229,19,0.0816147421627871,1
932,230,19,0.111408959229566,1
932,231,19,0.128688098012213,1
932,232,19,0.11479038533624,1
932,233,19,0.0775872652130906,1
933,229,19,0.0761137560131643,1
933,230,19,0.0871240569481406,1
933,231,19,0.0827088412639062,1
933,232,19,0.0734845755201111,1
929,219,20,0.0764097553538317,1
930,217,20,0.0740187713546606,1
930,218,20,0.0899905569092073,1
930,219,20,0.115601740005386,1
930,220,20,0.101309539849716,1
930,230,20,0.0918636851231677,1
930,231,20,0.122978361045743,1
930,232,20,0.101174260164498,1
931,216,20,0.0723277783994507,1
931,217,20,0.0827713215819907,1
931,218,20,0.087681403777604,1
931,219,20,0.099844259764855,1
931,220,20,0.0869063181711505,1
931,226,20,0.0805324611407481,1
931,229,20,0.102321273159688,1
931,230,20,0.137556110872157,1
931,231,20,0.174581953589062,1
931,232,20,0.145132519649385,1
931,233,20,0.0824410373719075,1
932,228,20,0.0873369751928743,1
932,229,20,0.118325496231289,1
932,230,20,0.131047720561531,1
932,231,20,0.139200403754875,1
932,232,20,0.119299554749162,1
932,233,20,0.0854591508474898,1
932,234,20,0.0832050699644002,1
933,228,20,0.0751926860298624,1
933,229,20,0.0903572221427326,1
933,230,20,0.0877720297840242,1
933,231,20,0.0800097599431145,1
933,232,20,0.0733803711628319,1
933,234,20,0.0752967411061426,1
935,232,20,0.0714936086176379,1
929,219,21,0.0713475869205397,1
929,231,21,0.0778432634660924,1
930,218,21,0.0805476318222621,1
930,219,21,0.0937604557153302,1
930,220,21,0.083875845472867,1
930,229,21,0.0942405496278589,1
930,230,21,0.133473449713198,1
930,231,21,0.158183410978888,1
930,232,21,0.113720662578234,1
931,217,21,0.0734462600637248,1
931,218,21,0.0742524334382008,1
931,219,21,0.0775145280463728,1
931,226,21,0.0717871199416568,1
931,228,21,0.100255510256721,1
931,229,21,0.146288589025176,1
931,230,21,0.172747862356316,1
931,231,21,0.193595563417851,1
931,232,21,0.147217042197882,1
931,233,21,0.0911084974298603,1
931,234,21,0.0744104971358775,1
932,227,21,0.0754226782888461,1
932,228,21,0.116822286332622,1
932,229,21,0.146257824699317,1
932,230,21,0.137026362367367,1
932,231,21,0.134161249475581,1
932,232,21,0.112946864520396,1
932,233,21,0.0900603333361134,1
932,234,21,0.0906714337652668,1
932,235,21,0.073300232146585,1
933,228,21,0.0847822672581511,1
933,229,21,0.0953591245927573,1
933,230,21,0.0874491536435117,1
933,231,21,0.0797575372553768,1
933,232,21,0.0749643047616585,1
933,233,21,0.0729019504414993,1
933,234,21,0.0770007526084656,1
934,219,21,0.0720859991615949,1
934,232,21,0.0720996023926203,1
935,231,21,0.0771971131024037,1
935,232,21,0.0805139689570084,1
939,211,21,0.0716990379322597,1
939,212,21,0.072359164729471,1
940,211,21,0.0852374312438622,1
940,212,21,0.0765444192549297,1
941,210,21,0.0761123067434666,1
941,211,21,0.0834368224951627,1
942,210,21,0.0725666342177446,1
942,211,21,0.0789042159654124,1
943,211,21,0.0760722807756345,1
929,229,22,0.0736624811505593,1
929,230,22,0.101237250525995,1
929,231,22,0.096870930588945,1
930,228,22,0.08218582284415,1
930,229,22,0.132832797866302,1
930,230,22,0.176836009591985,1
930,231,22,0.176709431744995,1
930,232,22,0.114619943755737,1
930,233,22,0.0780749786766052,1
931,227,22,0.0786096161341097,1
931,228,22,0.132725651429336,1
931,229,22,0.180284126984921,1
931,230,22,0.189249558136735,1
931,231,22,0.18507291214888,1
931,232,22,0.135220211561583,1
931,233,22,0.0993363622662797,1
931,234,22,0.0828475108718082,1
932,227,22,0.0824600147188937,1
932,228,22,0.133356114848056,1
932,229,22,0.153350612800418,1
932,230,22,0.132758841571427,1
932,231,22,0.122696829521886,1
932,232,22,0.106445092334055,1
932,233,22,0.0954778403071386,1
932,234,22,0.0919248032521372,1
932,235,22,0.0727122267319709,1
933,218,22,0.0751508002695855,1
933,219,22,0.0799614675399679,1
933,220,22,0.0715660223421913,1
933,228,22,0.0841608975402812,1
933,229,22,0.0924537804717665,1
933,230,22,0.0910689628453163,1
933,231,22,0.0869718276495045,1
933,232,22,0.0833775019582218,1
933,233,22,0.0806660551946872,1
933,234,22,0.0776996551451432,1
934,218,22,0.083492541628005,1
934,219,22,0.0819985125107706,1
934,220,22,0.0734329367345723,1
934,221,22,0.0761118651205115,1
934,222,22,0.0729183278110878,1
934,230,22,0.0798346782115623,1
934,231,22,0.086067004414917,1
934,232,22,0.0825488306932021,1
935,230,22,0.0717080010122358,1
935,231,22,0.0861701016047876,1
935,232,22,0.0839084136107953,1
936,231,22,0.073255951670284,1
938,212,22,0.0726342025298752,1
939,211,22,0.0833564533373758,1
939,212,22,0.0892418318391442,1
940,210,22,0.0784507438310223,1
940,211,22,0.096818408557496,1
940,212,22,0.092775555664912,1
941,209,22,0.0759585473145917,1
941,210,22,0.0871983553453052,1
941,211,22,0.101479608227722,1
941,212,22,0.0901942694923416,1
941,231,22,0.0763720183613162,1
941,232,22,0.074381362460924,1
942,209,22,0.0810490729176346,1
942,210,22,0.0864098468890333,1
942,211,22,0.111778504342362,1
942,212,22,0.100346391284847,1
942,231,22,0.0813854589885481,1
942,232,22,0.0822141551337343,1
943,210,22,0.0755802568232764,1
943,211,22,0.107992887491063,1
943,212,22,0.0975461783073374,1
944,211,22,0.0724419908036983,1
929,229,23,0.102019495400355,1
929,230,23,0.129159664247679,1
929,231,23,0.104477413267411,1
930,227,23,0.0775256121605417,1
930,228,23,0.119224006123631,1
930,229,23,0.170835896202473,1
930,230,23,0.202114196539934,1
930,231,23,0.169070461789141,1
930,232,23,0.110479224728286,1
930,233,23,0.0913002488729572,1
931,227,23,0.0987375899596195,1
931,228,23,0.160017290730219,1
931,229,23,0.191962566130717,1
931,230,23,0.185816953527602,1
931,231,23,0.160256239849137,1
931,232,23,0.125346131849584,1
931,233,23,0.112637827972491,1
931,234,23,0.0917333752512046,1
932,227,23,0.085745975626766,1
932,228,23,0.129985163291472,1
932,229,23,0.142873599573914,1
932,230,23,0.131289319418179,1
932,231,23,0.121606953829028,1
932,232,23,0.114874617139874,1
932,233,23,0.10993199790654,1
932,234,23,0.0935557665856613,1
932,235,23,0.0716954614083275,1
933,218,23,0.088193935207187,1
933,219,23,0.0920021432496546,1
933,220,23,0.0789526452094747,1
933,221,23,0.0729171397831382,1
933,228,23,0.0766592412232562,1
933,229,23,0.0897742363017068,1
933,230,23,0.106900648182388,1
933,231,23,0.109427117128151,1
933,232,23,0.103984580709642,1
933,233,23,0.0945066927687448,1
933,234,23,0.0794889682982586,1
934,217,23,0.0780223820046567,1
934,218,23,0.0943028433446947,1
934,219,23,0.0871709685020473,1
934,220,23,0.0751215411937996,1
934,221,23,0.0795140723862416,1
934,222,23,0.0749469321854106,1
934,230,23,0.0961600731322715,1
934,231,23,0.104001766684642,1
934,232,23,0.0933842924782494,1
934,233,23,0.0791887953096634,1
935,215,23,0.0735157130484666,1
935,216,23,0.0732328566557447,1
935,217,23,0.0718494136584927,1
935,230,23,0.0773228885640251,1
935,231,23,0.0886401050127139,1
935,232,23,0.0831031359223127,1
935,233,23,0.0731003822092973,1
936,231,23,0.0769154509576731,1
936,232,23,0.0734988007552987,1
936,233,23,0.0716875930556768,1
936,234,23,0.0762311468586803,1
936,235,23,0.0779093825085252,1
936,236,23,0.0716718065900423,1
937,235,23,0.0757313105340461,1
937,236,23,0.0746901439871229,1
938,211,23,0.0752767498923722,1
938,212,23,0.0784393238346058,1
939,211,23,0.0894739140321127,1
939,212,23,0.0966681758922203,1
939,213,23,0.0764023721644274,1
940,210,23,0.088497460798216,1
940,211,23,0.107016241435876,1
940,212,23,0.105545661875553,1
940,213,23,0.0737422656244338,1
941,209,23,0.0821925342690592,1
941,210,23,0.107020284462929,1
941,211,23,0.126778657195269,1
941,212,23,0.116474362084501,1
941,231,23,0.0908532020415617,1
941,232,23,0.0957243592167098,1
942,209,23,0.0852605200383599,1
942,210,23,0.106203991080736,1
942,211,23,0.146222233621161,1
942,212,23,0.138908435001178,1
942,231,23,0.0895471363620769,1
942,232,23,0.0995763563521903,1
942,233,23,0.0776741591945381,1
943,210,23,0.0850119298549289,1
943,211,23,0.127423998953546,1
943,212,23,0.121857820547692,1
944,211,23,0.0737217208269592,1
929,227,24,0.0758696442597005,1
929,228,24,0.104197150632045,1
929,229,24,0.133734815862118,1
929,230,24,0.14423718197827,1
929,231,24,0.101541989025141,1
929,232,24,0.0724079796161138,1
930,227,24,0.107361068103269,1
930,228,24,0.157784979992803,1
930,229,24,0.19701361312959,1
930,230,24,0.20577368338724,1
930,231,24,0.148746090149443,1
930,232,24,0.107279585558032,1
930,233,24,0.104910433904951,1
930,234,24,0.0814415388838045,1
931,227,24,0.109843735515936,1
931,228,24,0.162610401201911,1
931,229,24,0.183820593849044,1
931,230,24,0.18027153762068,1
931,231,24,0.147994373239361,1
931,232,24,0.130217307684857,1
931,233,24,0.135083855809164,1
931,234,24,0.103081897169373,1
931,235,24,0.0734251616825458,1
932,219,24,0.0739350495944398,1
932,220,24,0.0719257895495588,1
932,227,24,0.0794116594009493,1
932,228,24,0.109203083669041,1
932,229,24,0.12584229212962,1
932,230,24,0.141396613370722,1
932,231,24,0.142680541922077,1
932,232,24,0.139041817573702,1
932,233,24,0.133568877591749,1
932,234,24,0.097835540863595,1
933,218,24,0.0927362512219079,1
933,219,24,0.0974354802266057,1
933,220,24,0.0853210908036667,1
933,221,24,0.0757869177061392,1
933,229,24,0.0865957017326733,1
933,230,24,0.126159215690301,1
933,231,24,0.141782641593814,1
933,232,24,0.130057850697857,1
933,233,24,0.108726516520111,1
933,234,24,0.0801465075581556,1
934,215,24,0.0802899914782723,1
934,216,24,0.0837004465191921,1
934,217,24,0.0839899459163654,1
934,218,24,0.0956508569848726,1
934,219,24,0.0889572773750597,1
934,220,24,0.0783699143901554,1
934,221,24,0.0795053767680552,1
934,222,24,0.0748067013470617,1
934,230,24,0.102451744752734,1
934,231,24,0.114075777194469,1
934,232,24,0.101579744677781,1
934,233,24,0.0864034278060803,1
934,234,24,0.0735988750049414,1
935,214,24,0.0783663876265562,1
935,215,24,0.0920642317051169,1
935,216,24,0.0878919584065216,1
935,217,24,0.0762940376995118,1
935,230,24,0.0792682376812488,1
935,231,24,0.0882533055044609,1
935,232,24,0.0854002097330878,1
935,233,24,0.0830846312984898,1
935,234,24,0.0812449295882014,1
935,235,24,0.0735093126256384,1
936,214,24,0.0794873075471458,1
936,215,24,0.0802727806231066,1
936,216,24,0.0721474096325205,1
936,230,24,0.0741313230077953,1
936,231,24,0.0816592465605864,1
936,232,24,0.0821165253604487,1
936,233,24,0.0873813116495498,1
936,234,24,0.0905077036096732,1
936,235,24,0.0860473988437271,1
936,236,24,0.0749334409151343,1
937,230,24,0.0721708529693906,1
937,231,24,0.0745028460938268,1
937,233,24,0.0739405605513162,1
937,234,24,0.0774165997110894,1
937,235,24,0.0801174288635767,1
937,236,24,0.0749432499207709,1
938,211,24,0.0808474005081519,1
938,212,24,0.0810380634439651,1
938,213,24,0.075933996810313,1
939,211,24,0.0923713089399116,1
939,212,24,0.0976166949191964,1
939,213,24,0.0833367171453119,1
940,210,24,0.0932813818896274,1
940,211,24,0.114419023971291,1
940,212,24,0.111947366032293,1
940,213,24,0.0822610169273081,1
940,231,24,0.0746567361435757,1
940,232,24,0.0731784064113931,1
941,209,24,0.0818123466650495,1
941,210,24,0.123378421682732,1
941,211,24,0.14680684289305,1
941,212,24,0.134827316412541,1
941,213,24,0.08137107825232,1
941,231,24,0.0962437202519928,1
941,232,24,0.10785018729619,1
941,233,24,0.0860539734277207,1
942,209,24,0.0831531077366971,1
942,210,24,0.122095276856621,1
942,211,24,0.162757505186251,1
942,212,24,0.157521698071063,1
942,213,24,0.0824072376657382,1
942,231,24,0.0911817073197413,1
942,232,24,0.108358551297887,1
942,233,24,0.0899602217662209,1
943,210,24,0.0879331350820537,1
943,211,24,0.125503486462516,1
943,212,24,0.123681810432846,1
943,232,24,0.0731068697127082,1
928,228,25,0.0782251802416728,1
928,229,25,0.0793913260848898,1
929,227,25,0.111306975427146,1
929,228,25,0.153556993781407,1
929,229,25,0.163636484147903,1
929,230,25,0.141854035231541,1
929,231,25,0.0955838111562382,1
929,232,25,0.0779570529075097,1
929,233,25,0.0744129727124428,1
930,226,25,0.0714455090357815,1
930,227,25,0.133494261972462,1
930,228,25,0.188515555905189,1
930,229,25,0.210771909792667,1
930,230,25,0.196241705964405,1
930,231,25,0.137026735569864,1
930,232,25,0.112543357980349,1
930,233,25,0.121323904615016,1
930,234,25,0.0933019888875183,1
931,227,25,0.105606518762774,1
931,228,25,0.146332315917772,1
931,229,25,0.172613633858131,1
931,230,25,0.189466637589313,1
931,231,25,0.163422290794637,1
931,232,25,0.149763776039247,1
931,233,25,0.162169537091887,1
931,234,25,0.116163733205941,1
931,235,25,0.0755865452853554,1
932,219,25,0.0812120442281504,1
932,220,25,0.0787190950866837,1
932,228,25,0.0874115286117454,1
932,229,25,0.116411713825293,1
932,230,25,0.165200849495789,1
932,231,25,0.179902838433544,1
932,232,25,0.165341857839341,1
932,233,25,0.152123560309646,1
932,234,25,0.100319732186459,1
933,216,25,0.0740692034521249,1
933,217,25,0.0785620763559993,1
933,218,25,0.0968025350112788,1
933,219,25,0.106640177719461,1
933,220,25,0.0929374198080192,1
933,221,25,0.0759848207703994,1
933,229,25,0.0841253624424995,1
933,230,25,0.136470477247684,1
933,231,25,0.163622227812507,1
933,232,25,0.144248179011856,1
933,233,25,0.114317301410618,1
933,234,25,0.0793976456471769,1
934,215,25,0.0945894068822229,1
934,216,25,0.105594439441946,1
934,217,25,0.094649380523534,1
934,218,25,0.100154857543207,1
934,219,25,0.10321072667143,1
934,220,25,0.0882566145666033,1
934,221,25,0.0768574552895975,1
934,222,25,0.0739456920856536,1
934,229,25,0.0730770010728434,1
934,230,25,0.0975968156661752,1
934,231,25,0.110979689277124,1
934,232,25,0.104213173459261,1
934,233,25,0.0939131390770046,1
934,234,25,0.0810442026250452,1
935,214,25,0.0856258728431032,1
935,215,25,0.106833260251465,1
935,216,25,0.10480534008172,1
935,217,25,0.0839245857190103,1
935,218,25,0.0740251282371974,1
935,219,25,0.0718462103370578,1
935,222,25,0.0741265771160384,1
935,228,25,0.0726592941777749,1
935,229,25,0.0772052426968026,1
935,230,25,0.0807326780604914,1
935,231,25,0.0853459212098183,1
935,232,25,0.0918892805944388,1
935,233,25,0.0989119066260523,1
935,234,25,0.0953383247735762,1
935,235,25,0.0803043286742091,1
936,214,25,0.0893319353620682,1
936,215,25,0.0947565020803335,1
936,216,25,0.0833948807545113,1
936,228,25,0.0768366554704163,1
936,229,25,0.0781672903143047,1
936,230,25,0.0774295684978695,1
936,231,25,0.0818570998645137,1
936,232,25,0.0922063720962435,1
936,233,25,0.105108480030169,1
936,234,25,0.103163821337565,1
936,235,25,0.0899332889860013,1
936,236,25,0.073106166848005,1
937,211,25,0.0715148313996492,1
937,213,25,0.0759304949268803,1
937,214,25,0.0866810220435907,1
937,215,25,0.0807387861413634,1
937,229,25,0.0738348447239231,1
937,230,25,0.0754126080414615,1
937,231,25,0.0750957653413216,1
937,232,25,0.0768611624344037,1
937,233,25,0.08364492020764,1
937,234,25,0.0841195218234172,1
937,235,25,0.0808999349796842,1
938,211,25,0.0855773005380836,1
938,212,25,0.0842304189454808,1
938,213,25,0.0817034959366793,1
938,214,25,0.0775030707297066,1
938,229,25,0.0721851901653274,1
938,230,25,0.0747560826483488,1
939,210,25,0.0739407969128978,1
939,211,25,0.0968131526223261,1
939,212,25,0.0968471451497857,1
939,213,25,0.0854423940553624,1
939,229,25,0.0755961614697017,1
939,230,25,0.0772710507371544,1
940,210,25,0.0984875256263243,1
940,211,25,0.124405238593636,1
940,212,25,0.1152240963984,1
940,213,25,0.0862103701542429,1
940,229,25,0.078024347537809,1
940,230,25,0.0796778771823347,1
940,231,25,0.0776363475615231,1
940,232,25,0.0745982366521288,1
941,209,25,0.0793445575919403,1
941,210,25,0.134976162008535,1
941,211,25,0.162985855354247,1
941,212,25,0.143373093796259,1
941,213,25,0.0900976100455489,1
941,229,25,0.0733931968886547,1
941,230,25,0.0789912032474842,1
941,231,25,0.0922239063935736,1
941,232,25,0.106687375395282,1
941,233,25,0.0964924721565059,1
941,234,25,0.0782415887114694,1
942,209,25,0.0792079343777317,1
942,210,25,0.13081820102571,1
942,211,25,0.162921938206548,1
942,212,25,0.152077867883897,1
942,213,25,0.0898429553215373,1
942,231,25,0.0877841961854351,1
942,232,25,0.106909107438993,1
942,233,25,0.0947276410872114,1
942,234,25,0.0727715472689118,1
943,210,25,0.0845301938514122,1
943,211,25,0.112187036676039,1
943,212,25,0.11417400409175,1
943,213,25,0.0738808481517531,1
943,232,25,0.0725191690801336,1
928,227,26,0.0727199147034147,1
928,228,26,0.0949935043262243,1
928,229,26,0.0876128029385643,1
929,227,26,0.131149368481704,1
929,228,26,0.192911197118442,1
929,229,26,0.183126337683457,1
929,230,26,0.13202410537497,1
929,231,26,0.0900679466670576,1
929,232,26,0.081755234242884,1
929,233,26,0.0786044223993561,1
930,226,26,0.0727402791196823,1
930,227,26,0.135716396721785,1
930,228,26,0.203616523192691,1
930,229,26,0.22063119824569,1
930,230,26,0.196068564885838,1
930,231,26,0.143713964517182,1
930,232,26,0.121981275933789,1
930,233,26,0.129317342302776,1
930,234,26,0.0982488315291125,1
931,227,26,0.0915896114292149,1
931,228,26,0.130603933031945,1
931,229,26,0.175440568134446,1
931,230,26,0.22082073535397,1
931,231,26,0.203994191679844,1
931,232,26,0.172255570942168,1
931,233,26,0.173144340249331,1
931,234,26,0.118532474336275,1
931,235,26,0.073217860135396,1
932,219,26,0.085843928842216,1
932,220,26,0.0807637782685972,1
932,228,26,0.0753076137388964,1
932,229,26,0.116483356264685,1
932,230,26,0.191894879637795,1
932,231,26,0.219542865123154,1
932,232,26,0.185626383892413,1
932,233,26,0.156872064484067,1
932,234,26,0.0984101420885155,1
933,216,26,0.0870697933050376,1
933,217,26,0.0840000472639581,1
933,218,26,0.0977722519400998,1
933,219,26,0.121252361696289,1
933,220,26,0.100293340549861,1
933,221,26,0.0773617451640324,1
933,222,26,0.0725680088469429,1
933,229,26,0.0829423665065308,1
933,230,26,0.136513619456368,1
933,231,26,0.173161582204705,1
933,232,26,0.1518041611724,1
933,233,26,0.117674456914887,1
933,234,26,0.0809854792120999,1
934,214,26,0.0781837609845175,1
934,215,26,0.106977590097242,1
934,216,26,0.126827745763743,1
934,217,26,0.10416263562109,1
934,218,26,0.106769293343433,1
934,219,26,0.131315729714903,1
934,220,26,0.103020611099279,1
934,221,26,0.0764131950368482,1
934,222,26,0.0737716988613851,1
934,229,26,0.0799060034288321,1
934,230,26,0.094572395068389,1
934,231,26,0.109164494530823,1
934,232,26,0.110083505680348,1
934,233,26,0.104297927746391,1
934,234,26,0.0893488352151529,1
935,214,26,0.0927403315692114,1
935,215,26,0.119759091424133,1
935,216,26,0.121225329395404,1
935,217,26,0.092734789512127,1
935,218,26,0.0813988071978671,1
935,219,26,0.0885558732090802,1
935,220,26,0.0746607418503798,1
935,222,26,0.0763084122156983,1
935,223,26,0.0776218859647539,1
935,227,26,0.0716270347304532,1
935,228,26,0.0930068976729275,1
935,229,26,0.0965890072024662,1
935,230,26,0.0885238710949394,1
935,231,26,0.0886825070364453,1
935,232,26,0.103023727340132,1
935,233,26,0.114339034236043,1
935,234,26,0.106899864457144,1
935,235,26,0.0836599975885297,1
936,213,26,0.0720497487590268,1
936,214,26,0.100560012394284,1
936,215,26,0.118234310421123,1
936,216,26,0.100464596955816,1
936,217,26,0.0771485407973842,1
936,227,26,0.0759612405926136,1
936,228,26,0.0974673081795811,1
936,229,26,0.0980677163571878,1
936,230,26,0.0854124445549566,1
936,231,26,0.0844008232057339,1
936,232,26,0.103125592961761,1
936,233,26,0.118824778972219,1
936,234,26,0.111657026929501,1
936,235,26,0.0885934049402223,1
937,212,26,0.0718289559416007,1
937,213,26,0.0824227442294997,1
937,214,26,0.104115804927724,1
937,215,26,0.109685908179841,1
937,216,26,0.0826952255927975,1
937,227,26,0.0733173932414177,1
937,228,26,0.0872765910288161,1
937,229,26,0.0932019146378755,1
937,230,26,0.0850256637068284,1
937,231,26,0.0788604393124827,1
937,232,26,0.0860142149216783,1
937,233,26,0.0961646262027382,1
937,234,26,0.0938416707987776,1
937,235,26,0.0813125041203736,1
938,211,26,0.0843454026348894,1
938,212,26,0.0854732392417617,1
938,213,26,0.0879995651265676,1
938,214,26,0.0956205840423025,1
938,215,26,0.0858335413727086,1
938,228,26,0.0801177336456161,1
938,229,26,0.0932035069685306,1
938,230,26,0.0905406822703485,1
938,231,26,0.0792709185191875,1
938,234,26,0.0747674528844322,1
938,235,26,0.074418763571192,1
939,210,26,0.0802369780635352,1
939,211,26,0.101406118435968,1
939,212,26,0.0983716960112551,1
939,213,26,0.0901421766437645,1
939,214,26,0.0830072104404313,1
939,228,26,0.0785800273961179,1
939,229,26,0.0945926537439491,1
939,230,26,0.092608547547384,1
939,231,26,0.0819298619113979,1
939,234,26,0.0720353866829235,1
939,235,26,0.073803060311239,1
940,210,26,0.101804275740221,1
940,211,26,0.133502795869566,1
940,212,26,0.118751593962505,1
940,213,26,0.092371812763283,1
940,228,26,0.0789626843566513,1
940,229,26,0.102928249701247,1
940,230,26,0.0957226113850142,1
940,231,26,0.0833419419802737,1
940,232,26,0.080530066424724,1
940,233,26,0.0840863254612852,1
940,234,26,0.0862859561000232,1
940,235,26,0.0802452755990578,1
941,209,26,0.073352213034413,1
941,210,26,0.132523612037398,1
941,211,26,0.168277269641528,1
941,212,26,0.142108074171432,1
941,213,26,0.0950947977040248,1
941,228,26,0.074510198183023,1
941,229,26,0.1065186256661,1
941,230,26,0.100713554121702,1
941,231,26,0.093633940068756,1
941,232,26,0.105739864015049,1
941,233,26,0.109968372709941,1
941,234,26,0.0972597702708498,1
941,235,26,0.0812514730719869,1
942,209,26,0.0723189583804319,1
942,210,26,0.12189686996899,1
942,211,26,0.147462982643582,1
942,212,26,0.13318389433565,1
942,213,26,0.0934572162462158,1
942,229,26,0.0810443021457112,1
942,230,26,0.0848854017682714,1
942,231,26,0.089862759934059,1
942,232,26,0.104733579461537,1
942,233,26,0.0992835914331659,1
942,234,26,0.0793903246581888,1
943,210,26,0.0744215688099632,1
943,211,26,0.0948979644869234,1
943,212,26,0.106994309569119,1
943,213,26,0.0920851497050889,1
943,232,26,0.0749045612618873,1
943,233,26,0.0721213476581279,1
944,212,26,0.0862401828137331,1
944,213,26,0.0829304178065766,1
928,227,27,0.0746160757314983,1
928,228,27,0.0997898530607948,1
928,229,27,0.0874226562662056,1
929,227,27,0.127240370884807,1
929,228,27,0.197695777534265,1
929,229,27,0.183640921726775,1
929,230,27,0.126676051388686,1
929,231,27,0.0926340434979891,1
929,232,27,0.08879187402827,1
929,233,27,0.0817567581530812,1
930,227,27,0.115975464986152,1
930,228,27,0.191057475434339,1
930,229,27,0.220851512119911,1
930,230,27,0.208768347305911,1
930,231,27,0.167382777896074,1
930,232,27,0.13879797950207,1
930,233,27,0.129222946951133,1
930,234,27,0.0966020070894544,1
931,227,27,0.0750469815548869,1
931,228,27,0.114494696997654,1
931,229,27,0.176080772138345,1
931,230,27,0.248370245140383,1
931,231,27,0.248487580005524,1
931,232,27,0.195838883628936,1
931,233,27,0.164565211002441,1
931,234,27,0.109821928050012,1
932,218,27,0.0713549576698608,1
932,219,27,0.0866116747995565,1
932,220,27,0.0793640076620897,1
932,221,27,0.0716695984752668,1
932,222,27,0.0736483803162041,1
932,229,27,0.112129551051377,1
932,230,27,0.1976363636967,1
932,231,27,0.243527843217649,1
932,232,27,0.203171093572117,1
932,233,27,0.152448632124851,1
932,234,27,0.0944440818297863,1
933,215,27,0.0840679141380865,1
933,216,27,0.100500573676553,1
933,217,27,0.0894226049087798,1
933,218,27,0.0973104760501454,1
933,219,27,0.13050254635352,1
933,220,27,0.104170727895239,1
933,221,27,0.0803565645837435,1
933,222,27,0.0761800616568458,1
933,229,27,0.0800367051634173,1
933,230,27,0.126912674212038,1
933,231,27,0.172639596311858,1
933,232,27,0.163069639314884,1
933,233,27,0.127327613188585,1
933,234,27,0.0873934407307111,1
934,213,27,0.0731030754873193,1
934,214,27,0.0926010897174803,1
934,215,27,0.120755790893506,1
934,216,27,0.142211600544175,1
934,217,27,0.113209337836726,1
934,218,27,0.113935652096828,1
934,219,27,0.152380472908766,1
934,220,27,0.112388802386146,1
934,221,27,0.0784565657899797,1
934,222,27,0.0733492771747678,1
934,228,27,0.0808073807603614,1
934,229,27,0.0858394690723736,1
934,230,27,0.0942122981988156,1
934,231,27,0.113714604257695,1
934,232,27,0.12633524286818,1
934,233,27,0.122955633013659,1
934,234,27,0.0997824201110575,1
934,235,27,0.0734325573120334,1
935,213,27,0.0759456407282278,1
935,214,27,0.104592260115904,1
935,215,27,0.137002825729872,1
935,216,27,0.139550007414234,1
935,217,27,0.105320011205621,1
935,218,27,0.0912039128683288,1
935,219,27,0.102350718836723,1
935,220,27,0.0793604746784488,1
935,222,27,0.0755597804462596,1
935,223,27,0.0785372210696812,1
935,227,27,0.0782483809969197,1
935,228,27,0.108276123306323,1
935,229,27,0.109230078649676,1
935,230,27,0.0922692504969918,1
935,231,27,0.093708823149833,1
935,232,27,0.11748995804032,1
935,233,27,0.131034670914209,1
935,234,27,0.114640656494336,1
935,235,27,0.0809058751194324,1
936,213,27,0.083491589961637,1
936,214,27,0.115907591891982,1
936,215,27,0.150641199990493,1
936,216,27,0.125878754013603,1
936,217,27,0.0904599025898146,1
936,218,27,0.0720316919782006,1
936,227,27,0.0812899626895386,1
936,228,27,0.11098427966784,1
936,229,27,0.11373668540545,1
936,230,27,0.0909817640818293,1
936,231,27,0.0871515122118563,1
936,232,27,0.113153656024133,1
936,233,27,0.131791426058005,1
936,234,27,0.117355269259055,1
936,235,27,0.0831859184562487,1
937,212,27,0.0756332018175557,1
937,213,27,0.0933762935047246,1
937,214,27,0.121749168860654,1
937,215,27,0.145481488864498,1
937,216,27,0.1049128472811,1
937,217,27,0.0720205518836571,1
937,227,27,0.0817207752123029,1
937,228,27,0.10401791391269,1
937,229,27,0.116352934431973,1
937,230,27,0.0972015693414006,1
937,231,27,0.0842355753599847,1
937,232,27,0.0962669147871981,1
937,233,27,0.110574988489085,1
937,234,27,0.102504957208803,1
937,235,27,0.0783146368802682,1
938,210,27,0.0776201381330584,1
938,211,27,0.0840489367911004,1
938,212,27,0.086537538123474,1
938,213,27,0.0947972371329105,1
938,214,27,0.110777687205435,1
938,215,27,0.108453220331361,1
938,216,27,0.0746536883231814,1
938,226,27,0.0731607725933971,1
938,227,27,0.0842842285255454,1
938,228,27,0.0996919247255113,1
938,229,27,0.11866428945831,1
938,230,27,0.105508752148573,1
938,231,27,0.087230226838572,1
938,232,27,0.0832685703693106,1
938,233,27,0.0868395398043058,1
938,234,27,0.0860845138320805,1
938,235,27,0.0755908122339075,1
939,210,27,0.0884364608500373,1
939,211,27,0.104974711815064,1
939,212,27,0.0985324654270371,1
939,213,27,0.0938019060726936,1
939,214,27,0.0989424719105786,1
939,215,27,0.0789468978910168,1
939,226,27,0.0739740990157374,1
939,227,27,0.0854839750335998,1
939,228,27,0.0964888645323657,1
939,229,27,0.116538129951201,1
939,230,27,0.106070023824299,1
939,231,27,0.0900167059641826,1
939,232,27,0.0836555875790203,1
939,233,27,0.0861672528257251,1
939,234,27,0.0927271513010162,1
939,235,27,0.0863064697972897,1
940,210,27,0.0981197656654736,1
940,211,27,0.13054985599009,1
940,212,27,0.114396594501205,1
940,213,27,0.093432895883477,1
940,214,27,0.0854728162789315,1
940,227,27,0.0757951343811208,1
940,228,27,0.0975756426444968,1
940,229,27,0.133661556211904,1
940,230,27,0.116613840297814,1
940,231,27,0.0924123612146112,1
940,232,27,0.0936891926984767,1
940,233,27,0.106545695287235,1
940,234,27,0.114404070991233,1
940,235,27,0.102585998131085,1
940,236,27,0.0717464097692464,1
941,210,27,0.110239740685788,1
941,211,27,0.1489797397929,1
941,212,27,0.125360114503148,1
941,213,27,0.0913805620503695,1
941,214,27,0.0716913188606078,1
941,228,27,0.090343917473705,1
941,229,27,0.139449740343301,1
941,230,27,0.124171613830345,1
941,231,27,0.0980910726134752,1
941,232,27,0.106871762309099,1
941,233,27,0.120503904088016,1
941,234,27,0.115334427496676,1
941,235,27,0.0964786450039821,1
942,210,27,0.0935424245963839,1
942,211,27,0.116321050498623,1
942,212,27,0.107192343254254,1
942,213,27,0.0927835359783119,1
942,229,27,0.0965375176979263,1
942,230,27,0.0952173263039199,1
942,231,27,0.0887070015603494,1
942,232,27,0.0995009694477419,1
942,233,27,0.100819923053466,1
942,234,27,0.0862286508565675,1
943,211,27,0.0738866141303359,1
943,212,27,0.0965864321052351,1
943,213,27,0.106170813378729,1
943,232,27,0.0763413659962072,1
943,233,27,0.0766993978119623,1
944,212,27,0.0892411103143162,1
944,213,27,0.0966911776061353,1
944,233,27,0.07134344437282,1
928,227,28,0.073688033081539,1
928,228,28,0.0946296443314701,1
928,229,28,0.0818810843450048,1
929,227,28,0.109922033399863,1
929,228,28,0.169193369811575,1
929,229,28,0.165137517032003,1
929,230,28,0.119774877889767,1
929,231,28,0.0917108898007441,1
929,232,28,0.0883806857368205,1
929,233,28,0.0802525095074632,1
930,227,28,0.0929726003634285,1
930,228,28,0.156620737482322,1
930,229,28,0.201657570844442,1
930,230,28,0.20731749771761,1
930,231,28,0.176560511508501,1
930,232,28,0.141715726386053,1
930,233,28,0.117225892393335,1
930,234,28,0.0881141382932292,1
931,228,28,0.0963329467490482,1
931,229,28,0.159331667982403,1
931,230,28,0.239624145096214,1
931,231,28,0.259063392373138,1
931,232,28,0.197484383199729,1
931,233,28,0.140663880027667,1
931,234,28,0.0950452675125955,1
932,216,28,0.0728024981960187,1
932,218,28,0.0739380165542931,1
932,219,28,0.0863625745727125,1
932,220,28,0.0780068754408952,1
932,221,28,0.0722628909252588,1
932,222,28,0.0741802374151041,1
932,229,28,0.0997055652767865,1
932,230,28,0.175896285703861,1
932,231,28,0.236586376289108,1
932,232,28,0.201804301626285,1
932,233,28,0.139562086735062,1
932,234,28,0.0890451168028336,1
933,214,28,0.0841258102854962,1
933,215,28,0.10008342658523,1
933,216,28,0.105666380443336,1
933,217,28,0.092400132612784,1
933,218,28,0.0995484719056027,1
933,219,28,0.129411314691588,1
933,220,28,0.104548023179895,1
933,221,28,0.082150965730905,1
933,222,28,0.0746722738075454,1
933,229,28,0.0823857474219371,1
933,230,28,0.116334062825695,1
933,231,28,0.165145777247276,1
933,232,28,0.167943253406473,1
933,233,28,0.133294561316173,1
933,234,28,0.0916407837116321,1
934,213,28,0.0856438612034716,1
934,214,28,0.108049863072312,1
934,215,28,0.133102598391661,1
934,216,28,0.140902816706502,1
934,217,28,0.117131932444606,1
934,218,28,0.120981864526269,1
934,219,28,0.154911121722499,1
934,220,28,0.116087176933668,1
934,221,28,0.0821896854899967,1
934,222,28,0.071868782868101,1
934,227,28,0.0719777144570122,1
934,228,28,0.0919379648602075,1
934,229,28,0.0957221635420175,1
934,230,28,0.0972724342755904,1
934,231,28,0.120512288704121,1
934,232,28,0.14286966850761,1
934,233,28,0.137703488538329,1
934,234,28,0.103643380326514,1
934,235,28,0.0729806215279237,1
935,213,28,0.0921263139405377,1
935,214,28,0.11709542080029,1
935,215,28,0.150427317639308,1
935,216,28,0.14935382553608,1
935,217,28,0.116083407588445,1
935,218,28,0.102021305432467,1
935,219,28,0.111235681310084,1
935,220,28,0.0896172362311473,1
935,221,28,0.0775779289306172,1
935,222,28,0.0744739477804549,1
935,223,28,0.0734315247851243,1
935,227,28,0.0819617645048728,1
935,228,28,0.116090349154895,1
935,229,28,0.117067629654327,1
935,230,28,0.0954834196844728,1
935,231,28,0.0983523019214804,1
935,232,28,0.127461679965687,1
935,233,28,0.140065860346042,1
935,234,28,0.11312954714281,1
935,235,28,0.0743899585584445,1
936,213,28,0.102519269524573,1
936,214,28,0.130567981191374,1
936,215,28,0.173239942289048,1
936,216,28,0.150312707152397,1
936,217,28,0.103227203561684,1
936,218,28,0.0804496350665208,1
936,219,28,0.0797691998334164,1
936,220,28,0.0816859554193077,1
936,221,28,0.0846779385000395,1
936,222,28,0.0776630066599114,1
936,227,28,0.0827289319983426,1
936,228,28,0.116099306014829,1
936,229,28,0.121702904191076,1
936,230,28,0.0968686105134203,1
936,231,28,0.0897687875452467,1
936,232,28,0.116817472020407,1
936,233,28,0.137438987488431,1
936,234,28,0.117022857794738,1
936,235,28,0.0762388659303322,1
937,212,28,0.0800460538859739,1
937,213,28,0.107850125095774,1
937,214,28,0.134014182811491,1
937,215,28,0.165616149234751,1
937,216,28,0.12481963020652,1
937,217,28,0.0814763897770078,1
937,219,28,0.0713491232708201,1
937,220,28,0.0862848613726979,1
937,221,28,0.0975340927664675,1
937,222,28,0.0848661631795372,1
937,226,28,0.07258023744877,1
937,227,28,0.088032674408117,1
937,228,28,0.117671869377572,1
937,229,28,0.13027333781978,1
937,230,28,0.107546860746493,1
937,231,28,0.0901355709595628,1
937,232,28,0.104488068198708,1
937,233,28,0.121889405919045,1
937,234,28,0.107061759700459,1
937,235,28,0.073982265930386,1
938,210,28,0.087287084239031,1
938,211,28,0.0873192169740459,1
938,212,28,0.0858114477848703,1
938,213,28,0.100563620018425,1
938,214,28,0.119910487237192,1
938,215,28,0.125048639698928,1
938,216,28,0.0868842556835203,1
938,220,28,0.0793186573386298,1
938,221,28,0.0909356424732085,1
938,222,28,0.0842486623275556,1
938,226,28,0.0816062829061823,1
938,227,28,0.0956024899412265,1
938,228,28,0.117927600168784,1
938,229,28,0.131472922606753,1
938,230,28,0.112044062799336,1
938,231,28,0.092337957076739,1
938,232,28,0.0973953609581493,1
938,233,28,0.106348818529843,1
938,234,28,0.0967786562714952,1
938,235,28,0.0759892369999505,1
939,210,28,0.0957123918566307,1
939,211,28,0.107914266164971,1
939,212,28,0.0958552288924188,1
939,213,28,0.0946764252645028,1
939,214,28,0.10733406068255,1
939,215,28,0.096095869862658,1
939,221,28,0.0715747241804193,1
939,226,28,0.0836399877146345,1
939,227,28,0.0961200471644394,1
939,228,28,0.110968057799292,1
939,229,28,0.1279246749838,1
939,230,28,0.11443551952167,1
939,231,28,0.0955420373567105,1
939,232,28,0.0980282937333929,1
939,233,28,0.107048822013887,1
939,234,28,0.110675703403015,1
939,235,28,0.0970561323282148,1
940,210,28,0.0917448574480372,1
940,211,28,0.121569372337553,1
940,212,28,0.106438237848188,1
940,213,28,0.0910212240258739,1
940,214,28,0.0940154587616726,1
940,215,28,0.0835921991348591,1
940,227,28,0.0823850880975252,1
940,228,28,0.107196672403222,1
940,229,28,0.149925198559399,1
940,230,28,0.136952916115904,1
940,231,28,0.102221211350129,1
940,232,28,0.101816491901965,1
940,233,28,0.11735643862688,1
940,234,28,0.130105160334428,1
940,235,28,0.116055591562316,1
940,236,28,0.0750544082845825,1
941,210,28,0.0849175282832447,1
941,211,28,0.120196497191015,1
941,212,28,0.10540434252992,1
941,213,28,0.0848202654924147,1
941,214,28,0.0792275461689632,1
941,215,28,0.0733473054215739,1
941,228,28,0.09586555416151,1
941,229,28,0.151773085844461,1
941,230,28,0.141879599602604,1
941,231,28,0.102501872068159,1
941,232,28,0.101355704998629,1
941,233,28,0.114832930420929,1
941,234,28,0.117165868991691,1
941,235,28,0.099073304266038,1
942,211,28,0.0881094546018885,1
942,212,28,0.0895532382229072,1
942,213,28,0.0901161208894135,1
942,214,28,0.0786510042910569,1
942,229,28,0.100196046658823,1
942,230,28,0.0996501260458172,1
942,231,28,0.0862335149291152,1
942,232,28,0.0913995891576886,1
942,233,28,0.0968436743665611,1
942,234,28,0.087554900571113,1
943,212,28,0.0898995825804563,1
943,213,28,0.109378513722924,1
943,214,28,0.0794446442816663,1
943,229,28,0.0733205468025197,1
943,230,28,0.0747190360804532,1
943,231,28,0.0727037114949916,1
943,232,28,0.0769328110938377,1
943,233,28,0.0788126071924161,1
944,212,28,0.0811822875490348,1
944,213,28,0.0911742432697959,1
944,233,28,0.0737516889874899,1
928,228,29,0.0821428547966311,1
928,229,29,0.0755271687680399,1
929,227,29,0.0886002283258807,1
929,228,29,0.12699479120152,1
929,229,29,0.138401016445808,1
929,230,29,0.114384888382874,1
929,231,29,0.0901150075019633,1
929,232,29,0.0832751884935955,1
929,233,29,0.0738247744765384,1
930,227,29,0.0751583638401968,1
930,228,29,0.118041812573032,1
930,229,29,0.168119591586432,1
930,230,29,0.186588276008875,1
930,231,29,0.163974618050512,1
930,232,29,0.12716794472017,1
930,233,29,0.0961088510895213,1
930,234,29,0.0728430901876383,1
931,228,29,0.0827344429552189,1
931,229,29,0.131043503373311,1
931,230,29,0.19802441965336,1
931,231,29,0.224945269833123,1
931,232,29,0.171183098925766,1
931,233,29,0.110443322648049,1
931,234,29,0.0779239622860852,1
932,215,29,0.0763227369715518,1
932,216,29,0.0772091364428574,1
932,217,29,0.072169615181108,1
932,218,29,0.0743735874088976,1
932,219,29,0.0798038454652462,1
932,220,29,0.0733360782464477,1
932,229,29,0.0938176427779951,1
932,230,29,0.14834885341135,1
932,231,29,0.206095184898554,1
932,232,29,0.181339842209196,1
932,233,29,0.122098797400179,1
932,234,29,0.0834800331243049,1
933,213,29,0.0765747854981242,1
933,214,29,0.0981707326865173,1
933,215,29,0.111308169675137,1
933,216,29,0.103295611579434,1
933,217,29,0.0941658593680721,1
933,218,29,0.0998594491064938,1
933,219,29,0.112500713374994,1
933,220,29,0.0960444052382846,1
933,221,29,0.0796829216360894,1
933,228,29,0.0820398944476761,1
933,229,29,0.094906492163986,1
933,230,29,0.115072252742344,1
933,231,29,0.156604540493941,1
933,232,29,0.16739197111759,1
933,233,29,0.134115731210998,1
933,234,29,0.0943928162467447,1
934,213,29,0.0972982101280685,1
934,214,29,0.120139869932096,1
934,215,29,0.139372313265201,1
934,216,29,0.131944563482718,1
934,217,29,0.119444780280933,1
934,218,29,0.122041560577181,1
934,219,29,0.134469576938742,1
934,220,29,0.109789720674498,1
934,221,29,0.083722645847738,1
934,227,29,0.0757110394184028,1
934,228,29,0.0989894892051929,1
934,229,29,0.106782206149838,1
934,230,29,0.103982664936823,1
934,231,29,0.125748493901973,1
934,232,29,0.155594579895831,1
934,233,29,0.14752620314662,1
934,234,29,0.105353089386962,1
934,235,29,0.0721488775623431,1
935,212,29,0.0730367760636794,1
935,213,29,0.11137981211453,1
935,214,29,0.128602336078341,1
935,215,29,0.156627305846274,1
935,216,29,0.153208310688209,1
935,217,29,0.124974136040389,1
935,218,29,0.110758069194162,1
935,219,29,0.112792955810522,1
935,220,29,0.101777554441417,1
935,221,29,0.0855297732000564,1
935,222,29,0.0722891395009001,1
935,227,29,0.0826473499324395,1
935,228,29,0.114961399160572,1
935,229,29,0.120965642657721,1
935,230,29,0.102381986985952,1
935,231,29,0.102817526740349,1
935,232,29,0.133705407505334,1
935,233,29,0.145253785580831,1
935,234,29,0.110437761930839,1
936,212,29,0.077907727977454,1
936,213,29,0.119554489375046,1
936,214,29,0.141183813306779,1
936,215,29,0.180158220902426,1
936,216,29,0.167460627937004,1
936,217,29,0.114367161264254,1
936,218,29,0.0898475270521289,1
936,219,29,0.093422340472846,1
936,220,29,0.105371326548995,1
936,221,29,0.102778545739509,1
936,222,29,0.0806344076229188,1
936,227,29,0.0853175453799426,1
936,228,29,0.119868526836415,1
936,229,29,0.128919757242352,1
936,230,29,0.109172804506429,1
936,231,29,0.096773356796034,1
936,232,29,0.120491874527521,1
936,233,29,0.141217973775362,1
936,234,29,0.116048139952453,1
937,212,29,0.0802614725874393,1
937,213,29,0.115190595254228,1
937,214,29,0.140292817224715,1
937,215,29,0.169515804329132,1
937,216,29,0.142503979820619,1
937,217,29,0.0930983447248417,1
937,218,29,0.0765564114951753,1
937,219,29,0.0869046947402874,1
937,220,29,0.114214533882954,1
937,221,29,0.127070775229964,1
937,222,29,0.0979750004167829,1
937,223,29,0.0718814655329665,1
937,226,29,0.0784422907944591,1
937,227,29,0.0961111836051293,1
937,228,29,0.132590539685241,1
937,229,29,0.139286974294158,1
937,230,29,0.117704313114668,1
937,231,29,0.0968652641310281,1
937,232,29,0.111101403051567,1
937,233,29,0.129941635440208,1
937,234,29,0.110266312703594,1
938,210,29,0.090306466603104,1
938,211,29,0.0904790540979661,1
938,212,29,0.0843247645367904,1
938,213,29,0.102108043912874,1
938,214,29,0.122764030851561,1
938,215,29,0.133003786810468,1
938,216,29,0.103487020920242,1
938,217,29,0.0749161180992194,1
938,219,29,0.0815599124958966,1
938,220,29,0.10077946168272,1
938,221,29,0.115290240320999,1
938,222,29,0.100213058472656,1
938,223,29,0.0786775265485295,1
938,225,29,0.0745352960509643,1
938,226,29,0.0894482252602173,1
938,227,29,0.106854458153309,1
938,228,29,0.136838479790158,1
938,229,29,0.136687270578348,1
938,230,29,0.114486660703879,1
938,231,29,0.0957313381034087,1
938,232,29,0.110085346812668,1
938,233,29,0.125331639152607,1
938,234,29,0.108331158234587,1
938,235,29,0.0782109176862355,1
939,210,29,0.096043117689669,1
939,211,29,0.108683162830012,1
939,212,29,0.094158438858418,1
939,213,29,0.0949826130333457,1
939,214,29,0.108767556354727,1
939,215,29,0.113194596338084,1
939,216,29,0.0857849566276058,1
939,219,29,0.0772363055846586,1
939,220,29,0.0848669033644901,1
939,221,29,0.0903082641951325,1
939,222,29,0.0881199913523947,1
939,223,29,0.0788103368772244,1
939,225,29,0.0726812944649889,1
939,226,29,0.0913821854812327,1
939,227,29,0.105116901966524,1
939,228,29,0.124696485822504,1
939,229,29,0.131826395132,1
939,230,29,0.120180175801801,1
939,231,29,0.0996843176146087,1
939,232,29,0.110349773222067,1
939,233,29,0.125271765031962,1
939,234,29,0.124161263681087,1
939,235,29,0.10301009922894,1
939,236,29,0.0746590126788091,1
940,210,29,0.0843172134062623,1
940,211,29,0.109877000298526,1
940,212,29,0.0980379223578225,1
940,213,29,0.0883568878575779,1
940,214,29,0.0976300182483489,1
940,215,29,0.110026430578433,1
940,216,29,0.0859853850287642,1
940,220,29,0.0755437078587105,1
940,221,29,0.0800562236540245,1
940,222,29,0.0838943936369812,1
940,223,29,0.0807655509804592,1
940,226,29,0.0757375367957089,1
940,227,29,0.0880802515064772,1
940,228,29,0.112933279949496,1
940,229,29,0.149789352850393,1
940,230,29,0.150293026940707,1
940,231,29,0.110369677355254,1
940,232,29,0.107810105347983,1
940,233,29,0.122101882540823,1
940,234,29,0.134425290242399,1
940,235,29,0.116576507608004,1
940,236,29,0.0776631870411184,1
941,211,29,0.0944784102394934,1
941,212,29,0.0893550739168989,1
941,213,29,0.080681754579739,1
941,214,29,0.0836790806762234,1
941,215,29,0.09304278109304,1
941,216,29,0.0758855364660426,1
941,221,29,0.0728774310374287,1
941,222,29,0.078649984204231,1
941,223,29,0.0784068178970937,1
941,228,29,0.0943464520565006,1
941,229,29,0.139298879453821,1
941,230,29,0.144610446675955,1
941,231,29,0.104210617022155,1
941,232,29,0.0983540870734257,1
941,233,29,0.107997602282611,1
941,234,29,0.112322160860217,1
941,235,29,0.0926132623389329,1
942,212,29,0.0805053666394464,1
942,213,29,0.0875213123463587,1
942,214,29,0.0819110276253691,1
942,215,29,0.0728222965884988,1
942,229,29,0.0947622804989996,1
942,230,29,0.100303578738369,1
942,231,29,0.0867225346013703,1
942,232,29,0.0902137568827407,1
942,233,29,0.0970673159630497,1
942,234,29,0.0891901370732308,1
943,212,29,0.0829206523412314,1
943,213,29,0.0994397082578152,1
943,214,29,0.0792805533636586,1
943,229,29,0.0830596329512144,1
943,230,29,0.0856908287377529,1
943,231,29,0.081894364133866,1
943,232,29,0.0835175026550307,1
943,233,29,0.084922448336167,1
943,234,29,0.0721296389736089,1
944,213,29,0.0736933823173332,1
944,228,29,0.0737316915536779,1
944,229,29,0.0873750107473876,1
944,230,29,0.086187169398996,1
944,231,29,0.0809479910212492,1
944,232,29,0.0763683360966765,1
944,233,29,0.0742114122637093,1
945,229,29,0.0831151219425167,1
945,230,29,0.0813679060310932,1
945,231,29,0.0720374206365337,1
929,228,30,0.0896343662257719,1
929,229,30,0.108219856809818,1
929,230,30,0.102644199060534,1
929,231,30,0.0826186382203163,1
929,232,30,0.0716722606530806,1
930,228,30,0.0874246902198157,1
930,229,30,0.126988720440898,1
930,230,30,0.148856657609301,1
930,231,30,0.133151102276223,1
930,232,30,0.101347811765811,1
930,233,30,0.074385828450808,1
931,228,30,0.0730349162712347,1
931,229,30,0.104141157817372,1
931,230,30,0.150815398476135,1
931,231,30,0.170932505888933,1
931,232,30,0.131702578983489,1
931,233,30,0.0851894063025053,1
932,215,30,0.078821769313724,1
932,216,30,0.0734241540358032,1
932,228,30,0.0759217744285274,1
932,229,30,0.0941019422203731,1
932,230,30,0.129423481092999,1
932,231,30,0.166499084142873,1
932,232,30,0.148360198767267,1
932,233,30,0.102332767796604,1
932,234,30,0.0772545987270665,1
933,213,30,0.0788747951685444,1
933,214,30,0.104711118891243,1
933,215,30,0.111377722180545,1
933,216,30,0.0950980818860008,1
933,217,30,0.0901763308923062,1
933,218,30,0.0898639044217173,1
933,219,30,0.0867037749558409,1
933,220,30,0.0787050626727863,1
933,228,30,0.0902004522137131,1
933,229,30,0.107373607707177,1
933,230,30,0.119393377856975,1
933,231,30,0.144158386491013,1
933,232,30,0.155092100053508,1
933,233,30,0.124116218139667,1
933,234,30,0.0918144597137779,1
934,213,30,0.103480576957122,1
934,214,30,0.125003295595509,1
934,215,30,0.135019329097386,1
934,216,30,0.120408078126801,1
934,217,30,0.113132582523121,1
934,218,30,0.108790072905396,1
934,219,30,0.105010526814719,1
934,220,30,0.0967191864535553,1
934,221,30,0.079340128922306,1
934,227,30,0.0757747824049363,1
934,228,30,0.0984655066789854,1
934,229,30,0.113218643018991,1
934,230,30,0.112634867232679,1
934,231,30,0.124975790571461,1
934,232,30,0.153061579906366,1
934,233,30,0.14236206335099,1
934,234,30,0.101416947528431,1
935,212,30,0.077261353692267,1
935,213,30,0.123749036642687,1
935,214,30,0.137906162374512,1
935,215,30,0.152513370318044,1
935,216,30,0.146296998521447,1
935,217,30,0.12187369409391,1
935,218,30,0.106114658842973,1
935,219,30,0.10565853075081,1
935,220,30,0.107730264893734,1
935,221,30,0.088021969716487,1
935,227,30,0.0821123517125209,1
935,228,30,0.107562970654292,1
935,229,30,0.122216094945071,1
935,230,30,0.117239651125401,1
935,231,30,0.111737663549078,1
935,232,30,0.132745978525354,1
935,233,30,0.139717562895424,1
935,234,30,0.10397509514617,1
936,212,30,0.0787220496064537,1
936,213,30,0.123914228508062,1
936,214,30,0.146630380312258,1
936,215,30,0.170224553191696,1
936,216,30,0.164069772247232,1
936,217,30,0.114668360559716,1
936,218,30,0.0920660355171871,1
936,219,30,0.0990189348822275,1
936,220,30,0.116559116371631,1
936,221,30,0.107825244929289,1
936,222,30,0.0788153377906878,1
936,226,30,0.0742641955369064,1
936,227,30,0.0919001843274007,1
936,228,30,0.12007561690215,1
936,229,30,0.134343409614499,1
936,230,30,0.125333940568007,1
936,231,30,0.108916999074717,1
936,232,30,0.121274977767624,1
936,233,30,0.137025180559459,1
936,234,30,0.109870643415989,1
937,212,30,0.0781775347228547,1
937,213,30,0.111444376146557,1
937,214,30,0.139578445444526,1
937,215,30,0.158266796856861,1
937,216,30,0.146882441278914,1
937,217,30,0.0992946195669602,1
937,218,30,0.0829954048014344,1
937,219,30,0.0942031111973412,1
937,220,30,0.122359541544938,1
937,221,30,0.132950182491776,1
937,222,30,0.100192619415889,1
937,223,30,0.0729423744919952,1
937,225,30,0.0725212652341599,1
937,226,30,0.0867247613762707,1
937,227,30,0.109072848437577,1
937,228,30,0.138851223058347,1
937,229,30,0.142619125231109,1
937,230,30,0.122940816874518,1
937,231,30,0.102941622790732,1
937,232,30,0.112108552190864,1
937,233,30,0.128911235785331,1
937,234,30,0.109362453575458,1
938,210,30,0.0807468099950546,1
938,211,30,0.0849605647512214,1
938,212,30,0.0829715322816924,1
938,213,30,0.099675429175132,1
938,214,30,0.12080587466864,1
938,215,30,0.130682691198952,1
938,216,30,0.119205731641348,1
938,217,30,0.0861314005058208,1
938,218,30,0.0784404994224722,1
938,219,30,0.0916038988648187,1
938,220,30,0.110410120065875,1
938,221,30,0.123490245590997,1
938,222,30,0.10848974441576,1
938,223,30,0.0851806236037362,1
938,224,30,0.0716065770135613,1
938,225,30,0.0758978334883276,1
938,226,30,0.0961615908224271,1
938,227,30,0.118642618833302,1
938,228,30,0.142950317567269,1
938,229,30,0.136328983740886,1
938,230,30,0.11227762536221,1
938,231,30,0.0969281860720677,1
938,232,30,0.112293287427012,1
938,233,30,0.131890896963611,1
938,234,30,0.115432803674956,1
938,235,30,0.0789412252130583,1
939,210,30,0.081206452410733,1
939,211,30,0.0929714185555205,1
939,212,30,0.0866866636213411,1
939,213,30,0.0919350103404375,1
939,214,30,0.107651718208142,1
939,215,30,0.122892947434201,1
939,216,30,0.106840002776582,1
939,217,30,0.076649295376704,1
939,218,30,0.0738920504467128,1
939,219,30,0.0926790890394095,1
939,220,30,0.101657034914965,1
939,221,30,0.108368789486395,1
939,222,30,0.114683910663769,1
939,223,30,0.100191642869355,1
939,224,30,0.0748664510668745,1
939,225,30,0.0728464303499889,1
939,226,30,0.0940474733158967,1
939,227,30,0.11181709348058,1
939,228,30,0.128365775455405,1
939,229,30,0.129636393117691,1
939,230,30,0.119329000426196,1
939,231,30,0.101353926066725,1
939,232,30,0.110452030706318,1
939,233,30,0.12703807025112,1
939,234,30,0.121780816432422,1
939,235,30,0.0949670256090431,1
939,236,30,0.0714582103607719,1
940,211,30,0.0841499938073193,1
940,212,30,0.0819480306529733,1
940,213,30,0.0818816254886259,1
940,214,30,0.0997852875502448,1
940,215,30,0.127201371223842,1
940,216,30,0.104054761439254,1
940,219,30,0.0856602261329768,1
940,220,30,0.0921193350538387,1
940,221,30,0.102646288994518,1
940,222,30,0.122667508245684,1
940,223,30,0.113876088978264,1
940,224,30,0.0794272592653352,1
940,226,30,0.0787602406620076,1
940,227,30,0.0925028068398244,1
940,228,30,0.110759226121904,1
940,229,30,0.134657832718448,1
940,230,30,0.143147716808158,1
940,231,30,0.110856432932359,1
940,232,30,0.102805938802809,1
940,233,30,0.113181285449014,1
940,234,30,0.118639658093491,1
940,235,30,0.097682621140339,1
941,213,30,0.0736622510090193,1
941,214,30,0.0860468639201477,1
941,215,30,0.102954087754141,1
941,216,30,0.0834551031974873,1
941,220,30,0.073591280334122,1
941,221,30,0.0845832508064407,1
941,222,30,0.100585184902725,1
941,223,30,0.100236228127695,1
941,224,30,0.0777201626223681,1
941,227,30,0.0714930114936422,1
941,228,30,0.0889052342868155,1
941,229,30,0.117117166065798,1
941,230,30,0.13053987904333,1
941,231,30,0.101678985441846,1
941,232,30,0.0913109784447537,1
941,233,30,0.0960700753500551,1
941,234,30,0.0961639419981599,1
941,235,30,0.076962474472329,1
942,213,30,0.07584078948662,1
942,214,30,0.0773740484063591,1
942,215,30,0.0730085059745113,1
942,222,30,0.0742540444289807,1
942,223,30,0.0778847760238719,1
942,224,30,0.0730074423473941,1
942,228,30,0.0722982394217918,1
942,229,30,0.0892160062263332,1
942,230,30,0.0991125713887923,1
942,231,30,0.0896832184326645,1
942,232,30,0.0879795428125891,1
942,233,30,0.0928536171872575,1
942,234,30,0.0829667055293944,1
943,213,30,0.0778064905800281,1
943,228,30,0.0769325560721313,1
943,229,30,0.0894480324389271,1
943,230,30,0.0953347109293943,1
943,231,30,0.0919223960960298,1
943,232,30,0.086959816749134,1
943,233,30,0.087084366862556,1
943,234,30,0.0739681526559476,1
944,228,30,0.0866616030736495,1
944,229,30,0.0989719175876132,1
944,230,30,0.0990324945729616,1
944,231,30,0.0913571062734162,1
944,232,30,0.0770669711715644,1
945,228,30,0.0761443212976907,1
945,229,30,0.0885828619696744,1
945,230,30,0.0865650244873978,1
945,231,30,0.0754848351647663,1
946,224,30,0.0718312635770422,1
929,229,31,0.0818921373589656,1
929,230,31,0.0840238700233672,1
930,229,31,0.0910238240032716,1
930,230,31,0.106024704601048,1
930,231,31,0.0978116870039779,1
930,232,31,0.0764234083451902,1
931,229,31,0.0862090141851695,1
931,230,31,0.110520849246815,1
931,231,31,0.117830045035998,1
931,232,31,0.0941842147108961,1
932,214,31,0.0742340718753352,1
932,215,31,0.0808315767222677,1
932,216,31,0.0758584668449073,1
932,217,31,0.0729321300834452,1
932,228,31,0.0781043434930986,1
932,229,31,0.0980020575978349,1
932,230,31,0.117109801536518,1
932,231,31,0.12815511508578,1
932,232,31,0.113475107775114,1
932,233,31,0.0834357091077126,1
933,213,31,0.0814046415969078,1
933,214,31,0.105194727127287,1
933,215,31,0.106645962358168,1
933,216,31,0.0934726108492281,1
933,217,31,0.0894754566024347,1
933,218,31,0.08032106058617,1
933,228,31,0.0887853492046094,1
933,229,31,0.111052525964508,1
933,230,31,0.121299994775024,1
933,231,31,0.128769045633871,1
933,232,31,0.132196288567126,1
933,233,31,0.107156615335182,1
933,234,31,0.082270409190156,1
934,213,31,0.107571529431562,1
934,214,31,0.125071218450012,1
934,215,31,0.123665028760552,1
934,216,31,0.110016553152338,1
934,217,31,0.103219776831989,1
934,218,31,0.0933079974477243,1
934,219,31,0.0885312729444686,1
934,220,31,0.0907215299804835,1
934,221,31,0.0780927928758082,1
934,227,31,0.0734740574297297,1
934,228,31,0.089310824540806,1
934,229,31,0.109143470790143,1
934,230,31,0.121636399506063,1
934,231,31,0.126539235353187,1
934,232,31,0.139435757689736,1
934,233,31,0.126801546948434,1
934,234,31,0.0934993508081574,1
935,212,31,0.0771577588990667,1
935,213,31,0.123880876644889,1
935,214,31,0.141376286274704,1
935,215,31,0.140356025287669,1
935,216,31,0.129569851112428,1
935,217,31,0.108843540383171,1
935,218,31,0.0961141008046496,1
935,219,31,0.102611145759359,1
935,220,31,0.113612185052361,1
935,221,31,0.0931685378945364,1
935,226,31,0.0715581664296238,1
935,227,31,0.0835112141929517,1
935,228,31,0.0969548327303727,1
935,229,31,0.117837981809107,1
935,230,31,0.134765265277328,1
935,231,31,0.12879290571353,1
935,232,31,0.130236627134132,1
935,233,31,0.127222892567851,1
935,234,31,0.096041836361095,1
936,212,31,0.0753089821480531,1
936,213,31,0.11414254312123,1
936,214,31,0.140922919881021,1
936,215,31,0.149389006091489,1
936,216,31,0.142059620047204,1
936,217,31,0.10432201796759,1
936,218,31,0.0889269235719485,1
936,219,31,0.101619751985488,1
936,220,31,0.119958082995677,1
936,221,31,0.108955028409189,1
936,222,31,0.0819773892494252,1
936,226,31,0.0837636545821462,1
936,227,31,0.105311800750681,1
936,228,31,0.115310443016185,1
936,229,31,0.130571787856847,1
936,230,31,0.134605260926666,1
936,231,31,0.120298319272354,1
936,232,31,0.120077134592305,1
936,233,31,0.125313327350074,1
936,234,31,0.100846687892562,1
937,212,31,0.0767040566231366,1
937,213,31,0.100689606961461,1
937,214,31,0.127689184208023,1
937,215,31,0.137378230121875,1
937,216,31,0.134269117437375,1
937,217,31,0.0971334972058987,1
937,218,31,0.0863706792869449,1
937,219,31,0.100322568525438,1
937,220,31,0.123023655388828,1
937,221,31,0.127545625647406,1
937,222,31,0.101528734116446,1
937,223,31,0.0757418970448853,1
937,225,31,0.0737628228619917,1
937,226,31,0.10132563109739,1
937,227,31,0.133747940149939,1
937,228,31,0.136961051930344,1
937,229,31,0.136830306655468,1
937,230,31,0.119575090152896,1
937,231,31,0.104038421389915,1
937,232,31,0.11007004551028,1
937,233,31,0.123147508857589,1
937,234,31,0.108084944107056,1
938,211,31,0.0732146941342109,1
938,212,31,0.0797985584298683,1
938,213,31,0.092441228427775,1
938,214,31,0.108627095374839,1
938,215,31,0.117913667275553,1
938,216,31,0.121890127443873,1
938,217,31,0.0919227195381941,1
938,218,31,0.085124574808688,1
938,219,31,0.102851712089099,1
938,220,31,0.12158436263786,1
938,221,31,0.128727918718672,1
938,222,31,0.121889816441792,1
938,223,31,0.0947926902824854,1
938,224,31,0.0713626332012213,1
938,225,31,0.0739070594071446,1
938,226,31,0.104733641661953,1
938,227,31,0.138775425631152,1
938,228,31,0.140729688068018,1
938,229,31,0.132881227110364,1
938,230,31,0.108976064589952,1
938,231,31,0.0968740717099637,1
938,232,31,0.109994185882669,1
938,233,31,0.130299636155755,1
938,234,31,0.117275304403974,1
938,235,31,0.076569517122871,1
939,212,31,0.0743320002106186,1
939,213,31,0.0836591578829109,1
939,214,31,0.0992361636158046,1
939,215,31,0.119489651661188,1
939,216,31,0.118010040600431,1
939,217,31,0.0849802511829524,1
939,218,31,0.0797505148283865,1
939,219,31,0.104838306302312,1
939,220,31,0.119822423887919,1
939,221,31,0.129809820318172,1
939,222,31,0.158709128896708,1
939,223,31,0.132250415369314,1
939,224,31,0.0811144828753226,1
939,226,31,0.0945754304487001,1
939,227,31,0.123023294626414,1
939,228,31,0.129689848155383,1
939,229,31,0.125764193287025,1
939,230,31,0.112086471043109,1
939,231,31,0.0988678314111248,1
939,232,31,0.104259189327175,1
939,233,31,0.119259398160456,1
939,234,31,0.109129699617994,1
939,235,31,0.0792852805952907,1
940,213,31,0.0731621347825121,1
940,214,31,0.0964007700828853,1
940,215,31,0.124664577008988,1
940,216,31,0.107517141387627,1
940,217,31,0.0732939312444228,1
940,219,31,0.0936141354562342,1
940,220,31,0.103020225456699,1
940,221,31,0.119432203356775,1
940,222,31,0.169258630488264,1
940,223,31,0.154171807575409,1
940,224,31,0.0921679197989416,1
940,226,31,0.0795214493556043,1
940,227,31,0.0986537873388577,1
940,228,31,0.109887636569698,1
940,229,31,0.117025072129555,1
940,230,31,0.119233945750142,1
940,231,31,0.101619540504073,1
940,232,31,0.0929741367137089,1
940,233,31,0.0994543004754584,1
940,234,31,0.0955275011194419,1
940,235,31,0.0740812827729531,1
941,214,31,0.0836303653102465,1
941,215,31,0.0983580430198967,1
941,216,31,0.0808124687544075,1
941,219,31,0.0730048237098716,1
941,220,31,0.079041840606322,1
941,221,31,0.0889789231199013,1
941,222,31,0.118476046118688,1
941,223,31,0.121496249528255,1
941,224,31,0.0889121945133896,1
941,227,31,0.0750574436648936,1
941,228,31,0.0870302400603687,1
941,229,31,0.0993518252897499,1
941,230,31,0.107573271043216,1
941,231,31,0.0941204281840712,1
941,232,31,0.0833363563828979,1
941,233,31,0.0837468666898107,1
941,234,31,0.0782473235898441,1
942,220,31,0.0737919388768204,1
942,221,31,0.0771329720332064,1
942,222,31,0.0807979698373886,1
942,223,31,0.086391348485252,1
942,224,31,0.0788511838905505,1
942,228,31,0.0798453020426512,1
942,229,31,0.0900733207830183,1
942,230,31,0.0978989915081724,1
942,231,31,0.0941491150160279,1
942,232,31,0.0874299461549856,1
942,233,31,0.0866142187965795,1
942,234,31,0.0744030206458489,1
943,220,31,0.078433557856023,1
943,221,31,0.083552042546153,1
943,227,31,0.0729551442374434,1
943,228,31,0.0943815579714104,1
943,229,31,0.102753758873649,1
943,230,31,0.107049319617217,1
943,231,31,0.104239459355152,1
943,232,31,0.0918395700218025,1
943,233,31,0.086871355317198,1
943,234,31,0.0729792779989335,1
944,220,31,0.078297121243063,1
944,221,31,0.0932023065004977,1
944,222,31,0.0764884637605058,1
944,227,31,0.0751348147626192,1
944,228,31,0.103573678540107,1
944,229,31,0.112063083686613,1
944,230,31,0.109387047620028,1
944,231,31,0.0990228224082407,1
944,232,31,0.0782893772912447,1
945,221,31,0.0889238570914293,1
945,222,31,0.0837334749402004,1
945,223,31,0.0747170954274674,1
945,224,31,0.0741623796756097,1
945,228,31,0.0804583928851234,1
945,229,31,0.0886479733653646,1
945,230,31,0.0855872526046774,1
945,231,31,0.073560528448347,1
946,222,31,0.0735611566725507,1
946,224,31,0.0715083252361135,1
931,229,32,0.0734676694469848,1
931,230,32,0.0817792000632504,1
931,231,32,0.0796139849148022,1
932,215,32,0.0749161616395108,1
932,216,32,0.0805077302552624,1
932,217,32,0.0758536711928174,1
932,228,32,0.0736308833391238,1
932,229,32,0.0953137680492559,1
932,230,32,0.101708984702585,1
932,231,32,0.0950989775719942,1
932,232,32,0.0809234094167624,1
933,213,32,0.0780695859005196,1
933,214,32,0.0939676453017308,1
933,215,32,0.0917531176633101,1
933,216,32,0.0902663162344395,1
933,217,32,0.0847203778440206,1
933,228,32,0.0792912207350389,1
933,229,32,0.102219040555603,1
933,230,32,0.112882337808618,1
933,231,32,0.108700342584969,1
933,232,32,0.10048721302715,1
933,233,32,0.0840994995094387,1
934,212,32,0.0746330253449159,1
934,213,32,0.104801919058828,1
934,214,32,0.118616121455996,1
934,215,32,0.10444299155708,1
934,216,32,0.0935712855895061,1
934,217,32,0.0867691849135289,1
934,218,32,0.0789703474479285,1
934,219,32,0.0805091670848769,1
934,220,32,0.085477487530189,1
934,221,32,0.0748134563122623,1
934,228,32,0.0793056761117665,1
934,229,32,0.100427936030501,1
934,230,32,0.125811527803762,1
934,231,32,0.125453153885718,1
934,232,32,0.114980706169764,1
934,233,32,0.101661320523642,1
934,234,32,0.0791275216796534,1
935,213,32,0.110024104282866,1
935,214,32,0.133822605529559,1
935,215,32,0.11967658879207,1
935,216,32,0.103536563551754,1
935,217,32,0.0884478684063705,1
935,218,32,0.0838815492510336,1
935,219,32,0.096868467452463,1
935,220,32,0.107602194236755,1
935,221,32,0.0899895617025479,1
935,226,32,0.0740521729781662,1
935,227,32,0.0831888107756025,1
935,228,32,0.0880419920304654,1
935,229,32,0.109253565526838,1
935,230,32,0.14169345863705,1
935,231,32,0.138241783380306,1
935,232,32,0.119033001085529,1
935,233,32,0.107515238054891,1
935,234,32,0.0840202872793934,1
936,213,32,0.0962925102584691,1
936,214,32,0.123495308704877,1
936,215,32,0.121771424169575,1
936,216,32,0.110749398456142,1
936,217,32,0.0879205519378541,1
936,218,32,0.0833327736389241,1
936,219,32,0.0989904097713528,1
936,220,32,0.111201856723748,1
936,221,32,0.100248836152061,1
936,222,32,0.081026736748173,1
936,226,32,0.0924195018223923,1
936,227,32,0.114729603089518,1
936,228,32,0.109902091946426,1
936,229,32,0.118707779989325,1
936,230,32,0.130990944021613,1
936,231,32,0.121587609499586,1
936,232,32,0.112020327120509,1
936,233,32,0.110088531473978,1
936,234,32,0.0914982265777169,1
937,212,32,0.0718886372409557,1
937,213,32,0.087906021920627,1
937,214,32,0.106182084094146,1
937,215,32,0.110581780774536,1
937,216,32,0.108840455242527,1
937,217,32,0.0876491342016734,1
937,218,32,0.0850205819328239,1
937,219,32,0.0997332817822504,1
937,220,32,0.113046011983837,1
937,221,32,0.110252777893026,1
937,222,32,0.0954205101835165,1
937,223,32,0.0741546854841244,1
937,225,32,0.0741754977433887,1
937,226,32,0.112235341519269,1
937,227,32,0.151347933559572,1
937,228,32,0.133775308333072,1
937,229,32,0.125314820160063,1
937,230,32,0.112971645166215,1
937,231,32,0.1019074786708,1
937,232,32,0.106963483042845,1
937,233,32,0.120814346365328,1
937,234,32,0.109582717689346,1
938,212,32,0.0730629499988212,1
938,213,32,0.0829387713224738,1
938,214,32,0.0914776817802422,1
938,215,32,0.0994524282429305,1
938,216,32,0.107003453030303,1
938,217,32,0.0879242653027019,1
938,218,32,0.085476747345236,1
938,219,32,0.104395731680842,1
938,220,32,0.121487043866655,1
938,221,32,0.120622930804478,1
938,222,32,0.121216496936302,1
938,223,32,0.0929997384050216,1
938,226,32,0.110841591913051,1
938,227,32,0.155532006277122,1
938,228,32,0.142549323924037,1
938,229,32,0.126557074432557,1
938,230,32,0.104599095941646,1
938,231,32,0.0948906683781018,1
938,232,32,0.107349896908517,1
938,233,32,0.127910182286822,1
938,234,32,0.115451451359736,1
938,235,32,0.0719514099009964,1
939,213,32,0.0735242158453627,1
939,214,32,0.0881870185209042,1
939,215,32,0.106038587733946,1
939,216,32,0.110226330276053,1
939,217,32,0.0842227993944949,1
939,218,32,0.0794332927057077,1
939,219,32,0.103379936683692,1
939,220,32,0.12316193935415,1
939,221,32,0.132824089808032,1
939,222,32,0.17164802215678,1
939,223,32,0.138300214451295,1
939,224,32,0.0788116804062145,1
939,226,32,0.093065602425748,1
939,227,32,0.132569540824728,1
939,228,32,0.135311509332498,1
939,229,32,0.120171293582366,1
939,230,32,0.101296135660023,1
939,231,32,0.0938160069070487,1
939,232,32,0.09892429072892,1
939,233,32,0.109016644141488,1
939,234,32,0.094427076235994,1
940,214,32,0.0884903201904349,1
940,215,32,0.106430636957327,1
940,216,32,0.09601177489994,1
940,219,32,0.0894074777675571,1
940,220,32,0.101960765767368,1
940,221,32,0.117049193450962,1
940,222,32,0.174436578776292,1
940,223,32,0.158296653056643,1
940,224,32,0.0926878281978872,1
940,226,32,0.0772575221466284,1
940,227,32,0.101789789263286,1
940,228,32,0.111092856714379,1
940,229,32,0.103773839479476,1
940,230,32,0.0959596509511547,1
940,231,32,0.0893514973929668,1
940,232,32,0.0828630609758611,1
940,233,32,0.0828117705126531,1
940,234,32,0.0733480642666516,1
941,214,32,0.0766118693862695,1
941,215,32,0.0846366001034253,1
941,216,32,0.0729010485354643,1
941,219,32,0.0748615621141603,1
941,220,32,0.0811424481824513,1
941,221,32,0.0883273613200023,1
941,222,32,0.116539585440941,1
941,223,32,0.121584250677111,1
941,224,32,0.0906766026198539,1
941,227,32,0.0761741774974722,1
941,228,32,0.0858237385871137,1
941,229,32,0.0900001730935536,1
941,230,32,0.0910260258980054,1
941,231,32,0.087292271753743,1
941,232,32,0.076535760956993,1
942,219,32,0.0762925759897308,1
942,220,32,0.0847092937298517,1
942,221,32,0.0880016799407188,1
942,222,32,0.08233683923467,1
942,223,32,0.0851370086718887,1
942,224,32,0.0779814479107479,1
942,228,32,0.0860925625659383,1
942,229,32,0.0952710799036099,1
942,230,32,0.0971700834907143,1
942,231,32,0.096614870135527,1
942,232,32,0.0852760328221631,1
942,233,32,0.0764840724111213,1
943,219,32,0.080975496045298,1
943,220,32,0.0962688927604336,1
943,221,32,0.105112597697722,1
943,222,32,0.0778201124711784,1
943,227,32,0.0759276710279843,1
943,228,32,0.105436661866184,1
943,229,32,0.115238900097458,1
943,230,32,0.112058107653316,1
943,231,32,0.109508164270475,1
943,232,32,0.0922666505195941,1
943,233,32,0.0795813732365825,1
944,220,32,0.0886273414873073,1
944,221,32,0.108922945434507,1
944,222,32,0.0867739183652026,1
944,223,32,0.0746741895803647,1
944,224,32,0.0735356109616127,1
944,227,32,0.0745988088959579,1
944,228,32,0.107608302317627,1
944,229,32,0.115557328908211,1
944,230,32,0.106421642777143,1
944,231,32,0.0956409484585701,1
944,232,32,0.0747338895398445,1
945,221,32,0.0896003239379794,1
945,222,32,0.0889959598139017,1
945,223,32,0.0847000072077113,1
945,224,32,0.078516471010833,1
945,228,32,0.0762957668710825,1
945,229,32,0.0817064877766991,1
945,230,32,0.0772061943631706,1
946,222,32,0.072295477723312,1
946,223,32,0.07146871601107,1
932,216,33,0.0805025738407585,1
932,217,33,0.0734320037283291,1
932,229,33,0.0848699511848845,1
932,230,33,0.0838574279296267,1
933,214,33,0.077130434256225,1
933,215,33,0.0748036908469171,1
933,216,33,0.082173015778452,1
933,217,33,0.0748785179476196,1
933,229,33,0.0893991180316183,1
933,230,33,0.0996646996033355,1
933,231,33,0.0879982153775358,1
933,232,33,0.0733212185670147,1
934,212,33,0.0728375916708452,1
934,213,33,0.0951084631354665,1
934,214,33,0.107055328177423,1
934,215,33,0.0890546770068053,1
934,216,33,0.0782855581856893,1
934,217,33,0.0716815285150961,1
934,219,33,0.0816200665184148,1
934,220,33,0.0871133522565106,1
934,221,33,0.077536690054669,1
934,228,33,0.0742439555214712,1
934,229,33,0.0938041266275523,1
934,230,33,0.123146526091013,1
934,231,33,0.116955084221234,1
934,232,33,0.0925154770646067,1
934,233,33,0.0819434589223818,1
935,213,33,0.0919813931908064,1
935,214,33,0.118401903222564,1
935,215,33,0.102000082650455,1
935,216,33,0.082567434837691,1
935,217,33,0.0721794739470775,1
935,218,33,0.0768069174514256,1
935,219,33,0.0949964775061192,1
935,220,33,0.10215322629521,1
935,221,33,0.0890540612226849,1
935,226,33,0.0804112076493853,1
935,227,33,0.0853574967072753,1
935,228,33,0.085904051764526,1
935,229,33,0.10277137403152,1
935,230,33,0.136033345162633,1
935,231,33,0.134232705313725,1
935,232,33,0.107227797491494,1
935,233,33,0.09433332776868,1
935,234,33,0.0796307417069296,1
936,213,33,0.080232959916648,1
936,214,33,0.102417895286231,1
936,215,33,0.0978492747154945,1
936,216,33,0.0856731886997153,1
936,217,33,0.0737813150457314,1
936,218,33,0.0786945134821969,1
936,219,33,0.0952669871162232,1
936,220,33,0.0998299661092096,1
936,221,33,0.0915998993780563,1
936,222,33,0.0811910267075125,1
936,225,33,0.0776588516721084,1
936,226,33,0.0997382204952976,1
936,227,33,0.115048803185432,1
936,228,33,0.10682430339153,1
936,229,33,0.111469505114707,1
936,230,33,0.12800613264887,1
936,231,33,0.124318668054352,1
936,232,33,0.110225670951641,1
936,233,33,0.104921318977788,1
936,234,33,0.0909819071427866,1
937,213,33,0.0761509891823085,1
937,214,33,0.0860550308347963,1
937,215,33,0.0886606933504799,1
937,216,33,0.0864105497537365,1
937,217,33,0.0768864531236353,1
937,218,33,0.0808543482946428,1
937,219,33,0.094335840665495,1
937,220,33,0.100783112847152,1
937,221,33,0.0974424093529717,1
937,222,33,0.0917326039660435,1
937,223,33,0.0733126286895359,1
937,225,33,0.0771368906594277,1
937,226,33,0.112437679473205,1
937,227,33,0.147306822278642,1
937,228,33,0.131692962799143,1
937,229,33,0.119376795226013,1
937,230,33,0.118286695611657,1
937,231,33,0.112042171906683,1
937,232,33,0.113214413390689,1
937,233,33,0.123089985912676,1
937,234,33,0.110067644574214,1
938,213,33,0.0718573690917261,1
938,214,33,0.0772865510808743,1
938,215,33,0.084082979078893,1
938,216,33,0.0879107615923424,1
938,217,33,0.0786331652116874,1
938,218,33,0.0798083985357129,1
938,219,33,0.0945952475013051,1
938,220,33,0.10976528835101,1
938,221,33,0.109928514683232,1
938,222,33,0.115267810850913,1
938,223,33,0.0877496438542296,1
938,226,33,0.10506862200346,1
938,227,33,0.15057289149341,1
938,228,33,0.144512306859257,1
938,229,33,0.120012209797864,1
938,230,33,0.106377380960967,1
938,231,33,0.101256930737685,1
938,232,33,0.111742191739378,1
938,233,33,0.123634227114444,1
938,234,33,0.105342266514541,1
939,214,33,0.0766932026505077,1
939,215,33,0.0889755767375092,1
939,216,33,0.090113222350018,1
939,217,33,0.0747743757907566,1
939,218,33,0.0722178391637968,1
939,219,33,0.0885269002552089,1
939,220,33,0.109792494813061,1
939,221,33,0.120839935616557,1
939,222,33,0.154602620098173,1
939,223,33,0.122122645039755,1
939,224,33,0.0749263687278111,1
939,226,33,0.0879736026728409,1
939,227,33,0.128771359489354,1
939,228,33,0.138471949800456,1
939,229,33,0.112719285637562,1
939,230,33,0.0949947421145069,1
939,231,33,0.0917655701866357,1
939,232,33,0.0980707455174573,1
939,233,33,0.0979566077537091,1
939,234,33,0.0786649371842883,1
940,214,33,0.0762743637078641,1
940,215,33,0.0854137321035722,1
940,216,33,0.0786484354138674,1
940,219,33,0.0785156686254639,1
940,220,33,0.0929008584033701,1
940,221,33,0.10485552337752,1
940,222,33,0.147150039909539,1
940,223,33,0.13369092724844,1
940,224,33,0.0855819780093827,1
940,226,33,0.0752057107970171,1
940,227,33,0.0977816255428229,1
940,228,33,0.109299855076582,1
940,229,33,0.0955212561976543,1
940,230,33,0.0857931733025873,1
940,231,33,0.0827051900994746,1
940,232,33,0.0790718771873106,1
940,233,33,0.0713562203383099,1
941,219,33,0.0778246717616867,1
941,220,33,0.0882815320533377,1
941,221,33,0.0929298002570333,1
941,222,33,0.10540809943506,1
941,223,33,0.105617739717859,1
941,224,33,0.0829315685142765,1
941,227,33,0.0780415335128082,1
941,228,33,0.0883579452646535,1
941,229,33,0.0899024748998101,1
941,230,33,0.0872638399434927,1
941,231,33,0.0846240729396003,1
941,232,33,0.0750909945693981,1
942,219,33,0.0872866363960343,1
942,220,33,0.103790216849065,1
942,221,33,0.107005829086202,1
942,222,33,0.0877400401099666,1
942,223,33,0.0797982536478288,1
942,224,33,0.0717981045351598,1
942,227,33,0.0741522658879337,1
942,228,33,0.0934269557437288,1
942,229,33,0.105319177720043,1
942,230,33,0.0996134091401275,1
942,231,33,0.0960393981047795,1
942,232,33,0.0831887361351031,1
943,219,33,0.0945583875346582,1
943,220,33,0.114879083129758,1
943,221,33,0.121701087938923,1
943,222,33,0.0892787415661241,1
943,223,33,0.0729609910765673,1
943,227,33,0.0764518339353988,1
943,228,33,0.110917140538582,1
943,229,33,0.12793327108132,1
943,230,33,0.114253446463336,1
943,231,33,0.105651526983945,1
943,232,33,0.0874982795322356,1
944,219,33,0.075523604684191,1
944,220,33,0.0937545404557485,1
944,221,33,0.110698754877263,1
944,222,33,0.0949533539575598,1
944,223,33,0.0866818430890847,1
944,224,33,0.0761756765275029,1
944,228,33,0.102684504930239,1
944,229,33,0.115150426225439,1
944,230,33,0.100058173216248,1
944,231,33,0.0867729666988346,1
945,221,33,0.0835358953181045,1
945,222,33,0.0889236020697228,1
945,223,33,0.0905188250440918,1
945,224,33,0.0773818110183023,1
945,229,33,0.0756689981570854,1
933,229,34,0.0743819533648781,1
933,230,34,0.0846923005761427,1
933,231,34,0.0719116327348291,1
934,213,34,0.0728975031117402,1
934,214,34,0.0811625202567628,1
934,219,34,0.0771186908176443,1
934,220,34,0.0817628226936619,1
934,221,34,0.0763195896304915,1
934,229,34,0.0838918745201247,1
934,230,34,0.109384833285211,1
934,231,34,0.101287166360005,1
934,232,34,0.076294199420594,1
935,214,34,0.0870558666318479,1
935,215,34,0.0763131518874136,1
935,219,34,0.0862236810433122,1
935,220,34,0.0896734529673193,1
935,221,34,0.0839308182007147,1
935,225,34,0.076860434689534,1
935,226,34,0.0890394565649584,1
935,227,34,0.0856422004523587,1
935,228,34,0.0836692778906285,1
935,229,34,0.0927198116519032,1
935,230,34,0.117936955111382,1
935,231,34,0.118238353448177,1
935,232,34,0.0946512776362285,1
935,233,34,0.0846830389341688,1
935,234,34,0.0776807151184068,1
936,214,34,0.0740603274527315,1
936,219,34,0.0865452758552507,1
936,220,34,0.0864250486707554,1
936,221,34,0.0825034990298671,1
936,222,34,0.0777192731564163,1
936,225,34,0.0881676617513792,1
936,226,34,0.10970785248668,1
936,227,34,0.110868039530024,1
936,228,34,0.105621471742832,1
936,229,34,0.105021884610719,1
936,230,34,0.121927049610936,1
936,231,34,0.123544098711353,1
936,232,34,0.106830162670737,1
936,233,34,0.100340500905432,1
936,234,34,0.0888350037968711,1
937,218,34,0.0717539173594831,1
937,219,34,0.0832868635117184,1
937,220,34,0.0860713522240102,1
937,221,34,0.0869017837608087,1
937,222,34,0.0859153038198187,1
937,225,34,0.0812533515245565,1
937,226,34,0.110759823245899,1
937,227,34,0.131281046762823,1
937,228,34,0.13143316410071,1
937,229,34,0.114196582842835,1
937,230,34,0.120924913825185,1
937,231,34,0.121970963104781,1
937,232,34,0.115899033114711,1
937,233,34,0.118353598379334,1
937,234,34,0.102027712075336,1
938,219,34,0.0799275869732575,1
938,220,34,0.0925357233000836,1
938,221,34,0.100183202272875,1
938,222,34,0.103102193165182,1
938,223,34,0.0816146799623709,1
938,226,34,0.0975917960925869,1
938,227,34,0.133957281870741,1
938,228,34,0.146556025934719,1
938,229,34,0.113624961017851,1
938,230,34,0.104435098324263,1
938,231,34,0.10526230165946,1
938,232,34,0.110479685011366,1
938,233,34,0.10999304139501,1
938,234,34,0.0880004732526442,1
939,219,34,0.0743265141339087,1
939,220,34,0.0921401410930615,1
939,221,34,0.106454957320066,1
939,222,34,0.121123818316147,1
939,223,34,0.100087855254864,1
939,224,34,0.07230805464747,1
939,226,34,0.0822924281374949,1
939,227,34,0.114516442263161,1
939,228,34,0.131977927785974,1
939,229,34,0.101341778325439,1
939,230,34,0.0861974200275877,1
939,231,34,0.0857695184843021,1
939,232,34,0.0919559718807008,1
939,233,34,0.0828447491733284,1
940,219,34,0.0726133529503611,1
940,220,34,0.0868026798376588,1
940,221,34,0.0991954534433942,1
940,222,34,0.115115793033692,1
940,223,34,0.104793273200975,1
940,224,34,0.0782259142065841,1
940,226,34,0.0727300969115485,1
940,227,34,0.0901199524350521,1
940,228,34,0.100862636079278,1
940,229,34,0.0862755064300996,1
940,230,34,0.0773246861560536,1
940,231,34,0.0733917227387905,1
941,219,34,0.0820837581811885,1
941,220,34,0.0973556148921901,1
941,221,34,0.104725767089261,1
941,222,34,0.100092383445164,1
941,223,34,0.0900882488829091,1
941,224,34,0.0742034443903926,1
941,227,34,0.0766824481985447,1
941,228,34,0.0856018386022791,1
941,229,34,0.085670271500195,1
941,230,34,0.0816935314300022,1
941,231,34,0.0765320289320204,1
942,218,34,0.0741785517838247,1
942,219,34,0.0976087332659213,1
942,220,34,0.121527897100023,1
942,221,34,0.127262327631729,1
942,222,34,0.100292370223368,1
942,223,34,0.0801783168510061,1
942,227,34,0.0732774419140851,1
942,228,34,0.0918006387812957,1
942,229,34,0.104084132475789,1
942,230,34,0.0950719328310254,1
942,231,34,0.0862389947857835,1
942,232,34,0.0750341807092305,1
943,218,34,0.0771916145856107,1
943,219,34,0.106002275130962,1
943,220,34,0.126386334290056,1
943,221,34,0.130013986964345,1
943,222,34,0.104873150975474,1
943,223,34,0.0872722058994732,1
943,227,34,0.0714515860164454,1
943,228,34,0.100473049992379,1
943,229,34,0.120213751586472,1
943,230,34,0.104467249719402,1
943,231,34,0.0901375862530481,1
943,232,34,0.0756377673281056,1
944,219,34,0.085294077162906,1
944,220,34,0.0964733455285209,1
944,221,34,0.106415907898768,1
944,222,34,0.104816523716555,1
944,223,34,0.101281779803961,1
944,224,34,0.0803422771481397,1
944,228,34,0.0865285377232481,1
944,229,34,0.0992662064168348,1
944,230,34,0.085033370338397,1
945,221,34,0.0809552498098211,1
945,222,34,0.0906288327002035,1
945,223,34,0.0936822200318193,1
945,224,34,0.0768966913121437,1
934,219,35,0.0714528300247696,1
934,220,35,0.0770295514011715,1
934,221,35,0.074919769263651,1
934,229,35,0.0728628512598687,1
934,230,35,0.0878625438296952,1
934,231,35,0.0813619099109704,1
935,219,35,0.078396256266421,1
935,220,35,0.0812633471314417,1
935,221,35,0.0794652139593074,1
935,225,35,0.0810765281813503,1
935,226,35,0.0894928105185577,1
935,227,35,0.081311595994297,1
935,228,35,0.0787281950075754,1
935,229,35,0.0826477044748119,1
935,230,35,0.0965718772078416,1
935,231,35,0.0967492168145023,1
935,232,35,0.0813099912235587,1
935,233,35,0.0738936925377008,1
935,234,35,0.0726970000700823,1
936,219,35,0.078016466745075,1
936,220,35,0.0773363984944262,1
936,221,35,0.0758297800129506,1
936,222,35,0.0721478201552675,1
936,225,35,0.0908491341343415,1
936,226,35,0.106140285414452,1
936,227,35,0.0998224958392226,1
936,228,35,0.0982218054482686,1
936,229,35,0.0956772361813879,1
936,230,35,0.108466469020014,1
936,231,35,0.113028881989213,1
936,232,35,0.0986089159586027,1
936,233,35,0.090419211077529,1
936,234,35,0.0804684880126745,1
937,219,35,0.0734125536581798,1
937,220,35,0.0762524442811912,1
937,221,35,0.0795571648345929,1
937,222,35,0.0786090314501974,1
937,225,35,0.0809371930289949,1
937,226,35,0.100735125226045,1
937,227,35,0.111772159899909,1
937,228,35,0.12029385328247,1
937,229,35,0.104096273997034,1
937,230,35,0.11112512629031,1
937,231,35,0.118519897412117,1
937,232,35,0.108850233147956,1
937,233,35,0.102072546135342,1
937,234,35,0.0849501586215893,1
938,220,35,0.0786962302136843,1
938,221,35,0.0878485611761308,1
938,222,35,0.0886054096205511,1
938,223,35,0.0757445716627824,1
938,226,35,0.0882729172956924,1
938,227,35,0.112546032598246,1
938,228,35,0.129091903114259,1
938,229,35,0.101018180660098,1
938,230,35,0.0926761034194314,1
938,231,35,0.0977378613299764,1
938,232,35,0.0978368035320441,1
938,233,35,0.0886511269264666,1
939,220,35,0.0808445455090478,1
939,221,35,0.0919264266830003,1
939,222,35,0.0952067149129142,1
939,223,35,0.0836423948707418,1
939,226,35,0.0783848735902543,1
939,227,35,0.0983738605857393,1
939,228,35,0.111199878750513,1
939,229,35,0.088287322912087,1
939,230,35,0.0752622696354782,1
939,231,35,0.0750890663564956,1
939,232,35,0.0777517231135539,1
940,219,35,0.074359872217123,1
940,220,35,0.0889246719168816,1
940,221,35,0.0983824753433846,1
940,222,35,0.0967680635406144,1
940,223,35,0.0853699616706841,1
940,224,35,0.07144435210804,1
940,227,35,0.0829523683334576,1
940,228,35,0.0890696299868626,1
940,229,35,0.0782613684438246,1
941,219,35,0.0882699316757142,1
941,220,35,0.108571152320498,1
941,221,35,0.117850670694014,1
941,222,35,0.103207977413033,1
941,223,35,0.0840935096093576,1
941,227,35,0.0741527075108888,1
941,228,35,0.0823937152952538,1
941,229,35,0.0808980627471562,1
941,230,35,0.0753189342146469,1
942,218,35,0.0740682828859649,1
942,219,35,0.100842688405799,1
942,220,35,0.128402237339388,1
942,221,35,0.14034632202274,1
942,222,35,0.117541459984943,1
942,223,35,0.0910943468351722,1
942,224,35,0.0717335342830906,1
942,228,35,0.0856608419170973,1
942,229,35,0.0943268900256021,1
942,230,35,0.0860254109965963,1
942,231,35,0.0730261335724656,1
943,218,35,0.0760653143290188,1
943,219,35,0.10487547727104,1
943,220,35,0.124778304249989,1
943,221,35,0.132084501979111,1
943,222,35,0.119916234555649,1
943,223,35,0.103799976094368,1
943,224,35,0.0800469433519258,1
943,228,35,0.0855669752689925,1
943,229,35,0.100663905749482,1
943,230,35,0.0897497479978443,1
943,231,35,0.0725921923687659,1
944,219,35,0.0849373328957664,1
944,220,35,0.0935168291251129,1
944,221,35,0.102462293943323,1
944,222,35,0.108985531493299,1
944,223,35,0.108685364724746,1
944,224,35,0.0857748490599714,1
944,229,35,0.079299823052601,1
945,220,35,0.0746157274091675,1
945,221,35,0.0821074378796402,1
945,222,35,0.090077593951612,1
945,223,35,0.0911300623141608,1
945,224,35,0.077315517814704,1
946,222,35,0.074572834002148,1
946,223,35,0.0732071119034747,1
935,225,36,0.0774668389872634,1
935,226,36,0.0799068804547006,1
935,230,36,0.0761866362408394,1
935,231,36,0.0762330439713748,1
936,225,36,0.0829132567117438,1
936,226,36,0.0900242322145442,1
936,227,36,0.0820300667819147,1
936,228,36,0.0824710739528961,1
936,229,36,0.0810135067196448,1
936,230,36,0.0902810204128319,1
936,231,36,0.0958001939641549,1
936,232,36,0.0847888542822279,1
936,233,36,0.0744228439184955,1
937,225,36,0.0716681056652777,1
937,226,36,0.0814029497455868,1
937,227,36,0.0859652569740782,1
937,228,36,0.0952123751507894,1
937,229,36,0.0867890455064253,1
937,230,36,0.0924228855250342,1
937,231,36,0.102315737322646,1
937,232,36,0.0929160353049257,1
937,233,36,0.0801198484597673,1
938,226,36,0.0730557534106656,1
938,227,36,0.0841143840690382,1
938,228,36,0.0956830208200956,1
938,229,36,0.0816404184945992,1
938,230,36,0.0763028825986971,1
938,231,36,0.0819175400089464,1
938,232,36,0.0790711432223993,1
939,221,36,0.0725180245924753,1
939,227,36,0.0766096923717021,1
939,228,36,0.0817153948763006,1
940,220,36,0.0821922170469365,1
940,221,36,0.0872858899910397,1
940,222,36,0.0764459497760252,1
940,228,36,0.0726748753820359,1
941,219,36,0.08342718143065,1
941,220,36,0.103254826766524,1
941,221,36,0.110973183113588,1
941,222,36,0.0955025089922081,1
941,223,36,0.0754379547110677,1
941,228,36,0.0728151062203848,1
942,219,36,0.090696090010253,1
942,220,36,0.116998102029086,1
942,221,36,0.131499556824974,1
942,222,36,0.121049202696859,1
942,223,36,0.0968060990951277,1
942,224,36,0.0733523374352454,1
942,228,36,0.0735031983247248,1
942,229,36,0.0776691707211579,1
942,230,36,0.0722896308841882,1
943,219,36,0.0910271268453724,1
943,220,36,0.112318826917908,1
943,221,36,0.123393026340459,1
943,222,36,0.122160251411396,1
943,223,36,0.108898388710187,1
943,224,36,0.0839901262975724,1
943,229,36,0.0758751489965353,1
944,219,36,0.0752501965346915,1
944,220,36,0.085426787970935,1
944,221,36,0.0955449421161476,1
944,222,36,0.104352639232491,1
944,223,36,0.104546984432944,1
944,224,36,0.0856529860045298,1
945,220,36,0.0759175634603499,1
945,221,36,0.0824109696907109,1
945,222,36,0.0880274309130303,1
945,223,36,0.0883724690618389,1
945,224,36,0.0780287388871935,1
946,218,36,0.0751492514792219,1
946,219,36,0.07827681280717,1
946,220,36,0.0794379141966322,1
946,221,36,0.0778413601333563,1
946,222,36,0.0779074667357059,1
946,223,36,0.0761931983847497,1
947,218,36,0.0748017626340145,1
947,219,36,0.0749845758773018,1
947,220,36,0.0741767977320876,1
936,231,37,0.0756140254292376,1
937,230,37,0.0722314175146558,1
937,231,37,0.0792591564204819,1
937,232,37,0.0728219607062513,1
940,220,37,0.0732096932207475,1
940,221,37,0.0771637425791063,1
941,219,37,0.0723033833962125,1
941,220,37,0.0906437296998861,1
941,221,37,0.0972881336606422,1
941,222,37,0.0894694542622703,1
941,223,37,0.0761150995421545,1
942,219,37,0.0742652342838571,1
942,220,37,0.0994393785956093,1
942,221,37,0.11413302645755,1
942,222,37,0.117535028461907,1
942,223,37,0.102644379441741,1
942,224,37,0.0786306523148725,1
943,219,37,0.0715423053234899,1
943,220,37,0.096036648846383,1
943,221,37,0.109632490462398,1
943,222,37,0.114614096916613,1
943,223,37,0.104676174697415,1
943,224,37,0.0835477880376841,1
944,220,37,0.0770164271133509,1
944,221,37,0.0884273858093121,1
944,222,37,0.0947478624425217,1
944,223,37,0.0939777404292819,1
944,224,37,0.0799995590748558,1
945,220,37,0.0761217612067307,1
945,221,37,0.0820582808907083,1
945,222,37,0.0842828974366384,1
945,223,37,0.0861640930445816,1
945,224,37,0.0760823074827278,1
946,218,37,0.0739803688176916,1
946,219,37,0.079698608581058,1
946,220,37,0.0850884177067442,1
946,221,37,0.0825158271523602,1
946,222,37,0.0778001896778659,1
946,223,37,0.0766294658840157,1
947,218,37,0.0762767770840131,1
947,219,37,0.0747105706038068,1
947,220,37,0.0744709497203935,1
