x,y,z,signal,mito.p
586,609,56,0.08490381309147,1
587,608,56,0.0725166126430273,1
587,609,56,0.0824132400059026,1
588,609,56,0.0722341543329691,1
589,608,56,0.0713426482074925,1
590,608,56,0.078952508368559,1
590,609,56,0.0782818448208415,1
591,606,56,0.0746453845676171,1
591,607,56,0.0809450613816456,1
591,608,56,0.0873114543621027,1
591,609,56,0.0826029263951813,1
592,606,56,0.0803121845867766,1
592,607,56,0.093431353313155,1
592,608,56,0.0921230795188947,1
583,606,57,0.0718004557108926,1
583,607,57,0.0723968519616536,1
584,605,57,0.0749946523447281,1
584,606,57,0.0845010156361674,1
584,607,57,0.0806087872714813,1
584,608,57,0.0777703583582508,1
585,605,57,0.0850076815665017,1
585,606,57,0.0840229307970824,1
585,607,57,0.0791798260096457,1
585,608,57,0.085828708400369,1
585,609,57,0.0884694332906711,1
586,605,57,0.0758344823644162,1
586,606,57,0.071768235895295,1
586,607,57,0.0749279983787158,1
586,608,57,0.0899252962325181,1
586,609,57,0.0990044981656248,1
586,610,57,0.0742946488606836,1
587,605,57,0.0722381538197315,1
587,607,57,0.0730973095087365,1
587,608,57,0.0830876106984264,1
587,609,57,0.0913757166379467,1
587,610,57,0.0766967853944815,1
588,601,57,0.0871198522000047,1
588,602,57,0.0850425573398715,1
588,603,57,0.0730421004193071,1
588,605,57,0.0729959477104782,1
588,606,57,0.0714909650999489,1
588,607,57,0.0748519894701053,1
588,608,57,0.0792523330348235,1
588,609,57,0.0841483703764562,1
588,610,57,0.0783033537247674,1
589,600,57,0.0733129956719916,1
589,601,57,0.0961773524078951,1
589,602,57,0.0900523903429631,1
589,603,57,0.0769610376427145,1
589,604,57,0.0736447913521887,1
589,605,57,0.0764590989440123,1
589,606,57,0.0785281895692472,1
589,607,57,0.0813622146930099,1
589,608,57,0.0853114621792372,1
589,609,57,0.0875370179514521,1
589,610,57,0.0793349476276356,1
590,600,57,0.0723269697940399,1
590,601,57,0.0846434545892918,1
590,602,57,0.0794806023422782,1
590,603,57,0.0750586254728017,1
590,604,57,0.0788642086577052,1
590,605,57,0.0870268563577268,1
590,606,57,0.0929313552674386,1
590,607,57,0.0916870297210854,1
590,608,57,0.0934344819940904,1
590,609,57,0.0927283144487993,1
590,610,57,0.0789422390798425,1
591,601,57,0.0715717074602331,1
591,604,57,0.0778641192656481,1
591,605,57,0.0918428044434455,1
591,606,57,0.10265496595258,1
591,607,57,0.101545689949905,1
591,608,57,0.096524816372936,1
591,609,57,0.0890109252340422,1
591,610,57,0.0750402203696447,1
592,604,57,0.0752138030711662,1
592,605,57,0.0830936068185491,1
592,606,57,0.0943920760617918,1
592,607,57,0.101346729478569,1
592,608,57,0.0917948479225464,1
592,609,57,0.0761860080166356,1
593,603,57,0.0779616308581429,1
593,604,57,0.0764118763880245,1
593,605,57,0.0720220198134797,1
593,606,57,0.0776784323631318,1
593,607,57,0.088785405184984,1
593,608,57,0.079796182373969,1
594,603,57,0.0734634211585575,1
582,606,58,0.074014610146816,1
582,607,58,0.0725913713232719,1
583,605,58,0.0757625662431924,1
583,606,58,0.0983424369354692,1
583,607,58,0.0895780810691421,1
583,608,58,0.0807746633414342,1
584,605,58,0.0909748473955466,1
584,606,58,0.100939777035464,1
584,607,58,0.0907290189105954,1
584,608,58,0.0905272158802387,1
584,609,58,0.0861057552742168,1
585,604,58,0.0737392613443308,1
585,605,58,0.100826877059998,1
585,606,58,0.0929645454095291,1
585,607,58,0.0851721767872147,1
585,608,58,0.0940310524060168,1
585,609,58,0.096821132935726,1
585,610,58,0.0740357956085777,1
586,604,58,0.0858309351752694,1
586,605,58,0.0996493547606562,1
586,606,58,0.0841978694676773,1
586,607,58,0.0835461397266545,1
586,608,58,0.0969626824228986,1
586,609,58,0.102971566071097,1
586,610,58,0.0817991477367294,1
587,601,58,0.0809837127202795,1
587,602,58,0.0870857166115878,1
587,603,58,0.0803642960954786,1
587,604,58,0.086453754162837,1
587,605,58,0.0935086933106724,1
587,606,58,0.0827636647107551,1
587,607,58,0.0851853819355764,1
587,608,58,0.0940368183845997,1
587,609,58,0.0997221665678734,1
587,610,58,0.0891430575782003,1
588,600,58,0.0867366354357254,1
588,601,58,0.132163732869281,1
588,602,58,0.119840225647039,1
588,603,58,0.0869842863928716,1
588,604,58,0.0835439005116709,1
588,605,58,0.0941398906943038,1
588,606,58,0.0912702309520935,1
588,607,58,0.0905555419497814,1
588,608,58,0.0931585920479842,1
588,609,58,0.0988076089681488,1
588,610,58,0.0952811128307448,1
588,611,58,0.0728614082102126,1
589,600,58,0.099151110766677,1
589,601,58,0.143240631789895,1
589,602,58,0.119556031945369,1
589,603,58,0.0850630648170964,1
589,604,58,0.0838974041371259,1
589,605,58,0.0987201303027889,1
589,606,58,0.103369909976599,1
589,607,58,0.0998525324202111,1
589,608,58,0.099861663441311,1
589,609,58,0.103616702568001,1
589,610,58,0.0934717338233595,1
590,600,58,0.0910805072425651,1
590,601,58,0.109762041489284,1
590,602,58,0.0927605280443553,1
590,603,58,0.0808961905146282,1
590,604,58,0.0883625232152867,1
590,605,58,0.107811660358389,1
590,606,58,0.1202509971957,1
590,607,58,0.111258297381419,1
590,608,58,0.10495248138631,1
590,609,58,0.103826423711341,1
590,610,58,0.0849509858871249,1
591,600,58,0.077904443795478,1
591,601,58,0.0827213248874399,1
591,602,58,0.0808773748887243,1
591,603,58,0.0840105964545476,1
591,604,58,0.0883019959902713,1
591,605,58,0.10621440343041,1
591,606,58,0.124044451299442,1
591,607,58,0.115588827198981,1
591,608,58,0.100709927837437,1
591,609,58,0.0932092356268636,1
591,610,58,0.0762299090703977,1
592,602,58,0.0873412421414264,1
592,603,58,0.100116933949443,1
592,604,58,0.0901732208714957,1
592,605,58,0.0894665619429165,1
592,606,58,0.0993652916798597,1
592,607,58,0.0993469612172022,1
592,608,58,0.0880752754731802,1
592,609,58,0.0792763548355644,1
593,602,58,0.089068983102534,1
593,603,58,0.110463724384566,1
593,604,58,0.0935838936138721,1
593,605,58,0.0760191367400233,1
593,606,58,0.074886473380853,1
593,607,58,0.0781640496726201,1
593,608,58,0.0725595060500467,1
594,602,58,0.0717502786351348,1
594,603,58,0.0900178131315912,1
594,604,58,0.0806810392749526,1
596,605,58,0.0763673906503501,1
597,604,58,0.0762471137055218,1
597,605,58,0.0815621081705889,1
600,594,58,0.0752237426976768,1
600,595,58,0.0748350274166045,1
601,594,58,0.071604101436996,1
601,595,58,0.0742622113436292,1
582,606,59,0.0923724907478197,1
582,607,59,0.0944157557602435,1
582,608,59,0.0841995924192063,1
583,605,59,0.0902340466585089,1
583,606,59,0.120371454521735,1
583,607,59,0.109802894722652,1
583,608,59,0.100583113628865,1
583,609,59,0.0868869676216671,1
584,605,59,0.0955935766215834,1
584,606,59,0.107974625448863,1
584,607,59,0.100322095802275,1
584,608,59,0.1017365892473,1
584,609,59,0.0976930521501376,1
584,610,59,0.0755930016885581,1
585,604,59,0.0824970115264563,1
585,605,59,0.109409875172777,1
585,606,59,0.0981835086520072,1
585,607,59,0.0915783593739222,1
585,608,59,0.0970249885798177,1
585,609,59,0.0976283139569447,1
585,610,59,0.0791468100287206,1
586,603,59,0.0748984158607656,1
586,604,59,0.102454749032837,1
586,605,59,0.122463851642925,1
586,606,59,0.100799745238447,1
586,607,59,0.0952384620053486,1
586,608,59,0.101924198142677,1
586,609,59,0.103332925609119,1
586,610,59,0.0874998532027658,1
587,601,59,0.098882703530641,1
587,602,59,0.103828544745534,1
587,603,59,0.0910173738201104,1
587,604,59,0.101400464418134,1
587,605,59,0.118562218575307,1
587,606,59,0.105791440600171,1
587,607,59,0.103287021701955,1
587,608,59,0.108197514420315,1
587,609,59,0.110150047685611,1
587,610,59,0.0990282400644927,1
587,611,59,0.0754661377196531,1
588,600,59,0.10226411097719,1
588,601,59,0.162095754958177,1
588,602,59,0.142109666502087,1
588,603,59,0.0952692512113733,1
588,604,59,0.0987586883407984,1
588,605,59,0.125705426333788,1
588,606,59,0.122780837404022,1
588,607,59,0.113436157874483,1
588,608,59,0.109933241914864,1
588,609,59,0.111954295158659,1
588,610,59,0.104468866930224,1
588,611,59,0.0779944229175696,1
589,600,59,0.113347186399134,1
589,601,59,0.174654989317778,1
589,602,59,0.139430383573776,1
589,603,59,0.0923364393865835,1
589,604,59,0.0992332712964508,1
589,605,59,0.130449850160905,1
589,606,59,0.13517178231752,1
589,607,59,0.121462835464666,1
589,608,59,0.112834144926138,1
589,609,59,0.112055308634587,1
589,610,59,0.0976711576036312,1
589,611,59,0.0717188363247398,1
590,600,59,0.099127418628142,1
590,601,59,0.123282745002516,1
590,602,59,0.102656514742944,1
590,603,59,0.0905337718041074,1
590,604,59,0.100525242361622,1
590,605,59,0.127644300387684,1
590,606,59,0.142034826961302,1
590,607,59,0.125677896429573,1
590,608,59,0.112049897198376,1
590,609,59,0.107646157490933,1
590,610,59,0.0857639453270095,1
591,600,59,0.0817195871843532,1
591,601,59,0.0838922974829549,1
591,602,59,0.0899104738733349,1
591,603,59,0.102844919803648,1
591,604,59,0.098890254661169,1
591,605,59,0.113587466606959,1
591,606,59,0.133170073403167,1
591,607,59,0.11849174550374,1
591,608,59,0.100156089111448,1
591,609,59,0.0943618528795546,1
591,610,59,0.076584096900431,1
592,602,59,0.101052191847683,1
592,603,59,0.126811859777442,1
592,604,59,0.100296786452919,1
592,605,59,0.0896957642566143,1
592,606,59,0.0974104445590806,1
592,607,59,0.0917161581759972,1
592,608,59,0.0850491070436985,1
592,609,59,0.0853447580620352,1
592,610,59,0.0737680165967454,1
593,602,59,0.101123834287075,1
593,603,59,0.129745057244813,1
593,604,59,0.0999699170456855,1
593,605,59,0.0782887241868745,1
593,606,59,0.0741067911636415,1
593,609,59,0.0721920819714436,1
594,602,59,0.0771833294901713,1
594,603,59,0.0941501848631868,1
594,604,59,0.0818952473797762,1
596,594,59,0.077146425983233,1
596,595,59,0.0874056693325383,1
596,596,59,0.0731264193035235,1
596,604,59,0.0773600719728363,1
596,605,59,0.0862366933703836,1
597,594,59,0.0783798104763746,1
597,595,59,0.082164494321431,1
597,596,59,0.0715515358652557,1
597,604,59,0.0815304979190702,1
597,605,59,0.0892846692657891,1
597,606,59,0.0722761022936622,1
598,593,59,0.077934324875426,1
598,594,59,0.0864713195603752,1
598,595,59,0.0790429291136057,1
598,605,59,0.0732325580937468,1
599,593,59,0.0932851076945585,1
599,594,59,0.0992696772000594,1
599,595,59,0.0857101046467368,1
600,593,59,0.0900566697315985,1
600,594,59,0.0981373186229285,1
600,595,59,0.0916663045424037,1
600,596,59,0.0787254146489707,1
601,593,59,0.0722116813225919,1
601,594,59,0.0832760966196722,1
601,595,59,0.0874481584368524,1
601,596,59,0.085523671339226,1
601,597,59,0.0729096632931096,1
602,595,59,0.0804375433056093,1
602,596,59,0.0823820340570893,1
602,597,59,0.0716165850605297,1
603,595,59,0.0730715709765082,1
608,594,59,0.0719921262934484,1
609,593,59,0.0777300400484625,1
609,594,59,0.0805095340673325,1
610,594,59,0.0720557324390663,1
581,607,60,0.0828352947100643,1
581,608,60,0.0770391675855178,1
582,606,60,0.111798259194551,1
582,607,60,0.125333131962596,1
582,608,60,0.111943260804823,1
582,609,60,0.0949920363964017,1
582,610,60,0.0751843076337987,1
583,605,60,0.0927155447033511,1
583,606,60,0.13192204693205,1
583,607,60,0.137950896913852,1
583,608,60,0.124183407029259,1
583,609,60,0.111258919385581,1
583,610,60,0.0868093477222767,1
584,605,60,0.0936721871046844,1
584,606,60,0.112072301788296,1
584,607,60,0.116574044471522,1
584,608,60,0.111009520596739,1
584,609,60,0.104451065171104,1
584,610,60,0.0837828123103394,1
585,604,60,0.0838611848347659,1
585,605,60,0.113453225668691,1
585,606,60,0.110865862515457,1
585,607,60,0.104429456746512,1
585,608,60,0.0977525281881191,1
585,609,60,0.0942478146364724,1
585,610,60,0.0809856160530156,1
586,601,60,0.0762865860896497,1
586,602,60,0.074738100508022,1
586,603,60,0.0756804430336683,1
586,604,60,0.104573195688335,1
586,605,60,0.137017380627266,1
586,606,60,0.125182084471868,1
586,607,60,0.110314368745159,1
586,608,60,0.103865473132639,1
586,609,60,0.10210173679067,1
586,610,60,0.0896609071433694,1
586,611,60,0.075485793051176,1
587,600,60,0.0853932495065137,1
587,601,60,0.114489061639945,1
587,602,60,0.106051898623015,1
587,603,60,0.0886659181854417,1
587,604,60,0.104141356858704,1
587,605,60,0.135602594840285,1
587,606,60,0.130327999545547,1
587,607,60,0.12142402240495,1
587,608,60,0.11801479271223,1
587,609,60,0.116972263976191,1
587,610,60,0.102564277745744,1
587,611,60,0.0818623682397668,1
588,600,60,0.106732856339616,1
588,601,60,0.15796449039399,1
588,602,60,0.133008426961517,1
588,603,60,0.0925367309468262,1
588,604,60,0.105674043534614,1
588,605,60,0.14599689395331,1
588,606,60,0.145788024955672,1
588,607,60,0.132491777864381,1
588,608,60,0.122024219101141,1
588,609,60,0.118615151129503,1
588,610,60,0.105598793471081,1
588,611,60,0.0814523119958923,1
589,600,60,0.112733815654789,1
589,601,60,0.165763763262504,1
589,602,60,0.132815058307599,1
589,603,60,0.0923585702946715,1
589,604,60,0.104461191398863,1
589,605,60,0.14468313408234,1
589,606,60,0.150420201911694,1
589,607,60,0.13542462700942,1
589,608,60,0.121192611976477,1
589,609,60,0.114496339088642,1
589,610,60,0.0980225215347685,1
589,611,60,0.075421415620397,1
590,600,60,0.0946649306275869,1
590,601,60,0.114601656833371,1
590,602,60,0.102641082819682,1
590,603,60,0.0992940659832559,1
590,604,60,0.105640778752024,1
590,605,60,0.131123965831723,1
590,606,60,0.144577157013199,1
590,607,60,0.130353588796776,1
590,608,60,0.115020041712976,1
590,609,60,0.105801442427098,1
590,610,60,0.0852179189732966,1
591,600,60,0.0764408928821872,1
591,601,60,0.0779643987766643,1
591,602,60,0.096201654110509,1
591,603,60,0.125294654785127,1
591,604,60,0.110117342706767,1
591,605,60,0.11182618718143,1
591,606,60,0.125768410475244,1
591,607,60,0.11347574221936,1
591,608,60,0.0987296096462195,1
591,609,60,0.0930987614676303,1
591,610,60,0.0765207706566861,1
592,602,60,0.104583247275595,1
592,603,60,0.146234462222988,1
592,604,60,0.11019585207211,1
592,605,60,0.0886458087908805,1
592,606,60,0.0901962785657853,1
592,607,60,0.0839455534793152,1
592,608,60,0.0814908264936105,1
592,609,60,0.0865201282269763,1
592,610,60,0.0755271687680399,1
593,602,60,0.0976312373765066,1
593,603,60,0.12781306255695,1
593,604,60,0.0967935159509281,1
593,605,60,0.0777357687067956,1
593,606,60,0.0717214238620542,1
593,609,60,0.0742926771074896,1
594,602,60,0.07451835887763,1
594,603,60,0.0869001603299455,1
594,604,60,0.0771183362752719,1
594,605,60,0.072993552994454,1
595,595,60,0.0811851860884303,1
595,605,60,0.0732392073182399,1
596,594,60,0.0820291524357964,1
596,595,60,0.0914855128126432,1
596,596,60,0.0774377789528094,1
596,604,60,0.0786528703035432,1
596,605,60,0.0874735424267083,1
596,606,60,0.072648850727893,1
597,593,60,0.073741475679148,1
597,594,60,0.0929185730819072,1
597,595,60,0.0900050371661013,1
597,596,60,0.0761889065560311,1
597,597,60,0.0729125493924218,1
597,603,60,0.072011539043348,1
597,604,60,0.0815816950816539,1
597,605,60,0.0895372029556079,1
597,606,60,0.07504108495543,1
598,593,60,0.101647294329787,1
598,594,60,0.117676123886041,1
598,595,60,0.0968660229761059,1
598,596,60,0.0734799540291866,1
598,604,60,0.073384407969844,1
598,605,60,0.0759257863553731,1
599,592,60,0.0776330011791309,1
599,593,60,0.117338699068177,1
599,594,60,0.130762581413534,1
599,595,60,0.102783527992848,1
599,596,60,0.0740341348574648,1
600,592,60,0.0749142396466498,1
600,593,60,0.100748939938485,1
600,594,60,0.109218708413593,1
600,595,60,0.0970203359886851,1
600,596,60,0.0865602226152663,1
600,597,60,0.0737000066616597,1
601,593,60,0.0813136486080319,1
601,594,60,0.0857204361358696,1
601,595,60,0.0886941509543601,1
601,596,60,0.100359465812335,1
601,597,60,0.0927065443031253,1
602,593,60,0.077032910223647,1
602,594,60,0.0836124702505025,1
602,595,60,0.0864459480106025,1
602,596,60,0.0932330583862726,1
602,597,60,0.0856739786450012,1
603,593,60,0.0784016614825897,1
603,594,60,0.0999290886924843,1
603,595,60,0.0973749281214238,1
603,596,60,0.0809955929997759,1
604,594,60,0.100043288656649,1
604,595,60,0.100040253276338,1
604,596,60,0.0772618823958048,1
605,594,60,0.0741144107146274,1
605,595,60,0.079092229163495,1
607,593,60,0.0726044271906347,1
608,593,60,0.0882097527730296,1
608,594,60,0.0836987919881208,1
609,593,60,0.0869948480235444,1
609,594,60,0.084824364499843,1
581,606,61,0.0876482944960546,1
581,607,61,0.109168699278959,1
581,608,61,0.103030805747496,1
581,609,61,0.0929068109832016,1
581,610,61,0.0751051265039614,1
582,605,61,0.0776591129138565,1
582,606,61,0.127325933777347,1
582,607,61,0.156615574847777,1
582,608,61,0.13657401606051,1
582,609,61,0.121294782380146,1
582,610,61,0.0971904727871485,1
582,611,61,0.0734792822646915,1
583,605,61,0.0893203785247361,1
583,606,61,0.131374484228056,1
583,607,61,0.159313804022867,1
583,608,61,0.138253850261051,1
583,609,61,0.122946203430562,1
583,610,61,0.0988734481087087,1
583,611,61,0.0739804185780245,1
584,605,61,0.0957829209085729,1
584,606,61,0.121392088711267,1
584,607,61,0.134588168252291,1
584,608,61,0.116890756550788,1
584,609,61,0.104283379069039,1
584,610,61,0.0890776911608036,1
584,611,61,0.0742232925432057,1
585,604,61,0.0804219061209737,1
585,605,61,0.118540560390382,1
585,606,61,0.138525554119147,1
585,607,61,0.128296558832245,1
585,608,61,0.107508072566943,1
585,609,61,0.0982686423616759,1
585,610,61,0.0893047724403087,1
585,611,61,0.0822283741488803,1
585,612,61,0.0771035325762135,1
586,600,61,0.0763641126884157,1
586,601,61,0.0914497537933632,1
586,602,61,0.0749015507617427,1
586,604,61,0.094726365978679,1
586,605,61,0.143957752828481,1
586,606,61,0.161310039300593,1
586,607,61,0.138151431055718,1
586,608,61,0.1189822455459,1
586,609,61,0.112363735618413,1
586,610,61,0.0987360349492142,1
586,611,61,0.0884854250176791,1
586,612,61,0.0833239287397388,1
587,600,61,0.0931360257369827,1
587,601,61,0.11216194502814,1
587,602,61,0.089690023158198,1
587,603,61,0.0763820015281182,1
587,604,61,0.0996096771151548,1
587,605,61,0.144916845926213,1
587,606,61,0.15694355764246,1
587,607,61,0.146675015330931,1
587,608,61,0.136854353336375,1
587,609,61,0.128009690512677,1
587,610,61,0.107074523225866,1
587,611,61,0.0891198568229534,1
587,612,61,0.079855583771451,1
588,600,61,0.0982670127107711,1
588,601,61,0.124203460443445,1
588,602,61,0.103578990455652,1
588,603,61,0.0864046904745294,1
588,604,61,0.10798597080478,1
588,605,61,0.153858553839284,1
588,606,61,0.160072014656402,1
588,607,61,0.154523575809251,1
588,608,61,0.141132647244403,1
588,609,61,0.126008230399989,1
588,610,61,0.107507550083447,1
588,611,61,0.0884495167174001,1
588,612,61,0.0756875712013662,1
589,600,61,0.0962128812856351,1
589,601,61,0.124974770484635,1
589,602,61,0.11052930850342,1
589,603,61,0.0946130306003,1
589,604,61,0.107042340730518,1
589,605,61,0.146926802615756,1
589,606,61,0.15398803022567,1
589,607,61,0.146454825857543,1
589,608,61,0.129175985636893,1
589,609,61,0.114608921841985,1
589,610,61,0.10096666005535,1
589,611,61,0.0850870057572962,1
589,612,61,0.0729598154887009,1
590,600,61,0.0781832136208549,1
590,601,61,0.091507911182521,1
590,602,61,0.0982394703664727,1
590,603,61,0.11079800186137,1
590,604,61,0.110648584021547,1
590,605,61,0.128606341785145,1
590,606,61,0.138293683407593,1
590,607,61,0.128337847468526,1
590,608,61,0.112848762023947,1
590,609,61,0.101643257522775,1
590,610,61,0.0886532293005345,1
590,611,61,0.0759710309381253,1
591,602,61,0.0940973331695318,1
591,603,61,0.137394962033836,1
591,604,61,0.118472227013132,1
591,605,61,0.105576127639413,1
591,606,61,0.108979672214092,1
591,607,61,0.100074482165379,1
591,608,61,0.0924755132971908,1
591,609,61,0.0888479166032766,1
591,610,61,0.0772744033395882,1
592,602,61,0.0907022789516661,1
592,603,61,0.135782976047298,1
592,604,61,0.107991257840158,1
592,605,61,0.0840616816563821,1
592,606,61,0.0805021322178033,1
592,607,61,0.0752593648760411,1
592,608,61,0.0769532625906881,1
592,609,61,0.0828380128682527,1
592,610,61,0.0747640069813741,1
593,602,61,0.080762204598067,1
593,603,61,0.102361939791807,1
593,604,61,0.0840324723409292,1
593,605,61,0.0734230841886444,1
593,609,61,0.0735940606927266,1
594,603,61,0.0739281204680739,1
595,595,61,0.0795475299901218,1
596,594,61,0.081040184478158,1
596,595,61,0.0856450989917542,1
596,596,61,0.074518489498504,1
596,603,61,0.0727782400336962,1
596,604,61,0.0760023675078127,1
596,605,61,0.0797195328010715,1
597,593,61,0.0934773132006937,1
597,594,61,0.110335914969335,1
597,595,61,0.097119701153583,1
597,596,61,0.0770213969266062,1
597,597,61,0.0757434582753322,1
597,603,61,0.077708655545369,1
597,604,61,0.0808103290600898,1
597,605,61,0.084317300486845,1
597,606,61,0.0730027462159701,1
598,592,61,0.07650816263232,1
598,593,61,0.130126296035856,1
598,594,61,0.150487888404615,1
598,595,61,0.11580034593435,1
598,596,61,0.0777499628417751,1
598,602,61,0.0735980228592393,1
598,603,61,0.0791339594227313,1
598,604,61,0.0793940193629117,1
598,605,61,0.0778801234327393,1
599,592,61,0.0843135062614561,1
599,593,61,0.135836319124241,1
599,594,61,0.153513540570642,1
599,595,61,0.116774939375802,1
599,596,61,0.0805775937627512,1
599,602,61,0.0733780013269743,1
599,603,61,0.0787013119876888,1
599,604,61,0.078172670650307,1
599,605,61,0.0727258610632045,1
600,592,61,0.0870153368406444,1
600,593,61,0.108480339712829,1
600,594,61,0.114084435492406,1
600,595,61,0.100221300027804,1
600,596,61,0.0970404578233295,1
600,597,61,0.0876714019506772,1
600,603,61,0.0751964802552513,1
600,604,61,0.0741662920817894,1
601,591,61,0.0819582066410655,1
601,592,61,0.100175184639225,1
601,593,61,0.100728208539762,1
601,594,61,0.0933947545882561,1
601,595,61,0.0901868614227708,1
601,596,61,0.113861857523034,1
601,597,61,0.114424559808334,1
601,598,61,0.0820586540932055,1
602,591,61,0.077574762929432,1
602,592,61,0.101162771747624,1
602,593,61,0.110273179629544,1
602,594,61,0.112074453922697,1
602,595,61,0.0959616040442238,1
602,596,61,0.0994924417706793,1
602,597,61,0.0974274874731225,1
602,598,61,0.078496423816688,1
603,592,61,0.0777892921649456,1
603,593,61,0.109912541616349,1
603,594,61,0.148926608197373,1
603,595,61,0.127104151973303,1
603,596,61,0.0899379415771339,1
604,593,61,0.0810462490187386,1
604,594,61,0.133633242582445,1
604,595,61,0.133770991624187,1
604,596,61,0.0972309714781438,1
605,594,61,0.0811701709079568,1
605,595,61,0.0903140737140067,1
605,596,61,0.0840080462374829,1
607,593,61,0.091154227175859,1
607,594,61,0.0816062891262239,1
608,593,61,0.0979769472898103,1
608,594,61,0.0866322258170728,1
609,593,61,0.0870417471373678,1
609,594,61,0.0787739123134909,1
580,607,62,0.0740598111892769,1
580,608,62,0.0844862554774004,1
580,609,62,0.0905458697850605,1
580,610,62,0.074770034201705,1
581,606,62,0.102308167531993,1
581,607,62,0.128487700711263,1
581,608,62,0.131786350504043,1
581,609,62,0.127887416934489,1
581,610,62,0.0983756581777678,1
581,611,62,0.0741489319456248,1
581,612,62,0.0715804279585859,1
581,613,62,0.0726222476098793,1
582,605,62,0.0808562827275869,1
582,606,62,0.129672680840509,1
582,607,62,0.168919227697164,1
582,608,62,0.156842146083869,1
582,609,62,0.140504199119168,1
582,610,62,0.105290789450085,1
582,611,62,0.0807037610869946,1
582,612,62,0.0804552517641047,1
582,613,62,0.0793069947605902,1
583,605,62,0.0910610758325406,1
583,606,62,0.13106697781039,1
583,607,62,0.160181574469517,1
583,608,62,0.137773041043736,1
583,609,62,0.121189128753169,1
583,610,62,0.0958070982103544,1
583,611,62,0.0773810646133077,1
583,612,62,0.0751872621535687,1
584,605,62,0.10311956574143,1
584,606,62,0.137218748254709,1
584,607,62,0.142317950815813,1
584,608,62,0.114547766392765,1
584,609,62,0.0992083724698413,1
584,610,62,0.087667414903998,1
584,611,62,0.082755211674192,1
584,612,62,0.0827777779851935,1
584,613,62,0.0714075667818925,1
585,604,62,0.0724093418052289,1
585,605,62,0.119061762557985,1
585,606,62,0.160059549692993,1
585,607,62,0.144613506936433,1
585,608,62,0.1135932263655,1
585,609,62,0.100048382870736,1
585,610,62,0.0938283536896667,1
585,611,62,0.0962156181039484,1
585,612,62,0.0980724435888199,1
585,613,62,0.0818464946935496,1
586,600,62,0.0836818921350362,1
586,601,62,0.0896355542537216,1
586,604,62,0.0815627861551256,1
586,605,62,0.140462437759724,1
586,606,62,0.182866538985025,1
586,607,62,0.156713129980563,1
586,608,62,0.127491498845219,1
586,609,62,0.114191756090537,1
586,610,62,0.102123873918799,1
586,611,62,0.100412367266323,1
586,612,62,0.101780956804184,1
586,613,62,0.0863526411662436,1
587,600,62,0.0929617152905915,1
587,601,62,0.09793416584354,1
587,602,62,0.0725529252460116,1
587,604,62,0.0933942943051762,1
587,605,62,0.144885994519772,1
587,606,62,0.174596570686872,1
587,607,62,0.165706725480838,1
587,608,62,0.149452039993278,1
587,609,62,0.128746678364201,1
587,610,62,0.107722004678461,1
587,611,62,0.101043689050787,1
587,612,62,0.0995716477806831,1
587,613,62,0.0850838397561111,1
588,600,62,0.0872630686583317,1
588,601,62,0.090008078766454,1
588,602,62,0.0781837112241845,1
588,603,62,0.0826090095958868,1
588,604,62,0.108038953119309,1
588,605,62,0.152747567325164,1
588,606,62,0.173726548585155,1
588,607,62,0.173508125603586,1
588,608,62,0.15508823118762,1
588,609,62,0.125994484108007,1
588,610,62,0.107666534347284,1
588,611,62,0.103042916168533,1
588,612,62,0.0974597135087617,1
588,613,62,0.0816864032623044,1
589,600,62,0.076392364117459,1
589,601,62,0.0837106660475756,1
589,602,62,0.0868178505191728,1
589,603,62,0.0950401235381749,1
589,604,62,0.108639100055167,1
589,605,62,0.146726081872641,1
589,606,62,0.166806901562621,1
589,607,62,0.158333799145204,1
589,608,62,0.131302704947748,1
589,609,62,0.110111645148642,1
589,610,62,0.104205385967152,1
589,611,62,0.100897399891899,1
589,612,62,0.0915926405894844,1
589,613,62,0.0772983878200794,1
590,602,62,0.0878236063691468,1
590,603,62,0.111316205968912,1
590,604,62,0.110533052968475,1
590,605,62,0.12364211412722,1
590,606,62,0.134788590433408,1
590,607,62,0.123602716383591,1
590,608,62,0.103931268732908,1
590,609,62,0.09584368449517,1
590,610,62,0.0944434038452495,1
590,611,62,0.0870588771319925,1
590,612,62,0.077548346412667,1
591,602,62,0.084487312884476,1
591,603,62,0.12779249909935,1
591,604,62,0.115922607072455,1
591,605,62,0.099302749161359,1
591,606,62,0.0944690926171449,1
591,607,62,0.0875217726294387,1
591,608,62,0.0832672206202788,1
591,609,62,0.0841788859006495,1
591,610,62,0.0808298537707387,1
591,611,62,0.0714860761472347,1
592,602,62,0.0735580093314904,1
592,603,62,0.108067789232264,1
592,604,62,0.0967720816875016,1
592,605,62,0.0794944481549269,1
592,606,62,0.0717332357210928,1
592,609,62,0.07592051798012,1
592,610,62,0.0727087248485382,1
593,603,62,0.0763141844143227,1
596,594,62,0.076219297679392,1
596,595,62,0.076533086339096,1
596,603,62,0.0716984532483473,1
597,593,62,0.100766903418687,1
597,594,62,0.116280072864423,1
597,595,62,0.0973173180959287,1
597,596,62,0.0741947674323311,1
597,597,62,0.0741465621097672,1
597,598,62,0.0720530142808779,1
597,602,62,0.0719045605475058,1
597,603,62,0.0777937457147464,1
597,604,62,0.0774058701392929,1
597,605,62,0.075223674277219,1
598,592,62,0.0763684604975089,1
598,593,62,0.13512355211479,1
598,594,62,0.15683746861257,1
598,595,62,0.120517414018417,1
598,596,62,0.0797051147445937,1
598,602,62,0.0755030847668828,1
598,603,62,0.0811436113302345,1
598,604,62,0.0805578637907289,1
598,605,62,0.0750967792081058,1
599,592,62,0.0831466948737857,1
599,593,62,0.131914147479191,1
599,594,62,0.149875164544598,1
599,595,62,0.118019582144278,1
599,596,62,0.0853797271360293,1
599,597,62,0.0737160481490007,1
599,602,62,0.0747710045281979,1
599,603,62,0.0798004990828541,1
599,604,62,0.0794623714002866,1
600,591,62,0.0850143556711612,1
600,592,62,0.0956732491347088,1
600,593,62,0.108256903377714,1
600,594,62,0.109547151491356,1
600,595,62,0.0987119011877241,1
600,596,62,0.100057768913543,1
600,597,62,0.0985535949084241,1
600,598,62,0.0840542673667697,1
600,599,62,0.0742599845687289,1
600,603,62,0.0733495073163078,1
600,604,62,0.0729229866222621,1
601,591,62,0.102904507802379,1
601,592,62,0.121069243670963,1
601,593,62,0.116125243588389,1
601,594,62,0.0998636600746714,1
601,595,62,0.0890577310472413,1
601,596,62,0.111432159984813,1
601,597,62,0.119589694810622,1
601,598,62,0.0959523983826245,1
601,599,62,0.0804508293145121,1
601,600,62,0.0716561009849489,1
602,591,62,0.0909977433687541,1
602,592,62,0.119265867003742,1
602,593,62,0.135937195759253,1
602,594,62,0.134103216487256,1
602,595,62,0.100770971325907,1
602,596,62,0.0970498687463023,1
602,597,62,0.0979557804881735,1
602,598,62,0.0850309196419983,1
602,599,62,0.0769072840430245,1
603,590,62,0.0730701901272683,1
603,592,62,0.086662890622265,1
603,593,62,0.129822496762996,1
603,594,62,0.17687900251967,1
603,595,62,0.141768721140665,1
603,596,62,0.0962141066338345,1
603,597,62,0.0725895923913683,1
604,590,62,0.0765773481552721,1
604,593,62,0.0892904228042887,1
604,594,62,0.144047122386494,1
604,595,62,0.147358100301766,1
604,596,62,0.111325809713175,1
604,597,62,0.074052372019498,1
605,593,62,0.0724344769934199,1
605,594,62,0.0854546848576058,1
605,595,62,0.0941498614210225,1
605,596,62,0.0895575860320004,1
606,592,62,0.0750038393462025,1
606,593,62,0.089442484161801,1
606,594,62,0.0812372727169658,1
607,592,62,0.0718578542549726,1
607,593,62,0.103951913051048,1
607,594,62,0.0950962905140139,1
608,593,62,0.0969961711269869,1
608,594,62,0.0870177813170016,1
609,593,62,0.0802965847223907,1
579,609,63,0.0754762079670378,1
580,607,63,0.080030914304668,1
580,608,63,0.101225550627706,1
580,609,63,0.122514184219723,1
580,610,63,0.105929537964244,1
580,611,63,0.0766930533695088,1
581,606,63,0.103864216684232,1
581,607,63,0.127334293513286,1
581,608,63,0.147182185084637,1
581,609,63,0.149412219286819,1
581,610,63,0.115016969012415,1
581,611,63,0.0862352441006859,1
581,612,63,0.0785247436661891,1
581,613,63,0.0797055003871742,1
582,605,63,0.0851274298077921,1
582,606,63,0.123765494872817,1
582,607,63,0.153344579360045,1
582,608,63,0.159455309969748,1
582,609,63,0.140220789142742,1
582,610,63,0.102105120493312,1
582,611,63,0.0842639511898604,1
582,612,63,0.0832691985935143,1
582,613,63,0.0833341420480807,1
583,605,63,0.105415289803174,1
583,606,63,0.143435543014136,1
583,607,63,0.145948974752661,1
583,608,63,0.128431521295341,1
583,609,63,0.11126540066895,1
583,610,63,0.0901293135976919,1
583,611,63,0.0830060472926482,1
583,612,63,0.082714657002822,1
583,613,63,0.0757396516098601,1
584,605,63,0.115855082300616,1
584,606,63,0.157913996096109,1
584,607,63,0.141489913995039,1
584,608,63,0.11170314231808,1
584,609,63,0.097803737790786,1
584,610,63,0.0918733261876805,1
584,611,63,0.096971838324165,1
584,612,63,0.100709125452068,1
584,613,63,0.0843804152491749,1
585,605,63,0.1161282789687,1
585,606,63,0.164962422860367,1
585,607,63,0.148520053836931,1
585,608,63,0.116801921916354,1
585,609,63,0.101714632500377,1
585,610,63,0.100169655022224,1
585,611,63,0.111117214397368,1
585,612,63,0.116872220826757,1
585,613,63,0.0965682944638678,1
585,614,63,0.0730040897449603,1
585,616,63,0.0720106246972297,1
586,600,63,0.0752495683104878,1
586,604,63,0.0756871420184943,1
586,605,63,0.13146239829633,1
586,606,63,0.18159937966588,1
586,607,63,0.162694160282382,1
586,608,63,0.130135675858621,1
586,609,63,0.10966230934193,1
586,610,63,0.103713417995168,1
586,611,63,0.112416046168447,1
586,612,63,0.117937378074213,1
586,613,63,0.098760747174575,1
586,614,63,0.0779190857734542,1
586,615,63,0.0714805092099837,1
586,616,63,0.0717826290716064,1
587,600,63,0.0773889702862082,1
587,601,63,0.0737071348293576,1
587,604,63,0.0881868879000302,1
587,605,63,0.135214339842292,1
587,606,63,0.174065105450594,1
587,607,63,0.169884379115435,1
587,608,63,0.14994691894474,1
587,609,63,0.119197347025243,1
587,610,63,0.106646746083413,1
587,611,63,0.1168298747834,1
587,612,63,0.122747846303263,1
587,613,63,0.099055900589582,1
587,614,63,0.0762381444055041,1
588,603,63,0.0789152689793732,1
588,604,63,0.10198241151221,1
588,605,63,0.138156742971262,1
588,606,63,0.171910843795441,1
588,607,63,0.171160047451518,1
588,608,63,0.15089219110999,1
588,609,63,0.116072597156108,1
588,610,63,0.106216244562729,1
588,611,63,0.118594513031404,1
588,612,63,0.121953335506827,1
588,613,63,0.0950642324194984,1
588,614,63,0.0714303259141843,1
589,602,63,0.0719199800306847,1
589,603,63,0.0923582281923823,1
589,604,63,0.10484175220537,1
589,605,63,0.132810368396216,1
589,606,63,0.162915295202097,1
589,607,63,0.14824096056939,1
589,608,63,0.118880348824063,1
589,609,63,0.100100108736858,1
589,610,63,0.104652420358464,1
589,611,63,0.113130691630468,1
589,612,63,0.108772333346692,1
589,613,63,0.0858148377075538,1
590,602,63,0.0763953435173955,1
590,603,63,0.101671602252442,1
590,604,63,0.105107061860679,1
590,605,63,0.110614324032297,1
590,606,63,0.11927299517144,1
590,607,63,0.105032533321974,1
590,608,63,0.0889375971633704,1
590,609,63,0.0893581652775846,1
590,610,63,0.099835968449374,1
590,611,63,0.0969778779845791,1
590,612,63,0.085953109232792,1
590,613,63,0.072242234167035,1
591,602,63,0.0716982479869738,1
591,603,63,0.101394443417845,1
591,604,63,0.101980669900556,1
591,605,63,0.0914243324832576,1
591,606,63,0.0813153839996442,1
591,607,63,0.0747177236516711,1
591,608,63,0.0747057065312591,1
591,609,63,0.0805062561053982,1
591,610,63,0.0853293696790645,1
591,611,63,0.0756501452109317,1
592,603,63,0.0781861868007498,1
592,604,63,0.0796153595440004,1
592,605,63,0.0740418601491583,1
592,610,63,0.0721005416189051,1
596,594,63,0.0778783942611686,1
596,595,63,0.074959633510401,1
597,593,63,0.100900939095581,1
597,594,63,0.119831194146605,1
597,595,63,0.0984380327551447,1
597,596,63,0.0769680973899545,1
597,597,63,0.0714044443209986,1
597,599,63,0.0719599562381838,1
597,602,63,0.0740088628283581,1
597,603,63,0.0792271107660497,1
597,604,63,0.0788297185269159,1
597,605,63,0.071557687486419,1
598,592,63,0.0769470301089837,1
598,593,63,0.126819348707554,1
598,594,63,0.151282237479969,1
598,595,63,0.119467234631185,1
598,596,63,0.0893757368951644,1
598,597,63,0.0786735084016422,1
598,598,63,0.0727474321675466,1
598,602,63,0.0786975426424664,1
598,603,63,0.0836936542337418,1
598,604,63,0.083200821675973,1
598,605,63,0.0739887223335888,1
599,591,63,0.0719878780050212,1
599,592,63,0.0881952227558025,1
599,593,63,0.124596455113153,1
599,594,63,0.1408916081915,1
599,595,63,0.115416071762995,1
599,596,63,0.0949951899575036,1
599,597,63,0.0877897195823947,1
599,598,63,0.0840338905104188,1
599,599,63,0.0775193672387541,1
599,600,63,0.0716621282052798,1
599,601,63,0.0720927790069619,1
599,602,63,0.0763124179225023,1
599,603,63,0.0797509813315081,1
599,604,63,0.0794981615197747,1
600,591,63,0.10091935041878,1
600,592,63,0.110597505039754,1
600,593,63,0.117130340113951,1
600,594,63,0.113879858323486,1
600,595,63,0.0999206169957963,1
600,596,63,0.100338274130532,1
600,597,63,0.104032213788377,1
600,598,63,0.101564878778306,1
600,599,63,0.0904058877483765,1
600,600,63,0.0777275271516476,1
600,601,63,0.0713622413385991,1
600,603,63,0.0715931852639509,1
600,604,63,0.0713593801194534,1
601,590,63,0.0835742045544492,1
601,591,63,0.121865956362133,1
601,592,63,0.136546125393881,1
601,593,63,0.133969261670903,1
601,594,63,0.114081163750513,1
601,595,63,0.0941422605301614,1
601,596,63,0.10372823413431,1
601,597,63,0.11315226273481,1
601,598,63,0.107144822136268,1
601,599,63,0.0951073559680579,1
601,600,63,0.0802363062990401,1
602,590,63,0.0812601251498819,1
602,591,63,0.101335147761071,1
602,592,63,0.126543800863737,1
602,593,63,0.152416673551001,1
602,594,63,0.14481654153503,1
602,595,63,0.106384148366251,1
602,596,63,0.0962231381342684,1
602,597,63,0.0954806331058265,1
602,598,63,0.0904018820415725,1
602,599,63,0.0852751682363777,1
602,600,63,0.0757967951322336,1
603,590,63,0.0813462229660019,1
603,591,63,0.0806751488955373,1
603,592,63,0.0992188532399729,1
603,593,63,0.140917632845643,1
603,594,63,0.169635191808009,1
603,595,63,0.137430291870244,1
603,596,63,0.103549737599908,1
603,597,63,0.0808711672871864,1
603,598,63,0.0725766298246298,1
604,590,63,0.0866684513394744,1
604,591,63,0.0835191696261852,1
604,592,63,0.0878659835127117,1
604,593,63,0.10081157575761,1
604,594,63,0.12942057011352,1
604,595,63,0.133280018858863,1
604,596,63,0.112518801256029,1
604,597,63,0.0807256307533346,1
605,590,63,0.0730272780601239,1
605,591,63,0.0821176760681486,1
605,592,63,0.0914445351784431,1
605,593,63,0.086046646218691,1
605,594,63,0.0842794017732474,1
605,595,63,0.0875034670469477,1
605,596,63,0.0843931601144566,1
606,592,63,0.0846120060588553,1
606,593,63,0.0953769512320435,1
606,594,63,0.0883581629661103,1
606,595,63,0.0742494726983891,1
607,593,63,0.0978469857401779,1
607,594,63,0.101518844250268,1
607,595,63,0.0838135330959063,1
608,593,63,0.0850805182538854,1
608,594,63,0.0841622161891048,1
608,595,63,0.0763485750244461,1
609,593,63,0.0716465407809772,1
579,609,64,0.0837106162872426,1
579,610,64,0.0781276873093028,1
580,606,64,0.0726730715699657,1
580,607,64,0.0814007602909362,1
580,608,64,0.105622566470157,1
580,609,64,0.129767611115731,1
580,610,64,0.116276228878701,1
580,611,64,0.0857980498152183,1
580,612,64,0.0720689624675945,1
581,605,64,0.0718353625844705,1
581,606,64,0.0959245699164114,1
581,607,64,0.114788320282422,1
581,608,64,0.145687297601659,1
581,609,64,0.14794207512941,1
581,610,64,0.11679983198237,1
581,611,64,0.0894936191239685,1
581,612,64,0.081915723756793,1
581,613,64,0.0846797982924842,1
581,614,64,0.0747549754809402,1
582,605,64,0.0832383845073231,1
582,606,64,0.112169570799167,1
582,607,64,0.127214470631496,1
582,608,64,0.148721010941627,1
582,609,64,0.128619976116378,1
582,610,64,0.0969067207084331,1
582,611,64,0.0859978064518817,1
582,612,64,0.0849232445014945,1
582,613,64,0.0863421666161535,1
582,614,64,0.076828090473104,1
583,605,64,0.107048598092389,1
583,606,64,0.145530341071391,1
583,607,64,0.125650192364193,1
583,608,64,0.117236205222343,1
583,609,64,0.100704342240062,1
583,610,64,0.0879154763838912,1
583,611,64,0.0897678980792948,1
583,612,64,0.0905387975977373,1
583,613,64,0.0841788299202749,1
583,614,64,0.0730672356074982,1
583,616,64,0.0714057318696142,1
583,617,64,0.0721233940518212,1
584,605,64,0.111853430963731,1
584,606,64,0.159324042211375,1
584,607,64,0.132300524024614,1
584,608,64,0.107633605446942,1
584,609,64,0.095212350270623,1
584,610,64,0.0970687776728306,1
584,611,64,0.111532837578493,1
584,612,64,0.11700518043645,1
584,613,64,0.100918921235908,1
584,614,64,0.0791274034988626,1
584,615,64,0.0767417936156521,1
584,616,64,0.0807292943578495,1
584,617,64,0.0786379608637773,1
585,605,64,0.104935413592102,1
585,606,64,0.152847461193599,1
585,607,64,0.143840990207169,1
585,608,64,0.115870433363337,1
585,609,64,0.0987451473101892,1
585,610,64,0.104184076104558,1
585,611,64,0.126041930585493,1
585,612,64,0.135658637415291,1
585,613,64,0.115027866525336,1
585,614,64,0.0877861306183793,1
585,615,64,0.0828704379452238,1
585,616,64,0.0835360570391866,1
585,617,64,0.0760714535100988,1
586,605,64,0.117555654119922,1
586,606,64,0.1665181423504,1
586,607,64,0.162486672133983,1
586,608,64,0.12811951156754,1
586,609,64,0.101735276818518,1
586,610,64,0.106531115509675,1
586,611,64,0.135538851853751,1
586,612,64,0.146919823729057,1
586,613,64,0.117660324980323,1
586,614,64,0.0900893684904009,1
586,615,64,0.0791593931729202,1
586,616,64,0.0739974988123162,1
587,604,64,0.0790721259889754,1
587,605,64,0.1192806707028,1
587,606,64,0.162057302660875,1
587,607,64,0.165120038715047,1
587,608,64,0.140765503067673,1
587,609,64,0.10803604213983,1
587,610,64,0.112740869181987,1
587,611,64,0.153789275015708,1
587,612,64,0.166534090537117,1
587,613,64,0.12001733511216,1
587,614,64,0.0850740929508907,1
588,604,64,0.0882599422888706,1
588,605,64,0.11722253357086,1
588,606,64,0.158328275748245,1
588,607,64,0.156660620389197,1
588,608,64,0.134704184468609,1
588,609,64,0.105046130332958,1
588,610,64,0.110966801350885,1
588,611,64,0.145909713849948,1
588,612,64,0.154832487956324,1
588,613,64,0.109950060907408,1
588,614,64,0.0762200129841785,1
589,603,64,0.0825612396762363,1
589,604,64,0.0932346196167196,1
589,605,64,0.110721122146933,1
589,606,64,0.142962794970761,1
589,607,64,0.126306842158138,1
589,608,64,0.100517479749679,1
589,609,64,0.0912705792744243,1
589,610,64,0.109657208907801,1
589,611,64,0.131109386054163,1
589,612,64,0.12667955949216,1
589,613,64,0.0929906820244212,1
590,603,64,0.0843011905790463,1
590,604,64,0.0913438202645134,1
590,605,64,0.092865659187836,1
590,606,64,0.0971059362014754,1
590,607,64,0.0830805509511864,1
590,608,64,0.0731996665136542,1
590,609,64,0.0829296776216237,1
590,610,64,0.105838339713995,1
590,611,64,0.11139938036547,1
590,612,64,0.0946913036040606,1
590,613,64,0.072248783870862,1
591,603,64,0.0749155271952654,1
591,604,64,0.0826354198926102,1
591,605,64,0.0804998992228614,1
591,609,64,0.0761740282164733,1
591,610,64,0.0879047903523861,1
591,611,64,0.0809590067149603,1
596,594,64,0.0845169700429257,1
596,595,64,0.0789452993403201,1
596,599,64,0.0744712731625578,1
597,593,64,0.100598545552127,1
597,594,64,0.123988047962022,1
597,595,64,0.103758898939502,1
597,596,64,0.084361500102605,1
597,597,64,0.0733098732110978,1
597,599,64,0.0775508904096901,1
597,600,64,0.0721671707047509,1
597,602,64,0.0752084600554136,1
597,603,64,0.0791410191699713,1
597,604,64,0.0782450221744442,1
598,592,64,0.0836175955647983,1
598,593,64,0.122816229440846,1
598,594,64,0.150190446014291,1
598,595,64,0.123910546243422,1
598,596,64,0.103716217013898,1
598,597,64,0.0920864372537045,1
598,598,64,0.0819917513255284,1
598,599,64,0.0786019343827076,1
598,600,64,0.0733015694555335,1
598,601,64,0.0750399093675636,1
598,602,64,0.0802690112778842,1
598,603,64,0.0835323001340474,1
598,604,64,0.0819587664448114,1
599,591,64,0.0792911647546643,1
599,592,64,0.101820248807104,1
599,593,64,0.130599305320978,1
599,594,64,0.144801600995056,1
599,595,64,0.120716306069295,1
599,596,64,0.10778419265459,1
599,597,64,0.10454888776568,1
599,598,64,0.102176464370706,1
599,599,64,0.0921247838102989,1
599,600,64,0.0795676331646413,1
599,601,64,0.0762468338036489,1
599,602,64,0.0770852643139722,1
599,603,64,0.07779187970226,1
599,604,64,0.0759389479634434,1
600,590,64,0.0757958932261985,1
600,591,64,0.109716224662702,1
600,592,64,0.129579081654194,1
600,593,64,0.138915973691623,1
600,594,64,0.133227919790244,1
600,595,64,0.112348770198273,1
600,596,64,0.106392732023688,1
600,597,64,0.112124674538746,1
600,598,64,0.120242488178762,1
600,599,64,0.108535387081176,1
600,600,64,0.0874332116768367,1
600,601,64,0.0753851527777457,1
601,590,64,0.091400683885014,1
601,591,64,0.12868585879723,1
601,592,64,0.144729908795331,1
601,593,64,0.150150140144586,1
601,594,64,0.134492105929494,1
601,595,64,0.112129190288963,1
601,596,64,0.107161927250726,1
601,597,64,0.11111641823204,1
601,598,64,0.11778838319722,1
601,599,64,0.108035681377416,1
601,600,64,0.0897104870951316,1
601,601,64,0.0768936932520823,1
602,590,64,0.0931383333724241,1
602,591,64,0.117575371651862,1
602,592,64,0.13884854844045,1
602,593,64,0.163311549173614,1
602,594,64,0.149481299069064,1
602,595,64,0.120495992195074,1
602,596,64,0.109263952996345,1
602,597,64,0.100621603246417,1
602,598,64,0.0973879653286617,1
602,599,64,0.0918428479837369,1
602,600,64,0.0840631558062464,1
602,601,64,0.0798850170084023,1
602,602,64,0.0718786416340705,1
603,589,64,0.0721922188123593,1
603,590,64,0.101008178833172,1
603,591,64,0.12194191551041,1
603,592,64,0.139600091189367,1
603,593,64,0.159208336997138,1
603,594,64,0.151992528912855,1
603,595,64,0.129558941159424,1
603,596,64,0.11517122604462,1
603,597,64,0.0934356886821649,1
603,598,64,0.0811668805059392,1
603,599,64,0.0756318893887736,1
603,600,64,0.0730478228575986,1
603,601,64,0.0757930133469279,1
603,602,64,0.0715825987531117,1
604,589,64,0.0724527203754948,1
604,590,64,0.105808993557626,1
604,591,64,0.130241478766597,1
604,592,64,0.138865529154076,1
604,593,64,0.129565633924209,1
604,594,64,0.119503285992421,1
604,595,64,0.116395255595163,1
604,596,64,0.109922232441195,1
604,597,64,0.0877901736454331,1
604,598,64,0.0763531218748711,1
604,599,64,0.0713442343181059,1
605,590,64,0.0811635776638384,1
605,591,64,0.102231007915682,1
605,592,64,0.114783394009458,1
605,593,64,0.102774807494495,1
605,594,64,0.0895326809853493,1
605,595,64,0.0872112370515026,1
605,596,64,0.0830015502025561,1
605,597,64,0.0727921791469692,1
605,598,64,0.0722310567522418,1
605,599,64,0.0716436422415817,1
606,592,64,0.0847368111939837,1
606,593,64,0.0933076429053519,1
606,594,64,0.0929360327387377,1
606,595,64,0.0836776811668586,1
607,593,64,0.0880472604057186,1
607,594,64,0.102225061555892,1
607,595,64,0.0940666372641314,1
608,593,64,0.0756924103937474,1
608,594,64,0.0801058782462862,1
608,595,64,0.0804714425324446,1
608,596,64,0.074415118626802,1
608,598,64,0.0763905292051808,1
609,596,64,0.0737366675869748,1
609,597,64,0.0822684871972951,1
609,598,64,0.0976056419052356,1
609,599,64,0.079188851290038,1
610,597,64,0.0721915905881556,1
610,598,64,0.0805772392203788,1
579,608,65,0.0745583164250042,1
579,609,65,0.0926305353945148,1
579,610,65,0.0888943989743115,1
579,611,65,0.073593413808398,1
580,607,65,0.0783999198709358,1
580,608,65,0.1050131392322,1
580,609,65,0.128847940641794,1
580,610,65,0.119880854958908,1
580,611,65,0.0931270937572147,1
580,612,65,0.0799048029607992,1
580,613,65,0.0765822619881528,1
581,606,65,0.080430209876538,1
581,607,65,0.0973620090949766,1
581,608,65,0.126744621127518,1
581,609,65,0.134301598494721,1
581,610,65,0.114028442677732,1
581,611,65,0.0921200192584171,1
581,612,65,0.0854216253363894,1
581,613,65,0.0877400090097585,1
581,614,65,0.0818423397057467,1
582,605,65,0.0750855582530213,1
582,606,65,0.0953703455478419,1
582,607,65,0.104365122856025,1
582,608,65,0.123924591097403,1
582,609,65,0.1121059273333,1
582,610,65,0.0928893575464126,1
582,611,65,0.0873885144577471,1
582,612,65,0.0877158068278106,1
582,613,65,0.0905440473128656,1
582,614,65,0.0875167095155591,1
582,615,65,0.0792297791639052,1
582,616,65,0.0761480782028298,1
582,617,65,0.07360316683366,1
583,605,65,0.0946186099776342,1
583,606,65,0.12703534587289,1
583,607,65,0.109625424495117,1
583,608,65,0.105264677715359,1
583,609,65,0.0934361738454114,1
583,610,65,0.0880708841237957,1
583,611,65,0.0949080596144745,1
583,612,65,0.0970838301735538,1
583,613,65,0.0962588971535484,1
583,614,65,0.0906167284992087,1
583,615,65,0.0866148034804919,1
583,616,65,0.0863743428914598,1
583,617,65,0.0845341124776336,1
583,618,65,0.0751884812817265,1
584,605,65,0.0961192572191535,1
584,606,65,0.136016128087425,1
584,607,65,0.11849262874965,1
584,608,65,0.101541758883601,1
584,609,65,0.0918326782156863,1
584,610,65,0.0991989926470766,1
584,611,65,0.118672350632251,1
584,612,65,0.124032658100528,1
584,613,65,0.11622811063672,1
584,614,65,0.100227097106595,1
584,615,65,0.095413015033363,1
584,616,65,0.0950532975863285,1
584,617,65,0.0873151055265343,1
584,618,65,0.0765759486459073,1
585,605,65,0.0915276846948347,1
585,606,65,0.131592633527793,1
585,607,65,0.134339515868444,1
585,608,65,0.110431168686721,1
585,609,65,0.0930062632286822,1
585,610,65,0.105422293570039,1
585,611,65,0.137120434276845,1
585,612,65,0.151381011740913,1
585,613,65,0.136214945497804,1
585,614,65,0.108282281147528,1
585,615,65,0.0965185901112732,1
585,616,65,0.0914478318005023,1
585,617,65,0.0774293943367041,1
586,605,65,0.102240306877906,1
586,606,65,0.146417381206983,1
586,607,65,0.156221112248247,1
586,608,65,0.12223754164858,1
586,609,65,0.095754992921694,1
586,610,65,0.112977790567337,1
586,611,65,0.164131475060114,1
586,612,65,0.186752062144843,1
586,613,65,0.147744352446357,1
586,614,65,0.107316594805678,1
586,615,65,0.0849025690831458,1
586,616,65,0.0747341507815926,1
587,605,65,0.103050237157521,1
587,606,65,0.142789678772361,1
587,607,65,0.151782154665144,1
587,608,65,0.123825568034794,1
587,609,65,0.0982680763378884,1
587,610,65,0.123645846152192,1
587,611,65,0.195508425257687,1
587,612,65,0.217581213276841,1
587,613,65,0.148087176260348,1
587,614,65,0.0946014364427182,1
588,604,65,0.07371067403304,1
588,605,65,0.0985498317832433,1
588,606,65,0.131373787583395,1
588,607,65,0.132655327638767,1
588,608,65,0.111909672580069,1
588,609,65,0.0950786815761844,1
588,610,65,0.120160694631444,1
588,611,65,0.176874884852117,1
588,612,65,0.186894003494638,1
588,613,65,0.125088472845469,1
588,614,65,0.0789530557322217,1
589,604,65,0.0781678376779674,1
589,605,65,0.0908753267296082,1
589,606,65,0.110473079327164,1
589,607,65,0.100009153068232,1
589,608,65,0.0836184352704172,1
589,609,65,0.0844500361750404,1
589,610,65,0.115133768953977,1
589,611,65,0.151743453566178,1
589,612,65,0.14099692593623,1
589,613,65,0.0971532022977545,1
590,604,65,0.0730519218650269,1
590,605,65,0.0768955406044438,1
590,606,65,0.0774810206821597,1
590,609,65,0.0774666586060564,1
590,610,65,0.107079710740578,1
590,611,65,0.125206977078436,1
590,612,65,0.100233858291838,1
591,610,65,0.0850053179506856,1
591,611,65,0.0839627767745642,1
596,594,65,0.0800804196159308,1
596,595,65,0.0753205203252603,1
596,599,65,0.0733409174388289,1
596,600,65,0.0713684365000538,1
597,592,65,0.0756992710996555,1
597,593,65,0.0933651596302227,1
597,594,65,0.108000650103006,1
597,595,65,0.0957657909139483,1
597,596,65,0.0849594202635631,1
597,597,65,0.0749515163560854,1
597,599,65,0.0769934875998521,1
597,600,65,0.0761531848570008,1
597,601,65,0.0745384433920246,1
597,602,65,0.0779384860832706,1
597,603,65,0.0784943898630779,1
597,604,65,0.0743631315189325,1
598,591,65,0.0755377739390039,1
598,592,65,0.0950998172776131,1
598,593,65,0.119629453316665,1
598,594,65,0.132444231866229,1
598,595,65,0.112711510585535,1
598,596,65,0.104165882482816,1
598,597,65,0.0971389957226918,1
598,598,65,0.0879364876844874,1
598,599,65,0.083881623891533,1
598,600,65,0.0793386609924835,1
598,601,65,0.0803295882632326,1
598,602,65,0.0831063703439558,1
598,603,65,0.0824661601200154,1
598,604,65,0.0779276507707665,1
599,591,65,0.0874633042381999,1
599,592,65,0.117384938857588,1
599,593,65,0.139862676466446,1
599,594,65,0.141103189127285,1
599,595,65,0.114100893722535,1
599,596,65,0.104764947131432,1
599,597,65,0.104589529517633,1
599,598,65,0.105978153809555,1
599,599,65,0.101178632853758,1
599,600,65,0.0861406870279612,1
599,601,65,0.0802487712624489,1
599,602,65,0.0776412862745703,1
599,603,65,0.0747197389451564,1
600,590,65,0.0785984449393582,1
600,591,65,0.107460738050206,1
600,592,65,0.134310953437319,1
600,593,65,0.150607226123158,1
600,594,65,0.145096057765402,1
600,595,65,0.117492732178883,1
600,596,65,0.10305245771238,1
600,597,65,0.103796038808022,1
600,598,65,0.115648290796879,1
600,599,65,0.114130476240485,1
600,600,65,0.091266890789743,1
600,601,65,0.0770166945751406,1
601,590,65,0.0917628644685305,1
601,591,65,0.121436213686527,1
601,592,65,0.134507643593463,1
601,593,65,0.145503084849007,1
601,594,65,0.140679119129638,1
601,595,65,0.122769653769187,1
601,596,65,0.109701309002895,1
601,597,65,0.103391219839193,1
601,598,65,0.110226678598384,1
601,599,65,0.1076985178013,1
601,600,65,0.0907294107732175,1
601,601,65,0.0802709146106202,1
601,602,65,0.0721251729837249,1
602,590,65,0.100918722194576,1
602,591,65,0.138998998807182,1
602,592,65,0.148524905469395,1
602,593,65,0.15266064846355,1
602,594,65,0.134874464328029,1
602,595,65,0.120052702268818,1
602,596,65,0.11498314442608,1
602,597,65,0.101764243552348,1
602,598,65,0.0964036375220726,1
602,599,65,0.0910720915262517,1
602,600,65,0.0839310856625044,1
602,601,65,0.0830955474715349,1
602,602,65,0.0751056614275408,1
603,590,65,0.116389483396539,1
603,591,65,0.178855557585707,1
603,592,65,0.188690612756575,1
603,593,65,0.167529608198583,1
603,594,65,0.127284321698902,1
603,595,65,0.108772507507858,1
603,596,65,0.108895266249293,1
603,597,65,0.0953395376816923,1
603,598,65,0.0848405055078499,1
603,599,65,0.0780152165167091,1
603,600,65,0.0730826488706354,1
603,601,65,0.0746897459044592,1
604,590,65,0.109429617584883,1
604,591,65,0.170463116668034,1
604,592,65,0.184364747970229,1
604,593,65,0.152908268320488,1
604,594,65,0.115583788965268,1
604,595,65,0.10405209926144,1
604,596,65,0.0985203612260423,1
604,597,65,0.0845797862432577,1
604,598,65,0.076454589413837,1
604,599,65,0.0720192518949583,1
605,590,65,0.0744831969823456,1
605,591,65,0.103611297351832,1
605,592,65,0.120168643844636,1
605,593,65,0.113487796660021,1
605,594,65,0.104559853699058,1
605,595,65,0.10348149130324,1
605,596,65,0.0874660534965964,1
605,597,65,0.0719256091683518,1
606,592,65,0.0764735792009064,1
606,593,65,0.0895389632273867,1
606,594,65,0.101125918001018,1
606,595,65,0.100025493117571,1
606,596,65,0.0778436117884232,1
607,593,65,0.0813223131260102,1
607,594,65,0.0980691967270936,1
607,595,65,0.0964181053388834,1
607,596,65,0.0780569716561119,1
608,594,65,0.0753858432023656,1
608,595,65,0.0789883980087131,1
608,596,65,0.0815318601081852,1
608,597,65,0.0876477222522254,1
608,598,65,0.0973520134880914,1
608,599,65,0.0751365190540234,1
609,596,65,0.076670064095677,1
609,597,65,0.0983511636538637,1
609,598,65,0.119477410619277,1
609,599,65,0.0869968819771545,1
610,597,65,0.0750105694312366,1
610,598,65,0.0868894991786069,1
579,608,66,0.0723938041412592,1
579,609,66,0.0885313538050096,1
579,610,66,0.0875213123463587,1
579,611,66,0.0757823957358806,1
580,608,66,0.0895119682467509,1
580,609,66,0.109073184319824,1
580,610,66,0.105356560170187,1
580,611,66,0.0880784414743654,1
580,612,66,0.0772836214412708,1
580,613,66,0.0754037631422762,1
580,614,66,0.0733494824361413,1
581,607,66,0.0758046386047179,1
581,608,66,0.0948468357447975,1
581,609,66,0.106545011082657,1
581,610,66,0.0999093898206701,1
581,611,66,0.0871425429118386,1
581,612,66,0.0822860774749997,1
581,613,66,0.086914864508338,1
581,614,66,0.0885868676764784,1
581,615,66,0.0824183031197822,1
581,616,66,0.073934209888821,1
582,606,66,0.0736732791428136,1
582,607,66,0.0842211448634236,1
582,608,66,0.0942476840155984,1
582,609,66,0.0922561386492544,1
582,610,66,0.086839962767136,1
582,611,66,0.0848823539478771,1
582,612,66,0.0865293401086173,1
582,613,66,0.0967830351807965,1
582,614,66,0.104783793857544,1
582,615,66,0.0990477585550999,1
582,616,66,0.0884823647572014,1
582,617,66,0.0803737381186595,1
583,606,66,0.0912116941403969,1
583,607,66,0.0918138812499072,1
583,608,66,0.0911025386299873,1
583,609,66,0.0864508120831502,1
583,610,66,0.0878642854413491,1
583,611,66,0.0945876777106522,1
583,612,66,0.0979174712518288,1
583,613,66,0.111451728235753,1
583,614,66,0.120487296576888,1
583,615,66,0.109843225472523,1
583,616,66,0.0954412602423646,1
583,617,66,0.0868381713951491,1
583,618,66,0.077885087025953,1
584,605,66,0.0726098013065954,1
584,606,66,0.0979386940338402,1
584,607,66,0.0986982170961576,1
584,608,66,0.0914630335822244,1
584,609,66,0.0861639624237075,1
584,610,66,0.0961625238286703,1
584,611,66,0.11461631125143,1
584,612,66,0.120969847405857,1
584,613,66,0.130898103680375,1
584,614,66,0.130246952403223,1
584,615,66,0.114143090484893,1
584,616,66,0.0987112854036036,1
584,617,66,0.0852086884315308,1
584,618,66,0.0749866471511617,1
585,605,66,0.074957220134252,1
585,606,66,0.104377482078726,1
585,607,66,0.114827643385551,1
585,608,66,0.0993870556054921,1
585,609,66,0.086838911580102,1
585,610,66,0.103401402047326,1
585,611,66,0.140156424152046,1
585,612,66,0.159288961176632,1
585,613,66,0.156847992922993,1
585,614,66,0.131578016429984,1
585,615,66,0.106743330889706,1
585,616,66,0.0906052463023761,1
585,617,66,0.072811654097285,1
586,605,66,0.0858142094833501,1
586,606,66,0.123015768376053,1
586,607,66,0.135382330726396,1
586,608,66,0.108545973592015,1
586,609,66,0.089522424136716,1
586,610,66,0.115027816765003,1
586,611,66,0.178582995361869,1
586,612,66,0.209699624377513,1
586,613,66,0.17570467110168,1
586,614,66,0.121977655869565,1
586,615,66,0.0870393773015102,1
586,616,66,0.0717958217798848,1
587,605,66,0.0863922006309541,1
587,606,66,0.118254985839472,1
587,607,66,0.126939830913756,1
587,608,66,0.103889569573879,1
587,609,66,0.0907128094821307,1
587,610,66,0.129184096571167,1
587,611,66,0.214246101600078,1
587,612,66,0.235518245861758,1
587,613,66,0.169228152284321,1
587,614,66,0.101812318254037,1
588,605,66,0.08125720173032,1
588,606,66,0.100468136159498,1
588,607,66,0.103839709720244,1
588,608,66,0.0907568784770165,1
588,609,66,0.0867899287523355,1
588,610,66,0.125380317198334,1
588,611,66,0.195289915195536,1
588,612,66,0.192315789854299,1
588,613,66,0.13122904721487,1
588,614,66,0.079000384028917,1
589,605,66,0.0740086948872343,1
589,606,66,0.0807032323834568,1
589,607,66,0.0776458642252034,1
589,608,66,0.0719622203333339,1
589,609,66,0.0780817647420139,1
589,610,66,0.11302514996424,1
589,611,66,0.160872695734126,1
589,612,66,0.137974595272428,1
589,613,66,0.0939819576175011,1
590,610,66,0.0983980254474375,1
590,611,66,0.124894681228721,1
590,612,66,0.0951633301226067,1
591,610,66,0.076082270162478,1
591,611,66,0.0807531855377163,1
597,593,66,0.0754912044873864,1
597,594,66,0.0799118502679559,1
597,595,66,0.0790182044481617,1
597,596,66,0.0786432727793218,1
597,597,66,0.073541582201569,1
597,599,66,0.0725382272876608,1
597,600,66,0.0742171098218343,1
597,601,66,0.0734775717532457,1
597,602,66,0.0747518779002129,1
597,603,66,0.0737357905611062,1
598,591,66,0.0739884548717991,1
598,592,66,0.0909024585511596,1
598,593,66,0.101390282210001,1
598,594,66,0.0977099955435137,1
598,595,66,0.0897216956101329,1
598,596,66,0.0929829318525612,1
598,597,66,0.092677932111668,1
598,598,66,0.0882484165517466,1
598,599,66,0.0854272171538068,1
598,600,66,0.0808659984325992,1
598,601,66,0.0794120512635714,1
598,602,66,0.0790217747520522,1
598,603,66,0.0761086120387436,1
599,591,66,0.0834197982412457,1
599,592,66,0.111335401017354,1
599,593,66,0.127125349875148,1
599,594,66,0.116816240452166,1
599,595,66,0.0963155368525506,1
599,596,66,0.0930642402366329,1
599,597,66,0.0956181271258621,1
599,598,66,0.100831318169716,1
599,599,66,0.102903680536843,1
599,600,66,0.0887795396857353,1
599,601,66,0.079539842018678,1
599,602,66,0.0747608658603554,1
600,590,66,0.0714865364303146,1
600,591,66,0.0916910043276813,1
600,592,66,0.116155224189003,1
600,593,66,0.135003828753666,1
600,594,66,0.131160042073125,1
600,595,66,0.107534893386414,1
600,596,66,0.0918948039913983,1
600,597,66,0.0906424608113954,1
600,598,66,0.102941523270066,1
600,599,66,0.110468501376531,1
600,600,66,0.0912300868034706,1
600,601,66,0.0773579571586852,1
600,602,66,0.0720521372550093,1
601,590,66,0.0823324852055352,1
601,591,66,0.104762428014576,1
601,592,66,0.113615630955419,1
601,593,66,0.123211637486703,1
601,594,66,0.125702254112562,1
601,595,66,0.11524274408318,1
601,596,66,0.101817263187126,1
601,597,66,0.0938778838810959,1
601,598,66,0.0998682318052629,1
601,599,66,0.101543438294838,1
601,600,66,0.0882942395983697,1
601,601,66,0.0816127641895515,1
601,602,66,0.0776825375906018,1
602,590,66,0.0970429893802693,1
602,591,66,0.147253665802947,1
602,592,66,0.146750962039126,1
602,593,66,0.129742258226083,1
602,594,66,0.11203253084217,1
602,595,66,0.105866454302122,1
602,596,66,0.10653140163159,1
602,597,66,0.0992965664399876,1
602,598,66,0.0960818685489688,1
602,599,66,0.0888765039145674,1
602,600,66,0.0806339473398388,1
602,601,66,0.0800668537051551,1
602,602,66,0.0749900184137203,1
603,590,66,0.113683790171504,1
603,591,66,0.205808627581068,1
603,592,66,0.208794409280303,1
603,593,66,0.157922641953963,1
603,594,66,0.109507828388227,1
603,595,66,0.092843889042162,1
603,596,66,0.0959495869238117,1
603,597,66,0.0925829831763211,1
603,598,66,0.0884520420542983,1
603,599,66,0.0798186056240132,1
604,590,66,0.0948387807908981,1
604,591,66,0.171507299935143,1
604,592,66,0.191330983104505,1
604,593,66,0.157511347921806,1
604,594,66,0.122956777501318,1
604,595,66,0.108654612838971,1
604,596,66,0.0925268224205237,1
604,597,66,0.0794478227229347,1
604,598,66,0.0749118946909587,1
605,591,66,0.0938550438882631,1
605,592,66,0.115301610557083,1
605,593,66,0.123964075921614,1
605,594,66,0.133642609965126,1
605,595,66,0.134419256802027,1
605,596,66,0.098395587191122,1
605,597,66,0.0720478827465404,1
606,592,66,0.0776000411785804,1
606,593,66,0.0952641258970774,1
606,594,66,0.114420218219282,1
606,595,66,0.11693323943506,1
606,596,66,0.0897147416036005,1
606,597,66,0.0715549320079808,1
607,592,66,0.0749659406326049,1
607,593,66,0.0813330924581396,1
607,594,66,0.0908872878696456,1
607,595,66,0.0930437949598242,1
607,596,66,0.0866583126716319,1
607,597,66,0.0864155444471583,1
607,598,66,0.0816894510826987,1
608,591,66,0.0734726268201568,1
608,592,66,0.0740537777489044,1
608,595,66,0.0748363585055114,1
608,596,66,0.0866847167483137,1
608,597,66,0.106525268670552,1
608,598,66,0.110190776518147,1
608,599,66,0.0792356944234869,1
609,596,66,0.0763297904987502,1
609,597,66,0.103420684176352,1
609,598,66,0.11718420567439,1
609,599,66,0.0830361709542194,1
610,597,66,0.074239278050172,1
610,598,66,0.0826419820365205,1
579,609,67,0.080660065294606,1
579,610,67,0.0815692363382867,1
579,611,67,0.0727662166932425,1
580,608,67,0.0727044143596947,1
580,609,67,0.0863309829813187,1
580,610,67,0.0868951967367319,1
580,611,67,0.0769165892252898,1
580,613,67,0.0722924423430009,1
580,614,67,0.0800071786258417,1
580,615,67,0.0819487397377181,1
580,616,67,0.0729808143492139,1
581,608,67,0.0713905798482251,1
581,609,67,0.081604678135444,1
581,610,67,0.0835609061054631,1
581,611,67,0.0770607075896519,1
581,612,67,0.0747480152543662,1
581,613,67,0.0821838386508728,1
581,614,67,0.0959274808958901,1
581,615,67,0.103895117851005,1
581,616,67,0.0960322699370817,1
581,617,67,0.081254968735378,1
582,608,67,0.0742179930677445,1
582,609,67,0.0777363844909161,1
582,610,67,0.0801819991156459,1
582,611,67,0.0777956428274408,1
582,612,67,0.0798691061419354,1
582,613,67,0.0980192062525844,1
582,614,67,0.124577384465543,1
582,615,67,0.130377623037601,1
582,616,67,0.114218352988509,1
582,617,67,0.0972491028994695,1
582,618,67,0.0795615748441023,1
583,607,67,0.0746422061263487,1
583,608,67,0.0780965186807392,1
583,609,67,0.0785160915882941,1
583,610,67,0.0828678130876597,1
583,611,67,0.0848103196458625,1
583,612,67,0.089507402736201,1
583,613,67,0.120904151326254,1
583,614,67,0.158132531038427,1
583,615,67,0.145967075073778,1
583,616,67,0.11691321090104,1
583,617,67,0.0983162194600361,1
583,618,67,0.0837547226023782,1
584,607,67,0.0812015883381852,1
584,608,67,0.0818135346929991,1
584,609,67,0.0797771925868996,1
584,610,67,0.0888382941988887,1
584,611,67,0.101862277628339,1
584,612,67,0.112832216713235,1
584,613,67,0.149115772103155,1
584,614,67,0.177409634270371,1
584,615,67,0.143225529528839,1
584,616,67,0.110746027193584,1
584,617,67,0.0898307764800431,1
584,618,67,0.0761163995308533,1
585,606,67,0.083096088615156,1
585,607,67,0.0954697542530311,1
585,608,67,0.0880652487660869,1
585,609,67,0.0813768877711942,1
585,610,67,0.0991271138461026,1
585,611,67,0.134890586675911,1
585,612,67,0.162839584855484,1
585,613,67,0.188790904707674,1
585,614,67,0.176593738970841,1
585,615,67,0.125788140447266,1
585,616,67,0.0968408629077483,1
585,617,67,0.0731761858565343,1
586,605,67,0.0716673717003664,1
586,606,67,0.101863042693458,1
586,607,67,0.111737016664749,1
586,608,67,0.0944593022716332,1
586,609,67,0.0852100692807707,1
586,610,67,0.114592476051938,1
586,611,67,0.17758286242952,1
586,612,67,0.21883726360165,1
586,613,67,0.211932743720339,1
586,614,67,0.147493100085112,1
586,615,67,0.0921649279589218,1
586,616,67,0.0732605234008755,1
587,606,67,0.0948938281592453,1
587,607,67,0.101517942344233,1
587,608,67,0.0878916163042325,1
587,609,67,0.0855347119131036,1
587,610,67,0.129281626823787,1
587,611,67,0.213712048826486,1
587,612,67,0.241438655637936,1
587,613,67,0.200542367142102,1
587,614,67,0.114140204385581,1
588,606,67,0.0761937955087453,1
588,607,67,0.0807253259712952,1
588,608,67,0.0767495002472207,1
588,609,67,0.0812017189590593,1
588,610,67,0.125737621269219,1
588,611,67,0.202025312145168,1
588,612,67,0.197012916484928,1
588,613,67,0.144978125776265,1
588,614,67,0.0808024482673559,1
589,609,67,0.0728033503417208,1
589,610,67,0.104935326511519,1
589,611,67,0.153449635863026,1
589,612,67,0.129687472099484,1
589,613,67,0.090372616745745,1
590,610,67,0.0866814823266707,1
590,611,67,0.111053085768254,1
590,612,67,0.0851189581111041,1
591,611,67,0.0747050036665559,1
597,593,67,0.0713476615610391,1
597,595,67,0.0716327571687447,1
597,596,67,0.072128027982829,1
598,592,67,0.0863781433368903,1
598,593,67,0.0936110067752988,1
598,594,67,0.0846618223721991,1
598,595,67,0.0797042750389748,1
598,596,67,0.0829975693759186,1
598,597,67,0.083958609346678,1
598,598,67,0.0851770035395127,1
598,599,67,0.0843306922364554,1
598,600,67,0.0794472255989391,1
598,601,67,0.0761125866453395,1
598,602,67,0.0727776615698254,1
599,591,67,0.0772159473884326,1
599,592,67,0.0991874295897029,1
599,593,67,0.113747794399786,1
599,594,67,0.102870011451548,1
599,595,67,0.0885403106649441,1
599,596,67,0.0857576879651387,1
599,597,67,0.0862498985187454,1
599,598,67,0.0927913234704216,1
599,599,67,0.099046197324653,1
599,600,67,0.0885238462147729,1
599,601,67,0.0801607825536761,1
599,602,67,0.0750495753122429,1
600,591,67,0.0805500327583279,1
600,592,67,0.0984583100908297,1
600,593,67,0.116802929563097,1
600,594,67,0.117237648271999,1
600,595,67,0.101263505321678,1
600,596,67,0.0878078447836788,1
600,597,67,0.0834980961251727,1
600,598,67,0.0917323551643787,1
600,599,67,0.103288495851819,1
600,600,67,0.091824243839248,1
600,601,67,0.0831089516612285,1
600,602,67,0.0815410595497429,1
601,590,67,0.079069358070454,1
601,591,67,0.0991277856105976,1
601,592,67,0.104809096986859,1
601,593,67,0.109863639649124,1
601,594,67,0.114669952890371,1
601,595,67,0.107920088123929,1
601,596,67,0.097355813933522,1
601,597,67,0.0915440745045064,1
601,598,67,0.094423661433144,1
601,599,67,0.0981702599633541,1
601,600,67,0.0898511222361859,1
601,601,67,0.0857895594584055,1
601,602,67,0.0866535481197501,1
602,590,67,0.098082408095497,1
602,591,67,0.152740663078964,1
602,592,67,0.149660635309085,1
602,593,67,0.11967329217001,1
602,594,67,0.103680227853078,1
602,595,67,0.0973458121065952,1
602,596,67,0.09862613303381,1
602,597,67,0.098636016679946,1
602,598,67,0.0978291093405587,1
602,599,67,0.0919263769226673,1
602,600,67,0.083780305633566,1
602,601,67,0.079257004286081,1
602,602,67,0.0745069202210886,1
603,590,67,0.107595824914135,1
603,591,67,0.199478540983553,1
603,592,67,0.204506673349095,1
603,593,67,0.148746003068861,1
603,594,67,0.111246367341589,1
603,595,67,0.0942019293894331,1
603,596,67,0.091142570817861,1
603,597,67,0.0904546031143534,1
603,598,67,0.0896183558386391,1
603,599,67,0.0831955470806782,1
603,600,67,0.0756693526994578,1
604,590,67,0.0823468286215135,1
604,591,67,0.147361334723409,1
604,592,67,0.173660404662555,1
604,593,67,0.160123628561774,1
604,594,67,0.149619396433137,1
604,595,67,0.13096085146025,1
604,596,67,0.0970208024918067,1
604,597,67,0.0787832796961723,1
604,598,67,0.073838178666232,1
605,591,67,0.0875064713270507,1
605,592,67,0.11398588515296,1
605,593,67,0.143328869300333,1
605,594,67,0.173060481648195,1
605,595,67,0.166335347767238,1
605,596,67,0.109811465940006,1
605,597,67,0.0774326971788049,1
606,591,67,0.0729240813495874,1
606,592,67,0.0880337255951509,1
606,593,67,0.108946034229005,1
606,594,67,0.127254788941285,1
606,595,67,0.126725936122488,1
606,596,67,0.0995174090177467,1
606,597,67,0.0873911144351448,1
606,598,67,0.0775743461866434,1
607,591,67,0.0782470561280544,1
607,592,67,0.0830126654169331,1
607,593,67,0.0829804082810858,1
607,594,67,0.0837488446630463,1
607,595,67,0.0881369907261453,1
607,596,67,0.0955871015582558,1
607,597,67,0.109181014961369,1
607,598,67,0.0978813328100099,1
607,599,67,0.0761101359489408,1
608,591,67,0.0737631276440312,1
608,592,67,0.0753053123234966,1
608,596,67,0.088373681969955,1
608,597,67,0.114738846071367,1
608,598,67,0.110138515728446,1
608,599,67,0.0793445202716906,1
609,596,67,0.0733780324271824,1
609,597,67,0.0946797840869782,1
609,598,67,0.0990594646734309,1
609,599,67,0.074648538128719,1
610,598,67,0.0739890395557115,1
579,614,68,0.0744475312636899,1
579,615,68,0.0769111155886631,1
580,610,68,0.0713989333641223,1
580,614,68,0.0824093151596396,1
580,615,68,0.0917182107897322,1
580,616,68,0.0800963864627723,1
581,610,68,0.073541762582776,1
581,613,68,0.0799879089368994,1
581,614,68,0.10233835339398,1
581,615,68,0.117722264154787,1
581,616,68,0.103913945916993,1
581,617,68,0.0849100704533409,1
582,610,68,0.0772502820181814,1
582,611,68,0.073693631118998,1
582,612,68,0.07724636339196,1
582,613,68,0.0994340853401897,1
582,614,68,0.138200818186189,1
582,615,68,0.150412526380333,1
582,616,68,0.124809392018012,1
582,617,68,0.101774089878234,1
582,618,68,0.080980092656056,1
583,610,68,0.0790978645212038,1
583,611,68,0.0780009042009389,1
583,612,68,0.0882568944684763,1
583,613,68,0.126340181581227,1
583,614,68,0.17862704569663,1
583,615,68,0.165798719896415,1
583,616,68,0.128874500219516,1
583,617,68,0.104355848773967,1
583,618,68,0.0840756083295719,1
584,610,68,0.0818458229290545,1
584,611,68,0.0924764587435172,1
584,612,68,0.116460503831769,1
584,613,68,0.172390919047844,1
584,614,68,0.216507559452531,1
584,615,68,0.160478842698675,1
584,616,68,0.118770428248534,1
584,617,68,0.0964361434595848,1
584,618,68,0.076646191575935,1
585,607,68,0.0774524458109521,1
585,608,68,0.0743074248261734,1
585,609,68,0.0741504869560301,1
585,610,68,0.0939500363639013,1
585,611,68,0.127243232103952,1
585,612,68,0.170336576141293,1
585,613,68,0.229585968246166,1
585,614,68,0.232721963950552,1
585,615,68,0.146645644294396,1
585,616,68,0.104258785024469,1
585,617,68,0.0802556133082322,1
586,606,68,0.0805898845649946,1
586,607,68,0.0866966778883511,1
586,608,68,0.0776007005029923,1
586,609,68,0.0782454886775658,1
586,610,68,0.109567814469622,1
586,611,68,0.166173887926836,1
586,612,68,0.218410469225773,1
586,613,68,0.24576170896547,1
586,614,68,0.186308909059503,1
586,615,68,0.106378624969291,1
586,616,68,0.0780345981664006,1
587,606,68,0.073593283187524,1
587,607,68,0.0779114351222602,1
587,608,68,0.0727554995615293,1
587,609,68,0.0793531910097105,1
587,610,68,0.12297243956612,1
587,611,68,0.200757468621445,1
587,612,68,0.240759675894571,1
587,613,68,0.226790955223451,1
587,614,68,0.13307773066526,1
588,609,68,0.0742783834518442,1
588,610,68,0.117758601637937,1
588,611,68,0.189994420560951,1
588,612,68,0.194900963552882,1
588,613,68,0.152859142431764,1
588,614,68,0.0836109152400972,1
589,610,68,0.0936661972046032,1
589,611,68,0.133593471636319,1
589,612,68,0.118510617110018,1
589,613,68,0.0853294629796888,1
590,610,68,0.0739629029408194,1
590,611,68,0.0916519486863421,1
590,612,68,0.0762899511321667,1
598,592,68,0.0791674108065699,1
598,593,68,0.0829737279563847,1
598,594,68,0.0762672044399582,1
598,595,68,0.0729075298188335,1
598,596,68,0.0748588999363464,1
598,597,68,0.0784632709948473,1
598,598,68,0.0847375575989782,1
598,599,68,0.0860601374889672,1
598,600,68,0.0809402470694309,1
598,601,68,0.075429576315004,1
599,591,68,0.0715826609535279,1
599,592,68,0.0862974445168974,1
599,593,68,0.0964993204223308,1
599,594,68,0.0914642402702989,1
599,595,68,0.0830158562982847,1
599,596,68,0.0797473923674927,1
599,597,68,0.080812953917654,1
599,598,68,0.0903147890187931,1
599,599,68,0.0974787717162889,1
599,600,68,0.093782033039714,1
599,601,68,0.0884066108702974,1
599,602,68,0.0780280235824071,1
600,591,68,0.0731482827498218,1
600,592,68,0.0855928506421365,1
600,593,68,0.0990817946228508,1
600,594,68,0.10357334265786,1
600,595,68,0.0950688476903813,1
600,596,68,0.0846410474331844,1
600,597,68,0.0809543168035779,1
600,598,68,0.0893669479763537,1
600,599,68,0.0999568362981562,1
600,600,68,0.0984003268628373,1
600,601,68,0.09493305796175,1
600,602,68,0.0886890505202307,1
601,590,68,0.0749048473838019,1
601,591,68,0.094159539805785,1
601,592,68,0.0994092735941629,1
601,593,68,0.0992980094896437,1
601,594,68,0.103475016239913,1
601,595,68,0.098728091956064,1
601,596,68,0.0904408070620377,1
601,597,68,0.0885622052114506,1
601,598,68,0.0941573814513424,1
601,599,68,0.0986982544164073,1
601,600,68,0.0945861227002469,1
601,601,68,0.0903783080838283,1
601,602,68,0.0882911917779753,1
602,590,68,0.094738351998883,1
602,591,68,0.142525911687375,1
602,592,68,0.144612760531438,1
602,593,68,0.112668853540097,1
602,594,68,0.0974256587808859,1
602,595,68,0.0904376099606444,1
602,596,68,0.0897365055292329,1
602,597,68,0.0942763521874302,1
602,598,68,0.0994221304201938,1
602,599,68,0.0980434830750318,1
602,600,68,0.0890755576865276,1
602,601,68,0.0783658962432681,1
603,590,68,0.0972223069601655,1
603,591,68,0.166812512040163,1
603,592,68,0.179765151592218,1
603,593,68,0.139757122360135,1
603,594,68,0.115501746616285,1
603,595,68,0.0978381035207429,1
603,596,68,0.0888534213401113,1
603,597,68,0.0880123162118909,1
603,598,68,0.090076101141623,1
603,599,68,0.0889420133929214,1
603,600,68,0.0821362739925959,1
603,601,68,0.0720221442143121,1
604,590,68,0.0755403801364432,1
604,591,68,0.121234883379334,1
604,592,68,0.150289294915735,1
604,593,68,0.161166791742058,1
604,594,68,0.171730101826013,1
604,595,68,0.143228552469067,1
604,596,68,0.101561072112834,1
604,597,68,0.0828594595717625,1
604,598,68,0.0768531074805043,1
604,599,68,0.0749429078184817,1
605,591,68,0.0854921419482484,1
605,592,68,0.111597277209688,1
605,593,68,0.154867668511734,1
605,594,68,0.196007807519283,1
605,595,68,0.175566822539272,1
605,596,68,0.119866001499517,1
605,597,68,0.0932263469613634,1
605,598,68,0.079655099389918,1
605,599,68,0.0720008654519261,1
606,591,68,0.0817131432212337,1
606,592,68,0.0944188657810541,1
606,593,68,0.114036678012838,1
606,594,68,0.131510715579643,1
606,595,68,0.128933155212003,1
606,596,68,0.115757925250494,1
606,597,68,0.113964351368868,1
606,598,68,0.0965045639174175,1
606,599,68,0.0770874413285396,1
607,591,68,0.0828488419607152,1
607,592,68,0.0865158426182994,1
607,593,68,0.0825721682893647,1
607,594,68,0.0794816162090624,1
607,595,68,0.0872731202455915,1
607,596,68,0.106987741205167,1
607,597,68,0.129743751036072,1
607,598,68,0.11300926397794,1
607,599,68,0.0824363847807749,1
608,591,68,0.0720854517979322,1
608,592,68,0.074017975189333,1
608,596,68,0.0864987934842158,1
608,597,68,0.111295878872894,1
608,598,68,0.104667112096773,1
608,599,68,0.0786479564706625,1
609,597,68,0.0817072963821098,1
609,598,68,0.0823180920292238,1
579,614,69,0.0763651265552,1
579,615,69,0.0869143420248418,1
579,616,69,0.0725992956562973,1
580,614,69,0.0870592378944065,1
580,615,69,0.105328694383724,1
580,616,69,0.0913163463406728,1
581,613,69,0.0801847110537927,1
581,614,69,0.112686879220715,1
581,615,69,0.131886182172062,1
581,616,69,0.110952321093991,1
581,617,69,0.0872952262735131,1
582,610,69,0.0747202738687358,1
582,611,69,0.0719990491997728,1
582,612,69,0.0785165643114573,1
582,613,69,0.0996562838870221,1
582,614,69,0.143956247578409,1
582,615,69,0.161241880084508,1
582,616,69,0.129785188953352,1
582,617,69,0.103594173577249,1
582,618,69,0.0797898628116819,1
583,610,69,0.074156744317901,1
583,611,69,0.0745267186135688,1
583,612,69,0.0917904316929954,1
583,613,69,0.125855764739772,1
583,614,69,0.174130403447533,1
583,615,69,0.168881347643692,1
583,616,69,0.133464343572264,1
583,617,69,0.108011199293595,1
583,618,69,0.0804508355345537,1
584,610,69,0.0771927652933106,1
584,611,69,0.0882179632279695,1
584,612,69,0.119244395420065,1
584,613,69,0.177627049605197,1
584,614,69,0.218586819845816,1
584,615,69,0.158818750910239,1
584,616,69,0.11901324623334,1
584,617,69,0.10154029717382,1
584,618,69,0.0741115246153152,1
585,610,69,0.0895303982300744,1
585,611,69,0.117819097762745,1
585,612,69,0.160892550106981,1
585,613,69,0.233592968818845,1
585,614,69,0.249452806064295,1
585,615,69,0.148600454094926,1
585,616,69,0.101007357787678,1
585,617,69,0.0850624117127262,1
586,610,69,0.102620338980875,1
586,611,69,0.148352025632577,1
586,612,69,0.196198327394139,1
586,613,69,0.239017093914156,1
586,614,69,0.201314423588286,1
586,615,69,0.111063734479509,1
586,616,69,0.0768060093253489,1
587,609,69,0.0730009050836502,1
587,610,69,0.113210494764467,1
587,611,69,0.175938494906302,1
587,612,69,0.223387348448356,1
587,613,69,0.222926244322897,1
587,614,69,0.141968247635789,1
587,615,69,0.0741484467823784,1
588,610,69,0.107453137159345,1
588,611,69,0.163933565775813,1
588,612,69,0.184128548109707,1
588,613,69,0.150038477957403,1
588,614,69,0.0850167628272686,1
589,610,69,0.0840277202291306,1
589,611,69,0.112201977216013,1
589,612,69,0.111048731739119,1
589,613,69,0.0827766459376184,1
590,611,69,0.0773526203629742,1
590,612,69,0.0753819867765605,1
595,589,69,0.0719201728519749,1
598,592,69,0.0715111802352176,1
598,593,69,0.072234353374301,1
598,597,69,0.0752797168522255,1
598,598,69,0.0834252034574144,1
598,599,69,0.0843921089274226,1
598,600,69,0.0793807520141338,1
598,601,69,0.0745041585226088,1
599,592,69,0.0774290771145814,1
599,593,69,0.0822873152632823,1
599,594,69,0.0832665675159086,1
599,595,69,0.0804197913068225,1
599,596,69,0.075942418746668,1
599,597,69,0.0784585686433817,1
599,598,69,0.0876844329378735,1
599,599,69,0.0906669117950082,1
599,600,69,0.0927520750077921,1
599,601,69,0.0945721151665161,1
599,602,69,0.0782485738182099,1
600,592,69,0.0811556906510627,1
600,593,69,0.0883620815923316,1
600,594,69,0.0941350141816728,1
600,595,69,0.0908897758862941,1
600,596,69,0.081236333490681,1
600,597,69,0.080380542844193,1
600,598,69,0.088242352011166,1
600,599,69,0.0942779693982517,1
600,600,69,0.0994873351165084,1
600,601,69,0.102391820871755,1
600,602,69,0.0876949696883797,1
601,591,69,0.0900882302227842,1
601,592,69,0.0977606515624763,1
601,593,69,0.096307189556695,1
601,594,69,0.0987386784669032,1
601,595,69,0.0947935859684788,1
601,596,69,0.0850958382163983,1
601,597,69,0.0860011030739409,1
601,598,69,0.0935942686432962,1
601,599,69,0.0986546394845598,1
601,600,69,0.0954049227592138,1
601,601,69,0.0910810110659364,1
601,602,69,0.083863169028043,1
602,590,69,0.0876482074154719,1
602,591,69,0.123896526269608,1
602,592,69,0.131607984590514,1
602,593,69,0.111030755818834,1
602,594,69,0.0994829313270406,1
602,595,69,0.0930242329289257,1
602,596,69,0.0870163818076368,1
602,597,69,0.090161427672582,1
602,598,69,0.0979581752041977,1
602,599,69,0.102928075540082,1
602,600,69,0.0933526324663977,1
602,601,69,0.0800833243753679,1
602,602,69,0.074097573061959,1
603,590,69,0.0869677286420761,1
603,591,69,0.131782742879902,1
603,592,69,0.147985254658344,1
603,593,69,0.133962270344121,1
603,594,69,0.12179028333577,1
603,595,69,0.104424717074797,1
603,596,69,0.0912311442105462,1
603,597,69,0.087575538669212,1
603,598,69,0.0885791797050347,1
603,599,69,0.0921569103252721,1
603,600,69,0.0866625920602672,1
603,601,69,0.0756344644860047,1
604,590,69,0.0723608192605423,1
604,591,69,0.103476278908362,1
604,592,69,0.13192657512235,1
604,593,69,0.163509844100496,1
604,594,69,0.181937351847407,1
604,595,69,0.14325093217882,1
604,596,69,0.105128956407185,1
604,597,69,0.0897298936249896,1
604,598,69,0.0796883641725079,1
604,599,69,0.0763461554282554,1
604,600,69,0.0741854871302323,1
605,591,69,0.0881290352929119,1
605,592,69,0.112391489444127,1
605,593,69,0.159120323408199,1
605,594,69,0.19745227534488,1
605,595,69,0.163164308348358,1
605,596,69,0.123895904265446,1
605,597,69,0.108970702914074,1
605,598,69,0.0889863560696386,1
605,599,69,0.0748753395063512,1
605,604,69,0.0720516520917629,1
606,590,69,0.0778729081844588,1
606,591,69,0.0903388294796588,1
606,592,69,0.100669814789023,1
606,593,69,0.116168124555325,1
606,594,69,0.132105948682621,1
606,595,69,0.125296981080694,1
606,596,69,0.126401585832111,1
606,597,69,0.133763540014325,1
606,598,69,0.108829408448608,1
606,599,69,0.0810700033576898,1
606,603,69,0.0716524684806421,1
606,604,69,0.0729377281209042,1
607,590,69,0.0761986098209601,1
607,591,69,0.0855044514106167,1
607,592,69,0.0881289793125373,1
607,593,69,0.0840461315523293,1
607,594,69,0.0815583139452,1
607,595,69,0.0887670747223265,1
607,596,69,0.1112038968974,1
607,597,69,0.135492724025089,1
607,598,69,0.117363467273912,1
607,599,69,0.0844479960013887,1
608,591,69,0.0732570090773596,1
608,592,69,0.0749897696120555,1
608,596,69,0.0848143688929579,1
608,597,69,0.102662019479778,1
608,598,69,0.09817741923126,1
608,599,69,0.0790865191652868,1
609,597,69,0.0751249933168994,1
609,598,69,0.0753292159434467,1
579,614,70,0.0799705488007348,1
579,615,70,0.0946201649880395,1
579,616,70,0.0822566255779236,1
580,614,70,0.0958978548376486,1
580,615,70,0.117302983589188,1
580,616,70,0.103063827948463,1
580,617,70,0.0751973510610782,1
581,610,70,0.0714171518660307,1
581,611,70,0.0752812656425892,1
581,612,70,0.0753824283995156,1
581,613,70,0.0881244013619041,1
581,614,70,0.12318925777695,1
581,615,70,0.141107779518002,1
581,616,70,0.118909135176685,1
581,617,70,0.0911277982190107,1
581,618,70,0.0713653762395762,1
582,610,70,0.0753358154076067,1
582,611,70,0.0779669676538538,1
582,612,70,0.0861662824992322,1
582,613,70,0.107492236340976,1
582,614,70,0.148102701484235,1
582,615,70,0.164456248313321,1
582,616,70,0.135531574405054,1
582,617,70,0.105376004020294,1
582,618,70,0.0821112072248626,1
583,610,70,0.0751444433870487,1
583,611,70,0.0818902651264377,1
583,612,70,0.101203612540908,1
583,613,70,0.130529118371325,1
583,614,70,0.16546589790935,1
583,615,70,0.167117070158101,1
583,616,70,0.138957635530402,1
583,617,70,0.110692049672395,1
583,618,70,0.0815733664459232,1
584,610,70,0.078753666078014,1
584,611,70,0.0941181951891292,1
584,612,70,0.12495219173355,1
584,613,70,0.172613074054385,1
584,614,70,0.198505875755004,1
584,615,70,0.157618394838106,1
584,616,70,0.123989739813343,1
584,617,70,0.105109363276079,1
584,618,70,0.0752111284532691,1
585,610,70,0.0886104665143891,1
585,611,70,0.115728305412294,1
585,612,70,0.154058304255906,1
585,613,70,0.214443998444297,1
585,614,70,0.227038861202304,1
585,615,70,0.148701280969605,1
585,616,70,0.102516414525469,1
585,617,70,0.0888692513460372,1
586,610,70,0.0983585033029767,1
586,611,70,0.138044981263413,1
586,612,70,0.179760212879171,1
586,613,70,0.217405534421293,1
586,614,70,0.195904505068039,1
586,615,70,0.119355224121671,1
586,616,70,0.0797488354171488,1
587,610,70,0.105197401745185,1
587,611,70,0.155152621058482,1
587,612,70,0.199161729383622,1
587,613,70,0.202803140789976,1
587,614,70,0.146570966474693,1
587,615,70,0.0847850351766725,1
588,610,70,0.0987408119411792,1
588,611,70,0.141187495571418,1
588,612,70,0.16611094110563,1
588,613,70,0.143570517917315,1
588,614,70,0.0927314991101094,1
589,610,70,0.0784290483258477,1
589,611,70,0.101684328457599,1
589,612,70,0.10827288888468,1
589,613,70,0.0875240802648801,1
590,611,70,0.0716712965466293,1
590,612,70,0.0765767696914013,1
595,589,70,0.0728842295429206,1
597,598,70,0.0726073506101966,1
597,599,70,0.0741033888008747,1
598,596,70,0.0721231887904477,1
598,597,70,0.0771265778304199,1
598,598,70,0.0841203117687031,1
598,599,70,0.0856205049471841,1
598,600,70,0.0819624300493263,1
598,601,70,0.076060730158344,1
599,592,70,0.0740326669276422,1
599,593,70,0.0769385646323373,1
599,594,70,0.0817232881091178,1
599,595,70,0.0822017088304504,1
599,596,70,0.0787076875303505,1
599,597,70,0.080878133733802,1
599,598,70,0.0870076364291174,1
599,599,70,0.0891863117476338,1
599,600,70,0.0961207562491842,1
599,601,70,0.100651279064991,1
599,602,70,0.0821151134110007,1
600,591,70,0.0714763604422224,1
600,592,70,0.0815048091471748,1
600,593,70,0.0860774727449654,1
600,594,70,0.0923424355067062,1
600,595,70,0.0916047012501878,1
600,596,70,0.0841181160940109,1
600,597,70,0.0835993024223905,1
600,598,70,0.0889528051651341,1
600,599,70,0.0931822095460197,1
600,600,70,0.102882084552335,1
600,601,70,0.109057547135189,1
600,602,70,0.0907524187071742,1
601,591,70,0.0875944040554489,1
601,592,70,0.0971976693753042,1
601,593,70,0.0975719977001068,1
601,594,70,0.0995945064336408,1
601,595,70,0.0960550477294984,1
601,596,70,0.0870682942750069,1
601,597,70,0.0871462935969362,1
601,598,70,0.0948738556055998,1
601,599,70,0.100667581794081,1
601,600,70,0.0998997985164903,1
601,601,70,0.0969187316088036,1
601,602,70,0.0858941929985565,1
602,590,70,0.0810487681355951,1
602,591,70,0.10747667379684,1
602,592,70,0.118111452159022,1
602,593,70,0.111098442311755,1
602,594,70,0.105799489334029,1
602,595,70,0.0996127498157157,1
602,596,70,0.0903767095331317,1
602,597,70,0.0895174978637521,1
602,598,70,0.0978869184073857,1
602,599,70,0.105397687085386,1
602,600,70,0.0969983730217208,1
602,601,70,0.0858368255546846,1
602,602,70,0.0806837387730162,1
602,603,70,0.072238408841438,1
603,590,70,0.0808813183951121,1
603,591,70,0.109979295103027,1
603,592,70,0.128061478579215,1
603,593,70,0.133048023746477,1
603,594,70,0.130641962366416,1
603,595,70,0.114657500367046,1
603,596,70,0.098174184809617,1
603,597,70,0.0903213947029948,1
603,598,70,0.0909404319052568,1
603,599,70,0.0953790722662363,1
603,600,70,0.0897725444503858,1
603,601,70,0.0804227520466342,1
603,602,70,0.0779226249771366,1
603,603,70,0.0735413893802787,1
604,590,70,0.0737368230880153,1
604,591,70,0.0970763474634836,1
604,592,70,0.125168499900967,1
604,593,70,0.160715341121194,1
604,594,70,0.176135869267025,1
604,595,70,0.142091081017723,1
604,596,70,0.112595805371298,1
604,597,70,0.0992855072059852,1
604,598,70,0.0877168953350943,1
604,599,70,0.0812551242364185,1
604,600,70,0.0773641709802647,1
604,601,70,0.0735051762979603,1
604,602,70,0.0728747937397814,1
604,603,70,0.0737897680822946,1
604,604,70,0.0717109244317977,1
605,590,70,0.0780068319006038,1
605,591,70,0.0942921635332312,1
605,592,70,0.11796967253031,1
605,593,70,0.157372342431656,1
605,594,70,0.182805259134973,1
605,595,70,0.153495788571855,1
605,596,70,0.132525925892881,1
605,597,70,0.12463427296621,1
605,598,70,0.102265062643558,1
605,599,70,0.0812501668632464,1
605,603,70,0.0740921802858734,1
605,604,70,0.0771502388687468,1
606,589,70,0.0762916678636542,1
606,590,70,0.0863850662432146,1
606,591,70,0.0968233223903767,1
606,592,70,0.106297030463305,1
606,593,70,0.118587633665371,1
606,594,70,0.130787921863098,1
606,595,70,0.127259789854748,1
606,596,70,0.138332185465228,1
606,597,70,0.147917182522842,1
606,598,70,0.122175104870787,1
606,599,70,0.0881090254190166,1
606,603,70,0.0730212197395849,1
606,604,70,0.0741155614223273,1
607,589,70,0.076943478465218,1
607,590,70,0.084292016017655,1
607,591,70,0.090462259985589,1
607,592,70,0.0917638969954396,1
607,593,70,0.0883725872426297,1
607,594,70,0.0881703861296093,1
607,595,70,0.0962641344285934,1
607,596,70,0.118922184824007,1
607,597,70,0.1387141457811,1
607,598,70,0.122941700120428,1
607,599,70,0.0902049057635138,1
608,590,70,0.073550955804292,1
608,591,70,0.0772493987722712,1
608,592,70,0.0774339349670875,1
608,593,70,0.0735369980308942,1
608,595,70,0.076330269441955,1
608,596,70,0.0893242287304996,1
608,597,70,0.101584353728622,1
608,598,70,0.0986558150724262,1
608,599,70,0.0835555630897106,1
609,591,70,0.0719739886520811,1
609,596,70,0.0713679948770987,1
609,597,70,0.0750671718099891,1
609,598,70,0.0755178698058162,1
609,599,70,0.0746380386984625,1
