x,y,z,signal,mito.p
537,464,21,0.0761819712096235,1
537,465,21,0.0803922116422743,1
537,466,21,0.0783906520089203,1
538,465,21,0.0753107299797486,1
538,466,21,0.0767696718421981,1
536,464,22,0.0732759304439711,1
536,465,22,0.0741210039587458,1
537,463,22,0.071753245594988,1
537,464,22,0.0787823964502621,1
537,465,22,0.0860106010774964,1
537,466,22,0.0846317049306695,1
538,465,22,0.0776265820961779,1
538,466,22,0.0807095768259104,1
536,463,23,0.0757309373315488,1
536,464,23,0.0748881216918826,1
536,465,23,0.0750339194674824,1
537,463,23,0.0764793140792811,1
537,464,23,0.0787883303699687,1
537,465,23,0.0841676525054817,1
537,466,23,0.080469153557128,1
538,465,23,0.074729137428046,1
538,466,23,0.0771137707647219,1
536,463,24,0.0746565993026601,1
537,463,24,0.0726047941730904,1
537,464,24,0.0725771212079178,1
537,465,24,0.0759722376261998,1
532,478,30,0.0743727228231123,1
533,477,30,0.0718616298202366,1
533,478,30,0.0789124450804772,1
534,477,30,0.075298065975008,1
535,477,30,0.0740155555931424,1
531,478,31,0.0746357061828546,1
532,477,31,0.0726384259381359,1
532,478,31,0.0805841559066615,1
533,477,31,0.0777053651433514,1
534,477,31,0.078759413396472,1
535,477,31,0.0751616853424225,1
532,477,32,0.072164017143649,1
534,463,32,0.073554009844728,1
535,463,32,0.07319113261655,1
533,463,33,0.0731198011792386,1
533,464,33,0.0726219925881728,1
534,462,33,0.0725211532734107,1
534,463,33,0.0783454820666675,1
534,464,33,0.0770639855515862,1
534,465,33,0.0726189074475287,1
535,462,33,0.0748175926399404,1
535,463,33,0.079675737488017,1
535,464,33,0.0812339574347817,1
535,465,33,0.0813589864914085,1
535,466,33,0.0791630940976848,1
536,462,33,0.0723503073902025,1
536,463,33,0.0774642203497409,1
536,464,33,0.083529712596733,1
536,465,33,0.0883772273936791,1
536,466,33,0.086794911005674,1
536,467,33,0.0762615193219164,1
537,463,33,0.0729362477509984,1
537,464,33,0.0779240431466263,1
537,465,33,0.082584278710401,1
537,466,33,0.082036728446491,1
537,467,33,0.0754385704951882,1
533,463,34,0.0762892047271722,1
533,464,34,0.0782164286431118,1
533,465,34,0.0755967337135308,1
533,466,34,0.0756421026971155,1
534,462,34,0.0732158821621605,1
534,463,34,0.0817103939628372,1
534,464,34,0.0856633859141204,1
534,465,34,0.0846004056812318,1
534,466,34,0.0828493768842946,1
535,462,34,0.0762401534789478,1
535,463,34,0.0861733795667219,1
535,464,34,0.0971554912730711,1
535,465,34,0.0998455721936371,1
535,466,34,0.0934319255569842,1
536,462,34,0.0753813647723984,1
536,463,34,0.0870063426604602,1
536,464,34,0.105757230371255,1
537,462,34,0.0722015924150824,1
532,464,35,0.0724124953663308,1
532,465,35,0.0745796325076399,1
532,466,35,0.0797117328688786,1
533,463,35,0.0785479008811447,1
533,464,35,0.0809318624533256,1
533,465,35,0.082841160209313,1
533,466,35,0.0852597052129075,1
533,467,35,0.0732659534972108,1
534,462,35,0.0741146097559593,1
534,463,35,0.0853043215714561,1
534,464,35,0.0919150626669585,1
534,465,35,0.0962267955187417,1
534,466,35,0.0940268600979642,1
534,467,35,0.0770932321872889,1
535,462,35,0.0775882479796667,1
535,463,35,0.0933455167387831,1
535,464,35,0.111498167066497,1
535,465,35,0.119292675383129,1
536,462,35,0.0781461297327095,1
536,463,35,0.0975571504607571,1
537,462,35,0.0752835857181139,1
532,463,36,0.0737153950446305,1
532,464,36,0.0774333316230503,1
532,465,36,0.0830680424474862,1
532,466,36,0.0879714256582735,1
532,467,36,0.0766265486844954,1
533,463,36,0.0819131859798116,1
533,464,36,0.0883231814520329,1
533,465,36,0.0971786173878186,1
533,466,36,0.09820293384199,1
533,467,36,0.0805193368529275,1
534,462,36,0.0759339159497719,1
534,463,36,0.0905442276940726,1
534,464,36,0.102460682952543,1
534,465,36,0.114944754329194,1
535,462,36,0.0807830292974146,1
535,463,36,0.101995274558282,1
536,461,36,0.0730226938894491,1
536,462,36,0.0822914018306274,1
531,465,37,0.0715023664362405,1
532,463,37,0.0734339568213981,1
532,464,37,0.0796380813560425,1
532,465,37,0.0878211183524983,1
532,466,37,0.0878520817196884,1
532,467,37,0.0764467521613943,1
533,463,37,0.0813977000304586,1
533,464,37,0.0943599308866937,1
533,465,37,0.10925326696484,1
533,466,37,0.104047745232305,1
533,467,37,0.0853689913441912,1
534,462,37,0.0751985328689863,1
534,463,37,0.0939171447838087,1
534,464,37,0.115459699134926,1
534,465,37,0.133963651193361,1
535,462,37,0.0812536811867624,1
535,463,37,0.107510498383176,1
536,461,37,0.0743471460119661,1
536,462,37,0.0839183096970146,1
531,464,38,0.0717448174385914,1
531,465,38,0.0766118320660197,1
531,466,38,0.0736902598564394,1
532,463,38,0.0735956032630487,1
532,464,38,0.084825776449291,1
532,465,38,0.0942380491711272,1
532,466,38,0.0903717210597515,1
532,467,38,0.0793330380748579,1
533,463,38,0.0836188457931642,1
533,464,38,0.10713727100574,1
533,465,38,0.12160626962445,1
533,466,38,0.109511747014449,1
534,462,38,0.0736201413272441,1
534,463,38,0.0998375421199041,1
534,464,38,0.137462660966841,1
535,462,38,0.082272331183017,1
536,460,38,0.0770682898203881,1
536,461,38,0.0781548688911873,1
537,459,38,0.0758947421276419,1
537,460,38,0.0808431833199328,1
538,459,38,0.075181937797941,1
531,464,39,0.0742681888036272,1
531,465,39,0.0802398828229723,1
531,466,39,0.0771744286106114,1
532,463,39,0.0742104170570499,1
532,464,39,0.0911702748832416,1
532,465,39,0.0988500047718386,1
532,466,39,0.094027289280836,1
532,467,39,0.0849645393578174,1
533,463,39,0.0861770058509871,1
533,464,39,0.117643194985699,1
533,465,39,0.124538932168241,1
534,462,39,0.0745899702168143,1
534,463,39,0.10489922538995,1
535,461,39,0.0718301128693423,1
535,462,39,0.0859445442354797,1
536,459,39,0.0783793253131282,1
536,460,39,0.083392423838071,1
536,461,39,0.0827906223711412,1
537,459,39,0.0839273287573652,1
537,460,39,0.0861758116029958,1
538,459,39,0.0803964848108681,1
531,464,40,0.0757913961361064,1
531,465,40,0.080588597016379,1
531,466,40,0.0779051217800147,1
532,463,40,0.0763954741382696,1
532,464,40,0.0959613241423508,1
532,465,40,0.0997891999564245,1
532,466,40,0.0958044795728318,1
532,467,40,0.0881425887636044,1
532,468,40,0.0739959251417861,1
533,463,40,0.0900664911773183,1
533,464,40,0.12247534627984,1
533,465,40,0.122291121087105,1
533,466,40,0.115415188517085,1
533,467,40,0.111068262669809,1
533,468,40,0.0927253226087796,1
533,469,40,0.0791241690772196,1
534,462,40,0.0770556569158555,1
534,463,40,0.108141048882478,1
534,464,40,0.15086026985639,1
534,465,40,0.145394968085548,1
534,466,40,0.131826233410917,1
534,467,40,0.130350192654051,1
534,468,40,0.1122653096798,1
534,469,40,0.10065223073136,1
534,470,40,0.0877903913468898,1
534,471,40,0.0761390404823543,1
535,461,40,0.0736731920622309,1
535,462,40,0.0901064487246926,1
535,463,40,0.12006552799464,1
535,464,40,0.146003922600342,1
535,465,40,0.14083831487489,1
535,466,40,0.132750071312741,1
535,467,40,0.1342361387767,1
535,468,40,0.120640819644181,1
535,469,40,0.114898489659616,1
535,470,40,0.102001009436657,1
535,471,40,0.0855507409603613,1
535,472,40,0.073773359612498,1
536,459,40,0.0826996045020988,1
536,460,40,0.08466807973407,1
536,461,40,0.0844797679739896,1
536,462,40,0.107635347058595,1
536,463,40,0.13920429750093,1
536,464,40,0.137817713382659,1
536,465,40,0.127301737815441,1
536,466,40,0.121923678348377,1
536,467,40,0.121208025239614,1
536,468,40,0.110387242752792,1
536,469,40,0.106000670360223,1
536,470,40,0.0978620009206514,1
536,471,40,0.0869099444554156,1
536,472,40,0.0769817939216043,1
537,459,40,0.0840451736659196,1
537,460,40,0.0849905826720851,1
537,461,40,0.0860410979415649,1
537,462,40,0.109696270769182,1
537,463,40,0.137283872090482,1
537,464,40,0.123705558551755,1
537,465,40,0.110557734093628,1
537,466,40,0.105569111432465,1
537,467,40,0.101427608679769,1
537,468,40,0.0912542703252937,1
537,469,40,0.0843048541835611,1
537,470,40,0.0810832271661763,1
537,471,40,0.0794642498528562,1
537,472,40,0.0759507473823988,1
537,473,40,0.0724753675470374,1
538,459,40,0.078134498254878,1
538,460,40,0.078912843163141,1
538,461,40,0.0799009340949108,1
538,462,40,0.0934088305424448,1
538,463,40,0.110403091418843,1
538,464,40,0.10615282501836,1
538,465,40,0.100735094125837,1
538,466,40,0.0948616332238142,1
538,467,40,0.0870051235323025,1
538,468,40,0.0779033366280695,1
538,471,40,0.0718497993010732,1
538,472,40,0.0720824101975795,1
539,462,40,0.0742627027269173,1
539,463,40,0.0842818773498126,1
539,464,40,0.0930981705636763,1
539,465,40,0.0985996418765455,1
539,466,40,0.0939262136044923,1
539,467,40,0.0817706475060213,1
539,468,40,0.0716409240833933,1
540,463,40,0.0719695724225301,1
540,464,40,0.0829680490583845,1
540,465,40,0.09215264337672,1
540,466,40,0.0911669658210991,1
540,467,40,0.0788856304810484,1
541,459,40,0.0733529718794907,1
541,464,40,0.0716509632305698,1
541,465,40,0.0773501821066587,1
541,466,40,0.0784555394831122,1
541,477,40,0.0714091217922978,1
542,459,40,0.0755791745360343,1
542,460,40,0.0716601813322524,1
542,476,40,0.0731468148199992,1
542,477,40,0.0771835907319194,1
542,478,40,0.0765915796105013,1
543,476,40,0.0863039195802251,1
543,477,40,0.0877223192113879,1
543,478,40,0.079460623568591,1
543,479,40,0.0747515171377989,1
544,460,40,0.0725150825127885,1
544,462,40,0.0720627610860982,1
544,475,40,0.079178917883569,1
544,476,40,0.0991275430289744,1
544,477,40,0.0992699819820988,1
544,478,40,0.0832871123133832,1
544,479,40,0.0735721226059288,1
545,460,40,0.074113415507968,1
545,462,40,0.0720291604212608,1
545,474,40,0.0717878663466514,1
545,475,40,0.0858099238746731,1
545,476,40,0.104563616824239,1
545,477,40,0.105534067717971,1
545,478,40,0.0892479523600994,1
546,474,40,0.0754596937565336,1
546,475,40,0.0920402783248339,1
546,476,40,0.108221635741722,1
546,477,40,0.102777606513224,1
546,478,40,0.0893163665978905,1
547,466,40,0.0716949824651227,1
547,474,40,0.0726582056704912,1
547,475,40,0.0939635525143441,1
547,476,40,0.11283933244085,1
547,477,40,0.10092188197572,1
548,465,40,0.0817693848375722,1
548,466,40,0.101823980832077,1
548,467,40,0.0942848860845345,1
548,475,40,0.0859405696288838,1
548,476,40,0.105778863676013,1
548,477,40,0.0966420828176195,1
549,465,40,0.0880205702071222,1
549,466,40,0.116280570467753,1
549,467,40,0.109954240775377,1
549,468,40,0.0784882755621643,1
549,475,40,0.0759210840039075,1
549,476,40,0.0892807941798591,1
549,477,40,0.0841059932328912,1
550,466,40,0.0923417388620447,1
550,467,40,0.0914342285694768,1
550,468,40,0.0717402581480831,1
550,476,40,0.0736492822222392,1
531,464,41,0.0757044150740762,1
531,465,41,0.080200435319011,1
531,466,41,0.0790475008441973,1
531,467,41,0.0723988796952221,1
532,463,41,0.0770701185126247,1
532,464,41,0.0967436312171265,1
532,465,41,0.10020597384525,1
532,466,41,0.097335486837504,1
532,467,41,0.0892366256643073,1
532,468,41,0.0781951063404345,1
533,463,41,0.0913126516359498,1
533,464,41,0.117127814777053,1
533,465,41,0.118270187621194,1
533,466,41,0.116445501091379,1
533,467,41,0.10974157755235,1
533,468,41,0.0956865413636532,1
533,469,41,0.0854960667945114,1
533,470,41,0.0757542935878363,1
534,462,41,0.0839925334536798,1
534,463,41,0.11115152414695,1
534,464,41,0.138591474120248,1
534,465,41,0.134682003800188,1
534,466,41,0.130901773504932,1
534,467,41,0.126108982634169,1
534,468,41,0.114366315338593,1
534,469,41,0.10597249357168,1
534,470,41,0.0908218343716662,1
534,471,41,0.0791243121381769,1
534,472,41,0.0716467771425588,1
535,459,41,0.0753212916104213,1
535,460,41,0.0794509762840366,1
535,461,41,0.0814920145215601,1
535,462,41,0.0990379495494633,1
535,463,41,0.130145005921053,1
535,464,41,0.147468792162456,1
535,465,41,0.138541477425697,1
535,466,41,0.130884668390474,1
535,467,41,0.128606914028974,1
535,468,41,0.123585163426136,1
535,469,41,0.120443694085123,1
535,470,41,0.102085490041955,1
535,471,41,0.0851189332309376,1
535,472,41,0.0761710425964951,1
536,458,41,0.0722390681658498,1
536,459,41,0.0868650481949941,1
536,460,41,0.0887806095328941,1
536,461,41,0.0882081791024994,1
536,462,41,0.111029885013007,1
536,463,41,0.148020995017499,1
536,464,41,0.150581475150847,1
536,465,41,0.133017943625197,1
536,466,41,0.119592767511183,1
536,467,41,0.116066489075236,1
536,468,41,0.111719152705213,1
536,469,41,0.109124064260285,1
536,470,41,0.0970075600231952,1
536,471,41,0.085528267949984,1
536,472,41,0.0794780894454632,1
536,473,41,0.0745074364845432,1
537,459,41,0.0831095736653907,1
537,460,41,0.0843838798123579,1
537,461,41,0.0852407714062128,1
537,462,41,0.1057145857659,1
537,463,41,0.133762134284919,1
537,464,41,0.126721096930106,1
537,465,41,0.110655811709911,1
537,466,41,0.0999327274168327,1
537,467,41,0.09514009204711,1
537,468,41,0.0887330199944507,1
537,469,41,0.0841765969253329,1
537,470,41,0.0801733967980838,1
537,471,41,0.0779544280499456,1
537,472,41,0.0767438524494287,1
537,473,41,0.0749226180427135,1
537,474,41,0.0726919991566189,1
538,459,41,0.0751006480739942,1
538,460,41,0.0771581632017721,1
538,461,41,0.0791150629362863,1
538,462,41,0.0894924559761853,1
538,463,41,0.103562289643899,1
538,464,41,0.104729468014025,1
538,465,41,0.101581218827645,1
538,466,41,0.0931272990185882,1
538,467,41,0.0840009491699932,1
538,468,41,0.0755387069452471,1
538,474,41,0.0715390335815971,1
538,475,41,0.0715461679693366,1
538,476,41,0.0715766523933219,1
539,460,41,0.0714009610976908,1
539,461,41,0.0715004320032963,1
539,462,41,0.0756857425091295,1
539,463,41,0.086189091391857,1
539,464,41,0.100836798026384,1
539,465,41,0.110910273612632,1
539,466,41,0.103068592500345,1
539,467,41,0.086041900326934,1
539,468,41,0.0726022315159424,1
540,463,41,0.0790167924987137,1
540,464,41,0.0956470814196086,1
540,465,41,0.108581888112336,1
540,466,41,0.103691162686248,1
540,467,41,0.0857009425254289,1
541,459,41,0.0746854540757406,1
541,460,41,0.0733845821310094,1
541,464,41,0.0807093964447034,1
541,465,41,0.0881162966476717,1
541,466,41,0.0865433849625978,1
541,467,41,0.0751669910379254,1
541,476,41,0.0715358302601623,1
541,477,41,0.0765785859435547,1
542,459,41,0.0718046791191534,1
542,460,41,0.0743605253214932,1
542,476,41,0.0792342513738308,1
542,477,41,0.0830075214425124,1
543,460,41,0.0797238743901231,1
543,461,41,0.0823475003860086,1
543,462,41,0.0793635411589681,1
543,463,41,0.0715615936725571,1
543,475,41,0.0766467638197642,1
543,476,41,0.0944052252297789,1
543,477,41,0.0946110153068148,1
543,478,41,0.0844921458568157,1
544,460,41,0.0837104234659524,1
544,461,41,0.0887205425909586,1
544,462,41,0.0889823317027097,1
544,463,41,0.0795096250564825,1
544,474,41,0.0723165139040748,1
544,475,41,0.0906447249065455,1
544,476,41,0.109341380074445,1
544,477,41,0.105086025679916,1
544,478,41,0.0886532666207843,1
544,479,41,0.0775668261563235,1
544,480,41,0.0789602336602525,1
545,460,41,0.0785836910006328,1
545,461,41,0.0789600159587958,1
545,462,41,0.0781331982661792,1
545,463,41,0.0726990029234843,1
545,473,41,0.0734595211924611,1
545,474,41,0.0926767192035519,1
545,475,41,0.10908237754134,1
545,476,41,0.115889068608034,1
545,477,41,0.106806165750163,1
545,478,41,0.0917063740505271,1
545,479,41,0.0793441595092766,1
546,460,41,0.0729560026031871,1
546,473,41,0.0769855135064938,1
546,474,41,0.0993810470452861,1
546,475,41,0.116607558055777,1
546,476,41,0.118237619483266,1
546,477,41,0.10447000519784,1
546,478,41,0.093452041171587,1
546,479,41,0.0813918905115844,1
547,466,41,0.0743371752852474,1
547,474,41,0.0829421488050741,1
547,475,41,0.10397148752203,1
547,476,41,0.115152404198674,1
547,477,41,0.103892903516188,1
547,478,41,0.0964697565645055,1
548,465,41,0.0866636370272596,1
548,466,41,0.106004738267444,1
548,467,41,0.0923281605111857,1
548,475,41,0.0857284537695193,1
548,476,41,0.101939673606231,1
548,477,41,0.0959944520840251,1
548,478,41,0.0897107856571294,1
549,465,41,0.0858983355462762,1
549,466,41,0.114341012209278,1
549,467,41,0.102993964440974,1
549,475,41,0.0756854937074647,1
549,476,41,0.0867733399013319,1
549,477,41,0.08184074115505,1
549,478,41,0.0740850023578426,1
550,466,41,0.0821822089999681,1
550,467,41,0.0785220192879591,1
550,476,41,0.0735412898596128,1
531,464,42,0.0762669742984182,1
531,465,42,0.0805264774607085,1
531,466,42,0.0791952828130743,1
531,467,42,0.0726952771185533,1
532,463,42,0.0783334525061722,1
532,464,42,0.094437731167291,1
532,465,42,0.0991515026292991,1
532,466,42,0.0969584963348876,1
532,467,42,0.0879702625104903,1
532,468,42,0.0813806819965831,1
532,469,42,0.0772324429388119,1
532,470,42,0.071467254301289,1
533,462,42,0.0758468789073671,1
533,463,42,0.0921305373487984,1
533,464,42,0.109794248864798,1
533,465,42,0.114679071471388,1
533,466,42,0.115132039782407,1
533,467,42,0.105086796965077,1
533,468,42,0.0961689429116233,1
533,469,42,0.0892968605473666,1
533,470,42,0.0805079852769689,1
533,471,42,0.0733316806770215,1
534,460,42,0.0768494625361143,1
534,461,42,0.0809791347696463,1
534,462,42,0.0924622086281632,1
534,463,42,0.1149325754877,1
534,464,42,0.133099040527854,1
534,465,42,0.129617421990747,1
534,466,42,0.127748610485671,1
534,467,42,0.119877309535184,1
534,468,42,0.112886903319168,1
534,469,42,0.104216239939781,1
534,470,42,0.0893652623450744,1
534,471,42,0.0786360761911661,1
534,472,42,0.072774221886809,1
535,459,42,0.0829484248270698,1
535,460,42,0.0906661964902218,1
535,461,42,0.0913660195930593,1
535,462,42,0.105953149242238,1
535,463,42,0.142182080226641,1
535,464,42,0.162718418444704,1
535,465,42,0.141344016698773,1
535,466,42,0.126697224410364,1
535,467,42,0.122858500843703,1
535,468,42,0.121585308084186,1
535,469,42,0.11446510203962,1
535,470,42,0.0954439224201785,1
535,471,42,0.0815116511929581,1
535,472,42,0.0761730827701469,1
535,473,42,0.071517922760335,1
536,458,42,0.0748496382943726,1
536,459,42,0.0887067216584764,1
536,460,42,0.0925481260630761,1
536,461,42,0.0910756618301422,1
536,462,42,0.108837307901467,1
536,463,42,0.151788150785267,1
536,464,42,0.168963750755089,1
536,465,42,0.138184210675061,1
536,466,42,0.115822551482937,1
536,467,42,0.1112972846023,1
536,468,42,0.109009540853957,1
536,469,42,0.103859676053848,1
536,470,42,0.0913635440164941,1
536,471,42,0.0818661189248644,1
536,472,42,0.0789077738292197,1
536,473,42,0.0751844569147976,1
537,459,42,0.0819730041200822,1
537,460,42,0.0840137189154414,1
537,461,42,0.0846058668777752,1
537,462,42,0.0985494959009958,1
537,463,42,0.124890712842167,1
537,464,42,0.13117533093543,1
537,465,42,0.112188703647194,1
537,466,42,0.0975716618178592,1
537,467,42,0.0911703059834497,1
537,468,42,0.0855760378696345,1
537,469,42,0.0815023833309426,1
537,470,42,0.0779231101403831,1
537,471,42,0.0757507232839457,1
537,472,42,0.0751407424622841,1
537,473,42,0.0737807614620271,1
537,474,42,0.0715164734906372,1
538,459,42,0.0729219665354362,1
538,460,42,0.0760372370611409,1
538,461,42,0.0787856557520716,1
538,462,42,0.0860917290803611,1
538,463,42,0.0988106567885431,1
538,464,42,0.107803959946862,1
538,465,42,0.10507234158835,1
538,466,42,0.0933994382795969,1
538,467,42,0.0819477009907674,1
538,468,42,0.0730276263824547,1
539,460,42,0.0724088379818576,1
539,461,42,0.0734678871484415,1
539,462,42,0.0773663231146656,1
539,463,42,0.0891946528234478,1
539,464,42,0.108383083142041,1
539,465,42,0.117497857493179,1
539,466,42,0.104527596563211,1
539,467,42,0.0849623312430418,1
540,459,42,0.0714589940860162,1
540,460,42,0.073477074149916,1
540,463,42,0.0825865739057592,1
540,464,42,0.100765236447533,1
540,465,42,0.112063332488278,1
540,466,42,0.102948495936724,1
540,467,42,0.0836963910520551,1
541,459,42,0.0736332345148566,1
541,460,42,0.0749900992742614,1
541,463,42,0.072747475707838,1
541,464,42,0.0818148284616563,1
541,465,42,0.0872229245097088,1
541,466,42,0.0832615292821954,1
541,467,42,0.0717070928861591,1
541,476,42,0.0740922611464145,1
542,459,42,0.0715067266854169,1
542,460,42,0.08051443546013,1
542,461,42,0.0777182841697985,1
542,462,42,0.072347097848726,1
542,475,42,0.0752986444388787,1
542,476,42,0.0822187890647421,1
542,477,42,0.0848322204124106,1
543,460,42,0.0908003192476987,1
543,461,42,0.099724175641317,1
543,462,42,0.0925256592727405,1
543,463,42,0.0756373879055667,1
543,475,42,0.0799736401614205,1
543,476,42,0.0940600626801379,1
543,477,42,0.094417883014478,1
543,478,42,0.084657866425728,1
544,460,42,0.0878298015306014,1
544,461,42,0.0969641005923882,1
544,462,42,0.0937573643546445,1
544,463,42,0.0781384977416404,1
544,474,42,0.0825915250588897,1
544,475,42,0.0996301223919636,1
544,476,42,0.107943375959758,1
544,477,42,0.101444626713645,1
544,478,42,0.0876016006436046,1
544,479,42,0.0785699882489414,1
544,480,42,0.0829432870726907,1
545,460,42,0.0784622260278549,1
545,461,42,0.0799821118581085,1
545,462,42,0.0763367196251162,1
545,473,42,0.0844010160270241,1
545,474,42,0.112462435238858,1
545,475,42,0.127928755331103,1
545,476,42,0.116351055979404,1
545,477,42,0.100475059065823,1
545,478,42,0.0888157589880953,1
545,479,42,0.0793024790103732,1
545,480,42,0.0837736066487401,1
546,460,42,0.0738794610824716,1
546,461,42,0.0721034152781341,1
546,473,42,0.0831124659847445,1
546,474,42,0.11270074991353,1
546,475,42,0.12826534666339,1
546,476,42,0.115786537441951,1
546,477,42,0.101649944067517,1
546,478,42,0.095091494861924,1
546,479,42,0.0822754971842021,1
547,466,42,0.0736213542353602,1
547,474,42,0.0822250028863216,1
547,475,42,0.100375725001133,1
547,476,42,0.106619651582111,1
547,477,42,0.103072262324901,1
547,478,42,0.100861628432536,1
548,465,42,0.0846912307289839,1
548,466,42,0.101063120460811,1
548,467,42,0.0839300842358034,1
548,475,42,0.0802094294991951,1
548,476,42,0.0925631412435496,1
548,477,42,0.0921891114807448,1
548,478,42,0.0899259431168467,1
549,465,42,0.0770390369646438,1
549,466,42,0.101619876386321,1
549,467,42,0.090344228475786,1
549,475,42,0.071962120812668,1
549,476,42,0.079564305442374,1
549,477,42,0.0766963064512766,1
531,464,43,0.0727181482115943,1
531,465,43,0.0768742058616832,1
531,466,43,0.0764269662089975,1
532,462,43,0.0727291265850556,1
532,463,43,0.078975018699186,1
532,464,43,0.0879386522589716,1
532,465,43,0.0930307390924614,1
532,466,43,0.0921822632149199,1
532,467,43,0.0840127299288237,1
532,468,43,0.0818686753619706,1
532,469,43,0.080134465557577,1
532,470,43,0.0750411098355965,1
533,460,43,0.0723810654960191,1
533,461,43,0.079055238575974,1
533,462,43,0.0868165318703491,1
533,463,43,0.096063886408642,1
533,464,43,0.105729227743876,1
533,465,43,0.109712753879478,1
533,466,43,0.10928518821844,1
533,467,43,0.0990566532146181,1
533,468,43,0.0951561646346591,1
533,469,43,0.089270829673182,1
533,470,43,0.0809092526020327,1
533,471,43,0.0744635914111557,1
534,459,43,0.0727170223840608,1
534,460,43,0.084689569977871,1
534,461,43,0.0905198015906263,1
534,462,43,0.101192130344076,1
534,463,43,0.122334549417704,1
534,464,43,0.138815905662022,1
534,465,43,0.129008467475952,1
534,466,43,0.121022468957972,1
534,467,43,0.11200195311756,1
534,468,43,0.108693886181766,1
534,469,43,0.0982004893656329,1
534,470,43,0.0850356593137136,1
534,471,43,0.0772843118658907,1
534,472,43,0.0730382191133355,1
535,459,43,0.0814407053982272,1
535,460,43,0.0927007783245425,1
535,461,43,0.0946383523897397,1
535,462,43,0.10718557584897,1
535,463,43,0.147925741300113,1
535,464,43,0.180205841541077,1
535,465,43,0.149037013936148,1
535,466,43,0.125089045089299,1
535,467,43,0.116700759159428,1
535,468,43,0.114337914628551,1
535,469,43,0.103274096455466,1
535,470,43,0.0880365308339221,1
535,471,43,0.0791772446923729,1
535,472,43,0.0759578631100134,1
535,473,43,0.0718236564661395,1
536,459,43,0.082758215954295,1
536,460,43,0.0897730047334658,1
536,461,43,0.0895982651042028,1
536,462,43,0.102471773286754,1
536,463,43,0.144833099285826,1
536,464,43,0.180555432760352,1
536,465,43,0.149935312347075,1
536,466,43,0.12242945481276,1
536,467,43,0.109100452982292,1
536,468,43,0.101920540758204,1
536,469,43,0.0943133427749512,1
536,470,43,0.0845235508469609,1
536,471,43,0.0784835918708236,1
536,472,43,0.0768939669339136,1
536,473,43,0.0735916037762863,1
537,459,43,0.0782181702547657,1
537,460,43,0.0822894673976833,1
537,461,43,0.0835126510225662,1
537,462,43,0.0936719507431028,1
537,463,43,0.116596735183356,1
537,464,43,0.138687760364543,1
537,465,43,0.128432827504081,1
537,466,43,0.111206073911967,1
537,467,43,0.0946956762933203,1
537,468,43,0.0829432310923162,1
537,469,43,0.0775736371018986,1
537,470,43,0.0741171848531904,1
537,471,43,0.0719506137356688,1
537,472,43,0.0717940241878563,1
538,459,43,0.0727435384214918,1
538,460,43,0.0771948365671704,1
538,461,43,0.0809185453442147,1
538,462,43,0.0879981220769115,1
538,463,43,0.100181361140555,1
538,464,43,0.117836016275954,1
538,465,43,0.119275172186007,1
538,466,43,0.104460774656075,1
538,467,43,0.0875241362452547,1
538,468,43,0.0741530185129699,1
539,460,43,0.075346663160194,1
539,461,43,0.0784677307646896,1
539,462,43,0.0829013142318312,1
539,463,43,0.0933121773156937,1
539,464,43,0.11505830740903,1
539,465,43,0.12324113292407,1
539,466,43,0.108442223297775,1
539,467,43,0.0888622662392966,1
539,468,43,0.0724906999496335,1
540,459,43,0.0718150354884526,1
540,460,43,0.0762174192268224,1
540,461,43,0.0747343062826331,1
540,462,43,0.0763181341407522,1
540,463,43,0.0844934396254729,1
540,464,43,0.101013627589632,1
540,465,43,0.109520367992136,1
540,466,43,0.099673706223603,1
540,467,43,0.0822412496350361,1
541,459,43,0.0723759837220146,1
541,460,43,0.0798076459106768,1
541,461,43,0.0759429847704556,1
541,462,43,0.0737203586378441,1
541,463,43,0.0762355133278984,1
541,464,43,0.0814152218877053,1
541,465,43,0.0828176733321516,1
541,466,43,0.0771157176377494,1
541,475,43,0.0755806300257737,1
542,459,43,0.0732341379843186,1
542,460,43,0.0908421179273928,1
542,461,43,0.0929109721910461,1
542,462,43,0.0839737924682753,1
542,463,43,0.0746976640174429,1
542,474,43,0.0720656409653688,1
542,475,43,0.0810077469611036,1
542,476,43,0.0836636238727948,1
543,459,43,0.0732722854995811,1
543,460,43,0.101195196824595,1
543,461,43,0.115292131213652,1
543,462,43,0.101716479852739,1
543,463,43,0.0781401211725035,1
543,474,43,0.0727335117143985,1
543,475,43,0.0849808918472394,1
543,476,43,0.0918949594924389,1
544,460,43,0.0956848432922906,1
544,461,43,0.11039034033352,1
544,462,43,0.098325120339596,1
544,463,43,0.0756977658495832,1
544,473,43,0.0714106892427863,1
544,474,43,0.0921463238144329,1
544,475,43,0.107668226198605,1
544,476,43,0.105599179113661,1
545,460,43,0.0877901860855163,1
545,461,43,0.0945207562828502,1
545,462,43,0.082152477201019,1
545,473,43,0.0875074229934187,1
545,474,43,0.121070375718538,1
545,475,43,0.136499661682971,1
545,476,43,0.115222056224748,1
545,477,43,0.0952403777781679,1
546,460,43,0.0759399120698947,1
546,461,43,0.076751745682246,1
546,473,43,0.0814872188694702,1
546,474,43,0.112573425661546,1
546,475,43,0.125576770992896,1
546,476,43,0.108186703987978,1
546,477,43,0.0979543001182677,1
546,479,43,0.0807110260956082,1
547,465,43,0.0740478687093643,1
547,466,43,0.0749831514877706,1
547,474,43,0.0793473814908363,1
547,475,43,0.0925065513048804,1
547,476,43,0.0953905358029441,1
547,477,43,0.0981816426395208,1
547,478,43,0.0992604964186266,1
548,465,43,0.0792547464109725,1
548,466,43,0.0911018979657003,1
548,467,43,0.0721813897198969,1
548,475,43,0.0751019294025681,1
548,476,43,0.0828119073535687,1
548,477,43,0.084851390580687,1
548,478,43,0.083875615331327,1
549,466,43,0.084289341399758,1
549,467,43,0.0739465442313557,1
549,476,43,0.0731567917667596,1
531,465,44,0.0735523304334903,1
531,466,44,0.0736918646271776,1
532,460,44,0.0764022850838447,1
532,461,44,0.0842450858036235,1
532,462,44,0.085551319424232,1
532,463,44,0.084586989051455,1
532,464,44,0.0845162547381392,1
532,465,44,0.0866647504147098,1
532,466,44,0.086906654053398,1
532,467,44,0.0807674543131952,1
532,468,44,0.0807217929876544,1
532,469,44,0.0790890196220185,1
532,470,44,0.0747578553602108,1
533,460,44,0.0870216501828899,1
533,461,44,0.0971510501633536,1
533,462,44,0.102964531204023,1
533,463,44,0.108330561110592,1
533,464,44,0.106680993632579,1
533,465,44,0.102829033817348,1
533,466,44,0.100826068454587,1
533,467,44,0.094089483477006,1
533,468,44,0.0930537034861267,1
533,469,44,0.0866391051831058,1
533,470,44,0.0792028028433942,1
533,471,44,0.074396582902771,1
534,459,44,0.0759846217290676,1
534,460,44,0.089728655836707,1
534,461,44,0.0975484610626123,1
534,462,44,0.108609467776884,1
534,463,44,0.130880811964669,1
534,464,44,0.141571545821275,1
534,465,44,0.124032981542693,1
534,466,44,0.111679518600003,1
534,467,44,0.103996255727765,1
534,468,44,0.103016686253016,1
534,469,44,0.0921625830032306,1
534,470,44,0.0819974240034869,1
534,471,44,0.0774692523634124,1
534,472,44,0.0742683007643763,1
535,459,44,0.0788156674528937,1
535,460,44,0.0904693881532869,1
535,461,44,0.0943913358768389,1
535,462,44,0.104539352441875,1
535,463,44,0.141469027095275,1
535,464,44,0.177160720644776,1
535,465,44,0.151657032307893,1
535,466,44,0.124660086138937,1
535,467,44,0.108581763711504,1
535,468,44,0.104208943830959,1
535,469,44,0.0928716179877091,1
535,470,44,0.0829006673475026,1
535,471,44,0.0792260284788076,1
535,472,44,0.0763900129417262,1
535,473,44,0.0719078696096483,1
536,459,44,0.0786234246265087,1
536,460,44,0.0867647811240611,1
536,461,44,0.0882702115775872,1
536,462,44,0.0967342762745283,1
536,463,44,0.130510022843548,1
536,464,44,0.176813206919402,1
536,465,44,0.165089709792103,1
536,466,44,0.134447184788906,1
536,467,44,0.105019956397816,1
536,468,44,0.0926163163793688,1
536,469,44,0.0843062288127594,1
536,470,44,0.078012411277938,1
536,471,44,0.0758548219005173,1
536,472,44,0.074075883776826,1
537,459,44,0.0773291770261041,1
537,460,44,0.081447883326258,1
537,461,44,0.0834530257035858,1
537,462,44,0.0917538827284295,1
537,463,44,0.110201437669485,1
537,464,44,0.143571363842975,1
537,465,44,0.150195571328587,1
537,466,44,0.129379567599154,1
537,467,44,0.0981768656475558,1
537,468,44,0.080094781692034,1
537,469,44,0.0726989158429016,1
538,459,44,0.0742460019151645,1
538,460,44,0.0772419533824506,1
538,461,44,0.0814480761475483,1
538,462,44,0.0903389601005329,1
538,463,44,0.099540143269872,1
538,464,44,0.119881340122155,1
538,465,44,0.127987895486837,1
538,466,44,0.115320345322446,1
538,467,44,0.0935571412148596,1
538,468,44,0.0752741001546416,1
539,459,44,0.0726028037597716,1
539,460,44,0.0759124754663038,1
539,461,44,0.0816618340979008,1
539,462,44,0.0891891169864049,1
539,463,44,0.0944614668461174,1
539,464,44,0.110067968016379,1
539,465,44,0.11672002884837,1
539,466,44,0.106744811259612,1
539,467,44,0.089854978661991,1
539,468,44,0.0716491718585829,1
540,460,44,0.0772887343154833,1
540,461,44,0.0838702412153663,1
540,462,44,0.0892951375958375,1
540,463,44,0.0894069615041026,1
540,464,44,0.095559565433999,1
540,465,44,0.0978222361945674,1
540,466,44,0.089643428826414,1
540,467,44,0.0764092639705437,1
541,460,44,0.0837953394741644,1
541,461,44,0.0926393616335752,1
541,462,44,0.0952927878488677,1
541,463,44,0.0882394534717706,1
541,464,44,0.0810728148165025,1
541,465,44,0.0751356295880715,1
541,474,44,0.0725577146780599,1
542,459,44,0.0713948903370686,1
542,460,44,0.0969521456723924,1
542,461,44,0.108495578814801,1
542,462,44,0.10325972193928,1
542,463,44,0.0867589964853535,1
542,474,44,0.0754127262222523,1
542,475,44,0.084347001185586,1
543,460,44,0.103991447635592,1
543,461,44,0.121080788068211,1
543,462,44,0.105319015998961,1
543,463,44,0.0795343061816352,1
543,474,44,0.0783238238817426,1
543,475,44,0.0895643783174507,1
544,460,44,0.106062012410691,1
544,461,44,0.124881121537987,1
544,462,44,0.100508404708954,1
544,463,44,0.0719029060164346,1
544,473,44,0.0726498086143026,1
544,474,44,0.0958794621745748,1
544,475,44,0.110017834480912,1
545,460,44,0.0993573984470425,1
545,461,44,0.111860049088015,1
545,462,44,0.0877243096247067,1
545,473,44,0.0826661842184684,1
545,474,44,0.114096365532235,1
545,475,44,0.127711762959107,1
545,476,44,0.111115758907628,1
546,460,44,0.07386805974618,1
546,461,44,0.0775404345197249,1
546,473,44,0.0753807987486109,1
546,474,44,0.101385443017619,1
546,475,44,0.110363332912801,1
546,476,44,0.0992993592386755,1
547,465,44,0.0724243010053277,1
547,466,44,0.0735437032357618,1
547,474,44,0.0753891833647162,1
547,475,44,0.0835157175030855,1
547,476,44,0.0849978787809067,1
547,477,44,0.0904691828919134,1
547,479,44,0.0768440448798623,1
548,466,44,0.0778971103664067,1
548,476,44,0.0739345830913183,1
548,477,44,0.0764424665527174,1
548,478,44,0.0764775040471693,1
531,461,45,0.073670859546623,1
531,462,45,0.072084469031356,1
532,460,45,0.0925248693274547,1
532,461,45,0.1001535264543,1
532,462,45,0.0957897194140648,1
532,463,45,0.0900682514490971,1
532,464,45,0.0833781488425504,1
532,465,45,0.0811961520218084,1
532,466,45,0.0804376552663585,1
532,467,45,0.0777430088352426,1
532,468,45,0.0784192642003776,1
532,469,45,0.0766176975652685,1
532,470,45,0.0737357221406484,1
532,471,45,0.0713860267777584,1
533,459,45,0.0796354378383535,1
533,460,45,0.104956885175778,1
533,461,45,0.115487652001971,1
533,462,45,0.116798314292214,1
533,463,45,0.11964643403029,1
533,464,45,0.108127999235157,1
533,465,45,0.0967058133640699,1
533,466,45,0.0920373735653968,1
533,467,45,0.0895419426273232,1
533,468,45,0.0897190583124856,1
533,469,45,0.0829465961348332,1
533,470,45,0.0767740072112081,1
533,471,45,0.0740666096947688,1
533,472,45,0.0724810651051624,1
534,459,45,0.0816747282441815,1
534,460,45,0.0980141058184551,1
534,461,45,0.106829702387657,1
534,462,45,0.116169119761985,1
534,463,45,0.136180610868055,1
534,464,45,0.137689070481851,1
534,465,45,0.119377927273588,1
534,466,45,0.103814288410139,1
534,467,45,0.0963507360680847,1
534,468,45,0.095509357258033,1
534,469,45,0.0862206581030843,1
534,470,45,0.0795846947388082,1
534,471,45,0.0783695349676165,1
534,472,45,0.0765099913245566,1
535,459,45,0.0805033389058779,1
535,460,45,0.0917141864228033,1
535,461,45,0.0977958569980521,1
535,462,45,0.105474653880406,1
535,463,45,0.131852034143562,1
535,464,45,0.159705766165665,1
535,465,45,0.149994489823059,1
535,466,45,0.121507582444088,1
535,467,45,0.0988182327992377,1
535,468,45,0.0934519851912124,1
535,469,45,0.0849204330426818,1
535,470,45,0.0799789707370898,1
535,471,45,0.0795616681447266,1
535,472,45,0.0770009081095061,1
536,459,45,0.0802665108211525,1
536,460,45,0.0914001365213513,1
536,461,45,0.0965643385173968,1
536,462,45,0.100285876499915,1
536,463,45,0.121992882531454,1
536,464,45,0.165050672810888,1
536,465,45,0.172578415982472,1
536,466,45,0.136316369496478,1
536,467,45,0.0970411855681992,1
536,468,45,0.0838741660616292,1
536,469,45,0.0770984756823755,1
536,470,45,0.0737807676820688,1
536,471,45,0.0739235736176488,1
536,472,45,0.0725979023669741,1
537,458,45,0.0713742895592193,1
537,459,45,0.0810010852965274,1
537,460,45,0.0896398709626067,1
537,461,45,0.0951619865936165,1
537,462,45,0.100081560572744,1
537,463,45,0.11190492046827,1
537,464,45,0.145878252879428,1
537,465,45,0.161014139480591,1
537,466,45,0.134105928425403,1
537,467,45,0.095965441809904,1
537,468,45,0.0772411883173312,1
538,458,45,0.0720635945716755,1
538,459,45,0.0785923492985694,1
538,460,45,0.0841238323122607,1
538,461,45,0.0913800209067485,1
538,462,45,0.101325307655226,1
538,463,45,0.105112535497306,1
538,464,45,0.121815972107665,1
538,465,45,0.132020174308665,1
538,466,45,0.120973355509331,1
538,467,45,0.0961981646671595,1
538,468,45,0.0757104049741574,1
539,458,45,0.0718227483400628,1
539,459,45,0.077008627181158,1
539,460,45,0.0814188295118456,1
539,461,45,0.0907347848891782,1
539,462,45,0.102041103824947,1
539,463,45,0.100370817388294,1
539,464,45,0.106675022392622,1
539,465,45,0.111442671855153,1
539,466,45,0.106256861434516,1
539,467,45,0.0897794984569183,1
540,459,45,0.0737952790391709,1
540,460,45,0.0870524704891227,1
540,461,45,0.106276728247454,1
540,462,45,0.115033389922295,1
540,463,45,0.100714704829402,1
540,464,45,0.0933840809968342,1
540,465,45,0.0904310229365676,1
540,466,45,0.0835659132389682,1
540,467,45,0.0723223358630322,1
541,459,45,0.0721073587845219,1
541,460,45,0.101960604046286,1
541,461,45,0.137003945337364,1
541,462,45,0.141230015775941,1
541,463,45,0.108943869654521,1
541,464,45,0.0833123905625316,1
542,460,45,0.108820526229173,1
542,461,45,0.14270380487774,1
542,462,45,0.139019723985864,1
542,463,45,0.104295508150201,1
542,464,45,0.0734687766143934,1
542,474,45,0.0789142240123809,1
543,460,45,0.106772627285742,1
543,461,45,0.129505473681649,1
543,462,45,0.110676897651006,1
543,463,45,0.083079325602987,1
543,474,45,0.0874894221929671,1
544,460,45,0.117844077449895,1
544,461,45,0.138901319273564,1
544,462,45,0.0993148284821873,1
544,473,45,0.0749584641425762,1
544,474,45,0.0988677692107086,1
545,460,45,0.110298694240274,1
545,461,45,0.127169163848328,1
545,462,45,0.0895172304019624,1
545,473,45,0.0770014803533353,1
545,474,45,0.101806950358118,1
545,475,45,0.113142074306635,1
546,460,45,0.0715625328988419,1
546,461,45,0.0780897015151224,1
546,474,45,0.0883370086045567,1
546,475,45,0.0941352940835457,1
547,474,45,0.0722831869210687,1
547,475,45,0.0766016747380524,1
547,476,45,0.0768630906473062,1
531,460,46,0.0737037138064659,1
531,461,46,0.0768570572069337,1
531,462,46,0.073110632837889,1
532,459,46,0.0763567916994276,1
532,460,46,0.099133377428015,1
532,461,46,0.104242158853216,1
532,462,46,0.0948124886749655,1
532,463,46,0.0867323311669236,1
532,464,46,0.0776777916988448,1
532,465,46,0.0728637407258206,1
532,466,46,0.0720179083659681,1
532,467,46,0.0731020367403686,1
532,468,46,0.074778095375646,1
532,469,46,0.0740836774889773,1
532,470,46,0.0732919159509375,1
532,471,46,0.0719717494370975,1
533,459,46,0.0868024932364102,1
533,460,46,0.113165847305711,1
533,461,46,0.120851293412557,1
533,462,46,0.114317450691617,1
533,463,46,0.112749950442754,1
533,464,46,0.0982603883664446,1
533,465,46,0.0850966903621004,1
533,466,46,0.080726215437247,1
533,467,46,0.0818476951615825,1
533,468,46,0.0826866730355685,1
533,469,46,0.0779903674504326,1
533,470,46,0.0744564881236243,1
533,471,46,0.0738866638906689,1
534,458,46,0.0723413443102264,1
534,459,46,0.0870368333044871,1
534,460,46,0.102752340704159,1
534,461,46,0.109819987397027,1
534,462,46,0.111629832907533,1
534,463,46,0.122593800752474,1
534,464,46,0.119165749213808,1
534,465,46,0.105747974949323,1
534,466,46,0.0926527347230607,1
534,467,46,0.0870227635703401,1
534,468,46,0.0860601499290505,1
534,469,46,0.080465197610657,1
534,470,46,0.0771862155894835,1
534,471,46,0.0783130569896964,1
535,459,46,0.0823573529319365,1
535,460,46,0.0918074497268709,1
535,461,46,0.0980769531189952,1
535,462,46,0.100776152620578,1
535,463,46,0.115851001953313,1
535,464,46,0.135040862881478,1
535,465,46,0.135290473151735,1
535,466,46,0.109792370412229,1
535,467,46,0.08845569321873,1
535,468,46,0.0827156646495647,1
535,469,46,0.0781645223957833,1
535,470,46,0.0763580792480432,1
535,471,46,0.0779154470491058,1
536,459,46,0.0810333548724579,1
536,460,46,0.0935594239701345,1
536,461,46,0.100851794546733,1
536,462,46,0.099262754293735,1
536,463,46,0.114620739921065,1
536,464,46,0.150492404154832,1
536,465,46,0.162036266480112,1
536,466,46,0.124141446628482,1
536,467,46,0.0881656775581021,1
536,468,46,0.0766414456841781,1
536,469,46,0.0718546820337458,1
537,459,46,0.0811694804833368,1
537,460,46,0.0945947996583084,1
537,461,46,0.103240066607757,1
537,462,46,0.103148215253137,1
537,463,46,0.114785496383526,1
537,464,46,0.144670183955685,1
537,465,46,0.15674135652944,1
537,466,46,0.126024651309869,1
537,467,46,0.0901066477660245,1
537,468,46,0.0732154840794968,1
538,458,46,0.0716514110735665,1
538,459,46,0.078587989049393,1
538,460,46,0.0875423112068718,1
538,461,46,0.0973269280602333,1
538,462,46,0.10527135804006,1
538,463,46,0.111084857740854,1
538,464,46,0.125373437832301,1
538,465,46,0.134256440992552,1
538,466,46,0.121358886129093,1
538,467,46,0.0934465550948771,1
538,468,46,0.0728659675007209,1
539,458,46,0.0715842719443078,1
539,459,46,0.0778294860739015,1
539,460,46,0.0860107627985785,1
539,461,46,0.097223022264952,1
539,462,46,0.106376945558054,1
539,463,46,0.103992461502376,1
539,464,46,0.106222551684933,1
539,465,46,0.109966805259452,1
539,466,46,0.104383689680264,1
539,467,46,0.0847106932392165,1
540,459,46,0.0768620705604804,1
540,460,46,0.100613311930936,1
540,461,46,0.128682462654505,1
540,462,46,0.128895287598614,1
540,463,46,0.102491982201981,1
540,464,46,0.0881370093862702,1
540,465,46,0.0829866283227069,1
540,466,46,0.0764968608166944,1
541,459,46,0.0763496697517714,1
541,460,46,0.12515803779096,1
541,461,46,0.184533186697329,1
541,462,46,0.173112555836647,1
541,463,46,0.112892314755379,1
541,464,46,0.07641066969995,1
542,460,46,0.120121359088232,1
542,461,46,0.175680151697609,1
542,462,46,0.161060379270003,1
542,463,46,0.105911698884875,1
543,460,46,0.103881352898898,1
543,461,46,0.131751742192462,1
543,462,46,0.109450429844147,1
543,463,46,0.0801106241380431,1
544,460,46,0.112428523571939,1
544,461,46,0.132456074825475,1
544,462,46,0.0896282457048167,1
544,473,46,0.0737210241822976,1
544,474,46,0.0925841027838129,1
545,460,46,0.101976011089381,1
545,461,46,0.119762213885026,1
545,462,46,0.0805284803141106,1
545,474,46,0.0844929731223513,1
546,474,46,0.0718517710542671,1
531,460,47,0.0773794660626111,1
531,461,47,0.0796945717740458,1
531,462,47,0.0741000361984409,1
532,459,47,0.0823481597104205,1
532,460,47,0.101532988624915,1
532,461,47,0.104039329515992,1
532,462,47,0.0924491341006755,1
532,463,47,0.083512458201276,1
532,464,47,0.076425429858717,1
532,468,47,0.0721873485197699,1
532,469,47,0.0717104952489259,1
532,470,47,0.07194931374697,1
533,458,47,0.0751031360906426,1
533,459,47,0.0945805619830376,1
533,460,47,0.116074935891757,1
533,461,47,0.119608889859065,1
533,462,47,0.107492671743889,1
533,463,47,0.100022874480048,1
533,464,47,0.0905186695430512,1
533,465,47,0.0808589822256505,1
533,466,47,0.0768731297944828,1
533,467,47,0.0777875007929587,1
533,468,47,0.0779924698245006,1
533,469,47,0.0747032993751517,1
533,470,47,0.0732828968905868,1
533,471,47,0.0722521737935456,1
534,458,47,0.0779405138168391,1
534,459,47,0.0947267018609266,1
534,460,47,0.108112001288108,1
534,461,47,0.112362989213419,1
534,462,47,0.106544165156997,1
534,463,47,0.105702406924406,1
534,464,47,0.104188168891944,1
534,465,47,0.096975744510303,1
534,466,47,0.0862662510081674,1
534,467,47,0.0807804479801418,1
534,468,47,0.0795813794566241,1
534,469,47,0.0765377451502702,1
534,470,47,0.0754458417238433,1
535,458,47,0.0737569200424933,1
535,459,47,0.0881871242616118,1
535,460,47,0.0971186748467155,1
535,461,47,0.102095249287259,1
535,462,47,0.100543311582532,1
535,463,47,0.106673156380136,1
535,464,47,0.120004086423507,1
535,465,47,0.119049421995409,1
535,466,47,0.0976326617660379,1
535,467,47,0.0811794823102637,1
535,468,47,0.0768402319943485,1
535,469,47,0.0743618999506915,1
535,470,47,0.073577832604137,1
536,459,47,0.0836134032567457,1
536,460,47,0.0979849213831686,1
536,461,47,0.106644792990344,1
536,462,47,0.105112585257639,1
536,463,47,0.117114018724737,1
536,464,47,0.141009776542219,1
536,465,47,0.141119187074335,1
536,466,47,0.108198509626975,1
536,467,47,0.0815163100041323,1
536,468,47,0.0728445456773777,1
537,459,47,0.0816539906254165,1
537,460,47,0.0995556311735086,1
537,461,47,0.11035707555093,1
537,462,47,0.111546845112224,1
537,463,47,0.125817100961055,1
537,464,47,0.14605248868532,1
537,465,47,0.144176088729467,1
537,466,47,0.114354733621095,1
537,467,47,0.0847201228223141,1
538,459,47,0.0784657652315373,1
538,460,47,0.0923851423124771,1
538,461,47,0.103510252775697,1
538,462,47,0.111441029764165,1
538,463,47,0.123897123393604,1
538,464,47,0.135616129650852,1
538,465,47,0.135525578284932,1
538,466,47,0.116804223331754,1
538,467,47,0.0884098017516491,1
539,459,47,0.0783057795409997,1
539,460,47,0.0942416070349345,1
539,461,47,0.108119241416555,1
539,462,47,0.112347252508117,1
539,463,47,0.111709710682032,1
539,464,47,0.111862151462083,1
539,465,47,0.111248295554492,1
539,466,47,0.100916576280217,1
539,467,47,0.0802105242265205,1
540,459,47,0.0783970337716236,1
540,460,47,0.115827427995568,1
540,461,47,0.153567779333578,1
540,462,47,0.140865894539438,1
540,463,47,0.106594510173878,1
540,464,47,0.0871122824093517,1
540,465,47,0.0797836116698526,1
540,466,47,0.0726298422806987,1
541,459,47,0.0778313023260549,1
541,460,47,0.14206421043792,1
541,461,47,0.216669255654514,1
541,462,47,0.186645861154204,1
541,463,47,0.112991910061817,1
541,464,47,0.072706249271973,1
542,460,47,0.126522789563141,1
542,461,47,0.190405216989779,1
542,462,47,0.162950500637673,1
542,463,47,0.100543280482323,1
543,460,47,0.102103192280409,1
543,461,47,0.128466851131749,1
543,462,47,0.104304782232258,1
543,463,47,0.0748541602646311,1
543,473,47,0.0764291059033151,1
544,460,47,0.102316371766891,1
544,461,47,0.115572854132098,1
544,462,47,0.0795790842612659,1
544,473,47,0.0763382808555631,1
545,460,47,0.087572074106029,1
545,461,47,0.100150161411783,1
545,474,47,0.0776143597143923,1
531,460,48,0.0782239051331404,1
531,461,48,0.0802360574973753,1
531,462,48,0.0725194863022562,1
532,459,48,0.0851375871357594,1
532,460,48,0.0998145404059891,1
532,461,48,0.101749408753081,1
532,462,48,0.089436065078848,1
532,463,48,0.0784471984072982,1
532,464,48,0.0725731714814884,1
533,458,48,0.077732839067192,1
533,459,48,0.0969773181808332,1
533,460,48,0.111364212250144,1
533,461,48,0.113186273922394,1
533,462,48,0.100159385733507,1
533,463,48,0.0882743292451404,1
533,464,48,0.0819878575794735,1
533,465,48,0.0759760069714223,1
533,466,48,0.0720347273585117,1
533,467,48,0.0719496558492592,1
533,468,48,0.0716405695410209,1
534,458,48,0.0799819625771096,1
534,459,48,0.0974065570330673,1
534,460,48,0.106960596943533,1
534,461,48,0.10901362120126,1
534,462,48,0.10047746622193,1
534,463,48,0.0928699074762633,1
534,464,48,0.0912026875201294,1
534,465,48,0.0872941004459796,1
534,466,48,0.0792243179673618,1
534,467,48,0.0741815560639277,1
534,468,48,0.0727302835127971,1
534,469,48,0.0724271435643486,1
534,470,48,0.0726840312833022,1
535,458,48,0.0752759537270447,1
535,459,48,0.0911697399596622,1
535,460,48,0.0996353969872583,1
535,461,48,0.103055206970776,1
535,462,48,0.100451889410784,1
535,463,48,0.100691491634072,1
535,464,48,0.105926664305015,1
535,465,48,0.102239734634077,1
535,466,48,0.0873387105844866,1
535,467,48,0.0755690794084832,1
535,468,48,0.0717125914029522,1
536,459,48,0.0849784535909239,1
536,460,48,0.0992461841028563,1
536,461,48,0.108152966482225,1
536,462,48,0.110950915364585,1
536,463,48,0.118821892872907,1
536,464,48,0.127244612953192,1
536,465,48,0.120291850429068,1
536,466,48,0.0983439110853335,1
536,467,48,0.0794480279843082,1
537,459,48,0.0804283500840932,1
537,460,48,0.0980101747521505,1
537,461,48,0.110314356305076,1
537,462,48,0.117401073645554,1
537,463,48,0.132239132213813,1
537,464,48,0.140204952916775,1
537,465,48,0.131418111599987,1
537,466,48,0.108276683110069,1
537,467,48,0.0839422755173809,1
538,459,48,0.0767847119028381,1
538,460,48,0.0921996855515008,1
538,461,48,0.104166255685313,1
538,462,48,0.11248308577704,1
538,463,48,0.128810981154481,1
538,464,48,0.136032237995224,1
538,465,48,0.129603426897099,1
538,466,48,0.109965971773875,1
538,467,48,0.084399031833747,1
539,459,48,0.0771126511572301,1
539,460,48,0.0995906064675444,1
539,461,48,0.118149357092662,1
539,462,48,0.115908189015977,1
539,463,48,0.113821750694661,1
539,464,48,0.110520550684817,1
539,465,48,0.104583676458467,1
539,466,48,0.0916242010806701,1
539,467,48,0.073707850134144,1
540,459,48,0.0779198259584071,1
540,460,48,0.125175578308332,1
540,461,48,0.171151774796162,1
540,462,48,0.147963720874252,1
540,463,48,0.106841321425406,1
540,464,48,0.0828365822586799,1
540,465,48,0.0730269235177515,1
541,459,48,0.0754770165724485,1
541,460,48,0.141920850918636,1
541,461,48,0.214284392176298,1
541,462,48,0.17683714163956,1
541,463,48,0.105238068377304,1
542,460,48,0.11646771908005,1
542,461,48,0.168877093135223,1
542,462,48,0.140022295174528,1
542,463,48,0.0872963023407135,1
543,460,48,0.0889236704901806,1
543,461,48,0.107954845716508,1
543,462,48,0.0888215996071775,1
543,473,48,0.0756210602963112,1
544,460,48,0.0793572962371804,1
544,461,48,0.0869738740431978,1
544,473,48,0.0724306703279478,1
545,461,48,0.0725864637104328,1
531,459,49,0.0731024037228242,1
531,460,49,0.0817150030136784,1
531,461,49,0.0815686889746241,1
531,462,49,0.0718488476347052,1
532,458,49,0.0733795998776709,1
532,459,49,0.0907198816694539,1
532,460,49,0.100238411362304,1
532,461,49,0.100219931618648,1
532,462,49,0.0876804894314857,1
532,463,49,0.0748957225827437,1
533,458,49,0.0820867313610834,1
533,459,49,0.100330349797506,1
533,460,49,0.106767613932195,1
533,461,49,0.105996303891005,1
533,462,49,0.0949101060081679,1
533,463,49,0.081760110755515,1
533,464,49,0.0767349018095359,1
533,465,49,0.0742654706454387,1
534,458,49,0.0824248092833179,1
534,459,49,0.0999097630231674,1
534,460,49,0.105319327001042,1
534,461,49,0.105059453662111,1
534,462,49,0.0981663288970495,1
534,463,49,0.0880165147399852,1
534,464,49,0.0835688677587382,1
534,465,49,0.0814824667576716,1
534,466,49,0.0751790516986288,1
535,458,49,0.0764289690623995,1
535,459,49,0.0938631983628284,1
535,460,49,0.102337911771025,1
535,461,49,0.106149229834303,1
535,462,49,0.106794198390084,1
535,463,49,0.102398494976415,1
535,464,49,0.0970687154724144,1
535,465,49,0.0930117866256417,1
535,466,49,0.0841291069075554,1
535,467,49,0.0739469298739363,1
536,459,49,0.085235907333665,1
536,460,49,0.0981211589547967,1
536,461,49,0.109119162867488,1
536,462,49,0.119751527853521,1
536,463,49,0.124404703670056,1
536,464,49,0.117791207096116,1
536,465,49,0.110521222449312,1
536,466,49,0.0976105184178666,1
536,467,49,0.0804421399163673,1
537,459,49,0.0791283054048977,1
537,460,49,0.0928030482488775,1
537,461,49,0.106396227687079,1
537,462,49,0.121550562931691,1
537,463,49,0.13770790476788,1
537,464,49,0.136460973024087,1
537,465,49,0.127919786031085,1
537,466,49,0.109329474914782,1
537,467,49,0.0850963606998944,1
538,459,49,0.0760593928493954,1
538,460,49,0.0913760711803191,1
538,461,49,0.103877365852219,1
538,462,49,0.113463861939863,1
538,463,49,0.131303040829996,1
538,464,49,0.134909358761524,1
538,465,49,0.125394760134978,1
538,466,49,0.104873598818471,1
538,467,49,0.0812973023386515,1
539,459,49,0.0767065135395769,1
539,460,49,0.105112635017971,1
539,461,49,0.127146734378242,1
539,462,49,0.121507408282923,1
539,463,49,0.116264000276874,1
539,464,49,0.10788487024827,1
539,465,49,0.0965794283383697,1
539,466,49,0.0823767097014615,1
540,459,49,0.0760452111544992,1
540,460,49,0.126854118740216,1
540,461,49,0.174332679201053,1
540,462,49,0.150384424232289,1
540,463,49,0.107865451278328,1
540,464,49,0.080712556225847,1
541,460,49,0.126923969807622,1
541,461,49,0.183183412785373,1
541,462,49,0.152435856159361,1
541,463,49,0.0955844207203171,1
542,460,49,0.0983559406458288,1
542,461,49,0.13045969026675,1
542,462,49,0.109351580942704,1
542,463,49,0.0740892630863531,1
542,473,49,0.0765322093132274,1
542,474,49,0.0782333906966127,1
543,460,49,0.0740734330804273,1
543,461,49,0.0851322690001734,1
543,462,49,0.0729773871062807,1
543,472,49,0.0742007697724955,1
543,473,49,0.0781435795156449,1
543,474,49,0.0800046159686938,1
544,473,49,0.0723264908508351,1
544,474,49,0.0740711254449858,1
531,459,50,0.0721517014612391,1
531,460,50,0.0780512616579037,1
531,461,50,0.0764544712330462,1
532,458,50,0.0719160614044633,1
532,459,50,0.0877268785018962,1
532,460,50,0.0943807369259164,1
532,461,50,0.0928984263670962,1
532,462,50,0.0813580161649156,1
533,458,50,0.0787666410848357,1
533,459,50,0.0953478725374646,1
533,460,50,0.0997939147479734,1
533,461,50,0.0970968176204588,1
533,462,50,0.0868498028729807,1
533,463,50,0.0741883918896694,1
534,458,50,0.0790390726878006,1
534,459,50,0.0958550360711286,1
534,460,50,0.10112868591954,1
534,461,50,0.0982879742510344,1
534,462,50,0.0916930880416244,1
534,463,50,0.0811513739421777,1
534,464,50,0.0743075803272139,1
534,465,50,0.0728428787062232,1
535,458,50,0.0739304094433905,1
535,459,50,0.0908127406708161,1
535,460,50,0.0991756799310805,1
535,461,50,0.101424766120748,1
535,462,50,0.103513617818214,1
535,463,50,0.0967801428614427,1
535,464,50,0.0852942015637385,1
535,465,50,0.0821338232961971,1
535,466,50,0.0776620549935433,1
536,459,50,0.0817753933977782,1
536,460,50,0.0915057217278704,1
536,461,50,0.101257285280057,1
536,462,50,0.114490131487104,1
536,463,50,0.116581869283881,1
536,464,50,0.103135072305192,1
536,465,50,0.0974808678703152,1
536,466,50,0.0899072207915671,1
536,467,50,0.075524506590226,1
537,459,50,0.0758380713284316,1
537,460,50,0.0847982589851591,1
537,461,50,0.0960270699822864,1
537,462,50,0.111855396496883,1
537,463,50,0.124776438237503,1
537,464,50,0.119054398028706,1
537,465,50,0.112395470270764,1
537,466,50,0.0978442364817814,1
537,467,50,0.0780304431785977,1
538,459,50,0.0732433312058347,1
538,460,50,0.0859523068474229,1
538,461,50,0.0959962061357623,1
538,462,50,0.104275908799052,1
538,463,50,0.116668452263248,1
538,464,50,0.115606442356852,1
538,465,50,0.106151357088538,1
538,466,50,0.088953775491627,1
538,467,50,0.0714292249668173,1
539,459,50,0.0723107790257001,1
539,460,50,0.0995342031301238,1
539,461,50,0.118241985952484,1
539,462,50,0.113684461935999,1
539,463,50,0.105590396414892,1
539,464,50,0.0927470056738709,1
539,465,50,0.0798889480747069,1
540,460,50,0.111204979184642,1
540,461,50,0.147943717220398,1
540,462,50,0.132447503608121,1
540,463,50,0.0976812278510158,1
541,460,50,0.100727493234975,1
541,461,50,0.136842796499043,1
541,462,50,0.119054634390287,1
541,463,50,0.0812198441603433,1
542,460,50,0.0764768447227575,1
542,461,50,0.0939887499029514,1
542,462,50,0.0820457661669665,1
542,473,50,0.0735806005226584,1
542,474,50,0.0725452621547343,1
542,475,50,0.0721003674577397,1
543,472,50,0.0717012211668687,1
543,473,50,0.0733498120983472,1
543,474,50,0.071411827510403,1
531,460,51,0.0726307317466506,1
532,459,51,0.0823348861416009,1
532,460,51,0.0878362517137626,1
532,461,51,0.0852695079985025,1
532,462,51,0.0749627932915446,1
533,458,51,0.073529726802239,1
533,459,51,0.0894288933708588,1
533,460,51,0.096851934581834,1
533,461,51,0.0943484860101108,1
533,462,51,0.0833412266754872,1
534,458,51,0.0740930324315755,1
534,459,51,0.09256832253822,1
534,460,51,0.10442844909977,1
534,461,51,0.102312950743999,1
534,462,51,0.0931067728812384,1
534,463,51,0.0811822688889099,1
534,464,51,0.071733758204589,1
535,459,51,0.0883777685373001,1
535,460,51,0.101123722326326,1
535,461,51,0.102595483694557,1
535,462,51,0.103389111245083,1
535,463,51,0.0969129220899294,1
535,464,51,0.0832806496901388,1
535,465,51,0.0799039010547641,1
535,466,51,0.0756007891806678,1
536,459,51,0.0794941869131788,1
536,460,51,0.0897191080728185,1
536,461,51,0.0971009663882201,1
536,462,51,0.108398409324595,1
536,463,51,0.111125835375055,1
536,464,51,0.0980955510434424,1
536,465,51,0.0923637951296333,1
536,466,51,0.0844540854221358,1
537,459,51,0.0747339019799278,1
537,460,51,0.0835555257694608,1
537,461,51,0.0923949264379472,1
537,462,51,0.103957535968674,1
537,463,51,0.112326502449269,1
537,464,51,0.105889978499533,1
537,465,51,0.0996618881445228,1
537,466,51,0.086581849699983,1
538,460,51,0.0832454691347296,1
538,461,51,0.091995668186327,1
538,462,51,0.0985697421364727,1
538,463,51,0.103590099449987,1
538,464,51,0.0978513086691046,1
538,465,51,0.0892147808781338,1
538,466,51,0.075977866763867,1
539,460,51,0.0887192674824263,1
539,461,51,0.102352348487628,1
539,462,51,0.101875513876908,1
539,463,51,0.0940734171094985,1
539,464,51,0.0792894107029272,1
540,460,51,0.0896655846146685,1
540,461,51,0.111157980550153,1
540,462,51,0.10501260430862,1
540,463,51,0.0846838226594131,1
541,460,51,0.0776994809839778,1
541,461,51,0.0960451392031959,1
541,462,51,0.0870220731457201,1
541,477,51,0.0742801126234149,1
542,476,51,0.0715466966728744,1
542,477,51,0.0737334891457064,1
543,477,51,0.071512405583417,1
532,459,52,0.0771954461312493,1
532,460,52,0.0805630637455242,1
532,461,52,0.0758225398845035,1
533,459,52,0.082712703909753,1
533,460,52,0.0915131173573579,1
533,461,52,0.0881360328397357,1
533,462,52,0.0753716739475527,1
534,459,52,0.0861306541008262,1
534,460,52,0.103342361412258,1
534,461,52,0.101741148537808,1
534,462,52,0.0883839947989629,1
534,463,52,0.0753497980611711,1
535,459,52,0.0819196299429311,1
535,460,52,0.0985844027745737,1
535,461,52,0.0988947268710947,1
535,462,52,0.0951937585662173,1
535,463,52,0.0888953879609292,1
535,464,52,0.0770800892393434,1
535,465,52,0.0724141747775685,1
536,459,52,0.0749348839647904,1
536,460,52,0.0861385411136018,1
536,461,52,0.0900991277357045,1
536,462,52,0.0965892062437981,1
536,463,52,0.0985151861514135,1
536,464,52,0.089628799288521,1
536,465,52,0.0828902363377039,1
536,466,52,0.0746628753246558,1
537,460,52,0.0803089626052168,1
537,461,52,0.0863096979988911,1
537,462,52,0.093614794780646,1
537,463,52,0.096988501815668,1
537,464,52,0.091729033662153,1
537,465,52,0.0845827905233607,1
537,466,52,0.0735496247153851,1
538,460,52,0.0775682070055634,1
538,461,52,0.0853738554167389,1
538,462,52,0.0914747832408468,1
538,463,52,0.0895015558970771,1
538,464,52,0.0810776229086757,1
538,465,52,0.072636734086815,1
539,460,52,0.0749587191642827,1
539,461,52,0.0850068169807163,1
539,462,52,0.0889557161446128,1
539,463,52,0.0809551378490719,1
540,461,52,0.0797919403055834,1
540,462,52,0.079719607441571,1
542,477,52,0.0722325246820644,1
532,459,53,0.0718533074045475,1
532,460,53,0.0733920586210381,1
533,459,53,0.0745796138475151,1
533,460,53,0.0825935341323333,1
533,461,53,0.0790706082988199,1
534,459,53,0.0762678388842035,1
534,460,53,0.094794649595596,1
534,461,53,0.0946181870148039,1
534,462,53,0.0794964758884953,1
535,459,53,0.0722556134765621,1
535,460,53,0.0907731065656061,1
535,461,53,0.0921784627694894,1
535,462,53,0.083717999476647,1
535,463,53,0.0778553801071704,1
536,460,53,0.0802470047706285,1
536,461,53,0.0828516347594031,1
536,462,53,0.0837232056514839,1
536,463,53,0.0853644196135997,1
536,464,53,0.0803121721466933,1
536,465,53,0.0753938546159737,1
537,460,53,0.0760206295500124,1
537,461,53,0.080282328386995,1
537,462,53,0.0832402380797262,1
537,463,53,0.0841325901308633,1
537,464,53,0.0802214963799402,1
537,465,53,0.0750511614228563,1
538,460,53,0.0722695152695853,1
538,461,53,0.0790176135442077,1
538,462,53,0.0821240764909768,1
538,463,53,0.0764763408993862,1
539,461,53,0.0731978502615008,1
539,462,53,0.0758076180046544,1
534,460,54,0.0794336534681217,1
534,461,54,0.0803563966426197,1
535,460,54,0.0773111326853611,1
535,461,54,0.0807156724666992,1
535,462,54,0.0713827550358657,1
536,461,54,0.0735777206433879,1
