x,y,z,signal,mito.p
743,27,13,0.0861091762971084,1
743,28,13,0.0818859857378023,1
744,28,13,0.0729885209807825,1
742,27,14,0.0814210998270373,1
742,28,14,0.0826519403231559,1
743,27,14,0.095698085760902,1
743,28,14,0.0972520200989898,1
744,28,14,0.0753548611750507,1
751,30,14,0.0717614622699696,1
742,27,15,0.0849730234945886,1
742,28,15,0.0995683200584158,1
742,29,15,0.0737929714037295,1
743,27,15,0.0884906063123495,1
743,28,15,0.101420505392238,1
743,29,15,0.0763900129417262,1
750,29,15,0.0713734871738502,1
750,30,15,0.07157737391815,1
751,28,15,0.0715361910225763,1
751,29,15,0.0765390202588025,1
751,30,15,0.0761775549800725,1
752,29,15,0.0728231673943258,1
752,30,15,0.0728246975245646,1
742,28,16,0.0970443142491346,1
742,29,16,0.0788725435134775,1
743,28,16,0.0881873170829021,1
743,29,16,0.0738668965983969,1
750,29,16,0.0727061124310573,1
750,30,16,0.0715836810403538,1
751,28,16,0.0718137043995456,1
751,29,16,0.0774541687624811,1
751,30,16,0.0774640772887836,1
752,29,16,0.0729842104919391,1
752,30,16,0.0736824474841632,1
758,27,16,0.0735907143103344,1
758,28,16,0.08437652150312,1
758,32,16,0.082178812857243,1
742,28,17,0.0835519554655703,1
742,29,17,0.0794297224018171,1
750,28,17,0.0730683800951565,1
750,29,17,0.0757748383853109,1
750,30,17,0.0727134458601287,1
751,29,17,0.075674160791631,1
751,30,17,0.0751675197414632,1
757,27,17,0.0724476075012822,1
757,28,17,0.0828443199904566,1
757,32,17,0.0779064901891714,1
758,27,17,0.088841572160823,1
758,28,17,0.102467680499367,1
758,32,17,0.0867265900685073,1
750,28,18,0.0721746471947795,1
750,29,18,0.0758633246974135,1
750,30,18,0.0719051141312101,1
751,29,18,0.0739520427481488,1
751,30,18,0.0735590729586076,1
757,27,18,0.0740151015301041,1
757,28,18,0.0875385916219823,1
757,32,18,0.0719200049108512,1
758,27,18,0.0849709335606039,1
758,28,18,0.100607583272603,1
758,32,18,0.0736224178624775,1
750,29,19,0.07243766165473,1
757,28,19,0.0784617097644004,1
758,28,19,0.081050068124294,1
747,29,23,0.0721626425144507,1
746,29,24,0.0733570086865029,1
747,29,24,0.0845733547202214,1
746,29,25,0.0825358805665469,1
747,29,25,0.0864806247426404,1
747,30,25,0.0718882391582919,1
746,29,26,0.072053766905914,1
747,29,26,0.0714974899236095,1
756,42,30,0.0836239897675849,1
755,42,31,0.0796690633833575,1
755,43,31,0.109583016251344,1
756,42,31,0.113687845638641,1
756,43,31,0.151184806748015,1
757,42,31,0.119830198939946,1
755,42,32,0.0953925386563461,1
755,43,32,0.142934842103716,1
755,44,32,0.110718820731533,1
756,42,32,0.124659053612028,1
756,43,32,0.189520863912166,1
757,42,32,0.122522170753164,1
757,43,32,0.180648646304087,1
758,21,32,0.0724658322232322,1
758,22,32,0.0840924584223236,1
758,23,32,0.0735674824548794,1
758,42,32,0.107735166286532,1
759,42,32,0.0889373545817472,1
754,43,33,0.0886372935539011,1
754,44,33,0.0852101190411037,1
754,45,33,0.080114517884098,1
755,42,33,0.101378781353043,1
755,43,33,0.1537561719542,1
755,44,33,0.142209659891189,1
756,20,33,0.0769967842219113,1
756,21,33,0.0723483480770918,1
756,42,33,0.117890018677309,1
756,43,33,0.189248637570575,1
756,44,33,0.189622760634004,1
757,20,33,0.0920211641369321,1
757,21,33,0.0909709349893669,1
757,22,33,0.0812201738225492,1
757,42,33,0.113351440907603,1
757,43,33,0.179110629052508,1
757,44,33,0.180497300251361,1
758,20,33,0.0743758515040477,1
758,21,33,0.0816466012159706,1
758,22,33,0.0885515502801535,1
758,23,33,0.0770048267357274,1
758,42,33,0.104137612393648,1
758,43,33,0.155030745562957,1
759,42,33,0.0883258498498884,1
759,43,33,0.11708229651247,1
753,43,34,0.0728306936446874,1
754,42,34,0.0792866303443225,1
754,43,34,0.103204506629809,1
754,44,34,0.0989652061627039,1
754,45,34,0.0908310275931823,1
755,42,34,0.0936900946045117,1
755,43,34,0.135255143315327,1
755,44,34,0.147034384455635,1
755,45,34,0.135914417966836,1
756,20,34,0.0920912204657111,1
756,21,34,0.0860218593528306,1
756,42,34,0.0989804203845093,1
756,43,34,0.151545544281876,1
756,44,34,0.174112017004501,1
756,45,34,0.146184801410685,1
757,19,34,0.0762120326707785,1
757,20,34,0.11078756463153,1
757,21,34,0.106703286261749,1
757,22,34,0.0892236008971526,1
757,42,34,0.0991666795308547,1
757,43,34,0.150435938616995,1
757,44,34,0.157861884587407,1
757,45,34,0.115188741681825,1
758,20,34,0.0843474241484163,1
758,21,34,0.0896868322768464,1
758,22,34,0.0860921085029,1
758,23,34,0.077820168451553,1
758,24,34,0.071908037550772,1
758,42,34,0.0934885341557783,1
758,43,34,0.131846747108184,1
758,44,34,0.115812437695261,1
759,25,34,0.0716873318139287,1
759,42,34,0.0799009216548276,1
759,43,34,0.0972357484701089,1
760,25,34,0.0773460582190639,1
760,26,34,0.0720316484379092,1
761,25,34,0.080424742459953,1
761,26,34,0.0780698969026007,1
762,26,34,0.0723201277482567,1
749,41,35,0.0770385518013973,1
749,42,35,0.0718472490840085,1
753,42,35,0.072605441057419,1
753,43,35,0.0884465684176717,1
753,44,35,0.0746040834912527,1
754,42,35,0.0848723832211584,1
754,43,35,0.108615376816424,1
754,44,35,0.100974833190041,1
754,45,35,0.0882333018506073,1
755,42,35,0.0848199855905418,1
755,43,35,0.111004557003525,1
755,44,35,0.129969613187419,1
755,45,35,0.132010782045817,1
756,19,35,0.0727962035138981,1
756,20,35,0.0971615309334853,1
756,21,35,0.0922338460200842,1
756,22,35,0.0786155313936915,1
756,42,35,0.0861279608228043,1
756,43,35,0.116178686185998,1
756,44,35,0.137202016342748,1
756,45,35,0.124622653928461,1
757,19,35,0.0792589262789419,1
757,20,35,0.118064553045199,1
757,21,35,0.115490289299619,1
757,22,35,0.0923473804397951,1
757,23,35,0.0803599420663438,1
757,24,35,0.0716923140672672,1
757,42,35,0.088941198567469,1
757,43,35,0.122053926019924,1
757,44,35,0.124233839126723,1
757,45,35,0.0941935945336608,1
758,20,35,0.0971676327943156,1
758,21,35,0.104164084890787,1
758,22,35,0.088232057842283,1
758,23,35,0.0774171906150434,1
758,24,35,0.0781405254752089,1
758,25,35,0.0894784608825377,1
758,26,35,0.0879638620876621,1
758,42,35,0.0840959043253817,1
758,43,35,0.107520151887772,1
758,44,35,0.0960527898543899,1
759,21,35,0.0763008299849621,1
759,22,35,0.0713975711750073,1
759,24,35,0.0744407265381563,1
759,25,35,0.090652170296366,1
759,26,35,0.0911523425032478,1
759,27,35,0.0748301446839319,1
759,42,35,0.0728250707270619,1
759,43,35,0.0799182009304511,1
760,24,35,0.0755854443379884,1
760,25,35,0.099121820590683,1
760,26,35,0.0963116182263293,1
760,27,35,0.0749905097970084,1
761,25,35,0.10061889130827,1
761,26,35,0.102358046045753,1
761,27,35,0.0798141209740044,1
762,25,35,0.0776662162013879,1
762,26,35,0.0888875507084866,1
762,27,35,0.0842359610025652,1
762,28,35,0.0734478959346711,1
763,26,35,0.0731852919974677,1
763,27,35,0.0866561232169812,1
763,28,35,0.0856455157345428,1
763,29,35,0.0779296536241686,1
763,30,35,0.0784890779475334,1
763,31,35,0.0745643312052519,1
764,27,35,0.0799255841198555,1
764,28,35,0.0832159301570707,1
764,29,35,0.0761260343753245,1
764,30,35,0.0772216511665992,1
764,31,35,0.0746179417439846,1
748,40,36,0.0818639854505883,1
748,41,36,0.0991743301820487,1
748,42,36,0.0907970537258476,1
749,40,36,0.082029289276712,1
749,41,36,0.107156814376514,1
749,42,36,0.105026027158439,1
750,41,36,0.0846464650894364,1
750,42,36,0.0832739631453961,1
753,42,36,0.0800711268737488,1
753,43,36,0.0974542771923848,1
753,44,36,0.0789651412730916,1
754,22,36,0.082941526800912,1
754,23,36,0.0754776385766106,1
754,42,36,0.085527596185489,1
754,43,36,0.105970391197612,1
754,44,36,0.0981961477765814,1
754,45,36,0.0816081551387103,1
755,20,36,0.0744764855574363,1
755,21,36,0.0799358782887385,1
755,22,36,0.0847267160664326,1
755,23,36,0.0782233391093529,1
755,42,36,0.0792095329284283,1
755,43,36,0.0943312938150699,1
755,44,36,0.107734482081953,1
755,45,36,0.108654923841052,1
755,46,36,0.0785115633979939,1
756,19,36,0.0719191963054404,1
756,20,36,0.0920712852323153,1
756,21,36,0.0917826628610106,1
756,22,36,0.0852072391618331,1
756,23,36,0.0830947699663323,1
756,24,36,0.0732924073342256,1
756,42,36,0.0774987540208216,1
756,43,36,0.0918176132748798,1
756,44,36,0.101458223724629,1
756,45,36,0.0946028981524991,1
757,19,36,0.0735298201028634,1
757,20,36,0.105432382477548,1
757,21,36,0.106685472062546,1
757,22,36,0.0905672480681124,1
757,23,36,0.0865579771802411,1
757,24,36,0.0865797348858319,1
757,25,36,0.0889313895618325,1
757,26,36,0.0758207671726415,1
757,42,36,0.0813738150706333,1
757,43,36,0.0986022418539432,1
757,44,36,0.0943200666399437,1
757,45,36,0.0748173376182339,1
758,20,36,0.0930769664417898,1
758,21,36,0.102127842305354,1
758,22,36,0.0870275343422635,1
758,23,36,0.0782319041066652,1
758,24,36,0.0875196142749962,1
758,25,36,0.108790881510807,1
758,26,36,0.109806975069955,1
758,27,36,0.0921196398358782,1
758,42,36,0.0808012788995311,1
758,43,36,0.0908133066946036,1
758,44,36,0.0792223524342095,1
759,21,36,0.076177990382986,1
759,24,36,0.0836783342712289,1
759,25,36,0.111672776074886,1
759,26,36,0.116109183440923,1
759,27,36,0.100332414851325,1
759,28,36,0.0714781020538763,1
759,42,36,0.074628179932493,1
759,43,36,0.0738979346060864,1
760,24,36,0.081619898577291,1
760,25,36,0.117323124083957,1
760,26,36,0.115399825014281,1
760,27,36,0.0907414963140874,1
761,24,36,0.0734442385501979,1
761,25,36,0.11405790079485,1
761,26,36,0.120559909342773,1
761,27,36,0.0942168699294072,1
761,28,36,0.0737537851415162,1
762,25,36,0.0826222458444566,1
762,26,36,0.101500638188443,1
762,27,36,0.100115366498955,1
762,28,36,0.08819966386552,1
762,29,36,0.0764215983130784,1
762,30,36,0.0718911563578122,1
762,31,36,0.0723507863334073,1
762,32,36,0.0714962521353269,1
763,26,36,0.0800516954637243,1
763,27,36,0.101899429936942,1
763,28,36,0.104810428075766,1
763,29,36,0.0929048392300077,1
763,30,36,0.0951336418639489,1
763,31,36,0.100367981049314,1
763,32,36,0.0921036792090783,1
763,33,36,0.0741114561948574,1
764,27,36,0.0900632505356337,1
764,28,36,0.0957871691970002,1
764,29,36,0.0867755417960658,1
764,30,36,0.0921759623127577,1
764,31,36,0.0976243642305153,1
764,32,36,0.0862521688339371,1
765,31,36,0.0714168533040328,1
747,21,37,0.0775553066392411,1
747,40,37,0.0774448698002575,1
747,41,37,0.0808483086342286,1
748,21,37,0.0808836695708449,1
748,39,37,0.0719322148525535,1
748,40,37,0.111633154409759,1
748,41,37,0.130916328402325,1
748,42,37,0.112899592204076,1
749,40,37,0.104798796597935,1
749,41,37,0.138525902441477,1
749,42,37,0.133869753445048,1
749,43,37,0.0807644127128425,1
750,40,37,0.0766596766261697,1
750,41,37,0.101130004568364,1
750,42,37,0.103249129208399,1
750,43,37,0.0766011087142649,1
751,41,37,0.0725355526697637,1
751,42,37,0.0792904245697114,1
751,43,37,0.0737648070552689,1
752,42,37,0.0775538822497098,1
752,43,37,0.0815908509829202,1
753,21,37,0.0727210654111146,1
753,22,37,0.0863298136134939,1
753,23,37,0.080436579199158,1
753,42,37,0.084795223604848,1
753,43,37,0.0952849568164667,1
753,44,37,0.0770838772446907,1
754,20,37,0.0729195531592872,1
754,21,37,0.0808480411724389,1
754,22,37,0.101944817580651,1
754,23,37,0.104984178718411,1
754,24,37,0.0829472056989121,1
754,42,37,0.0862693796891028,1
754,43,37,0.0971306422067946,1
754,44,37,0.0884612663760225,1
755,20,37,0.0796002386228194,1
755,21,37,0.0874559521490037,1
755,22,37,0.101428330204597,1
755,23,37,0.111971313192535,1
755,24,37,0.101067623770945,1
755,25,37,0.0743926207362583,1
755,42,37,0.0816053001396062,1
755,43,37,0.0890087046791834,1
755,44,37,0.0894196877092595,1
755,45,37,0.0799678430826296,1
756,20,37,0.0826511254977036,1
756,21,37,0.0884893187637339,1
756,22,37,0.0918495656286877,1
756,23,37,0.100492338341446,1
756,24,37,0.103005950461178,1
756,25,37,0.0913139267444821,1
756,42,37,0.0763600447811955,1
756,43,37,0.0821486207752139,1
756,44,37,0.0788860658839619,1
757,20,37,0.0878890225468764,1
757,21,37,0.0969114230598987,1
757,22,37,0.0950091601709847,1
757,23,37,0.0948623049883093,1
757,24,37,0.105840429647979,1
757,25,37,0.115724772428653,1
757,26,37,0.0975081862931153,1
757,27,37,0.0735404003936609,1
757,42,37,0.0752728561463174,1
757,43,37,0.0811545648235293,1
757,44,37,0.0724615590546384,1
758,20,37,0.0827113603807628,1
758,21,37,0.0974533317460584,1
758,22,37,0.0942616417889962,1
758,23,37,0.0882776383072828,1
758,24,37,0.105185919548352,1
758,25,37,0.132287785379373,1
758,26,37,0.130619470695914,1
758,27,37,0.111602713526065,1
758,28,37,0.0771280271001176,1
758,42,37,0.0767183751589485,1
758,43,37,0.0779419382063703,1
759,21,37,0.0733121870665808,1
759,22,37,0.0744207788646773,1
759,23,37,0.0763383119557712,1
759,24,37,0.100471488761932,1
759,25,37,0.133122825967013,1
759,26,37,0.136084722706424,1
759,27,37,0.12027919886441,1
759,28,37,0.086128949809422,1
759,42,37,0.0743487756628708,1
760,24,37,0.0908675205773736,1
760,25,37,0.12769508080748,1
760,26,37,0.127552915536186,1
760,27,37,0.102137962313071,1
760,28,37,0.0795844708173098,1
761,24,37,0.0780688519356083,1
761,25,37,0.119121387876966,1
761,26,37,0.132617024622464,1
761,27,37,0.105471120896765,1
761,28,37,0.0840876565501921,1
761,29,37,0.0766922261039732,1
762,25,37,0.0881402873482045,1
762,26,37,0.116040427100843,1
762,27,37,0.115029645457239,1
762,28,37,0.1037705552975,1
762,29,37,0.0906660098889731,1
762,30,37,0.0819064932150273,1
762,31,37,0.085722072006816,1
762,32,37,0.0863699515420752,1
762,33,37,0.0755609933543757,1
763,26,37,0.0871075924979694,1
763,27,37,0.109835288699415,1
763,28,37,0.117040510272859,1
763,29,37,0.103964800977287,1
763,30,37,0.101916976674355,1
763,31,37,0.115722197331422,1
763,32,37,0.112132611311854,1
763,33,37,0.0862118940644401,1
764,27,37,0.0914402744499326,1
764,28,37,0.0993604898077282,1
764,29,37,0.0925499236551047,1
764,30,37,0.0986629059198743,1
764,31,37,0.110630632981428,1
764,32,37,0.102023861869573,1
764,33,37,0.0783754066869069,1
765,30,37,0.0753660572499688,1
765,31,37,0.0794265626206736,1
765,32,37,0.0717469011525345,1
747,21,38,0.0930019029795057,1
747,40,38,0.0865119426522029,1
747,41,38,0.093645826568294,1
747,42,38,0.0737855757742419,1
748,21,38,0.0961051937050481,1
748,22,38,0.0877537242015331,1
748,39,38,0.0799287750012071,1
748,40,38,0.128027255910216,1
748,41,38,0.150135746968275,1
748,42,38,0.120824858235667,1
749,21,38,0.0781986082238672,1
749,22,38,0.0813329742773489,1
749,39,38,0.0749309031381529,1
749,40,38,0.122302852085603,1
749,41,38,0.159528681580711,1
749,42,38,0.144547251053084,1
749,43,38,0.0881177396973278,1
750,40,38,0.0863746538935408,1
750,41,38,0.116253239604869,1
750,42,38,0.12225895103184,1
750,43,38,0.0960847919685307,1
751,41,38,0.0865294334092416,1
751,42,38,0.105434970014863,1
751,43,38,0.10019526915362,1
752,21,38,0.0768083480609985,1
752,22,38,0.0879964364456321,1
752,23,38,0.0798885064517518,1
752,41,38,0.0729607298348192,1
752,42,38,0.0916637792055055,1
752,43,38,0.0918724864820617,1
753,20,38,0.0736293283287186,1
753,21,38,0.087003506321481,1
753,22,38,0.108907171408956,1
753,23,38,0.102030660375065,1
753,24,38,0.0763474740770791,1
753,41,38,0.0724063935055004,1
753,42,38,0.0852646439259547,1
753,43,38,0.0849494122165947,1
754,19,38,0.0797847996978023,1
754,20,38,0.0838609546932259,1
754,21,38,0.0904241249104097,1
754,22,38,0.114158453987697,1
754,23,38,0.127393545629769,1
754,24,38,0.116524918582798,1
754,25,38,0.0821502255459521,1
754,41,38,0.0720124160692166,1
754,42,38,0.0819279834588283,1
754,43,38,0.0825661224089089,1
754,44,38,0.0736311570209552,1
755,19,38,0.0721362135576024,1
755,20,38,0.0821986983303058,1
755,21,38,0.0891121377513016,1
755,22,38,0.10724393227946,1
755,23,38,0.143141695807869,1
755,24,38,0.16352209758249,1
755,25,38,0.122087700845927,1
755,26,38,0.071997929592281,1
755,42,38,0.0795902989963088,1
755,43,38,0.0817543447769322,1
755,44,38,0.074089822890099,1
756,20,38,0.0750753325045961,1
756,21,38,0.0854445275296385,1
756,22,38,0.0951070449659768,1
756,23,38,0.117501552197902,1
756,24,38,0.144857705770479,1
756,25,38,0.129596671931898,1
756,26,38,0.0890624769389983,1
756,42,38,0.0714951325278351,1
756,43,38,0.0733765022969435,1
757,20,38,0.073212722381017,1
757,21,38,0.0896422470185059,1
757,22,38,0.0992895688931638,1
757,23,38,0.10201260981428,1
757,24,38,0.121600024702662,1
757,25,38,0.138480707619058,1
757,26,38,0.11925147382743,1
757,27,38,0.0874786117606295,1
758,21,38,0.0865776262917223,1
758,22,38,0.0982158217682291,1
758,23,38,0.0983483708551758,1
758,24,38,0.118318343183425,1
758,25,38,0.145749448257537,1
758,26,38,0.140678969848639,1
758,27,38,0.118825612457797,1
758,28,38,0.086945697254654,1
759,22,38,0.0768715312437861,1
759,23,38,0.0876754947380639,1
759,24,38,0.115847605810587,1
759,25,38,0.142363158078316,1
759,26,38,0.140845318641756,1
759,27,38,0.124239486924515,1
759,28,38,0.0935576823584806,1
760,24,38,0.0991406610967534,1
760,25,38,0.127137578476976,1
760,26,38,0.131785641419298,1
760,27,38,0.10921957921942,1
760,28,38,0.0852154060764817,1
760,34,38,0.0747758001802878,1
761,24,38,0.0781107687960933,1
761,25,38,0.11031652087956,1
761,26,38,0.130781502780145,1
761,27,38,0.110327468152813,1
761,28,38,0.0900065050959239,1
761,29,38,0.0842616062341692,1
761,30,38,0.0773364855750089,1
761,31,38,0.0759233605391408,1
761,32,38,0.0740894434675601,1
761,33,38,0.0764774045265034,1
761,34,38,0.0823944617002483,1
761,35,38,0.0715748299211269,1
762,25,38,0.0836363925305774,1
762,26,38,0.116008058004247,1
762,27,38,0.117038407898791,1
762,28,38,0.109067810203864,1
762,29,38,0.102589033511396,1
762,30,38,0.0960009147072695,1
762,31,38,0.100947079364327,1
762,32,38,0.095138779618328,1
762,33,38,0.0825262643822006,1
762,34,38,0.080351171807658,1
762,35,38,0.0726215820654258,1
763,26,38,0.086769987298898,1
763,27,38,0.105332277127698,1
763,28,38,0.114241678144588,1
763,29,38,0.108639759379579,1
763,30,38,0.105606755124356,1
763,31,38,0.120628852284102,1
763,32,38,0.116609971431926,1
763,33,38,0.090874343963032,1
763,34,38,0.079308195228623,1
763,35,38,0.0741555376298265,1
764,27,38,0.0809504479376896,1
764,28,38,0.0900343584423034,1
764,29,38,0.0908335218298724,1
764,30,38,0.0967651214609276,1
764,31,38,0.108897841346524,1
764,32,38,0.103231706871818,1
764,33,38,0.0799856324016661,1
765,30,38,0.0757248852310514,1
765,31,38,0.0783068120679088,1
746,21,39,0.0761415595992109,1
746,41,39,0.0747309225799912,1
747,21,39,0.0913071717792816,1
747,22,39,0.0796552922112082,1
747,39,39,0.0724697073091622,1
747,40,39,0.103254416243777,1
747,41,39,0.125878231530107,1
747,42,39,0.098627233981177,1
748,21,39,0.0916052486138504,1
748,22,39,0.0938530285947778,1
748,39,39,0.0850333081379808,1
748,40,39,0.137334714710694,1
748,41,39,0.1687025836475,1
748,42,39,0.128088013276771,1
748,43,39,0.0761410122355482,1
749,21,39,0.078046478445897,1
749,22,39,0.0881372146476437,1
749,39,39,0.0786693534138393,1
749,40,39,0.131480386656698,1
749,41,39,0.165626648665007,1
749,42,39,0.137543782749664,1
749,43,39,0.094965352417847,1
750,40,39,0.0915811335124852,1
750,41,39,0.121525720085456,1
750,42,39,0.131262249797044,1
750,43,39,0.118715343559937,1
750,44,39,0.076636357690132,1
751,22,39,0.0774029467197309,1
751,23,39,0.0777089167871171,1
751,41,39,0.0932518118117604,1
751,42,39,0.126217323319126,1
751,43,39,0.125108862141904,1
751,44,39,0.0795437979651491,1
752,21,39,0.0830244026354722,1
752,22,39,0.10878763464908,1
752,23,39,0.113745455664136,1
752,24,39,0.0857948651539083,1
752,41,39,0.080253498494081,1
752,42,39,0.101976832134875,1
752,43,39,0.0961723452743901,1
753,20,39,0.0776753285623629,1
753,21,39,0.0997206861979675,1
753,22,39,0.137357330782028,1
753,23,39,0.141668018666819,1
753,24,39,0.105934439357041,1
753,41,39,0.0815970834646246,1
753,42,39,0.0847536053063608,1
753,43,39,0.0743464431472629,1
754,19,39,0.0821619316642831,1
754,20,39,0.0920019317682395,1
754,21,39,0.103820950074715,1
754,22,39,0.132753566976132,1
754,23,39,0.15088528686379,1
754,24,39,0.14931960286708,1
754,25,39,0.109776024142848,1
754,26,39,0.0718320659624113,1
754,40,39,0.07259573779249,1
754,41,39,0.0778344869873649,1
754,42,39,0.0776996862453513,1
755,19,39,0.0717375648700611,1
755,20,39,0.0848289984308508,1
755,21,39,0.0934587214962881,1
755,22,39,0.112780528167363,1
755,23,39,0.156398644676198,1
755,24,39,0.212535689674927,1
755,25,39,0.176489242271606,1
755,26,39,0.103858065063068,1
755,38,39,0.0836312485561567,1
755,39,39,0.0829646653557427,1
755,40,39,0.074641478381479,1
755,41,39,0.0722511599267613,1
755,42,39,0.0754158362430628,1
755,43,39,0.074607541834394,1
756,21,39,0.0852620874888484,1
756,22,39,0.0982148079014448,1
756,23,39,0.124863581020615,1
756,24,39,0.179592421036399,1
756,25,39,0.173277299859025,1
756,26,39,0.122697339565299,1
756,27,39,0.0789764057684675,1
756,37,39,0.0753170308819108,1
756,38,39,0.0858337279739573,1
756,39,39,0.0801871119898584,1
757,21,39,0.0832135478811298,1
757,22,39,0.0998013290375858,1
757,23,39,0.105020727682977,1
757,24,39,0.12943791158956,1
757,25,39,0.150531901419126,1
757,26,39,0.140619220128827,1
757,27,39,0.106842938636227,1
757,28,39,0.080018667042716,1
757,36,39,0.0719034844803054,1
757,37,39,0.0734955165733227,1
757,38,39,0.0755478939467216,1
757,39,39,0.0714560395662461,1
758,21,39,0.0735925492226127,1
758,22,39,0.0959739881470915,1
758,23,39,0.10441613341736,1
758,24,39,0.120097536328823,1
758,25,39,0.141020661615056,1
758,26,39,0.143138001103146,1
758,27,39,0.122928252390443,1
758,28,39,0.0973825601124929,1
758,35,39,0.0733217534905942,1
759,22,39,0.078027071916039,1
759,23,39,0.101323049780118,1
759,24,39,0.127576825376178,1
759,25,39,0.140330112594275,1
759,26,39,0.140193321438943,1
759,27,39,0.121765701731283,1
759,28,39,0.0940390451595,1
759,33,39,0.0733946959186854,1
759,34,39,0.0860212249085853,1
759,35,39,0.0815863476727865,1
760,23,39,0.0802015611465444,1
760,24,39,0.112350648650842,1
760,25,39,0.129209250419483,1
760,26,39,0.139247240668282,1
760,27,39,0.119754028310253,1
760,28,39,0.0885152127970028,1
760,29,39,0.0736599806938276,1
760,33,39,0.0856243738130725,1
760,34,39,0.100067776960511,1
760,35,39,0.0883444539943773,1
761,24,39,0.0795652446686588,1
761,25,39,0.102977661711885,1
761,26,39,0.1266490190878,1
761,27,39,0.116907998506162,1
761,28,39,0.0941032919694049,1
761,29,39,0.0897301673068209,1
761,30,39,0.0904597035484827,1
761,31,39,0.0900163638618934,1
761,32,39,0.0838073068342435,1
761,33,39,0.0900226896442221,1
761,34,39,0.0986126977439083,1
761,35,39,0.0862702256147633,1
762,25,39,0.0752784977240678,1
762,26,39,0.106012438678971,1
762,27,39,0.113309866149407,1
762,28,39,0.1080515051633,1
762,29,39,0.111070215762878,1
762,30,39,0.118019918026525,1
762,31,39,0.122698620893873,1
762,32,39,0.107797515983742,1
762,33,39,0.0985943921614173,1
762,34,39,0.0965022376218512,1
762,35,39,0.0846626558577763,1
762,36,39,0.0751318167025578,1
763,26,39,0.0794550193110904,1
763,27,39,0.0934351661986688,1
763,28,39,0.101483383792986,1
763,29,39,0.106850228525007,1
763,30,39,0.114679705915633,1
763,31,39,0.126454020782977,1
763,32,39,0.117296216183904,1
763,33,39,0.0993165638737996,1
763,34,39,0.0884005463297168,1
763,35,39,0.0786169620032643,1
763,36,39,0.0747872637169956,1
764,28,39,0.076739349139295,1
764,29,39,0.084634684330606,1
764,30,39,0.0935027904911739,1
764,31,39,0.102101027705925,1
764,32,39,0.0982687543224251,1
764,33,39,0.0814059726858147,1
765,31,39,0.0729894228868176,1
746,21,40,0.0725116677099385,1
746,39,40,0.0873264135622015,1
746,40,40,0.0955559080495257,1
746,41,40,0.0977859422517079,1
746,42,40,0.0765637760244547,1
747,21,40,0.0791217432609874,1
747,22,40,0.077757122109681,1
747,39,40,0.0982076548535805,1
747,40,40,0.132366792348045,1
747,41,40,0.164643807448365,1
747,42,40,0.128444011138916,1
748,21,40,0.0769513903581601,1
748,22,40,0.0860824114580126,1
748,39,40,0.0956859131394494,1
748,40,40,0.145254905188323,1
748,41,40,0.179204750722319,1
748,42,40,0.132616551899301,1
748,43,40,0.0771295199101067,1
749,22,40,0.0834780053907364,1
749,39,40,0.0852924164117932,1
749,40,40,0.133259069758683,1
749,41,40,0.155687905400315,1
749,42,40,0.121424470247947,1
749,43,40,0.0915143551456405,1
750,40,40,0.0938271967619252,1
750,41,40,0.114984164512905,1
750,42,40,0.1234397637332,1
750,43,40,0.121674018317787,1
750,44,40,0.0792264016813049,1
751,22,40,0.0786441809053985,1
751,23,40,0.0873301455871742,1
751,24,40,0.0798790830886957,1
751,41,40,0.0910158499099132,1
751,42,40,0.124170631063769,1
751,43,40,0.124860296838639,1
751,44,40,0.0782236749916004,1
752,21,40,0.0804445532925163,1
752,22,40,0.114135526914282,1
752,23,40,0.139385362912522,1
752,24,40,0.118315917367193,1
752,25,40,0.078261001461369,1
752,41,40,0.0846446052969917,1
752,42,40,0.102410729798284,1
752,43,40,0.0911576792989588,1
753,20,40,0.074063536994208,1
753,21,40,0.0996364232941258,1
753,22,40,0.150326627605545,1
753,23,40,0.178405686855416,1
753,24,40,0.14605801208228,1
753,25,40,0.0933985363735618,1
753,40,40,0.0771974738648178,1
753,41,40,0.0937637461173478,1
753,42,40,0.0886930375669099,1
754,19,40,0.0762273837334995,1
754,20,40,0.0890282356098738,1
754,21,40,0.106630723256197,1
754,22,40,0.140183170331017,1
754,23,40,0.164717552261826,1
754,24,40,0.169203931442248,1
754,25,40,0.133382798826611,1
754,26,40,0.091024259406185,1
754,38,40,0.0729798875630124,1
754,39,40,0.0802449397168103,1
754,40,40,0.0848388385366955,1
754,41,40,0.088530526539474,1
754,42,40,0.0792188754309433,1
755,20,40,0.0843866041905879,1
755,21,40,0.0972261198456793,1
755,22,40,0.110903643048264,1
755,23,40,0.147530706456753,1
755,24,40,0.218444654574523,1
755,25,40,0.208444444858531,1
755,26,40,0.13565149680751,1
755,27,40,0.0828011777817723,1
755,37,40,0.0820229883745498,1
755,38,40,0.108100792773106,1
755,39,40,0.104092523311936,1
755,40,40,0.0844592791568895,1
755,41,40,0.0751600370313929,1
755,42,40,0.0719569892783305,1
756,21,40,0.0872939262848142,1
756,22,40,0.095916253720764,1
756,23,40,0.120685890065768,1
756,24,40,0.188174859345432,1
756,25,40,0.198742200016358,1
756,26,40,0.149630094904725,1
756,27,40,0.102138043173612,1
756,28,40,0.0754327485362308,1
756,36,40,0.0747528917669971,1
756,37,40,0.0959205642096074,1
756,38,40,0.110452354148483,1
756,39,40,0.0949818604083095,1
756,40,40,0.072899624145933,1
757,21,40,0.0763966061858446,1
757,22,40,0.0927108734520936,1
757,23,40,0.100988368000608,1
757,24,40,0.125507380208571,1
757,25,40,0.146420764909625,1
757,26,40,0.145597044797736,1
757,27,40,0.12195334794691,1
757,28,40,0.0966464990471706,1
757,35,40,0.0875815410093764,1
757,36,40,0.0902370944789033,1
757,37,40,0.0914858860151405,1
757,38,40,0.0892188114651043,1
757,39,40,0.0782871131960946,1
758,22,40,0.084084061366135,1
758,23,40,0.0989660894086141,1
758,24,40,0.109492253404008,1
758,25,40,0.126506916016924,1
758,26,40,0.138555460079261,1
758,27,40,0.124274294277427,1
758,28,40,0.103104818022747,1
758,29,40,0.0772051804963864,1
758,34,40,0.0872359679369883,1
758,35,40,0.102793679100773,1
758,36,40,0.0886548838316057,1
758,37,40,0.0773581624200586,1
758,38,40,0.0749189668782819,1
758,39,40,0.0726933924459421,1
758,40,40,0.0725214953756999,1
759,23,40,0.102216197996582,1
759,24,40,0.127904708650196,1
759,25,40,0.137962416430934,1
759,26,40,0.141458614745601,1
759,27,40,0.118490277573917,1
759,28,40,0.090493783156525,1
759,29,40,0.0723920438694804,1
759,33,40,0.0878013261800598,1
759,34,40,0.117575458732444,1
759,35,40,0.119282151072706,1
759,36,40,0.0862622328612801,1
760,23,40,0.0813408612901245,1
760,24,40,0.117905755382611,1
760,25,40,0.13356151306247,1
760,26,40,0.143146000076671,1
760,27,40,0.122277051352958,1
760,28,40,0.0885136204663477,1
760,29,40,0.0750067067853899,1
760,30,40,0.0715675960127215,1
760,32,40,0.0747740834488004,1
760,33,40,0.0987551304769911,1
760,34,40,0.126783807389731,1
760,35,40,0.117633006557523,1
760,36,40,0.0810526867618165,1
761,24,40,0.0760523331021554,1
761,25,40,0.0954045930970079,1
761,26,40,0.1161237507784,1
761,27,40,0.11464504784372,1
761,28,40,0.0951481159008013,1
761,29,40,0.0921630246261857,1
761,30,40,0.0978959312476948,1
761,31,40,0.0956386097229206,1
761,32,40,0.0905699351260928,1
761,33,40,0.103614631294141,1
761,34,40,0.112975028868857,1
761,35,40,0.0996649981653334,1
761,36,40,0.0792691582474087,1
762,26,40,0.0884044151956052,1
762,27,40,0.101137823160681,1
762,28,40,0.10023927594809,1
762,29,40,0.108923542558503,1
762,30,40,0.126419673713145,1
762,31,40,0.129748826590035,1
762,32,40,0.114877739600768,1
762,33,40,0.115778526028343,1
762,34,40,0.108324191787972,1
762,35,40,0.0930239903473025,1
762,36,40,0.0849922683033645,1
762,37,40,0.0728365902441442,1
763,27,40,0.0787650736343472,1
763,28,40,0.0860678752207439,1
763,29,40,0.0970881842026886,1
763,30,40,0.113926545955894,1
763,31,40,0.123930811139024,1
763,32,40,0.113922789050755,1
763,33,40,0.106470768665867,1
763,34,40,0.0925766325138259,1
763,35,40,0.08032470553056,1
763,36,40,0.0782356112514715,1
763,37,40,0.0726433584311415,1
764,29,40,0.0736403315823464,1
764,30,40,0.0832835979898673,1
764,31,40,0.0903381017347892,1
764,32,40,0.0878058232701519,1
764,33,40,0.0785201781556392,1
745,39,41,0.0783586125745297,1
746,38,41,0.0833794301711244,1
746,39,41,0.112600271361182,1
746,40,41,0.11241149309798,1
746,41,41,0.0993435401943106,1
746,42,41,0.0745878429625798,1
747,22,41,0.0719954602357574,1
747,38,41,0.0849831932626392,1
747,39,41,0.114225319435125,1
747,40,41,0.140288015352584,1
747,41,41,0.158640671118625,1
747,42,41,0.12395780611966,1
748,22,41,0.0759567808227713,1
748,38,41,0.0813585635285783,1
748,39,41,0.102432580804499,1
748,40,41,0.135142971084731,1
748,41,41,0.153891358338794,1
748,42,41,0.117606446979801,1
748,43,41,0.0718872750518406,1
749,22,41,0.0767786846825072,1
749,23,41,0.0715086673384027,1
749,38,41,0.0719148671564721,1
749,39,41,0.0916201891538245,1
749,40,41,0.121740697163966,1
749,41,41,0.128814215576124,1
749,42,41,0.105913651977944,1
749,43,41,0.0856591127455266,1
750,22,41,0.072538650250491,1
750,23,41,0.0730056820756153,1
750,39,41,0.0728708315732687,1
750,40,41,0.0909593657119516,1
750,41,41,0.100171720076042,1
750,42,41,0.110163943258593,1
750,43,41,0.111430468133492,1
750,44,41,0.074535712793753,1
751,22,41,0.0809433757503663,1
751,23,41,0.0935837692130397,1
751,24,41,0.0944980655710162,1
751,25,41,0.0720553530165274,1
751,40,41,0.0717885007908967,1
751,41,41,0.0876965433589099,1
751,42,41,0.109127933126174,1
751,43,41,0.106257234637013,1
752,21,41,0.0789914955894404,1
752,22,41,0.110838817774488,1
752,23,41,0.143485763630185,1
752,24,41,0.136666333918251,1
752,25,41,0.0887779722352467,1
752,40,41,0.0794060800236151,1
752,41,41,0.10103917330057,1
752,42,41,0.105145041434818,1
752,43,41,0.0830996278188384,1
753,21,41,0.0945913972955416,1
753,22,41,0.141609326354082,1
753,23,41,0.183118351150015,1
753,24,41,0.168570109201052,1
753,25,41,0.109482997982076,1
753,26,41,0.0774613280303871,1
753,39,41,0.0802442244120239,1
753,40,41,0.0976737140407375,1
753,41,41,0.11799829716185,1
753,42,41,0.10326260181855,1
753,43,41,0.0716722855332471,1
754,20,41,0.0823928133892187,1
754,21,41,0.105918441409992,1
754,22,41,0.134895512948875,1
754,23,41,0.161992539587516,1
754,24,41,0.17143715030574,1
754,25,41,0.144799249819324,1
754,26,41,0.109070969985007,1
754,27,41,0.0821379347437087,1
754,38,41,0.0868276470847262,1
754,39,41,0.0971457631279756,1
754,40,41,0.0990535431938075,1
754,41,41,0.103152009478526,1
754,42,41,0.0871660360090417,1
755,20,41,0.082888003342762,1
755,21,41,0.101556481722118,1
755,22,41,0.109792345532062,1
755,23,41,0.134993018321328,1
755,24,41,0.192526587064839,1
755,25,41,0.204012279560879,1
755,26,41,0.15352976243919,1
755,27,41,0.103911426800136,1
755,28,41,0.075315650032671,1
755,37,41,0.0974604412536314,1
755,38,41,0.123656084340701,1
755,39,41,0.114235806425298,1
755,40,41,0.088780758813893,1
755,41,41,0.0784744546296821,1
756,21,41,0.085446965785954,1
756,22,41,0.0928790198372382,1
756,23,41,0.115635527271473,1
756,24,41,0.171292223335967,1
756,25,41,0.189480072879215,1
756,26,41,0.153842331970736,1
756,27,41,0.117816323624182,1
756,28,41,0.0938359794606942,1
756,29,41,0.0717531833945718,1
756,35,41,0.0719538543773535,1
756,36,41,0.0895547310328963,1
756,37,41,0.118510368308353,1
756,38,41,0.127629098605962,1
756,39,41,0.101421525479064,1
756,40,41,0.0741279704053615,1
757,22,41,0.0830205710898336,1
757,23,41,0.0978146353037063,1
757,24,41,0.118667424359287,1
757,25,41,0.133232273819379,1
757,26,41,0.133978218530837,1
757,27,41,0.125100116763384,1
757,28,41,0.108992784061829,1
757,29,41,0.0827919347999232,1
757,34,41,0.0739065058234404,1
757,35,41,0.101445373118639,1
757,36,41,0.107403115584628,1
757,37,41,0.111161749895375,1
757,38,41,0.101257975704677,1
757,39,41,0.0830312820015052,1
757,40,41,0.0716241610712243,1
758,23,41,0.0902742156872983,1
758,24,41,0.1026202830005,1
758,25,41,0.118804800198532,1
758,26,41,0.130233952516235,1
758,27,41,0.118729264013085,1
758,28,41,0.100403752508678,1
758,29,41,0.0810285654404096,1
758,34,41,0.100330411997923,1
758,35,41,0.130020704609296,1
758,36,41,0.11211997218728,1
758,37,41,0.0912133548915097,1
758,38,41,0.0793585153653382,1
758,39,41,0.0754197859694923,1
758,40,41,0.0746085868013864,1
759,23,41,0.0905828292723734,1
759,24,41,0.118568886459925,1
759,25,41,0.136242064879272,1
759,26,41,0.13741907091516,1
759,27,41,0.108961099169811,1
759,28,41,0.0833103441688382,1
759,29,41,0.0725025055886305,1
759,33,41,0.0912741495783149,1
759,34,41,0.130794639508049,1
759,35,41,0.146659639388044,1
759,36,41,0.105854163499879,1
759,37,41,0.0749805577304146,1
760,23,41,0.0716969915385663,1
760,24,41,0.106513923314635,1
760,25,41,0.127103268727393,1
760,26,41,0.130814456560654,1
760,27,41,0.108777334260156,1
760,28,41,0.086500448015287,1
760,29,41,0.0784387453707351,1
760,30,41,0.0744646177180232,1
760,32,41,0.0778109379097872,1
760,33,41,0.104484578755359,1
760,34,41,0.134018686121625,1
760,35,41,0.129879385263663,1
760,36,41,0.0892620967347459,1
761,25,41,0.0822214325824311,1
761,26,41,0.0967420015662217,1
761,27,41,0.0986596217378983,1
761,28,41,0.093381555659936,1
761,29,41,0.0928727002749511,1
761,30,41,0.0957210563746089,1
761,31,41,0.090721604620983,1
761,32,41,0.0972006052349493,1
761,33,41,0.11686628690705,1
761,34,41,0.11818783427013,1
761,35,41,0.102180358116761,1
761,36,41,0.082168189026154,1
762,27,41,0.0800839650396549,1
762,28,41,0.0869463005986913,1
762,29,41,0.0963908615565828,1
762,30,41,0.112991511979153,1
762,31,41,0.115944215497047,1
762,32,41,0.11780922033665,1
762,33,41,0.128316077322852,1
762,34,41,0.110879322685525,1
762,35,41,0.0925222631300154,1
762,36,41,0.0864219510900281,1
762,37,41,0.074492794506567,1
763,29,41,0.0799356792474066,1
763,30,41,0.0969963639482772,1
763,31,41,0.106119224353523,1
763,32,41,0.104931233724132,1
763,33,41,0.103654781662806,1
763,34,41,0.0870664904629368,1
763,35,41,0.0753466942604021,1
763,36,41,0.0735446735622547,1
764,31,41,0.0751471491051539,1
764,32,41,0.0757863703424766,1
745,38,42,0.0797556899030153,1
745,39,42,0.0860868836679382,1
745,40,42,0.0728841486823796,1
746,38,42,0.0886896725243929,1
746,39,42,0.11316641954954,1
746,40,42,0.11208946910317,1
746,41,42,0.0908696913718994,1
747,37,42,0.0820256816525718,1
747,38,42,0.0938013835891974,1
747,39,42,0.109470433498001,1
747,40,42,0.125419615421296,1
747,41,42,0.125039396717079,1
747,42,42,0.0988030558976821,1
748,37,42,0.0846532449348035,1
748,38,42,0.0931595126141441,1
748,39,42,0.0956661458471774,1
748,40,42,0.110984901672003,1
748,41,42,0.115558510716119,1
748,42,42,0.0949278953272044,1
749,38,42,0.0783873616069027,1
749,39,42,0.0859673158078548,1
749,40,42,0.0969160010105319,1
749,41,42,0.0972020047443141,1
749,42,42,0.0885498459887493,1
749,43,42,0.0725830675677077,1
750,22,42,0.0731957230072664,1
750,23,42,0.0796299268814772,1
750,24,42,0.0825768395406221,1
750,40,42,0.0778610714452537,1
750,41,42,0.0798378566528307,1
750,42,42,0.0883087820556799,1
750,43,42,0.0855185522449718,1
751,22,42,0.0869756156548517,1
751,23,42,0.100894308531213,1
751,24,42,0.101399133329228,1
751,25,42,0.0762109752637029,1
751,40,42,0.0746120824647775,1
751,41,42,0.0826838055963811,1
751,42,42,0.0859260831519481,1
751,43,42,0.0773243564938477,1
752,21,42,0.077250829381844,1
752,22,42,0.108577919725782,1
752,23,42,0.136899137636048,1
752,24,42,0.134251576920004,1
752,25,42,0.0914145794579956,1
752,26,42,0.0714595414496788,1
752,39,42,0.0854381022266438,1
752,40,42,0.10052619402799,1
752,41,42,0.117246070208354,1
752,42,42,0.0996543245739115,1
753,21,42,0.0860204598434659,1
753,22,42,0.122385516438748,1
753,23,42,0.161752110098691,1
753,24,42,0.165553749777207,1
753,25,42,0.121169249500147,1
753,26,42,0.0958024829394715,1
753,27,42,0.0806759139606567,1
753,38,42,0.0940678252920811,1
753,39,42,0.110395154645735,1
753,40,42,0.119348979199884,1
753,41,42,0.133829298294344,1
753,42,42,0.106287065956628,1
754,20,42,0.0732478282959268,1
754,21,42,0.0954087169846028,1
754,22,42,0.115644683172739,1
754,23,42,0.14158035340021,1
754,24,42,0.161452764375632,1
754,25,42,0.150035803339506,1
754,26,42,0.130351212740877,1
754,27,42,0.103137205779468,1
754,28,42,0.0743997115837065,1
754,37,42,0.0868406407516727,1
754,38,42,0.106374656582737,1
754,39,42,0.110839427338567,1
754,40,42,0.10325235741,1
754,41,42,0.103013557572081,1
754,42,42,0.0837249659232627,1
755,20,42,0.0761841606642741,1
755,21,42,0.0939368063353731,1
755,22,42,0.0992339866012372,1
755,23,42,0.117225233068924,1
755,24,42,0.156779584905243,1
755,25,42,0.174968454535317,1
755,26,42,0.154393713780285,1
755,27,42,0.118419891582932,1
755,28,42,0.0868089993999459,1
755,36,42,0.0871929065888451,1
755,37,42,0.114118608401072,1
755,38,42,0.124647210652782,1
755,39,42,0.109096708517236,1
755,40,42,0.0860039207527952,1
755,41,42,0.0760310916600192,1
756,21,42,0.07385735505455,1
756,22,42,0.0813614185276824,1
756,23,42,0.0998027596471587,1
756,24,42,0.134435167668494,1
756,25,42,0.151937282503176,1
756,26,42,0.140102483951108,1
756,27,42,0.122680694733921,1
756,28,42,0.10425437501496,1
756,29,42,0.0804154870380207,1
756,35,42,0.0778725785222528,1
756,36,42,0.101854235114522,1
756,37,42,0.128551655179212,1
756,38,42,0.12592163498054,1
756,39,42,0.0996189263170455,1
756,40,42,0.0755983136041026,1
757,23,42,0.0859893036549855,1
757,24,42,0.102958460443401,1
757,25,42,0.114409756109275,1
757,26,42,0.117411685036559,1
757,27,42,0.117537205476474,1
757,28,42,0.108076248488869,1
757,29,42,0.0848561737926936,1
757,34,42,0.0779799986410502,1
757,35,42,0.103889345652381,1
757,36,42,0.111026028587202,1
757,37,42,0.113573944236474,1
757,38,42,0.101626152408316,1
757,39,42,0.0849020714798161,1
757,40,42,0.0717865476978277,1
758,23,42,0.0782814902784691,1
758,24,42,0.0959134049417015,1
758,25,42,0.111190859690162,1
758,26,42,0.113311844122642,1
758,27,42,0.102077764750262,1
758,28,42,0.0883292833128633,1
758,29,42,0.0758326412320963,1
758,33,42,0.072058742939211,1
758,34,42,0.105265772442684,1
758,35,42,0.141159567584539,1
758,36,42,0.122416193684023,1
758,37,42,0.0920547523616863,1
758,38,42,0.0756951720922272,1
758,39,42,0.0714734059224524,1
759,23,42,0.0727734941419393,1
759,24,42,0.100778360735353,1
759,25,42,0.123283864610008,1
759,26,42,0.117535526065236,1
759,27,42,0.0916524960500047,1
759,28,42,0.074358541128216,1
759,33,42,0.0886034938477318,1
759,34,42,0.125697091478016,1
759,35,42,0.149208226801812,1
759,36,42,0.112713277077355,1
759,37,42,0.0745607422412365,1
760,24,42,0.0816786282102779,1
760,25,42,0.103143587542171,1
760,26,42,0.102937635744053,1
760,27,42,0.087458098063363,1
760,28,42,0.0796419999822638,1
760,29,42,0.076221580434667,1
760,32,42,0.0786929273715835,1
760,33,42,0.103289366657646,1
760,34,42,0.122206093118144,1
760,35,42,0.11969983930765,1
760,36,42,0.0864895318422419,1
761,26,42,0.0734255411050847,1
761,27,42,0.0775284236193545,1
761,28,42,0.0830709907472146,1
761,29,42,0.0845292048647945,1
761,30,42,0.0829370919112361,1
761,31,42,0.0808615822030482,1
761,32,42,0.0981275593776249,1
761,33,42,0.116898991885894,1
761,34,42,0.108551148666644,1
761,35,42,0.0923368810095386,1
761,36,42,0.0758535778921931,1
762,29,42,0.0776131779064843,1
762,30,42,0.0871579126346845,1
762,31,42,0.0923187247080464,1
762,32,42,0.107578570518678,1
762,33,42,0.118354979228574,1
762,34,42,0.0969646106358012,1
762,35,42,0.081057208732075,1
762,36,42,0.0758945368662684,1
763,30,42,0.0735199053565192,1
763,31,42,0.0817630652752851,1
763,32,42,0.0877506266208058,1
763,33,42,0.0878288996245664,1
763,34,42,0.0731543535104441,1
744,37,43,0.0714347732439434,1
744,38,43,0.0778947654107155,1
745,38,43,0.0815148856146011,1
745,39,43,0.0782478274132154,1
746,37,43,0.0736032725743676,1
746,38,43,0.0801737078001649,1
746,39,43,0.0934246356682042,1
746,40,43,0.0938185260239053,1
746,41,43,0.0738979346060864,1
747,37,43,0.0937187254560939,1
747,38,43,0.0893223938182214,1
747,39,43,0.0910234632408575,1
747,40,43,0.0966445397340599,1
747,41,43,0.0856509707110445,1
748,37,43,0.0913042110394699,1
748,38,43,0.0906159261138396,1
748,39,43,0.0825480469679578,1
748,40,43,0.0850782354986104,1
748,41,43,0.0822273105217631,1
748,42,43,0.0714631117535694,1
749,24,43,0.0755969265348211,1
749,25,43,0.0718934826533786,1
749,38,43,0.0763614442905602,1
749,39,43,0.0762810253724404,1
749,40,43,0.0758599783150213,1
749,41,43,0.0748055941796532,1
749,42,43,0.0721105372257903,1
750,22,43,0.0725487702582086,1
750,23,43,0.0827129838116259,1
750,24,43,0.0886738860587584,1
750,25,43,0.0758650165487344,1
750,27,43,0.0764468765622268,1
751,22,43,0.0898401252025997,1
751,23,43,0.10252516612403,1
751,24,43,0.0969523695938908,1
751,25,43,0.0760889380470959,1
751,27,43,0.0718868272088439,1
751,39,43,0.0759188447889239,1
751,40,43,0.0831610569498889,1
751,41,43,0.0842424422859345,1
751,42,43,0.0714827359848841,1
752,21,43,0.0730662030805891,1
752,22,43,0.10198003545631,1
752,23,43,0.123035448587742,1
752,24,43,0.115988253391725,1
752,25,43,0.0919025666033415,1
752,26,43,0.0813983593548704,1
752,27,43,0.0720961627096038,1
752,38,43,0.0908066699101939,1
752,39,43,0.104972198918249,1
752,40,43,0.11826840868929,1
752,41,43,0.125921796701622,1
752,42,43,0.0900417727319158,1
753,21,43,0.0741803120556035,1
753,22,43,0.0984823070114041,1
753,23,43,0.127418015273507,1
753,24,43,0.137882588416768,1
753,25,43,0.122701519433269,1
753,26,43,0.113332544421157,1
753,27,43,0.0936133268508235,1
753,36,43,0.0735176723615772,1
753,37,43,0.100570698425789,1
753,38,43,0.124147990112268,1
753,39,43,0.129166680454628,1
753,40,43,0.127038480773867,1
753,41,43,0.130596792424164,1
753,42,43,0.0950565942083877,1
754,21,43,0.077427901526715,1
754,22,43,0.0902114119270495,1
754,23,43,0.11133423164953,1
754,24,43,0.133737030196936,1
754,25,43,0.137537612468376,1
754,26,43,0.134648875858513,1
754,27,43,0.113289041450059,1
754,28,43,0.0807559845564458,1
754,36,43,0.0976885488400039,1
754,37,43,0.122321089247636,1
754,38,43,0.124302533266387,1
754,39,43,0.11188631010374,1
754,40,43,0.0996080599043333,1
754,41,43,0.095120735277585,1
754,42,43,0.0748916857757315,1
755,21,43,0.0751640551782802,1
755,22,43,0.0820814381056638,1
755,23,43,0.0938405574113274,1
755,24,43,0.113833145810911,1
755,25,43,0.127115061926307,1
755,26,43,0.128654260985794,1
755,27,43,0.114697507674753,1
755,28,43,0.0903345065507321,1
755,35,43,0.0764895833679976,1
755,36,43,0.111230356954456,1
755,37,43,0.129808986832595,1
755,38,43,0.116851097565411,1
755,39,43,0.0967779347466671,1
755,40,43,0.0847817385546133,1
755,41,43,0.0760143908482664,1
756,23,43,0.0809911581101,1
756,24,43,0.0930361443086302,1
756,25,43,0.104923508432439,1
756,26,43,0.113512029942177,1
756,27,43,0.113640623082653,1
756,28,43,0.102658237694473,1
756,29,43,0.0814454761701506,1
756,35,43,0.083125658693023,1
756,36,43,0.110102414606877,1
756,37,43,0.123540416446714,1
756,38,43,0.109659050040121,1
756,39,43,0.0907241672781309,1
756,40,43,0.0768363693485018,1
757,23,43,0.0740403611191276,1
757,24,43,0.0867278962772477,1
757,25,43,0.0952291443830001,1
757,26,43,0.101057298501854,1
757,27,43,0.10219006138169,1
757,28,43,0.0971030314420383,1
757,29,43,0.0809451360221451,1
757,34,43,0.0839744455726455,1
757,35,43,0.10312577956301,1
757,36,43,0.110905658341749,1
757,37,43,0.103949020731694,1
757,38,43,0.0904505103269666,1
757,39,43,0.0794121383441541,1
758,24,43,0.0924195702428502,1
758,25,43,0.10213627046175,1
758,26,43,0.094288176486552,1
758,27,43,0.0836679281415967,1
758,28,43,0.0772401557904221,1
758,33,43,0.0771724133171262,1
758,34,43,0.104380672960077,1
758,35,43,0.134380481062561,1
758,36,43,0.122406863621592,1
758,37,43,0.0870238396375406,1
759,24,43,0.0833505131976276,1
759,25,43,0.100750700210264,1
759,26,43,0.091918583210516,1
759,27,43,0.0775351848045967,1
759,33,43,0.0838226952172142,1
759,34,43,0.10676414314897,1
759,35,43,0.126167339064658,1
759,36,43,0.107307948947824,1
759,37,43,0.0722775142431102,1
760,25,43,0.0745660354966561,1
760,26,43,0.076813100172797,1
760,27,43,0.0730951884745437,1
760,28,43,0.0716161994179492,1
760,32,43,0.0759587401358819,1
760,33,43,0.0909587872480808,1
760,34,43,0.0956472182605242,1
760,35,43,0.093863714626283,1
760,36,43,0.0786681031854734,1
761,32,43,0.0884673184765199,1
761,33,43,0.0968106210653863,1
761,34,43,0.0852149333533185,1
761,35,43,0.074194145428169,1
762,32,43,0.0862874986703452,1
762,33,43,0.0901431718504239,1
762,34,43,0.0744437245982177,1
744,37,44,0.0768739943802681,1
744,38,44,0.0785282517696635,1
745,37,44,0.0714199633248434,1
745,38,44,0.0724057715013383,1
746,37,44,0.0790231804814586,1
747,36,44,0.073975025801939,1
747,37,44,0.0969542293863355,1
747,38,44,0.0787332021410804,1
748,27,44,0.0721946819488413,1
748,28,44,0.0749081999862357,1
748,37,44,0.0858494646792588,1
748,38,44,0.0779612452155624,1
749,24,44,0.0774767599536492,1
749,25,44,0.0746723049077535,1
749,27,44,0.0822216067435965,1
749,28,44,0.0863142448493162,1
749,29,44,0.0721702931656447,1
750,23,44,0.0789264090739167,1
750,24,44,0.084483077036132,1
750,25,44,0.0759917872170151,1
750,26,44,0.0716668989772032,1
750,27,44,0.0817127015982786,1
750,28,44,0.0771360633938921,1
751,22,44,0.08218286832438,1
751,23,44,0.092996989146625,1
751,24,44,0.087228503887043,1
751,25,44,0.0794305932076441,1
751,26,44,0.0760609478598007,1
751,27,44,0.0727308308764598,1
751,38,44,0.0887240382543497,1
751,39,44,0.0887197339855479,1
751,40,44,0.0856252383988578,1
751,41,44,0.0816197057560008,1
752,22,44,0.0872353645929511,1
752,23,44,0.101940650152765,1
752,24,44,0.0961414814278659,1
752,25,44,0.0933685060126149,1
752,26,44,0.0915205005467622,1
752,27,44,0.0765797490913378,1
752,37,44,0.0937563815880683,1
752,38,44,0.115858876526005,1
752,39,44,0.11628040874667,1
752,40,44,0.117062753141696,1
752,41,44,0.113043511527106,1
752,42,44,0.0757045643550752,1
753,22,44,0.0765041196052662,1
753,23,44,0.0943832622628146,1
753,24,44,0.103585415758647,1
753,25,44,0.111608324003607,1
753,26,44,0.116132993760249,1
753,27,44,0.098964515738084,1
753,28,44,0.0716846323158651,1
753,36,44,0.09205925567182,1
753,37,44,0.125542772245395,1
753,38,44,0.135704429361706,1
753,39,44,0.126217310879043,1
753,40,44,0.118520283054697,1
753,41,44,0.108961360411559,1
753,42,44,0.0758928698951139,1
754,23,44,0.0820062129222976,1
754,24,44,0.0986986089587797,1
754,25,44,0.111805337601916,1
754,26,44,0.119957411231182,1
754,27,44,0.110804085062076,1
754,28,44,0.0841600578346623,1
754,35,44,0.0759557918361535,1
754,36,44,0.120761053048718,1
754,37,44,0.146605437945357,1
754,38,44,0.128899268425251,1
754,39,44,0.106533056162661,1
754,40,44,0.0993946689364364,1
754,41,44,0.0862759418330131,1
755,23,44,0.0718469318618858,1
755,24,44,0.0804397825205929,1
755,25,44,0.0898651981903745,1
755,26,44,0.100853965341258,1
755,27,44,0.103130071391728,1
755,28,44,0.0876934582182658,1
755,35,44,0.0806271985946799,1
755,36,44,0.119467247071268,1
755,37,44,0.131774893187376,1
755,38,44,0.109428871179888,1
755,39,44,0.0904427477150234,1
755,40,44,0.0885820222640556,1
755,41,44,0.0741621681941946,1
756,25,44,0.0752590289937936,1
756,26,44,0.0910684217016952,1
756,27,44,0.0978989106476313,1
756,28,44,0.090235079185418,1
756,29,44,0.0753038257335491,1
756,33,44,0.0746041581317521,1
756,34,44,0.0759635731082216,1
756,35,44,0.0872707193095257,1
756,36,44,0.113494165982642,1
756,37,44,0.109846472334249,1
756,38,44,0.0922187126588199,1
756,39,44,0.0802840637786073,1
756,40,44,0.0743931805400042,1
757,24,44,0.0718901673711945,1
757,25,44,0.0774158470860532,1
757,26,44,0.0838091728467298,1
757,27,44,0.0835392541405799,1
757,28,44,0.0805550772120826,1
757,29,44,0.0729545471134478,1
757,32,44,0.0749262940873116,1
757,33,44,0.0897093861477647,1
757,34,44,0.0935740721681523,1
757,35,44,0.104495569568903,1
757,36,44,0.115984944329582,1
757,37,44,0.0926399089972379,1
757,38,44,0.074814594579879,1
758,24,44,0.0783231583372892,1
758,25,44,0.081227861793993,1
758,26,44,0.0729059561483033,1
758,33,44,0.0904441099041385,1
758,34,44,0.100895086036416,1
758,35,44,0.114777348129002,1
758,36,44,0.11166315989054,1
758,37,44,0.0776844595834627,1
759,33,44,0.0815209003948487,1
759,34,44,0.0884573726299677,1
759,35,44,0.0953894161954523,1
759,36,44,0.0894090141178376,1
760,33,44,0.0735464338340334,1
760,34,44,0.0714318871446312,1
746,37,45,0.0795461367007986,1
747,37,45,0.088920709750369,1
748,27,45,0.0736141078868716,1
748,28,45,0.0774420148011534,1
748,37,45,0.072109672640005,1
749,24,45,0.0726470593559061,1
749,27,45,0.0807327900212406,1
749,28,45,0.0864637311095973,1
749,29,45,0.0730872392613518,1
750,24,45,0.0739420969015966,1
750,25,45,0.0729860951645503,1
750,27,45,0.0747954306316442,1
750,28,45,0.0722780367266063,1
751,23,45,0.0765437723706011,1
751,24,45,0.0769461282029486,1
751,25,45,0.0828024653303878,1
751,26,45,0.0801346272786592,1
751,37,45,0.079114409831916,1
751,38,45,0.104448179071792,1
751,39,45,0.0964080413115404,1
751,40,45,0.0848774587751212,1
751,41,45,0.0784616911042755,1
752,23,45,0.080425463984781,1
752,24,45,0.0814937374730892,1
752,25,45,0.0922693624577409,1
752,26,45,0.0914877955679182,1
752,27,45,0.0745334549186445,1
752,36,45,0.0718315870192065,1
752,37,45,0.104763914604523,1
752,38,45,0.123117540697058,1
752,39,45,0.110944322120466,1
752,40,45,0.100700075291509,1
752,41,45,0.0904533342258627,1
753,23,45,0.0719266292551777,1
753,24,45,0.078227375916365,1
753,25,45,0.0933379967084631,1
753,26,45,0.101786169199062,1
753,27,45,0.0949016032112718,1
753,28,45,0.0742374928982268,1
753,36,45,0.101443171223905,1
753,37,45,0.129060006740825,1
753,38,45,0.120883873990569,1
753,39,45,0.103807048281692,1
753,40,45,0.0968216678593055,1
753,41,45,0.0826855534280767,1
754,24,45,0.0718315932392481,1
754,25,45,0.0863385714320965,1
754,26,45,0.0990526537278557,1
754,27,45,0.10393139313374,1
754,28,45,0.0859790965666852,1
754,35,45,0.0779670298542701,1
754,36,45,0.12651104612456,1
754,37,45,0.144848860871294,1
754,38,45,0.116934831765715,1
754,39,45,0.095013949603033,1
754,40,45,0.0945474340413633,1
754,41,45,0.0765352944538715,1
755,26,45,0.083115725286554,1
755,27,45,0.0918272170191429,1
755,28,45,0.0811256665101574,1
755,35,45,0.0777603378711992,1
755,36,45,0.111743062545205,1
755,37,45,0.119028584855978,1
755,38,45,0.102035711048861,1
755,39,45,0.0885247108005583,1
755,40,45,0.0906452287299168,1
756,26,45,0.0758493171636826,1
756,27,45,0.0806634116769982,1
756,28,45,0.0744622541022071,1
756,32,45,0.0742448076671733,1
756,33,45,0.0833997634871839,1
756,34,45,0.0769339866817041,1
756,35,45,0.0865497978255092,1
756,36,45,0.109622774757386,1
756,37,45,0.0954503850434228,1
756,38,45,0.0811296597768782,1
756,39,45,0.0730479099381813,1
757,32,45,0.0812692250707737,1
757,33,45,0.101519895437302,1
757,34,45,0.091907337375265,1
757,35,45,0.0993932569869884,1
757,36,45,0.115491558188109,1
757,37,45,0.0835137146496834,1
758,32,45,0.0743865561956777,1
758,33,45,0.0964390357789386,1
758,34,45,0.0890142218561014,1
758,35,45,0.0900251154604544,1
758,36,45,0.0947042226305077,1
759,33,45,0.0752671834683589,1
747,37,46,0.0741411693336816,1
749,28,46,0.0741731963279889,1
751,25,46,0.0790035624701855,1
751,26,46,0.0762897396507516,1
751,37,46,0.0787231629939039,1
751,38,46,0.104179746955589,1
751,39,46,0.0933471339496046,1
751,40,46,0.0774497898531799,1
752,25,46,0.0834545433937414,1
752,26,46,0.0814565976045693,1
752,36,46,0.073078469002666,1
752,37,46,0.103489801278846,1
752,38,46,0.114348364298474,1
752,39,46,0.0954792522565866,1
752,40,46,0.0800086341155811,1
753,25,46,0.0747463793834198,1
753,26,46,0.08232202931557,1
753,27,46,0.0824778102579718,1
753,36,46,0.0988928795187332,1
753,37,46,0.11647592953499,1
753,38,46,0.0999517296439853,1
753,39,46,0.0821906744766145,1
753,40,46,0.07693546705161,1
754,26,46,0.0795547949987353,1
754,27,46,0.0896856629090216,1
754,28,46,0.0779800981617161,1
754,35,46,0.0726425062854394,1
754,36,46,0.111566898526411,1
754,37,46,0.120570781975527,1
754,38,46,0.096473326868396,1
754,39,46,0.0819400689996982,1
754,40,46,0.0843045618416049,1
755,27,46,0.0742615520192174,1
755,36,46,0.0926742747271947,1
755,37,46,0.0957734104649342,1
755,38,46,0.0872280871442543,1
755,39,46,0.0809608602873634,1
755,40,46,0.0828024155700549,1
756,33,46,0.0817343908834116,1
756,34,46,0.0718340625957717,1
756,35,46,0.0783152029040557,1
756,36,46,0.0921137681165878,1
756,37,46,0.0766436289187871,1
757,32,46,0.077523472466224,1
757,33,46,0.0999316824498403,1
757,34,46,0.0839187264398032,1
757,35,46,0.0865185794366127,1
757,36,46,0.0978046148166546,1
758,33,46,0.0903782956437451,1
758,34,46,0.0764268480282067,1
758,36,46,0.0756029724152769,1
751,37,47,0.0713627576020537,1
751,38,47,0.0865872673562351,1
751,39,47,0.0781709414787363,1
752,37,47,0.0914416366390476,1
752,38,47,0.0949847465076217,1
752,39,47,0.0789874587824283,1
753,36,47,0.0844152972425863,1
753,37,47,0.096484672224313,1
753,38,47,0.085919402827247,1
753,39,47,0.0721666295611299,1
754,27,47,0.0726165749319208,1
754,36,47,0.0845168207619268,1
754,37,47,0.0901278581079526,1
754,38,47,0.0791405464468081,1
754,39,47,0.0716361097711785,1
755,37,47,0.0723062757155664,1
757,33,47,0.0819011501992747,1
758,33,47,0.0735139341165629,1
