x,y,z,signal,mito.p
614,874,33,0.087210328925426,1
617,876,33,0.0946134038027973,1
612,873,34,0.118290402756463,1
613,873,34,0.0924790587209149,1
614,873,34,0.0733335093692581,1
614,874,34,0.0742487822737692,1
617,877,34,0.0991759660529951,1
617,878,34,0.097414344525177,1
617,879,34,0.0734380682689097,1
618,879,34,0.0821746018890654,1
619,882,34,0.0750842458242392,1
620,883,34,0.103866424799007,1
620,884,34,0.14806600323867,1
621,883,34,0.0938106452311713,1
621,884,34,0.130337429128645,1
621,885,34,0.157139911916357,1
607,894,35,0.119345421336076,1
607,895,35,0.0856184523334492,1
608,895,35,0.0873499253195295,1
608,896,35,0.101232081671408,1
609,896,35,0.11970755215926,1
610,896,35,0.105069057406374,1
610,897,35,0.1227564299607,1
611,897,35,0.0952930242104493,1
612,872,35,0.094269870904061,1
612,873,35,0.117046282471483,1
612,874,35,0.115663057175688,1
612,897,35,0.0897242458271976,1
612,898,35,0.103354098630798,1
613,872,35,0.0818806676022162,1
613,873,35,0.0878081744458847,1
613,874,35,0.0883387315560858,1
613,897,35,0.105794376459816,1
613,898,35,0.132283568191154,1
614,897,35,0.123891649756977,1
614,898,35,0.145509168049712,1
615,897,35,0.138326985510433,1
619,883,35,0.0803179319052345,1
619,884,35,0.0968935093400298,1
620,883,35,0.0837857606100678,1
620,884,35,0.103209041040151,1
620,885,35,0.114237162394371,1
621,883,35,0.0791369326026262,1
621,884,35,0.096263779886221,1
621,885,35,0.11437086840906,1
621,886,35,0.138477485637498,1
622,885,35,0.121641027217029,1
604,892,36,0.100759495349116,1
604,893,36,0.0877382238578132,1
605,893,36,0.139579316250353,1
605,894,36,0.0956457192304935,1
606,894,36,0.115946044189284,1
606,895,36,0.0844757498271023,1
607,893,36,0.129084762506477,1
607,894,36,0.103317033402777,1
607,895,36,0.0886805041830433,1
608,894,36,0.0914019403334214,1
608,895,36,0.0991473974018291,1
608,896,36,0.138357774716458,1
608,897,36,0.150860332056806,1
609,895,36,0.0968512006169227,1
609,896,36,0.140677215796902,1
609,897,36,0.174910570827991,1
610,895,36,0.0791522836653472,1
610,896,36,0.102741399650947,1
610,897,36,0.135007249776558,1
611,871,36,0.0937035609946215,1
611,872,36,0.109482102296082,1
611,873,36,0.138640264126724,1
611,874,36,0.122299754504875,1
611,896,36,0.0767188727622782,1
611,897,36,0.0896438953295355,1
611,898,36,0.106600668015083,1
612,871,36,0.0827912257151784,1
612,872,36,0.094037322207971,1
612,873,36,0.111962941016513,1
612,874,36,0.0987869086696336,1
612,875,36,0.0808808207917824,1
612,896,36,0.0719122671790744,1
612,897,36,0.08315066326034,1
612,898,36,0.0990186363202296,1
613,871,36,0.0823622481046924,1
613,872,36,0.081447702945051,1
613,873,36,0.0814470747208473,1
613,874,36,0.0760848265995843,1
613,896,36,0.0737881695315979,1
613,897,36,0.0954511003482093,1
613,898,36,0.120026702494841,1
614,896,36,0.0780344426653601,1
614,897,36,0.103638522474008,1
614,898,36,0.123826787162952,1
614,899,36,0.137964879567416,1
615,896,36,0.0860352386623578,1
615,897,36,0.112369968100118,1
615,898,36,0.131581872855789,1
616,895,36,0.0769964483396637,1
616,896,36,0.104690138690855,1
616,897,36,0.151435959588594,1
617,891,36,0.0720146179639505,1
617,892,36,0.0732848562036975,1
617,894,36,0.0757173216604401,1
617,895,36,0.092563725927462,1
617,896,36,0.131053368359323,1
618,894,36,0.0953992811814635,1
618,895,36,0.124269616806128,1
619,885,36,0.071590392465263,1
619,886,36,0.0819730849806233,1
619,892,36,0.112993863154886,1
619,893,36,0.109504506886002,1
619,894,36,0.127487816580579,1
620,884,36,0.0725335871366114,1
620,885,36,0.0802347761688013,1
620,886,36,0.100876444571677,1
620,887,36,0.119687175302909,1
620,888,36,0.122245839184103,1
620,889,36,0.114276784059498,1
620,890,36,0.115759181698901,1
620,891,36,0.135377143211684,1
621,884,36,0.0742543056707288,1
621,885,36,0.0869650851243871,1
621,886,36,0.110340356079052,1
621,887,36,0.131641921137599,1
621,889,36,0.137550898477278,1
621,890,36,0.129297077407174,1
621,891,36,0.141580701722541,1
622,885,36,0.0993461028514585,1
622,886,36,0.124584773874988,1
622,891,36,0.142777524811034,1
605,891,37,0.0721606210009238,1
605,892,37,0.105399789459454,1
605,893,37,0.10358604398285,1
605,894,37,0.0825051971012297,1
606,892,37,0.100118874602429,1
606,893,37,0.118521464862605,1
606,894,37,0.104369489325243,1
606,895,37,0.0929680161927537,1
607,892,37,0.0824451363793359,1
607,893,37,0.103407217786242,1
607,894,37,0.105660160401715,1
607,895,37,0.119223943923215,1
607,896,37,0.157159542367713,1
607,897,37,0.146038207469758,1
608,893,37,0.0821755162351837,1
608,894,37,0.0949687050202808,1
608,895,37,0.125063294116987,1
608,896,37,0.185929063557782,1
608,897,37,0.198130048400171,1
608,898,37,0.152050984864011,1
609,894,37,0.0777335668120617,1
609,895,37,0.104223598249019,1
609,896,37,0.149653507141387,1
609,897,37,0.18944249138774,1
609,898,37,0.186099330977119,1
610,870,37,0.108417853174703,1
610,895,37,0.0758484525778973,1
610,896,37,0.0962284500498129,1
610,897,37,0.128754129974063,1
610,898,37,0.15760912697609,1
611,870,37,0.0931702608460655,1
611,871,37,0.096060521366125,1
611,875,37,0.0757754977097228,1
611,896,37,0.0726964091661283,1
611,897,37,0.0854393089147183,1
611,898,37,0.105315706936819,1
612,870,37,0.082216524969592,1
612,871,37,0.0855601767635006,1
612,872,37,0.0950035123731927,1
612,873,37,0.10254200999674,1
612,874,37,0.084046119112246,1
612,897,37,0.0807518917690591,1
612,898,37,0.096633405859558,1
612,899,37,0.122209190698871,1
613,873,37,0.0757446214231154,1
613,897,37,0.0860815779724353,1
613,898,37,0.104997837929812,1
613,899,37,0.13128839885202,1
614,897,37,0.0873623156424388,1
614,898,37,0.103583991369115,1
614,899,37,0.113269124876788,1
615,897,37,0.0954705504183586,1
615,898,37,0.117517948227615,1
615,899,37,0.124200250901969,1
616,896,37,0.0855879554693806,1
616,897,37,0.124217990460672,1
617,895,37,0.0783317046744766,1
617,896,37,0.109431583118035,1
618,891,37,0.0754484852415323,1
618,892,37,0.075788037313631,1
618,893,37,0.0764028635477155,1
618,894,37,0.0825991321697924,1
618,895,37,0.0991835047434399,1
618,896,37,0.141428024580908,1
619,887,37,0.0736491080610738,1
619,888,37,0.0736990549952917,1
619,889,37,0.0745455528995976,1
619,890,37,0.0808368699776873,1
619,891,37,0.087847671710179,1
619,892,37,0.0898169804277274,1
619,893,37,0.0923036473271567,1
619,894,37,0.103746489956468,1
619,895,37,0.126218729048532,1
619,896,37,0.158697360577961,1
620,886,37,0.0807613026920319,1
620,887,37,0.0913201405660617,1
620,888,37,0.0909255908859487,1
620,889,37,0.089214942599216,1
620,890,37,0.092589601300606,1
620,891,37,0.100545357976225,1
620,892,37,0.105506587574089,1
620,893,37,0.106401800844372,1
620,894,37,0.121613248511149,1
620,895,37,0.145709702191578,1
620,896,37,0.154844741438318,1
620,897,37,0.16914899603465,1
621,885,37,0.0749340069389219,1
621,886,37,0.0948684006290981,1
621,887,37,0.109269924236301,1
621,888,37,0.119436768867325,1
621,889,37,0.120165633344491,1
621,890,37,0.114665773022402,1
621,891,37,0.113348952890954,1
621,892,37,0.11335683990373,1
621,893,37,0.112460494585872,1
621,894,37,0.129524793130924,1
621,895,37,0.156769993601064,1
622,886,37,0.112088834658925,1
622,887,37,0.126491341032704,1
622,888,37,0.148616489362225,1
622,891,37,0.12787222759285,1
622,892,37,0.119128752406245,1
622,893,37,0.129024888385832,1
622,894,37,0.160271814833357,1
623,887,37,0.137923416769969,1
623,893,37,0.17237286848706,1
605,893,38,0.0741371449667527,1
605,894,38,0.0719602859003897,1
606,893,38,0.0879822112104445,1
606,894,38,0.10128630177422,1
606,895,38,0.112136330896744,1
606,896,38,0.126517353246764,1
606,897,38,0.11037668112212,1
607,893,38,0.0878271642329541,1
607,894,38,0.118821867992741,1
607,895,38,0.164080756840735,1
607,896,38,0.21323775821279,1
607,897,38,0.179393317504106,1
607,898,38,0.125497129579979,1
608,894,38,0.0991330477658091,1
608,895,38,0.146087930482477,1
608,896,38,0.208436532965589,1
608,897,38,0.21142839786553,1
608,898,38,0.185211619077032,1
608,899,38,0.164691776409348,1
609,869,38,0.0942724024610008,1
609,894,38,0.0715264628774808,1
609,895,38,0.100133864902736,1
609,896,38,0.137508577314088,1
609,897,38,0.171653657514489,1
609,898,38,0.193606361410105,1
609,899,38,0.174299090976298,1
610,869,38,0.101255413047529,1
610,870,38,0.104493604035751,1
610,871,38,0.100893132943347,1
610,896,38,0.0857706256517107,1
610,897,38,0.11259466088364,1
610,898,38,0.145138055486428,1
611,870,38,0.093040317956558,1
611,871,38,0.0946554575041979,1
611,872,38,0.110930725109482,1
611,873,38,0.110504391016685,1
611,874,38,0.0839467290671816,1
611,897,38,0.081599490620732,1
611,898,38,0.104155065830437,1
611,899,38,0.12611704380811,1
612,870,38,0.0841982551102578,1
612,871,38,0.0869416853278084,1
612,872,38,0.0921978195390144,1
612,873,38,0.0884804552044238,1
612,897,38,0.0765743811954188,1
612,898,38,0.095468410724041,1
612,899,38,0.124711874205475,1
613,897,38,0.0759038109483255,1
613,898,38,0.0923304059462109,1
613,899,38,0.112489504859993,1
614,897,38,0.0755720899086278,1
614,898,38,0.0913681717274602,1
614,899,38,0.0988539233980599,1
615,897,38,0.0826153851385484,1
615,898,38,0.108258918671199,1
615,899,38,0.11786343421942,1
616,897,38,0.100656889542534,1
616,898,38,0.136769051685583,1
616,899,38,0.164059894821138,1
617,896,38,0.0905952569155325,1
617,897,38,0.128295016261923,1
618,895,38,0.0817117499319106,1
618,896,38,0.11398085935933,1
618,897,38,0.157111399245565,1
619,891,38,0.0724151388840198,1
619,892,38,0.0734849673827332,1
619,893,38,0.0778248521428938,1
619,894,38,0.0858572086310771,1
619,895,38,0.0968637837611223,1
619,896,38,0.122239295700318,1
619,897,38,0.15543799656806,1
619,898,38,0.145341251806108,1
620,887,38,0.0752825407511215,1
620,888,38,0.0751136915012737,1
620,889,38,0.0735772728003911,1
620,890,38,0.0751408544230333,1
620,891,38,0.0782058483523142,1
620,892,38,0.078014134229467,1
620,893,38,0.0818786647488142,1
620,894,38,0.09492895273428,1
620,895,38,0.110540280656839,1
620,896,38,0.125783624697049,1
620,897,38,0.151205432406031,1
621,886,38,0.0857094204421585,1
621,887,38,0.0992722087569992,1
621,888,38,0.10246109347529,1
621,889,38,0.102995562991671,1
621,890,38,0.0978327791651152,1
621,891,38,0.0906889369623887,1
621,892,38,0.0832284511008541,1
621,893,38,0.083034323601858,1
621,894,38,0.100126313772208,1
621,895,38,0.125381499006242,1
622,886,38,0.104852425796792,1
622,887,38,0.114506962919731,1
622,888,38,0.124186156287655,1
622,891,38,0.116509766561409,1
622,892,38,0.0947198784752682,1
622,893,38,0.100328309623855,1
622,894,38,0.132116012709964,1
623,887,38,0.11252367776866,1
623,892,38,0.125498572629635,1
623,893,38,0.14585435547952,1
624,893,38,0.182121539719893,1
605,895,39,0.0773908114185281,1
606,893,39,0.0757320320588742,1
606,894,39,0.108816918605033,1
606,895,39,0.143489893737821,1
606,896,39,0.160998340574874,1
606,897,39,0.123984179096133,1
607,893,39,0.0810289821831982,1
607,894,39,0.138199089014619,1
607,895,39,0.213584463332753,1
607,896,39,0.255387621456868,1
607,897,39,0.19180807273693,1
607,898,39,0.148954697905334,1
607,899,39,0.141292788435981,1
608,894,39,0.104000628417025,1
608,895,39,0.161431840155618,1
608,896,39,0.20892964542523,1
608,897,39,0.193618813933431,1
608,898,39,0.201693709286261,1
608,899,39,0.214809836412287,1
608,900,39,0.143744480041375,1
609,869,39,0.0929865332566599,1
609,870,39,0.0940428456049305,1
609,871,39,0.0905140480521267,1
609,895,39,0.0937171766657302,1
609,896,39,0.124037522173076,1
609,897,39,0.144690324450454,1
609,898,39,0.176540881057145,1
609,899,39,0.191653156380314,1
609,900,39,0.135704976725369,1
610,869,39,0.101175423312281,1
610,870,39,0.10034444441182,1
610,871,39,0.0956187615701075,1
610,872,39,0.102961209701797,1
610,873,39,0.0879768868548168,1
610,896,39,0.078446085019848,1
610,897,39,0.10291962872356,1
610,898,39,0.134809489773255,1
610,899,39,0.153897727661414,1
611,869,39,0.0931674680473776,1
611,870,39,0.0916974171905927,1
611,871,39,0.0939420871507095,1
611,872,39,0.102326162112403,1
611,873,39,0.0875446686026462,1
611,897,39,0.0836547292132766,1
611,898,39,0.118114263617835,1
611,899,39,0.149754595257814,1
612,871,39,0.0888634107269549,1
612,872,39,0.0898020585478782,1
612,873,39,0.0757897167248687,1
612,897,39,0.0745713971725335,1
612,898,39,0.100809237021961,1
612,899,39,0.128445466628655,1
613,872,39,0.0796405382724829,1
613,898,39,0.0912017545138863,1
613,899,39,0.108283711757101,1
613,900,39,0.123366242841238,1
614,897,39,0.0720296766847153,1
614,898,39,0.0999522583475231,1
614,899,39,0.121327524679239,1
614,900,39,0.128617201977815,1
615,897,39,0.0783112842778344,1
615,898,39,0.118320657038908,1
616,897,39,0.0892197817915972,1
616,898,39,0.128551194896132,1
616,899,39,0.160988960752109,1
617,896,39,0.0767577791226185,1
617,897,39,0.104546275348199,1
617,898,39,0.126744061323772,1
617,899,39,0.150151744915325,1
618,896,39,0.0910974133156914,1
618,897,39,0.119025823157498,1
618,898,39,0.121450818344254,1
618,899,39,0.125526314015266,1
619,879,39,0.0822450500804666,1
619,894,39,0.0727217993760259,1
619,895,39,0.078530951267727,1
619,896,39,0.0975781928615614,1
619,897,39,0.124798805507172,1
619,898,39,0.126537555941949,1
620,894,39,0.0764900996314522,1
620,895,39,0.0875904543290195,1
620,896,39,0.107528424543128,1
620,897,39,0.134294943050186,1
620,898,39,0.146909622860798,1
621,886,39,0.0755102502548303,1
621,887,39,0.0897272501073006,1
621,888,39,0.08463596565918,1
621,889,39,0.0858977695224886,1
621,890,39,0.0857221217671489,1
621,891,39,0.0765341437461716,1
621,894,39,0.0819334011150804,1
621,895,39,0.103319415678718,1
621,896,39,0.129804831844792,1
622,886,39,0.090959720254324,1
622,887,39,0.1025223671053,1
622,888,39,0.104651487352221,1
622,891,39,0.110100722755556,1
622,892,39,0.0822284487893798,1
622,893,39,0.0855480228021728,1
622,894,39,0.11213006109479,1
622,895,39,0.140115521158346,1
623,886,39,0.0869290151030261,1
623,887,39,0.0938729016277574,1
623,892,39,0.113851855696108,1
623,893,39,0.128968758730243,1
623,894,39,0.16948882178858,1
624,887,39,0.0965973855985299,1
624,893,39,0.165845730970987,1
624,894,39,0.182396030156634,1
605,895,40,0.0901657381614254,1
605,896,40,0.100957224252211,1
606,886,40,0.0784337568973549,1
606,887,40,0.0757222354933208,1
606,894,40,0.116506706300931,1
606,895,40,0.177127231940687,1
606,896,40,0.188505603838595,1
606,897,40,0.131674439515195,1
607,893,40,0.0738314423611563,1
607,894,40,0.146695553908364,1
607,895,40,0.241533971555739,1
607,896,40,0.255882711889745,1
607,897,40,0.175759730910111,1
607,898,40,0.154313089600792,1
607,899,40,0.165206099210918,1
608,894,40,0.101442885101991,1
608,895,40,0.16165066121985,1
608,896,40,0.18669967695431,1
608,897,40,0.160495786092051,1
608,898,40,0.188430527936228,1
608,899,40,0.229319800225113,1
608,900,40,0.158024041072471,1
609,869,40,0.103181934098766,1
609,870,40,0.0944929651368869,1
609,871,40,0.0877499735164356,1
609,872,40,0.083999835782543,1
609,895,40,0.0832497982836979,1
609,896,40,0.108518120245636,1
609,897,40,0.122167192977845,1
609,898,40,0.149634249892528,1
609,899,40,0.180704900360509,1
609,900,40,0.142632436120179,1
610,869,40,0.104349970834635,1
610,870,40,0.097921508058841,1
610,871,40,0.0934385685614355,1
610,872,40,0.0900465061835895,1
610,897,40,0.0963902955327953,1
610,898,40,0.12868854585521,1
610,899,40,0.153480325548385,1
610,900,40,0.145485569211802,1
611,871,40,0.0956442450806293,1
611,872,40,0.0925065824050885,1
611,897,40,0.080412165535795,1
611,898,40,0.125005547250576,1
611,899,40,0.161378186076594,1
611,900,40,0.166659623417115,1
612,872,40,0.0880781491324092,1
612,898,40,0.10181900479878,1
612,899,40,0.129538526982824,1
612,900,40,0.141922816451788,1
613,898,40,0.0984356255990374,1
613,899,40,0.126687060862355,1
613,900,40,0.133770058617944,1
614,898,40,0.117211685818273,1
615,897,40,0.073064529889393,1
616,897,40,0.0792657932048916,1
616,898,40,0.123411873066571,1
617,897,40,0.086199286040074,1
617,898,40,0.110690308060741,1
617,899,40,0.129575013746974,1
617,900,40,0.145542818474883,1
618,896,40,0.0733338452515057,1
618,897,40,0.0933624663522007,1
618,898,40,0.104805962085882,1
618,899,40,0.115287752304351,1
619,896,40,0.0808498823047588,1
619,897,40,0.104525015245938,1
619,898,40,0.115691321044814,1
619,899,40,0.126701901881664,1
620,895,40,0.0714623093682002,1
620,896,40,0.0938004194827461,1
620,897,40,0.117627781722561,1
621,887,40,0.0781676386366355,1
621,890,40,0.0724367721887782,1
621,895,40,0.0880083229451702,1
621,896,40,0.112867185787229,1
622,886,40,0.0746565246621606,1
622,887,40,0.0884891010622772,1
622,888,40,0.0889815852977152,1
622,889,40,0.123509390879107,1
622,891,40,0.0974214664728332,1
622,892,40,0.0715194591106154,1
622,893,40,0.0744427978120162,1
622,894,40,0.0962170238333548,1
622,895,40,0.119910872879772,1
623,887,40,0.080748396105668,1
623,888,40,0.112132922313935,1
623,892,40,0.102174784959469,1
623,893,40,0.112853252893998,1
623,894,40,0.143905877681361,1
623,895,40,0.155964734572706,1
624,887,40,0.077875924904645,1
624,892,40,0.143774423321739,1
624,893,40,0.14717809229725,1
624,894,40,0.158016079419196,1
625,887,40,0.0832743239078101,1
625,888,40,0.121833500184954,1
625,893,40,0.153093874362463,1
626,888,40,0.0986303377819459,1
626,889,40,0.123794380746105,1
605,894,41,0.0766321716021209,1
605,895,41,0.112484280025031,1
605,896,41,0.119222500873559,1
606,886,41,0.0895032042081067,1
606,887,41,0.0791930249379658,1
606,894,41,0.122698496493041,1
606,895,41,0.205681577010914,1
606,896,41,0.196206102446165,1
606,897,41,0.127944330315322,1
607,894,41,0.139337605432955,1
607,895,41,0.238541111449138,1
607,896,41,0.218649741786856,1
607,897,41,0.144301036925552,1
607,898,41,0.141907378308484,1
607,899,41,0.165639785392911,1
608,869,41,0.12777423705715,1
608,871,41,0.0872684738745005,1
608,872,41,0.0715789413686385,1
608,894,41,0.0900874402774983,1
608,895,41,0.146365157737532,1
608,896,41,0.15318406496597,1
608,897,41,0.13223313609369,1
608,898,41,0.159056182339002,1
608,899,41,0.20074543906095,1
608,900,41,0.161724331392811,1
609,868,41,0.102076949924809,1
609,869,41,0.113712315282379,1
609,870,41,0.0988722103204261,1
609,871,41,0.0892122306610691,1
609,872,41,0.0753117998269074,1
609,895,41,0.073070687730598,1
609,896,41,0.0956486737502636,1
609,897,41,0.111847932446937,1
609,898,41,0.133188895249113,1
609,899,41,0.157200631962663,1
609,900,41,0.147155264744501,1
610,868,41,0.0937306306157568,1
610,870,41,0.0996283372400183,1
610,871,41,0.0939820384780422,1
610,872,41,0.0788142555034457,1
610,897,41,0.0925282157098468,1
610,898,41,0.12522049944892,1
610,899,41,0.146392214918584,1
610,900,41,0.144532633955274,1
611,871,41,0.1006991174051,1
611,872,41,0.0834582318784228,1
611,897,41,0.0753367608539331,1
611,898,41,0.121012380050462,1
611,899,41,0.156413796697587,1
611,900,41,0.150517732164313,1
612,872,41,0.086440735615724,1
612,898,41,0.103704709936899,1
612,899,41,0.133604356709156,1
612,900,41,0.128725903425187,1
613,898,41,0.110053935602481,1
613,901,41,0.118705466133842,1
616,897,41,0.0726240700820743,1
616,898,41,0.117054430726007,1
617,897,41,0.0777332931302304,1
617,898,41,0.107767361221963,1
617,899,41,0.13244769020937,1
618,897,41,0.0871738857015676,1
618,898,41,0.109384746204628,1
618,899,41,0.130003288492756,1
619,896,41,0.0753338001141215,1
619,897,41,0.101252956131089,1
619,898,41,0.118459388847226,1
619,899,41,0.133065402542767,1
620,896,41,0.0887382261692876,1
620,897,41,0.11348479859996,1
621,895,41,0.079583220588944,1
621,896,41,0.104031834365838,1
622,888,41,0.0771227587248645,1
622,889,41,0.102999494057976,1
622,890,41,0.116058291060379,1
622,891,41,0.0843664139354857,1
622,894,41,0.0838193363947388,1
622,895,41,0.107047689966312,1
623,888,41,0.0913240156519916,1
623,889,41,0.1442876389559,1
623,891,41,0.114303729279801,1
623,892,41,0.0918651717131152,1
623,893,41,0.095947727131367,1
623,894,41,0.114788370042755,1
623,895,41,0.131655393747751,1
624,888,41,0.091788435059635,1
624,891,41,0.135498147901382,1
624,892,41,0.130956447670782,1
624,893,41,0.128102232291917,1
624,894,41,0.128737410502186,1
624,895,41,0.132551627104859,1
625,888,41,0.087361656318027,1
625,889,41,0.111438877629764,1
625,892,41,0.170705959533007,1
625,893,41,0.143286610337559,1
626,888,41,0.0780622773516148,1
626,889,41,0.0952291070627503,1
626,890,41,0.133557955198663,1
605,895,42,0.139714651915946,1
605,896,42,0.131899741862796,1
606,873,42,0.0766636823329737,1
606,886,42,0.0873434440361602,1
606,887,42,0.0727228567831015,1
606,894,42,0.124615140118183,1
606,895,42,0.221642129170293,1
606,896,42,0.185147764129749,1
606,897,42,0.112346866865537,1
607,868,42,0.113061114244894,1
607,872,42,0.0726833221985574,1
607,894,42,0.12292141034466,1
607,895,42,0.213338373606054,1
607,896,42,0.172455072557125,1
607,897,42,0.113884025751372,1
607,898,42,0.115659972035044,1
608,868,42,0.120126036559531,1
608,869,42,0.144428386057704,1
608,870,42,0.112748868155512,1
608,871,42,0.0864878026706712,1
608,894,42,0.0757055533416929,1
608,895,42,0.120668449069062,1
608,896,42,0.118827913873196,1
608,897,42,0.109322707509499,1
608,898,42,0.125176312273243,1
608,899,42,0.152267939915756,1
609,868,42,0.0992281335420717,1
609,869,42,0.11779060997212,1
609,870,42,0.106316337472497,1
609,871,42,0.0931304090393988,1
609,896,42,0.081146540969838,1
609,897,42,0.102345238980055,1
609,898,42,0.121132115851669,1
609,899,42,0.133806495621761,1
609,900,42,0.144750907655844,1
610,868,42,0.0926948195246694,1
610,871,42,0.107683005017497,1
610,872,42,0.0742013171361582,1
610,897,42,0.083579280108412,1
610,898,42,0.114389727575255,1
610,899,42,0.130699000148082,1
610,900,42,0.1324868640315,1
611,872,42,0.0828686652333618,1
611,898,42,0.107407755735677,1
611,899,42,0.138945979172404,1
611,900,42,0.129219264686493,1
612,872,42,0.0921781268872419,1
612,898,42,0.102901354241277,1
612,899,42,0.139996457121634,1
612,900,42,0.126165199370341,1
612,901,42,0.114232584443738,1
613,898,42,0.114047998488589,1
613,901,42,0.124303292111465,1
616,898,42,0.108530846450793,1
617,898,42,0.104134110510215,1
618,897,42,0.0823026414458369,1
618,898,42,0.111756821277271,1
618,899,42,0.150463281919962,1
619,897,42,0.097712452459954,1
619,898,42,0.118727497521264,1
619,899,42,0.13430719653218,1
620,896,42,0.0814526851983896,1
620,897,42,0.11036075781557,1
621,896,42,0.0940488168448868,1
622,889,42,0.0738551593798578,1
622,890,42,0.0799849046567964,1
622,895,42,0.0936090225820216,1
623,889,42,0.087490572900667,1
623,890,42,0.0952191985364478,1
623,891,42,0.0805471715391821,1
623,892,42,0.0769260996689285,1
623,893,42,0.079388054342997,1
623,894,42,0.0896658582964998,1
623,895,42,0.110248983667637,1
624,889,42,0.0806048437650934,1
624,890,42,0.0919354084231012,1
624,891,42,0.0977965598627552,1
624,892,42,0.109036398993677,1
624,893,42,0.107338700833599,1
624,894,42,0.103548966314747,1
624,895,42,0.114336882101642,1
625,889,42,0.0764571271908184,1
625,890,42,0.0966384067730214,1
625,891,42,0.127181305369572,1
625,892,42,0.146092869195524,1
625,893,42,0.126149910508036,1
625,894,42,0.109594797010174,1
626,889,42,0.0788295754659586,1
626,890,42,0.106228398524057,1
627,889,42,0.0903532786363448,1
605,896,43,0.132069698280053,1
606,868,43,0.115150961149018,1
606,886,43,0.0740699187569113,1
606,895,43,0.20495916893695,1
606,896,43,0.157877907414623,1
606,897,43,0.0909218402008511,1
607,868,43,0.121523194748558,1
607,869,43,0.138744424943712,1
607,871,43,0.0917902761919549,1
607,894,43,0.0969618240571549,1
607,895,43,0.163723552290516,1
607,896,43,0.129047031734004,1
607,897,43,0.0905769077927501,1
607,898,43,0.0893533696254947,1
608,868,43,0.114527464176914,1
608,869,43,0.141175926294003,1
608,870,43,0.117000664686234,1
608,871,43,0.0865594513301053,1
608,895,43,0.0903407576925614,1
608,896,43,0.0919070636934337,1
608,897,43,0.0930895682461143,1
608,898,43,0.0999834456362115,1
608,899,43,0.114770070680305,1
609,868,43,0.0899522849931123,1
609,869,43,0.11399866111845,1
609,871,43,0.0993704356542804,1
609,897,43,0.0891822003001222,1
609,898,43,0.105303105132494,1
609,899,43,0.114574276210155,1
609,900,43,0.134972019460815,1
610,868,43,0.0910865406829376,1
610,872,43,0.0755572675494446,1
610,897,43,0.071467173440748,1
610,898,43,0.0962911107491044,1
610,899,43,0.110476935752969,1
610,900,43,0.117596246111542,1
611,872,43,0.0899654217210162,1
611,898,43,0.0937082135857541,1
611,899,43,0.122627899020641,1
611,900,43,0.122450702474937,1
612,898,43,0.102201773720063,1
612,899,43,0.15098327739949,1
612,901,43,0.127037510447374,1
613,872,43,0.120131622156907,1
613,898,43,0.112409776366493,1
614,873,43,0.0718645159195488,1
616,898,43,0.103532165982328,1
617,898,43,0.101180766328034,1
618,897,43,0.0778861257729037,1
618,898,43,0.108238877697096,1
619,897,43,0.0929106549689234,1
619,899,43,0.12997590786954,1
620,896,43,0.0743926331763416,1
621,896,43,0.0868267389586495,1
622,895,43,0.0820434398714002,1
623,894,43,0.0764372790380053,1
623,895,43,0.0970117896514976,1
624,891,43,0.074318005116971,1
624,892,43,0.0883396832224538,1
624,893,43,0.0910111164582395,1
624,894,43,0.0903069828665586,1
624,895,43,0.105654898246504,1
625,890,43,0.0776514684827041,1
625,891,43,0.0988889671125535,1
625,892,43,0.11750219908223,1
625,893,43,0.107236779231595,1
625,894,43,0.099654119312538,1
626,889,43,0.0761673105715224,1
626,890,43,0.0937155656749503,1
626,891,43,0.128815409824115,1
626,892,43,0.147128705166778,1
626,893,43,0.119340582143695,1
627,890,43,0.1198136785094,1
605,873,44,0.0769380919091741,1
605,896,44,0.120398449502371,1
606,868,44,0.12321799436924,1
606,872,44,0.0878118193902747,1
606,895,44,0.162976500411649,1
606,896,44,0.129412197937498,1
606,897,44,0.0763147815383183,1
607,867,44,0.131175044813516,1
607,868,44,0.118129602240473,1
607,869,44,0.12674658666067,1
607,870,44,0.118804501636534,1
607,871,44,0.0893122551503789,1
607,894,44,0.072978662214813,1
607,895,44,0.113019912689195,1
607,896,44,0.100418183005239,1
607,897,44,0.0773396515761941,1
607,898,44,0.0716121066305625,1
608,867,44,0.0963997873163091,1
608,868,44,0.0983026659893436,1
608,869,44,0.118601964641266,1
608,870,44,0.112258890596847,1
608,871,44,0.08107817649238,1
608,896,44,0.0731644113177455,1
608,897,44,0.0785209618808834,1
608,898,44,0.0817981338699452,1
608,899,44,0.093410814735722,1
609,867,44,0.0744301213671923,1
609,868,44,0.0805379223372915,1
609,869,44,0.108003386921319,1
609,871,44,0.101787400767303,1
609,897,44,0.0731346608586715,1
609,898,44,0.0864602043459982,1
609,899,44,0.0978341724544384,1
609,900,44,0.118967752848923,1
610,868,44,0.0876996409396372,1
610,872,44,0.0772413438183718,1
610,898,44,0.0794726655691696,1
610,899,44,0.093442058004785,1
610,900,44,0.107428132592028,1
611,898,44,0.0828429889015497,1
611,899,44,0.114204955018857,1
611,900,44,0.137968487191556,1
612,898,44,0.0939615123406923,1
612,899,44,0.155425208162487,1
613,898,44,0.0983478856919294,1
614,872,44,0.126562212186936,1
614,873,44,0.0720666175119033,1
614,898,44,0.0999003334400697,1
615,873,44,0.102383672617232,1
615,898,44,0.101484186178355,1
616,874,44,0.0820882801514471,1
616,898,44,0.0940577799248629,1
617,898,44,0.0942262186519637,1
618,898,44,0.0980366348092069,1
619,897,44,0.0863525914059106,1
619,899,44,0.127959992380124,1
621,896,44,0.084312884257294,1
622,895,44,0.0721435718668402,1
623,895,44,0.0861892406728559,1
624,893,44,0.0756696263812891,1
624,894,44,0.0810985533487308,1
624,895,44,0.100632370138463,1
625,891,44,0.077393784598423,1
625,892,44,0.0896475838142169,1
625,893,44,0.0885486019804251,1
625,894,44,0.0918906614436787,1
626,889,44,0.0786717543499051,1
626,890,44,0.0865422404749395,1
626,891,44,0.103758923819669,1
626,892,44,0.117592812648567,1
626,893,44,0.104889036961774,1
626,894,44,0.0987241982100091,1
627,889,44,0.117667030185191,1
627,891,44,0.137999898401743,1
605,868,45,0.132369852608523,1
605,872,45,0.103683704856344,1
606,868,45,0.121189526835832,1
606,869,45,0.11223929746574,1
606,871,45,0.107162188492474,1
606,872,45,0.0769456430397022,1
606,894,45,0.0741731341275727,1
606,896,45,0.106673268340885,1
606,897,45,0.071674767329854,1
607,868,45,0.102143541690406,1
607,869,45,0.106166372269011,1
607,870,45,0.113069623261831,1
607,871,45,0.0863907949015477,1
607,895,45,0.0786110591837659,1
607,896,45,0.0860628245469476,1
607,897,45,0.0728412988156514,1
608,867,45,0.0887982433508901,1
608,868,45,0.0832496863229487,1
608,869,45,0.097995980617171,1
608,870,45,0.105518977896998,1
608,871,45,0.0775851939392307,1
608,898,45,0.0714612270809582,1
609,867,45,0.0720288058788884,1
609,868,45,0.0785999564094721,1
609,869,45,0.109234830761475,1
609,871,45,0.104444328866028,1
609,898,45,0.0719729312450055,1
609,899,45,0.086294906739916,1
610,867,45,0.0727428728770383,1
610,868,45,0.0859403581474687,1
610,872,45,0.0833070599868622,1
610,899,45,0.0878256341027153,1
610,900,45,0.107758155560363,1
611,867,45,0.0842587325749403,1
611,868,45,0.101144335544259,1
611,898,45,0.0795082442072426,1
611,899,45,0.12083821888507,1
612,867,45,0.106940232527265,1
612,868,45,0.112998926268765,1
612,898,45,0.0869853251398224,1
613,898,45,0.0854931247148246,1
614,872,45,0.118957974943495,1
614,873,45,0.071700002038711,1
614,898,45,0.0867219685775828,1
615,872,45,0.133957555552572,1
615,873,45,0.108397127996021,1
615,898,45,0.0895420670281556,1
616,871,45,0.0809556541125265,1
616,873,45,0.143379724360627,1
616,874,45,0.085296820201261,1
616,898,45,0.0876878042004321,1
617,872,45,0.0870664096023957,1
617,874,45,0.088553988536469,1
617,898,45,0.0881273185614244,1
618,898,45,0.0883027672754323,1
618,899,45,0.132553741919011,1
619,897,45,0.0779667748325636,1
619,898,45,0.107547134428324,1
619,899,45,0.126515313073112,1
619,900,45,0.144267896543795,1
620,897,45,0.105529340486339,1
621,896,45,0.0827300702659592,1
623,895,45,0.0780625385933629,1
624,894,45,0.0748861250585222,1
624,895,45,0.0996763186410839,1
625,892,45,0.0721482493381393,1
625,893,45,0.0772431103101922,1
625,894,45,0.0899416425018985,1
626,884,45,0.0795468271254186,1
626,885,45,0.0729341889172218,1
626,888,45,0.083078274415953,1
626,889,45,0.086190223439432,1
626,890,45,0.0832099526970728,1
626,891,45,0.0865576910583265,1
626,892,45,0.096302543185604,1
626,893,45,0.095427594810923,1
626,894,45,0.097216192659252,1
627,887,45,0.116825209752184,1
627,889,45,0.143528968039285,1
627,890,45,0.115303526329902,1
627,892,45,0.134160490630504,1
605,872,46,0.078490825779229,1
606,896,46,0.085170217474104,1
607,868,46,0.0818424516664959,1
607,871,46,0.0768705733573765,1
607,896,46,0.0739383897567904,1
609,868,46,0.0736782987164019,1
609,899,46,0.072558697444636,1
610,868,46,0.0775480229705027,1
610,872,46,0.0841345183437658,1
610,899,46,0.0798102085678247,1
610,900,46,0.101164109056572,1
611,868,46,0.0821709009643008,1
611,898,46,0.0721579526030684,1
611,899,46,0.115418821021392,1
612,868,46,0.089992317180986,1
612,898,46,0.0767817511630264,1
613,868,46,0.0863304107374896,1
613,869,46,0.0875963011681434,1
613,898,46,0.0741158413242003,1
614,870,46,0.095704423983314,1
614,873,46,0.0735602672065989,1
614,898,46,0.0756606197610217,1
615,871,46,0.089685837070187,1
615,898,46,0.0792330571258395,1
616,871,46,0.0759236902013467,1
616,874,46,0.0818249546894156,1
616,898,46,0.081429577743767,1
617,872,46,0.08000878339658,1
617,873,46,0.100451932951075,1
617,874,46,0.0815949188901405,1
617,898,46,0.0817183307359458,1
618,898,46,0.079859819619795,1
618,899,46,0.11756097847555,1
619,898,46,0.0927201475341508,1
619,899,46,0.119568845231108,1
619,900,46,0.132497736664254,1
620,897,46,0.0888449434233817,1
620,898,46,0.122794745417087,1
621,896,46,0.0775254877597093,1
621,897,46,0.121164261026767,1
622,896,46,0.0997279885268308,1
623,895,46,0.073405095828276,1
624,894,46,0.0717893467165572,1
624,895,46,0.100696654268618,1
625,893,46,0.0739451385019494,1
625,894,46,0.0914837836410726,1
625,895,46,0.122389559465801,1
626,883,46,0.100497165093744,1
626,884,46,0.0883981827139008,1
626,885,46,0.0761593800184555,1
626,886,46,0.0733928547863656,1
626,887,46,0.0861104514056407,1
626,888,46,0.103946750416503,1
626,889,46,0.101721039143247,1
626,890,46,0.0879403067900428,1
626,891,46,0.0833890028151793,1
626,892,46,0.0905848756660668,1
626,893,46,0.0959440635268521,1
626,894,46,0.100768638810299,1
627,884,46,0.132187866630771,1
627,885,46,0.101116718559461,1
627,886,46,0.0951647234119298,1
627,887,46,0.131312818735424,1
627,889,46,0.168016251814938,1
627,890,46,0.123732342050976,1
627,891,46,0.10910608834,1
627,893,46,0.124511476904525,1
610,899,47,0.0716498809433277,1
611,899,47,0.102441861106598,1
615,898,47,0.0734363515374223,1
616,898,47,0.0768580275334266,1
617,898,47,0.0767943280871844,1
617,899,47,0.123084736197548,1
618,898,47,0.0743000043165194,1
618,899,47,0.105000873310123,1
618,900,47,0.115185532140349,1
619,898,47,0.080445741320466,1
619,899,47,0.108134704440025,1
619,900,47,0.120562932283001,1
620,897,47,0.0773411692663497,1
620,898,47,0.102847059497966,1
620,899,47,0.132537818612461,1
621,896,47,0.0748651013178427,1
621,897,47,0.112861388708438,1
621,898,47,0.13519829213491,1
622,896,47,0.0999725170230832,1
622,897,47,0.164122319158848,1
623,895,47,0.0735727446100909,1
623,896,47,0.118920132210272,1
624,894,47,0.0733370610130238,1
624,895,47,0.100540599644385,1
624,896,47,0.139032251149689,1
625,881,47,0.0763151920610654,1
625,882,47,0.0768515835703071,1
625,883,47,0.0748260829967532,1
625,884,47,0.0727346624220984,1
625,893,47,0.0807979449572221,1
625,894,47,0.0978048138579865,1
625,895,47,0.118088525085607,1
626,881,47,0.0814879403942983,1
626,882,47,0.116708695932537,1
626,883,47,0.123645012666615,1
626,884,47,0.104369756787032,1
626,885,47,0.0917818791357663,1
626,886,47,0.0997773632172195,1
626,887,47,0.118487254633689,1
626,888,47,0.132175924150859,1
626,889,47,0.122087588885178,1
626,890,47,0.10090914333048,1
626,891,47,0.0906891173435957,1
626,892,47,0.0938944043116417,1
626,893,47,0.103022091469185,1
626,894,47,0.107430272286346,1
627,883,47,0.169650144788066,1
627,884,47,0.12874134156849,1
627,885,47,0.103209924286061,1
627,886,47,0.116696094128212,1
627,887,47,0.161779938564905,1
627,890,47,0.140338658931463,1
627,891,47,0.124997398996053,1
627,893,47,0.114115150057931,1
628,883,47,0.150515629790245,1
628,884,47,0.133482070690884,1
611,899,48,0.0816313372338323,1
611,900,48,0.127301787575774,1
612,899,48,0.104405702407561,1
613,899,48,0.108032608676855,1
615,899,48,0.115710702694506,1
616,898,48,0.0740354037459555,1
616,899,48,0.114078115930119,1
617,898,48,0.0737013875108996,1
617,899,48,0.103145067912077,1
617,900,48,0.10934803551898,1
618,898,48,0.0716238065288518,1
618,899,48,0.0940310772861833,1
618,900,48,0.0952759812964074,1
619,898,48,0.074993899719692,1
619,899,48,0.0984977016144165,1
619,900,48,0.11008965108147,1
620,897,48,0.0754960810000173,1
620,898,48,0.0940705496703112,1
620,899,48,0.120611000764649,1
621,896,48,0.0773773388083767,1
621,897,48,0.108294472429106,1
621,898,48,0.123147334696423,1
622,896,48,0.101052055006767,1
622,897,48,0.149831649133417,1
623,895,48,0.0787061262999036,1
623,896,48,0.117249180229165,1
624,894,48,0.0879609635482667,1
624,895,48,0.105087618010571,1
624,896,48,0.131664611849433,1
625,881,48,0.0903855295521505,1
625,882,48,0.093600955188039,1
625,883,48,0.0975133675877858,1
625,884,48,0.0903313840898383,1
625,885,48,0.082287812866612,1
625,886,48,0.085847835028354,1
625,887,48,0.0850657207748686,1
625,888,48,0.0807577945885576,1
625,889,48,0.0766896634468252,1
625,890,48,0.0714456707568636,1
625,892,48,0.075960823849825,1
625,893,48,0.0971024654182508,1
625,894,48,0.113635248966693,1
625,895,48,0.118494979925383,1
626,882,48,0.137608620463523,1
626,883,48,0.151553978658314,1
626,884,48,0.125206305313941,1
626,885,48,0.115280785857735,1
626,886,48,0.144571608736073,1
626,887,48,0.162220454352598,1
626,888,48,0.159653928338794,1
626,889,48,0.14311150372584,1
626,890,48,0.124153115426564,1
626,891,48,0.10304052767255,1
626,892,48,0.098574711949728,1
626,893,48,0.111935324031715,1
626,894,48,0.117568877928409,1
627,883,48,0.170100214559689,1
627,884,48,0.131380990391592,1
627,885,48,0.121817303196572,1
627,886,48,0.160148807290257,1
627,887,48,0.202526386258085,1
628,882,48,0.138506433711203,1
628,883,48,0.153599750347511,1
628,884,48,0.149883661121453,1
628,885,48,0.130751335578283,1
628,886,48,0.128983413148302,1
612,899,49,0.0804875648803266,1
613,899,49,0.0912147108605831,1
614,899,49,0.0978297064645544,1
615,899,49,0.0940230036721591,1
615,900,49,0.142029092082927,1
616,898,49,0.0714777972718369,1
616,899,49,0.0909175359320493,1
616,900,49,0.105516514760516,1
617,899,49,0.0844474797379342,1
617,900,49,0.0862135796957194,1
618,899,49,0.0829404942740029,1
618,900,49,0.0867355158282336,1
619,898,49,0.0738949489861083,1
619,899,49,0.0926621083257838,1
620,897,49,0.0782543211366679,1
620,898,49,0.0927728934870981,1
620,899,49,0.11375901535487,1
621,896,49,0.0803373508751758,1
621,897,49,0.103897388166197,1
621,898,49,0.117212208301769,1
622,896,49,0.0990978609903583,1
622,897,49,0.133940860960861,1
623,894,49,0.0736648261062505,1
623,895,49,0.086506145573412,1
623,896,49,0.113812545033062,1
624,881,49,0.0766969471155636,1
624,882,49,0.0721426513006803,1
624,893,49,0.0870176817963356,1
624,894,49,0.109968136348359,1
624,895,49,0.112022305093745,1
625,882,49,0.114726791630705,1
625,883,49,0.120465327389882,1
625,884,49,0.102112852005047,1
625,885,49,0.0907622836931853,1
625,886,49,0.0979694210394487,1
625,887,49,0.0956575435296153,1
625,888,49,0.0880809668112636,1
625,889,49,0.0840060122838728,1
625,890,49,0.0797259145637748,1
625,891,49,0.0732858949506482,1
625,892,49,0.0839496711468684,1
625,893,49,0.11292036714309,1
625,894,49,0.13046928157093,1
625,895,49,0.123167412990776,1
626,883,49,0.165355218488743,1
626,884,49,0.134910677410348,1
626,885,49,0.130972159495917,1
626,886,49,0.176100141347953,1
626,887,49,0.186713037603712,1
626,888,49,0.165996318178635,1
626,889,49,0.157499579603058,1
626,890,49,0.149520808773441,1
626,891,49,0.117713556096517,1
626,892,49,0.102801901995796,1
626,893,49,0.116012573754464,1
627,883,49,0.160515180181826,1
627,884,49,0.138115927058144,1
627,885,49,0.139313819993795,1
627,886,49,0.189782155420588,1
627,887,49,0.218945417685359,1
628,885,49,0.152993333609699,1
628,886,49,0.145359675569389,1
605,901,50,0.0722356595830414,1
606,901,50,0.0837922481134787,1
606,902,50,0.0957188420397918,1
607,901,50,0.0729246224932084,1
607,902,50,0.097702699434692,1
611,901,50,0.0911367364188203,1
612,900,50,0.0905750293401805,1
614,899,50,0.0767086034735616,1
615,899,50,0.0744023799815619,1
616,899,50,0.0727315461812462,1
618,899,50,0.0766763090174646,1
619,897,50,0.0745062049163022,1
619,898,50,0.0818356469409623,1
620,896,50,0.0787942394095088,1
620,897,50,0.0926175479476098,1
620,898,50,0.0996673742212326,1
621,895,50,0.0715091773818156,1
621,896,50,0.090301048946852,1
621,897,50,0.106979406349395,1
621,898,50,0.121705864930888,1
622,895,50,0.0859347725500929,1
622,896,50,0.102494016155591,1
622,897,50,0.131354293972954,1
623,879,50,0.0841818031001698,1
623,880,50,0.074955938805678,1
623,893,50,0.0726455541058338,1
623,894,50,0.0978410456004297,1
623,895,50,0.103179278140993,1
623,896,50,0.117113881883822,1
624,880,50,0.0884615835981452,1
624,881,50,0.0895135356972394,1
624,882,50,0.0930661373493274,1
624,883,50,0.0841676400653985,1
624,893,50,0.106435351748876,1
624,894,50,0.133044689804168,1
624,895,50,0.124085180131977,1
625,881,50,0.113622784003284,1
625,882,50,0.13945526374026,1
625,883,50,0.14001558996966,1
625,884,50,0.115225750929471,1
625,885,50,0.103047494119166,1
625,886,50,0.109886815524204,1
625,887,50,0.104724174758606,1
625,888,50,0.0959539720531546,1
625,889,50,0.0933513884580735,1
625,890,50,0.0889675653239011,1
625,891,50,0.0831495560929314,1
625,892,50,0.0908368744323062,1
625,893,50,0.121008722665989,1
625,894,50,0.140825203027153,1
626,882,50,0.158217646087971,1
626,883,50,0.165106192902399,1
626,884,50,0.14413788523383,1
626,885,50,0.148222263124276,1
626,886,50,0.192687225859747,1
626,887,50,0.190701365611445,1
626,888,50,0.165840058293029,1
626,891,50,0.125517804998328,1
626,892,50,0.0997556055116287,1
626,893,50,0.111941556513419,1
627,882,50,0.155974935440965,1
627,883,50,0.16096418010629,1
627,884,50,0.159957391729407,1
627,885,50,0.161384605159547,1
627,886,50,0.202399932811927,1
627,887,50,0.214680210744902,1
605,902,51,0.077443893253723,1
606,901,51,0.0735210374040943,1
606,902,51,0.0945975426966633,1
606,903,51,0.0946548728202855,1
607,902,51,0.0844764091515141,1
607,903,51,0.0891249572570828,1
608,903,51,0.0892076589304776,1
609,903,51,0.104496913097894,1
610,890,51,0.075617664153586,1
610,902,51,0.0926654920284257,1
611,901,51,0.0844301818021857,1
611,902,51,0.12940510709005,1
612,900,51,0.0768655724439131,1
612,901,51,0.131699145520514,1
613,900,51,0.10394912025236,1
614,900,51,0.103011648019303,1
615,900,51,0.0856848761579214,1
616,900,51,0.0739336127648254,1
617,876,51,0.0794591805189349,1
617,877,51,0.0799210870297633,1
617,898,51,0.0715389029607231,1
618,876,51,0.0756817803426169,1
618,877,51,0.0813192839657407,1
618,897,51,0.0845714700476102,1
618,898,51,0.085279727526886,1
618,899,51,0.0800266349160327,1
619,876,51,0.0758063055758723,1
619,877,51,0.0742681079430861,1
619,896,51,0.0828482386166779,1
619,897,51,0.10526318490537,1
619,898,51,0.104154636647565,1
619,899,51,0.100633539506288,1
620,877,51,0.078429732530426,1
620,895,51,0.0728858591938254,1
620,896,51,0.0967924523238109,1
620,897,51,0.112968895907818,1
620,898,51,0.115108391184163,1
621,878,51,0.080921773545816,1
621,894,51,0.0723779865754166,1
621,895,51,0.0924243658949401,1
621,896,51,0.101340341495824,1
621,897,51,0.115546705077123,1
622,878,51,0.11421452144287,1
622,879,51,0.0953508083971098,1
622,894,51,0.100217312981125,1
622,895,51,0.114322128162916,1
622,896,51,0.113441544430527,1
623,877,51,0.112347041026702,1
623,878,51,0.146333758967428,1
623,879,51,0.130648294368787,1
623,880,51,0.0950083951058654,1
623,881,51,0.0786602970332389,1
623,882,51,0.0725914957241043,1
623,893,51,0.0907109248095195,1
623,894,51,0.125775252521027,1
623,895,51,0.127090990365233,1
624,878,51,0.119692698699868,1
624,879,51,0.126841616456558,1
624,880,51,0.11060217007097,1
624,881,51,0.107339770680758,1
624,882,51,0.116614723543724,1
624,883,51,0.10386666738063,1
624,884,51,0.0862472487810148,1
624,885,51,0.0744375232167214,1
624,892,51,0.0842694621467368,1
624,893,51,0.120723222755578,1
624,894,51,0.150481046358832,1
624,895,51,0.149622506453947,1
625,880,51,0.112042569989347,1
625,881,51,0.129255627049811,1
625,882,51,0.15146026751125,1
625,883,51,0.145019650774128,1
625,884,51,0.126503196432034,1
625,885,51,0.121753224327791,1
625,886,51,0.12716890260658,1
625,887,51,0.120564263371908,1
625,888,51,0.108055137667607,1
625,889,51,0.101724615667179,1
625,890,51,0.0960574859858139,1
625,891,51,0.0937521643998492,1
625,892,51,0.0985747990303106,1
625,893,51,0.122691530046425,1
625,894,51,0.150906683806967,1
626,881,51,0.145898505334947,1
626,882,51,0.158357684105029,1
626,883,51,0.159010303312004,1
626,884,51,0.156528718186579,1
626,885,51,0.167159752083706,1
626,886,51,0.193654591612836,1
626,887,51,0.182786735851025,1
626,891,51,0.129660427358515,1
627,884,51,0.188564681793913,1
627,885,51,0.185644235411866,1
627,886,51,0.204014643176695,1
605,902,52,0.0765774041356467,1
605,903,52,0.102219276917185,1
606,902,52,0.0839897095547838,1
606,903,52,0.10259457556848,1
606,904,52,0.155162150162245,1
607,903,52,0.0812830584433391,1
607,904,52,0.12420370924511,1
608,891,52,0.0722501087397274,1
608,892,52,0.0743216811615691,1
608,903,52,0.0804627655743831,1
608,904,52,0.10658515523128,1
609,889,52,0.0848552905467834,1
609,890,52,0.0946277596588589,1
609,891,52,0.074360954504365,1
609,903,52,0.103676278126648,1
609,904,52,0.117531632319182,1
610,889,52,0.115727546567216,1
610,890,52,0.123633020426369,1
610,891,52,0.0752457056646411,1
610,902,52,0.0878048902639087,1
610,903,52,0.123719416804487,1
611,889,52,0.073693911020871,1
611,890,52,0.0772278027877625,1
611,901,52,0.075061312530782,1
611,902,52,0.115993963389933,1
612,901,52,0.112945023388076,1
613,900,52,0.0802695648615884,1
614,900,52,0.0797269470906839,1
614,901,52,0.130827008604646,1
615,900,52,0.073841282467001,1
615,901,52,0.101783388840458,1
616,876,52,0.08873106068134,1
616,877,52,0.0857101979473612,1
617,876,52,0.0951465173501047,1
617,877,52,0.104314130954814,1
617,878,52,0.0721938235830975,1
617,897,52,0.0868886781331129,1
617,898,52,0.084318762196626,1
618,876,52,0.0821530245646817,1
618,877,52,0.0958260257970075,1
618,878,52,0.076911414150661,1
618,896,52,0.0859466528295893,1
618,897,52,0.129016914292474,1
618,898,52,0.122493434160875,1
618,899,52,0.0918369265041135,1
619,877,52,0.0826134631456875,1
619,878,52,0.0779943109568204,1
619,896,52,0.105821296799953,1
619,897,52,0.152025669294613,1
619,898,52,0.143362706326752,1
619,899,52,0.113303919789617,1
620,876,52,0.11738839720073,1
620,877,52,0.093476044312203,1
620,878,52,0.0823087184265007,1
620,879,52,0.0721628602159074,1
620,895,52,0.0829104079326813,1
620,896,52,0.107249828878916,1
620,897,52,0.127361599496003,1
620,898,52,0.128665991984292,1
621,876,52,0.138536812394481,1
621,877,52,0.128545683939255,1
621,878,52,0.104542866765391,1
621,879,52,0.0853897289629561,1
621,894,52,0.0855086437186693,1
621,895,52,0.107564339063448,1
621,896,52,0.104112533185831,1
621,897,52,0.120764349670777,1
622,877,52,0.168066845633485,1
622,878,52,0.165618649691482,1
622,879,52,0.122667794367599,1
622,880,52,0.0846724088830383,1
622,893,52,0.0786948991247774,1
622,894,52,0.118811866165814,1
622,895,52,0.127076833550503,1
622,896,52,0.118856911707234,1
623,878,52,0.21257034774684,1
623,879,52,0.170606886710065,1
623,880,52,0.111426487306855,1
623,881,52,0.0967758945730154,1
623,882,52,0.0982658060226966,1
623,883,52,0.0952862692452487,1
623,884,52,0.0833575107444514,1
623,892,52,0.0775621611251076,1
623,893,52,0.104612636972255,1
623,894,52,0.13566105079144,1
623,895,52,0.135046075276357,1
624,879,52,0.159965801225679,1
624,880,52,0.13232471998652,1
624,881,52,0.127015939343032,1
624,882,52,0.137969780960213,1
624,883,52,0.134702306016039,1
624,884,52,0.125174719942588,1
624,885,52,0.10718960643594,1
624,886,52,0.0924988508933534,1
624,887,52,0.0867101131782528,1
624,888,52,0.0766908639148581,1
624,891,52,0.0839968252823984,1
624,892,52,0.0995818735291083,1
624,893,52,0.121479393215461,1
624,894,52,0.152702496903577,1
625,881,52,0.145416228187809,1
625,882,52,0.15192482997985,1
625,883,52,0.153808855706731,1
625,884,52,0.155553428100466,1
625,885,52,0.150494904611564,1
625,886,52,0.143387337691572,1
625,887,52,0.137730906481795,1
625,888,52,0.120353752283281,1
625,889,52,0.105025467354693,1
625,890,52,0.0971823556328329,1
625,891,52,0.0982993196069514,1
625,892,52,0.100384010096572,1
625,893,52,0.115602362009549,1
626,882,52,0.158742754441712,1
626,885,52,0.192024642146096,1
626,886,52,0.182978636575121,1
605,902,53,0.07238732285789,1
605,903,53,0.105294359753975,1
606,903,53,0.0996610857591537,1
606,904,53,0.167077037970227,1
607,903,53,0.075684125298308,1
607,904,53,0.132323563058778,1
608,889,53,0.0724545366276482,1
608,890,53,0.0861046792070163,1
608,891,53,0.0932781847882341,1
608,892,53,0.0844787727673302,1
608,903,53,0.0774015720905327,1
608,904,53,0.106722381789526,1
609,889,53,0.11836555329933,1
609,890,53,0.120666632816909,1
609,891,53,0.0832005106738919,1
609,903,53,0.102961570464211,1
609,904,53,0.108593208588087,1
610,879,53,0.0733874744503633,1
610,888,53,0.0763783192634784,1
610,889,53,0.147919135615911,1
610,890,53,0.143134318838506,1
610,891,53,0.0741473769352195,1
610,902,53,0.0854310860196952,1
610,903,53,0.126582439762288,1
610,904,53,0.116854419067637,1
611,878,53,0.072362169009574,1
611,879,53,0.0835558056713338,1
611,880,53,0.0797325513481846,1
611,889,53,0.0856026472076898,1
611,890,53,0.0862413584015995,1
611,902,53,0.11125987727199,1
612,878,53,0.0729932730925811,1
612,879,53,0.0837941327860899,1
612,880,53,0.0852796217861785,1
612,881,53,0.0792331255462974,1
612,901,53,0.094235163071815,1
613,879,53,0.0821691158123556,1
613,880,53,0.0897595134631895,1
613,881,53,0.0808192361596913,1
614,879,53,0.0821996002363408,1
614,880,53,0.0938361287416931,1
614,881,53,0.0793769764488698,1
614,901,53,0.115110344277232,1
615,877,53,0.0831512417242107,1
615,879,53,0.0736754374972562,1
615,880,53,0.0806585538244921,1
615,901,53,0.0978785337912804,1
616,877,53,0.105671157435301,1
616,878,53,0.0763567046188449,1
617,877,53,0.117885826369257,1
617,878,53,0.0853420212437219,1
617,896,53,0.0722318653576525,1
617,897,53,0.108960701087147,1
617,898,53,0.100804702611619,1
618,877,53,0.102500472558794,1
618,878,53,0.0875249946109985,1
618,896,53,0.107309615918979,1
618,897,53,0.180371978852778,1
618,898,53,0.167501008447209,1
618,899,53,0.103619240344982,1
619,878,53,0.0918605813223988,1
619,879,53,0.0765127903432861,1
619,895,53,0.0732683046729436,1
619,896,53,0.124570554859843,1
619,897,53,0.187957369370107,1
619,898,53,0.175778378594891,1
620,877,53,0.111470015158119,1
620,878,53,0.103240620191461,1
620,879,53,0.0877873870667868,1
620,895,53,0.0933217810599568,1
620,896,53,0.111829185241491,1
620,897,53,0.131060384566271,1
620,898,53,0.137271767889488,1
621,876,53,0.166290961550229,1
621,877,53,0.161117006528922,1
621,878,53,0.131807312044306,1
621,879,53,0.102479728719987,1
621,880,53,0.0802924359546294,1
621,881,53,0.0715439038741865,1
621,894,53,0.0949583175507734,1
621,895,53,0.115521401947808,1
621,896,53,0.106294617087156,1
622,877,53,0.218170400499363,1
622,878,53,0.200148489226485,1
622,879,53,0.142464084473661,1
622,880,53,0.101349540937382,1
622,881,53,0.090939163016766,1
622,882,53,0.0965908980951191,1
622,883,53,0.0953427658832937,1
622,884,53,0.0744733319963344,1
622,893,53,0.0894354181945194,1
622,894,53,0.12210912266927,1
622,895,53,0.125806663731214,1
623,878,53,0.239783751364212,1
623,879,53,0.194812601641612,1
623,880,53,0.135063690434228,1
623,881,53,0.118507693690456,1
623,882,53,0.128089767328508,1
623,883,53,0.138361307700098,1
623,884,53,0.122062746038943,1
623,885,53,0.100295125701806,1
623,886,53,0.0926547748967124,1
623,887,53,0.0792668941522586,1
623,892,53,0.0946868376141766,1
623,893,53,0.108757952610464,1
623,894,53,0.127892206366537,1
623,895,53,0.134414417609646,1
624,879,53,0.185517048000797,1
624,880,53,0.159420241375088,1
624,881,53,0.144015487254809,1
624,882,53,0.147412351504786,1
624,883,53,0.163205796025971,1
624,884,53,0.169774707341571,1
624,885,53,0.153629631427459,1
624,886,53,0.145187256015651,1
624,887,53,0.136464966290808,1
624,888,53,0.103382014177593,1
624,889,53,0.0786895125687335,1
624,890,53,0.076439008209576,1
624,891,53,0.0899721642461335,1
624,892,53,0.101653147388952,1
624,893,53,0.108236800203194,1
624,894,53,0.141729310956954,1
625,881,53,0.164410381726407,1
625,882,53,0.157105117003528,1
625,885,53,0.183548255546703,1
625,886,53,0.161636964688201,1
625,887,53,0.161221266866576,1
625,888,53,0.135466251527949,1
625,889,53,0.105251192665124,1
625,890,53,0.092691821464608,1
625,891,53,0.0921702212143414,1
604,903,54,0.0840900077259249,1
605,903,54,0.0986697479656576,1
605,904,54,0.140110383403967,1
606,903,54,0.0898415993524639,1
606,904,54,0.148340655396493,1
607,903,54,0.0717383796955135,1
607,904,54,0.121896571406992,1
608,889,54,0.111606159429123,1
608,890,54,0.12084589441643,1
608,891,54,0.109066628395956,1
608,892,54,0.0825020808603775,1
608,903,54,0.0749490967598948,1
608,904,54,0.099030976882806,1
609,879,54,0.0792131218924437,1
609,880,54,0.0732332982786997,1
609,888,54,0.0878896880913299,1
609,889,54,0.153356310358543,1
609,890,54,0.137529713015517,1
609,891,54,0.0833021274938567,1
609,903,54,0.0963618575025034,1
609,904,54,0.09520501062151,1
610,878,54,0.0762975893432775,1
610,879,54,0.0974024704657222,1
610,880,54,0.0922426287188532,1
610,881,54,0.0848665301619928,1
610,882,54,0.0774265517776832,1
610,888,54,0.0845766762224471,1
610,889,54,0.155054829564114,1
610,890,54,0.135199735184566,1
610,902,54,0.0833634571042412,1
610,903,54,0.124058421512923,1
610,904,54,0.106197634198199,1
611,878,54,0.0877814780272467,1
611,879,54,0.112762602007411,1
611,880,54,0.116351566022816,1
611,881,54,0.11057431672459,1
611,882,54,0.0919132899550964,1
611,889,54,0.0905066524226392,1
611,890,54,0.0878343857012762,1
611,902,54,0.109277189244915,1
611,903,54,0.162742328284696,1
612,878,54,0.0875353261001312,1
612,879,54,0.115629742632765,1
612,880,54,0.132576868033758,1
612,881,54,0.126053873065405,1
612,882,54,0.0944331096763665,1
612,901,54,0.0776693262221984,1
612,902,54,0.146117786682259,1
613,878,54,0.0820170482348016,1
613,879,54,0.112077165860843,1
613,880,54,0.137337824731504,1
613,881,54,0.122118801054033,1
613,882,54,0.0863456125192117,1
613,901,54,0.100414749542264,1
614,878,54,0.0849928965275682,1
614,879,54,0.111081959201459,1
614,880,54,0.13945388289102,1
614,881,54,0.117434898231889,1
614,882,54,0.0825304629102948,1
614,901,54,0.107086478145862,1
615,878,54,0.0960012879097667,1
615,879,54,0.101006549182267,1
615,880,54,0.114514389649426,1
615,881,54,0.0972531894668146,1
615,882,54,0.0757226335759846,1
615,901,54,0.0931379663899685,1
616,878,54,0.106418308834834,1
616,879,54,0.0947874405673571,1
616,880,54,0.0903750052417275,1
616,881,54,0.0815916844684975,1
616,882,54,0.0719090140973066,1
617,878,54,0.108441165890699,1
617,879,54,0.0916068533845887,1
617,880,54,0.079400040363201,1
617,881,54,0.0762997414776784,1
617,882,54,0.0734217033394045,1
617,896,54,0.0772032149632341,1
617,897,54,0.122393577612689,1
617,898,54,0.113369006305141,1
617,899,54,0.0729090599490723,1
617,900,54,0.0725515008564803,1
618,878,54,0.0993286431946279,1
618,879,54,0.0857422187216269,1
618,896,54,0.122435737054797,1
618,897,54,0.208776993163764,1
618,898,54,0.194968562965221,1
618,899,54,0.112762315885497,1
619,877,54,0.104849241135482,1
619,878,54,0.105526591227942,1
619,879,54,0.0873008989514716,1
619,895,54,0.0901937656689703,1
619,896,54,0.131927284207095,1
619,897,54,0.192152140559246,1
619,898,54,0.183250502154298,1
620,877,54,0.136278190881008,1
620,878,54,0.130979611105779,1
620,879,54,0.100947844429446,1
620,880,54,0.0788879256764066,1
620,881,54,0.0718570643096867,1
620,894,54,0.0788172846637152,1
620,895,54,0.100372503019573,1
620,896,54,0.109796935922779,1
620,897,54,0.126973444018677,1
621,877,54,0.188479243302205,1
621,878,54,0.160558421911176,1
621,879,54,0.116665740325101,1
621,880,54,0.0915881248392674,1
621,881,54,0.0891916298832199,1
621,882,54,0.0863434852649772,1
621,883,54,0.0722467996775849,1
621,894,54,0.0947649364567718,1
621,895,54,0.107628965295892,1
621,896,54,0.103296445065011,1
622,878,54,0.208891230448178,1
622,879,54,0.153233588937357,1
622,880,54,0.119071789265079,1
622,881,54,0.109620149899822,1
622,882,54,0.119010633815859,1
622,883,54,0.120166752951983,1
622,884,54,0.0913113827474591,1
622,892,54,0.0759571851254767,1
622,893,54,0.0918809270785416,1
622,894,54,0.107754510615974,1
622,895,54,0.109432541004445,1
623,879,54,0.201599214413953,1
623,880,54,0.160645166611625,1
623,881,54,0.131291695474079,1
623,882,54,0.137135001614322,1
623,883,54,0.161466958510611,1
623,884,54,0.146241926272934,1
623,885,54,0.123708046568404,1
623,886,54,0.11779018700929,1
623,887,54,0.0975529146124131,1
623,891,54,0.078764190388437,1
623,892,54,0.104740875570358,1
623,893,54,0.103758339135756,1
623,894,54,0.109850913443967,1
624,881,54,0.14830472843609,1
624,882,54,0.148656073707102,1
624,885,54,0.176750484019694,1
624,886,54,0.167657044411317,1
624,887,54,0.15654042430491,1
624,888,54,0.111190075964918,1
624,889,54,0.0789384261943288,1
624,890,54,0.0746281115120352,1
624,891,54,0.0857993124836674,1
624,892,54,0.0934760318721197,1
624,893,54,0.0927792068293436,1
625,886,54,0.155348104526551,1
625,887,54,0.156838600660145,1
625,888,54,0.131509844773816,1
625,889,54,0.0977357527358668,1
625,890,54,0.0838771765617739,1
605,903,55,0.083605845906176,1
606,903,55,0.0766287319191044,1
606,904,55,0.118080389271166,1
607,904,55,0.105263383946702,1
608,879,55,0.0784599246124551,1
608,880,55,0.07234016872236,1
608,889,55,0.131122025178737,1
608,890,55,0.129860065814388,1
608,891,55,0.100305836613478,1
608,903,55,0.0717589369330714,1
609,879,55,0.0986016074096978,1
609,880,55,0.0903475437579701,1
609,881,55,0.0877341248503849,1
609,882,55,0.0810234836664051,1
609,888,55,0.0966086003335729,1
609,889,55,0.150003197881328,1
609,890,55,0.12120624630771,1
609,903,55,0.0889011166192623,1
609,904,55,0.0861530400306208,1
610,879,55,0.123783221991437,1
610,880,55,0.122437665267699,1
610,881,55,0.122477585494824,1
610,882,55,0.106554403345505,1
610,883,55,0.0737981713585247,1
610,888,55,0.0778651269123907,1
610,889,55,0.124555129156622,1
610,890,55,0.0997925649989416,1
610,902,55,0.0836007952323796,1
610,903,55,0.118159358919588,1
611,879,55,0.147955896061892,1
611,882,55,0.119178848621462,1
611,883,55,0.0743275528808595,1
611,889,55,0.0836268012263976,1
611,890,55,0.0768368793919147,1
611,902,55,0.107105586113722,1
611,903,55,0.152980122241295,1
612,878,55,0.101535762763478,1
612,879,55,0.158043945205658,1
612,882,55,0.115402014468931,1
612,902,55,0.130564995571396,1
612,903,55,0.173373511462821,1
613,878,55,0.0967376288769621,1
613,879,55,0.148264422566385,1
613,881,55,0.166571709348842,1
613,882,55,0.109588813330135,1
613,883,55,0.0719744302750362,1
613,901,55,0.0901972613323614,1
613,902,55,0.163139017659126,1
614,879,55,0.149551262097218,1
614,880,55,0.180951512570704,1
614,881,55,0.155540428213477,1
614,882,55,0.111927474339189,1
614,883,55,0.0831955595207615,1
614,901,55,0.100675848229395,1
614,902,55,0.164407657348177,1
615,879,55,0.149769112834958,1
615,880,55,0.149578120236939,1
615,881,55,0.129632636212552,1
615,882,55,0.105878707784116,1
615,883,55,0.0855159087272828,1
615,901,55,0.0871103230962411,1
616,879,55,0.139725163786285,1
616,880,55,0.120899287253706,1
616,881,55,0.118669937256102,1
616,882,55,0.109912118653519,1
616,883,55,0.086886345617505,1
617,878,55,0.133926865867213,1
617,879,55,0.117938833563952,1
617,880,55,0.0997750804619445,1
617,881,55,0.111245036252682,1
617,882,55,0.11269756525222,1
617,883,55,0.086251776971315,1
617,896,55,0.0865293836489086,1
617,897,55,0.133363417176919,1
617,898,55,0.124817378551453,1
617,899,55,0.0848869381185518,1
617,900,55,0.082947765502658,1
618,878,55,0.111155231291756,1
618,879,55,0.0963956634287143,1
618,880,55,0.0794646603756032,1
618,881,55,0.0827770875605735,1
618,882,55,0.0832073900399249,1
618,895,55,0.088197119868497,1
618,896,55,0.135641271059085,1
618,897,55,0.209923993718871,1
618,898,55,0.197820601329518,1
618,899,55,0.122656623172847,1
619,877,55,0.125638386725196,1
619,878,55,0.12608792157324,1
619,879,55,0.0945495301953897,1
619,880,55,0.074047134744453,1
619,894,55,0.0797737466838415,1
619,895,55,0.108445420399168,1
619,896,55,0.134468121449003,1
619,897,55,0.176922891133349,1
619,898,55,0.17446430772184,1
620,877,55,0.172404764860493,1
620,878,55,0.166910925538693,1
620,879,55,0.110315998396064,1
620,880,55,0.0847373336774799,1
620,881,55,0.0842600325636391,1
620,894,55,0.0808114859878314,1
620,895,55,0.100240694117579,1
620,896,55,0.108172659133997,1
620,897,55,0.127040744869017,1
621,878,55,0.17873854616273,1
621,879,55,0.124290640546807,1
621,880,55,0.107540080901126,1
621,881,55,0.11380551638603,1
621,882,55,0.105190037215905,1
621,883,55,0.0862435851764999,1
621,894,55,0.0828100600012073,1
621,895,55,0.0935082827879254,1
621,896,55,0.105136370696798,1
622,879,55,0.152864031384478,1
622,880,55,0.144876714217673,1
622,881,55,0.133220119858051,1
622,882,55,0.129414437152482,1
622,883,55,0.129717838342678,1
622,884,55,0.106144452842338,1
622,885,55,0.080269720362629,1
622,892,55,0.0757363736479257,1
622,893,55,0.0818721523652369,1
622,894,55,0.0861537926556569,1
622,895,55,0.0945435776155582,1
623,880,55,0.184300233698534,1
623,881,55,0.138143693323941,1
623,882,55,0.130957256276193,1
623,883,55,0.159303441433526,1
623,884,55,0.152599729375912,1
623,885,55,0.135553269910229,1
623,886,55,0.13325625829987,1
623,887,55,0.109212525692221,1
623,891,55,0.0756110522493427,1
623,892,55,0.0943108112180114,1
623,893,55,0.0882765871202488,1
623,894,55,0.0902671186198086,1
624,881,55,0.144452594459693,1
624,885,55,0.169326553342767,1
624,886,55,0.164655152804282,1
624,887,55,0.152167436483242,1
624,888,55,0.104659424125329,1
624,889,55,0.072934972642466,1
624,891,55,0.0728096761240495,1
624,892,55,0.0785255771517663,1
625,886,55,0.136112041129224,1
625,887,55,0.136842684538294,1
625,888,55,0.117382625002105,1
625,889,55,0.0890092085025547,1
626,887,55,0.149331184584579,1
626,888,55,0.136449515707421,1
607,889,56,0.0768723522892801,1
607,890,56,0.0853602335255886,1
607,891,56,0.0796941674713404,1
608,879,56,0.0869568373491975,1
608,880,56,0.0842642932921496,1
608,881,56,0.0804299859550396,1
608,887,56,0.0730943612090081,1
608,888,56,0.10063531221815,1
608,889,56,0.130395325276054,1
608,890,56,0.115428238164406,1
608,891,56,0.0771000120326559,1
609,880,56,0.111983504474112,1
609,882,56,0.0999630874399855,1
609,888,56,0.0968239443945388,1
609,889,56,0.121229820265454,1
609,890,56,0.0901660491635065,1
609,903,56,0.0791323670920763,1
610,882,56,0.131726849585895,1
610,883,56,0.0795271469137293,1
610,889,56,0.0860394745107017,1
610,902,56,0.0837475633344723,1
611,883,56,0.0820462762103794,1
611,902,56,0.0981220857409983,1
611,903,56,0.122816702164009,1
612,883,56,0.0849375008368902,1
612,902,56,0.109314509494642,1
612,903,56,0.139841117802187,1
613,882,56,0.144167492631946,1
613,883,56,0.0962381533147419,1
613,901,56,0.078957254260316,1
613,902,56,0.13394780252731,1
614,882,56,0.156139691903426,1
614,883,56,0.110481252461855,1
614,884,56,0.0764223509381146,1
614,901,56,0.0876079264259333,1
614,902,56,0.139973020004805,1
615,880,56,0.177692807885216,1
615,883,56,0.116721322617028,1
615,884,56,0.0772605015465649,1
615,901,56,0.0785076945321055,1
616,879,56,0.182145412239635,1
616,880,56,0.144108451996878,1
616,881,56,0.159486024535273,1
616,882,56,0.162256431073335,1
616,883,56,0.118845939553814,1
616,884,56,0.0741155614223273,1
617,879,56,0.132757286561021,1
617,880,56,0.109413731598583,1
617,881,56,0.133076909619766,1
617,882,56,0.139105075396989,1
617,883,56,0.104242650236504,1
617,892,56,0.0731500741218087,1
617,896,56,0.0971093261241589,1
617,897,56,0.12850184508591,1
617,898,56,0.121463892871741,1
617,899,56,0.0941630790094674,1
617,900,56,0.0864209621034103,1
618,878,56,0.126286166739789,1
618,879,56,0.101245523181352,1
618,880,56,0.0820865820800845,1
618,881,56,0.0886117602830463,1
618,882,56,0.0873599022662898,1
618,891,56,0.0721311815439309,1
618,892,56,0.0836537837669502,1
618,893,56,0.0804683076314675,1
618,894,56,0.08264067582778,1
618,895,56,0.105790159271597,1
618,896,56,0.135658351293377,1
618,897,56,0.175848490904044,1
618,898,56,0.166277128177664,1
618,899,56,0.119300064792575,1
619,877,56,0.144677747526296,1
619,878,56,0.147774208646138,1
619,879,56,0.100862729379903,1
619,880,56,0.0757755474700557,1
619,881,56,0.0720382105818195,1
619,894,56,0.0883047017083765,1
619,895,56,0.115247098112315,1
619,896,56,0.125971731195756,1
619,897,56,0.147885012467578,1
619,898,56,0.14933372236156,1
620,878,56,0.189745146172942,1
620,879,56,0.11616791307391,1
620,880,56,0.0885594808332205,1
620,881,56,0.0919908974144035,1
620,882,56,0.0780707428282612,1
620,894,56,0.0758920364095367,1
620,895,56,0.0933806724140259,1
620,896,56,0.104571174174809,1
620,897,56,0.122292427295846,1
621,879,56,0.12181265060544,1
621,880,56,0.119127533278087,1
621,881,56,0.129782215773457,1
621,882,56,0.110086130537912,1
621,883,56,0.0914740119556857,1
621,884,56,0.0718723842721996,1
621,895,56,0.0852846973401413,1
621,896,56,0.110664669049179,1
622,880,56,0.158699512712362,1
622,881,56,0.14572455565097,1
622,882,56,0.119023447101599,1
622,883,56,0.115975788428316,1
622,884,56,0.107115127657569,1
622,885,56,0.0876237439917759,1
622,886,56,0.074012657053747,1
622,895,56,0.0899088131222221,1
623,881,56,0.13267225859206,1
623,882,56,0.114801146008245,1
623,884,56,0.137899183487813,1
623,885,56,0.128252122854903,1
623,886,56,0.125478270413784,1
623,887,56,0.104640981701923,1
623,892,56,0.0742819848559429,1
624,885,56,0.143218276960309,1
624,886,56,0.13693839853876,1
624,887,56,0.125165539161156,1
624,888,56,0.0890032248225152,1
625,886,56,0.110139324333856,1
625,887,56,0.109735792913643,1
625,888,56,0.09596097582002,1
607,889,57,0.0902723932151033,1
607,890,57,0.084256126377501,1
608,879,57,0.0945134601740286,1
608,880,57,0.10602989211576,1
608,885,57,0.072349560985208,1
608,886,57,0.0792127922302378,1
608,887,57,0.100943708101768,1
608,888,57,0.119777788869246,1
608,889,57,0.115132101982823,1
608,890,57,0.0889062294934749,1
609,883,57,0.0754267150958582,1
609,887,57,0.0761880792904955,1
609,888,57,0.0901634865063586,1
609,889,57,0.0857357001180079,1
610,883,57,0.0870283616077991,1
610,902,57,0.0757004715676884,1
611,883,57,0.0967349418189817,1
611,902,57,0.0808916561042864,1
611,903,57,0.089317473765299,1
612,883,57,0.115220700255675,1
612,884,57,0.0760070636392367,1
612,902,57,0.0871963524919032,1
613,883,57,0.127085355007524,1
613,884,57,0.083215992357487,1
614,883,57,0.13864945734824,1
614,884,57,0.0842511441241625,1
614,901,57,0.0728483461228082,1
615,884,57,0.0851454679284935,1
616,878,57,0.215840945151909,1
616,880,57,0.148929369895852,1
616,883,57,0.149118011318139,1
616,884,57,0.0833784971648812,1
616,891,57,0.0736154514158618,1
617,878,57,0.172020839011469,1
617,879,57,0.134322249032903,1
617,880,57,0.110950890484418,1
617,881,57,0.14044342931253,1
617,882,57,0.148859916911111,1
617,883,57,0.109148894666437,1
617,890,57,0.0810458882563245,1
617,891,57,0.101690094436182,1
617,892,57,0.108447373492237,1
617,893,57,0.0950463684599625,1
617,894,57,0.0793457269597651,1
617,895,57,0.0888972726335405,1
617,896,57,0.100264591517488,1
617,897,57,0.103656784516208,1
617,898,57,0.0979690975972844,1
617,899,57,0.0922615314253399,1
618,877,57,0.136075131402244,1
618,878,57,0.151733513939667,1
618,879,57,0.111087656759584,1
618,880,57,0.0905760183267983,1
618,881,57,0.0947749009634489,1
618,882,57,0.087688183622971,1
618,891,57,0.0811018002104571,1
618,892,57,0.096306779033948,1
618,893,57,0.0935994996982996,1
618,894,57,0.0900843115965629,1
618,895,57,0.107627833248317,1
618,896,57,0.115622913027065,1
618,897,57,0.121651787889033,1
618,898,57,0.116128241648451,1
619,878,57,0.168768889291181,1
619,879,57,0.115393318850745,1
619,880,57,0.0885780352173764,1
619,881,57,0.0807109327949838,1
619,894,57,0.0806950903489748,1
619,895,57,0.102067028958424,1
619,896,57,0.103945842290426,1
619,897,57,0.109846534534666,1
620,879,57,0.121058669600207,1
620,880,57,0.099672934938442,1
620,881,57,0.0980146967224091,1
620,882,57,0.0814404503765208,1
620,895,57,0.0839803732723104,1
620,896,57,0.0977554889279308,1
621,880,57,0.12534619405,1
621,881,57,0.130819183792286,1
621,882,57,0.0986220962267979,1
621,883,57,0.0801679231614572,1
621,895,57,0.0873411239606356,1
622,881,57,0.138775438071235,1
622,882,57,0.0966733447468075,1
622,883,57,0.085731445609539,1
622,884,57,0.0853455044670297,1
622,885,57,0.0758140495276907,1
623,882,57,0.109339277700377,1
623,883,57,0.110628580367693,1
623,884,57,0.104171480520275,1
623,885,57,0.0963934988542302,1
623,886,57,0.093052154695763,1
623,887,57,0.079755727223265,1
624,884,57,0.144077948912768,1
624,885,57,0.104529443915572,1
624,886,57,0.100152357086476,1
624,887,57,0.0907080449302489,1
609,888,58,0.0811455706433451,1
611,884,58,0.0717949634141411,1
612,884,58,0.0932298986051291,1
613,884,58,0.096689672356063,1
613,885,58,0.0755295883642305,1
613,886,58,0.0741800072735641,1
614,884,58,0.092319060590294,1
614,886,58,0.0730229737913221,1
615,884,58,0.0952533279048231,1
616,878,58,0.213306278191289,1
616,884,58,0.0895983521847855,1
616,889,58,0.0730515113422799,1
616,890,58,0.0938463420500351,1
616,891,58,0.0960356847399317,1
616,892,58,0.0933954574529593,1
616,893,58,0.0779128657318331,1
616,899,58,0.0717719119398931,1
617,878,58,0.188992421616117,1
617,879,58,0.138547597946652,1
617,880,58,0.114356002509585,1
617,883,58,0.105477204097471,1
617,884,58,0.0715641003493304,1
617,890,58,0.0973052387751004,1
617,891,58,0.116308249652967,1
617,892,58,0.126606374482446,1
617,893,58,0.112027318447292,1
617,894,58,0.0928479071890492,1
617,895,58,0.0971032615835783,1
617,896,58,0.093629293697665,1
617,897,58,0.076214701068634,1
617,898,58,0.0744091784870538,1
618,878,58,0.172834109453435,1
618,879,58,0.128375976323664,1
618,880,58,0.105880611116852,1
618,881,58,0.0961219815973836,1
618,882,58,0.0836902705310999,1
618,891,58,0.0758326909924293,1
618,892,58,0.0912998010299605,1
618,893,58,0.0907455393411412,1
618,894,58,0.0866252344902906,1
618,895,58,0.0954092643482654,1
618,896,58,0.0895620769020509,1
618,897,58,0.0773198905039637,1
619,879,58,0.125900213157196,1
619,880,58,0.104586158255074,1
619,881,58,0.0868672314296032,1
619,882,58,0.0731372670561108,1
619,895,58,0.0813666869029355,1
619,896,58,0.0803958068263314,1
620,880,58,0.10902417039185,1
620,881,58,0.0984319122341895,1
620,882,58,0.0791761250848811,1
620,895,58,0.0742409512413681,1
621,881,58,0.113416813545041,1
621,882,58,0.0801005476706169,1
622,882,58,0.0757133283937193,1
623,883,58,0.086989517447875,1
611,884,59,0.088136486902774,1
612,885,59,0.0797922388675812,1
612,886,59,0.0728466356113624,1
613,885,59,0.0853355524004359,1
613,886,59,0.0939459062562649,1
613,887,59,0.0868831049758203,1
614,885,59,0.0742068467531594,1
614,886,59,0.0854174143682119,1
614,887,59,0.0851868374253157,1
615,878,59,0.173500263470977,1
615,889,59,0.0740826698422347,1
615,890,59,0.0822594059365282,1
616,879,59,0.159070513314897,1
616,884,59,0.0891073109990035,1
616,889,59,0.0910320904385861,1
616,890,59,0.114867725333757,1
616,891,59,0.110751898912874,1
616,892,59,0.105146708405972,1
616,893,59,0.0869703099593489,1
617,879,59,0.158311792637949,1
617,880,59,0.134403831098806,1
617,883,59,0.0942312755458018,1
617,889,59,0.0758682136501277,1
617,890,59,0.0985383558064523,1
617,891,59,0.109032953090619,1
617,892,59,0.117690989785516,1
617,893,59,0.105473422312165,1
617,894,59,0.0894170815118202,1
617,895,59,0.0909529030887072,1
617,896,59,0.0835953153757113,1
618,880,59,0.128306759700504,1
618,881,59,0.100387250738257,1
618,882,59,0.0812829651427148,1
618,892,59,0.0723189832605984,1
618,893,59,0.0720061338271793,1
618,895,59,0.0769260125883458,1
618,896,59,0.0734535437324632,1
619,880,59,0.113593823489496,1
619,881,59,0.0895623816840903,1
619,882,59,0.0745726971612323,1
620,881,59,0.0898321511092414,1
617,883,60,0.0817854325449548,1
618,881,60,0.101983935422407,1
618,882,60,0.0767240416168654,1
