x,y,z,signal,mito.p
496,740,6,0.0717406997710382,1
497,740,6,0.0728243492022338,1
498,740,6,0.073259316712801,1
498,741,6,0.0733729133329282,1
499,740,6,0.0739064249628993,1
499,741,6,0.0731573329103806,1
500,740,6,0.0746092647859231,1
501,740,6,0.0720214600097338,1
509,740,6,0.14950315629532,1
509,741,6,0.151986458152233,1
510,740,6,0.165441428265612,1
510,741,6,0.162687666558929,1
510,742,6,0.123544173351853,1
511,742,6,0.109320468294515,1
511,743,6,0.103837538925718,1
511,744,6,0.0928558128619497,1
512,743,6,0.096364507240234,1
512,744,6,0.0865662125153475,1
495,740,7,0.0736861981692608,1
495,741,7,0.0715388283202237,1
496,739,7,0.0735619528378782,1
496,740,7,0.076900479317491,1
496,741,7,0.0742045950980925,1
497,739,7,0.0735571509657467,1
497,740,7,0.0763838986408126,1
497,741,7,0.0747488300798185,1
498,739,7,0.0720368421726629,1
498,740,7,0.0758770025689384,1
498,741,7,0.0761331812031472,1
498,742,7,0.072283591223774,1
499,740,7,0.0763266929180229,1
499,741,7,0.076590335602177,1
500,739,7,0.0744210152262589,1
500,740,7,0.0785330287616285,1
500,741,7,0.0758469100075752,1
501,739,7,0.0750258458534582,1
501,740,7,0.0771701554420177,1
501,741,7,0.0734229162475206,1
502,739,7,0.0736222188211456,1
502,740,7,0.0762397927165337,1
502,741,7,0.0728755836850672,1
503,740,7,0.075034746733018,1
503,741,7,0.075144175925259,1
507,740,7,0.0722503637614338,1
507,741,7,0.0716843150937424,1
508,740,7,0.114479930618845,1
508,741,7,0.112837118106033,1
508,742,7,0.092286666613531,1
508,743,7,0.0738536603498271,1
509,739,7,0.136271299074892,1
509,740,7,0.18447348673785,1
509,741,7,0.180590215233098,1
509,742,7,0.132514568096881,1
509,743,7,0.0983754155961446,1
509,744,7,0.0805123206459788,1
510,739,7,0.144007500721367,1
510,740,7,0.189042405870584,1
510,741,7,0.184538212490959,1
510,742,7,0.14080048458175,1
510,743,7,0.11582260124327,1
510,744,7,0.097764613728989,1
510,745,7,0.0781383049203501,1
511,740,7,0.130212244570977,1
511,741,7,0.131237593552058,1
511,742,7,0.119619862012485,1
511,743,7,0.121334627966771,1
511,744,7,0.1091971746295,1
511,745,7,0.0835563405949132,1
512,742,7,0.097714685454896,1
512,743,7,0.107133041377438,1
512,744,7,0.0999916996314428,1
512,745,7,0.0803639913134392,1
513,743,7,0.0939951130055298,1
513,744,7,0.0891647157631252,1
486,767,8,0.071997960692489,1
494,737,8,0.0718990558106711,1
494,738,8,0.0715068946265407,1
495,737,8,0.0736162102609395,1
495,738,8,0.0749046607825533,1
495,739,8,0.0750668732479913,1
495,740,8,0.0752338502653112,1
496,737,8,0.0715599080412777,1
496,738,8,0.0754729611053115,1
496,739,8,0.0770761954932885,1
496,740,8,0.0774874211049878,1
496,741,8,0.0730142035326363,1
497,738,8,0.0721416809741874,1
497,739,8,0.0751696594357809,1
497,740,8,0.0766924624655548,1
497,741,8,0.0731839111482278,1
498,739,8,0.0760822639424364,1
498,740,8,0.0783473045388625,1
498,741,8,0.0756235545330012,1
498,742,8,0.0717528723924908,1
499,739,8,0.0774734384514235,1
499,740,8,0.0799825161608139,1
499,741,8,0.077526806408533,1
499,742,8,0.07135460934753,1
500,739,8,0.0777477111867082,1
500,740,8,0.0809827112935785,1
500,741,8,0.0793812122972138,1
500,742,8,0.0733896141446809,1
501,739,8,0.0752928349200045,1
501,740,8,0.079749849283933,1
501,741,8,0.0807532974984655,1
501,742,8,0.0765103085466793,1
502,739,8,0.0728693201031547,1
502,740,8,0.0787375375100904,1
502,741,8,0.0809144090165366,1
502,742,8,0.076134792193927,1
503,740,8,0.0758051921884222,1
503,741,8,0.0794920783190692,1
503,742,8,0.073480308571559,1
507,739,8,0.0752094739221979,1
507,740,8,0.0787323251152118,1
507,741,8,0.0798554780307434,1
507,742,8,0.0720182504682573,1
508,739,8,0.103284440384682,1
508,740,8,0.129545742231104,1
508,741,8,0.127421461176565,1
508,742,8,0.106325568014263,1
508,743,8,0.0837029531959654,1
508,744,8,0.073031414387802,1
509,738,8,0.111965192671579,1
509,739,8,0.145786507265516,1
509,740,8,0.206510223395767,1
509,741,8,0.198878953851441,1
509,742,8,0.15476337085383,1
509,743,8,0.117731755938301,1
509,744,8,0.0932867995458794,1
509,745,8,0.0792309174315218,1
510,739,8,0.147517208966436,1
510,740,8,0.199802406110684,1
510,741,8,0.19823816516363,1
510,742,8,0.165476447099939,1
510,743,8,0.139930325639118,1
510,744,8,0.112869648923711,1
510,745,8,0.0881743607362052,1
510,746,8,0.0774779790818069,1
510,747,8,0.0742747633876207,1
511,740,8,0.133910619118499,1
511,741,8,0.139907796648366,1
511,742,8,0.135466363488698,1
511,743,8,0.137957440397637,1
511,744,8,0.122543779177756,1
511,745,8,0.0950681075054284,1
511,746,8,0.0795246153567895,1
511,747,8,0.0752312191877054,1
512,742,8,0.105829246013145,1
512,743,8,0.118268421129374,1
512,744,8,0.113314705341788,1
512,745,8,0.0944057912535664,1
512,746,8,0.0802896058356918,1
512,747,8,0.073829427067671,1
513,742,8,0.0899397391691624,1
513,743,8,0.102075276733613,1
513,744,8,0.100490938832081,1
513,745,8,0.0900806853122978,1
514,743,8,0.0846410101129347,1
514,744,8,0.0848697521435526,1
494,737,9,0.0715249887276166,1
494,738,9,0.072055508517568,1
494,739,9,0.0716945159620011,1
495,737,9,0.0748830772381279,1
495,738,9,0.0767027379743129,1
495,739,9,0.0766716688664152,1
495,740,9,0.0763239125594182,1
496,737,9,0.0713986037019164,1
496,738,9,0.0757379348783726,1
496,739,9,0.0774424128838172,1
496,740,9,0.0769786776807521,1
497,738,9,0.0721221189432889,1
497,739,9,0.0756163703849288,1
497,740,9,0.0765164352876761,1
498,738,9,0.0725617950253633,1
498,739,9,0.0789898472784108,1
498,740,9,0.0802461339648016,1
498,741,9,0.0758013544227419,1
499,738,9,0.0733767697587333,1
499,739,9,0.081472937653908,1
499,740,9,0.0822698307262853,1
499,741,9,0.0794308482293506,1
499,742,9,0.0739954275384564,1
500,739,9,0.0802866761960882,1
500,740,9,0.0841488741998275,1
500,741,9,0.0845192030378677,1
500,742,9,0.0795924075904184,1
501,739,9,0.0746163556333712,1
501,740,9,0.082935468480373,1
501,741,9,0.0892930663219777,1
501,742,9,0.0866387693008582,1
502,739,9,0.0714848570190769,1
502,740,9,0.0811448366784338,1
502,741,9,0.0888616069148848,1
502,742,9,0.0853726051883731,1
503,740,9,0.0755725377516245,1
503,741,9,0.0829154337263112,1
503,742,9,0.0778615255082921,1
507,737,9,0.0855626896603155,1
507,738,9,0.0803432661347575,1
507,739,9,0.0757399688319828,1
507,740,9,0.0841164366827731,1
507,741,9,0.0883433281668438,1
507,742,9,0.0791630629974767,1
508,738,9,0.0948791302008946,1
508,739,9,0.101481132137919,1
508,740,9,0.128875669587341,1
508,741,9,0.131637156585718,1
508,742,9,0.116601176293073,1
508,743,9,0.0982369263694496,1
508,744,9,0.087770505873827,1
508,745,9,0.0797843953950969,1
509,739,9,0.134515580366572,1
509,740,9,0.187901177514102,1
509,741,9,0.18794644697702,1
509,742,9,0.166889603236016,1
509,743,9,0.142139846144033,1
509,744,9,0.114206236347431,1
509,745,9,0.092224571938027,1
509,746,9,0.0785831933973031,1
509,747,9,0.0759856418158934,1
510,739,9,0.139682083778017,1
510,740,9,0.183588748017657,1
510,741,9,0.191483349244056,1
510,742,9,0.184337603708594,1
510,743,9,0.16683843717364,1
510,744,9,0.129873762346037,1
510,745,9,0.0979696511809887,1
510,746,9,0.0856589012641115,1
510,747,9,0.0842298093814019,1
510,748,9,0.0763476606783278,1
511,740,9,0.132544523817328,1
511,741,9,0.142564264464011,1
511,742,9,0.148173224316135,1
511,743,9,0.150211146312807,1
511,744,9,0.129054906306696,1
511,745,9,0.102664171614179,1
511,746,9,0.0894704059286383,1
511,747,9,0.085203973639982,1
511,748,9,0.0754063506795906,1
512,742,9,0.113434291861996,1
512,743,9,0.124409692143436,1
512,744,9,0.11961508502052,1
512,745,9,0.104259270187716,1
512,746,9,0.0920957673161362,1
512,747,9,0.0850102255635247,1
512,748,9,0.0745912639854715,1
513,742,9,0.0934857848973817,1
513,743,9,0.105192948195384,1
513,744,9,0.106965212214416,1
513,745,9,0.101941085555679,1
513,746,9,0.0938173877562886,1
513,747,9,0.0838109517786335,1
514,743,9,0.0860085422437198,1
514,744,9,0.0883800326324502,1
514,745,9,0.0895282336555902,1
483,737,10,0.0721100645026271,1
483,738,10,0.074385927971474,1
499,739,10,0.0721337317609956,1
499,740,10,0.0737525100329839,1
500,740,10,0.0785815388662319,1
500,741,10,0.0804021699289098,1
500,742,10,0.0753473846850221,1
501,740,10,0.0780744188728593,1
501,741,10,0.0901395144659506,1
501,742,10,0.0886399930519647,1
502,740,10,0.076060779918677,1
502,741,10,0.0892864730778592,1
502,742,10,0.0871006509315202,1
503,741,10,0.0783018484746951,1
503,742,10,0.0746918980388601,1
507,736,10,0.0715987024408689,1
507,737,10,0.0723441122287478,1
507,740,10,0.0768785225705683,1
507,741,10,0.07828045775156,1
508,737,10,0.0868959307016432,1
508,738,10,0.0779159881927269,1
508,739,10,0.0827342501339287,1
508,740,10,0.100102515892965,1
508,741,10,0.103400338420209,1
508,742,10,0.0986887377527269,1
508,743,10,0.0946840634756136,1
508,744,10,0.0896701936655098,1
508,745,10,0.0786576783957164,1
509,738,10,0.0902233855071703,1
509,739,10,0.100221293807763,1
509,740,10,0.130641837965584,1
509,741,10,0.13619869874909,1
509,742,10,0.139537181688411,1
509,743,10,0.134679055500459,1
509,744,10,0.113104766496991,1
509,745,10,0.0906788978152121,1
509,746,10,0.0795938568601161,1
509,747,10,0.0836321877824415,1
509,748,10,0.0802922244732143,1
510,739,10,0.10977994276907,1
510,740,10,0.136143614060493,1
510,741,10,0.148836641515364,1
510,742,10,0.162984039102094,1
510,743,10,0.155679558104459,1
510,744,10,0.121069094389964,1
510,745,10,0.094747594980732,1
510,746,10,0.0874650334097705,1
510,747,10,0.0891562440664372,1
510,748,10,0.0816737392575637,1
511,740,10,0.110379156698685,1
511,741,10,0.120999753365971,1
511,742,10,0.134458791386571,1
511,743,10,0.134485898327956,1
511,744,10,0.115471989937169,1
511,745,10,0.0997638284066519,1
511,746,10,0.0932374870559069,1
511,747,10,0.0875142774792852,1
511,748,10,0.0750683473978555,1
512,742,10,0.106033238498152,1
512,743,10,0.111373044709246,1
512,744,10,0.109038140605331,1
512,745,10,0.10371791508526,1
512,746,10,0.0973607277664027,1
512,747,10,0.0873726346914883,1
512,748,10,0.073515968070173,1
513,743,10,0.0933003467965303,1
513,744,10,0.0977682151330876,1
513,745,10,0.099687004672589,1
513,746,10,0.0958537049822216,1
513,747,10,0.0843202674466983,1
514,744,10,0.0831324571985149,1
514,745,10,0.0862894268832478,1
514,746,10,0.0858465723599049,1
514,747,10,0.0764543530522554,1
479,738,11,0.0752808115795509,1
479,739,11,0.0749127530567024,1
480,737,11,0.0809271165615686,1
480,738,11,0.088000591433435,1
480,739,11,0.0766355179845131,1
481,736,11,0.0754507617767656,1
481,737,11,0.0864577225493913,1
481,738,11,0.0890925819404447,1
481,739,11,0.0743297050152604,1
482,735,11,0.0770720156253191,1
482,736,11,0.081998406770063,1
482,737,11,0.0894759790859309,1
482,738,11,0.0902268811705613,1
482,739,11,0.0752376631508249,1
483,736,11,0.0770979531988793,1
483,737,11,0.0874612080841735,1
483,738,11,0.0908691004679454,1
483,739,11,0.0757149207243744,1
484,737,11,0.0744334179892515,1
484,738,11,0.0767776459355564,1
488,775,11,0.0729186450332105,1
501,741,11,0.076085094061374,1
501,742,11,0.0741825015102542,1
502,741,11,0.0747831336093592,1
502,742,11,0.0724840071848492,1
507,740,11,0.0721626673946172,1
508,736,11,0.0837343581861106,1
508,737,11,0.0739938041075933,1
508,739,11,0.0725227767042738,1
508,740,11,0.0811020179119138,1
508,741,11,0.0814075961166778,1
508,742,11,0.0842607789686336,1
508,743,11,0.0928273997118243,1
508,744,11,0.0885415173530186,1
508,745,11,0.0736593089293325,1
509,737,11,0.0965907799143283,1
509,738,11,0.0804328471741853,1
509,739,11,0.0813612754667251,1
509,740,11,0.0924051895066221,1
509,741,11,0.100188122325797,1
509,742,11,0.118119413812297,1
509,743,11,0.128850055455945,1
509,744,11,0.110645399360237,1
509,745,11,0.0870416600567852,1
509,746,11,0.0752848857068127,1
509,747,11,0.0805401677723167,1
509,748,11,0.0783574805269547,1
510,738,11,0.0989039574128604,1
510,739,11,0.0917402048569046,1
510,740,11,0.104733243579289,1
510,741,11,0.121122238425575,1
510,742,11,0.146904883189083,1
510,743,11,0.146456194266699,1
510,744,11,0.115128245557018,1
510,745,11,0.0933819599626414,1
510,746,11,0.0858594727262272,1
510,747,11,0.0866385889196512,1
510,748,11,0.0791861144717247,1
511,739,11,0.0879108859931748,1
511,740,11,0.0967909221935721,1
511,741,11,0.112766222071635,1
511,742,11,0.133588644884021,1
511,743,11,0.129417783534874,1
511,744,11,0.108602016167022,1
511,745,11,0.0983879178798031,1
511,746,11,0.0925114215974697,1
511,747,11,0.0845239551496662,1
511,748,11,0.0713630126237601,1
512,740,11,0.0827196454762022,1
512,741,11,0.0947939964912258,1
512,742,11,0.107301069581791,1
512,743,11,0.105282479474479,1
512,744,11,0.10076925459442,1
512,745,11,0.100819916833424,1
512,746,11,0.0966039042021489,1
512,747,11,0.0849994089111455,1
513,742,11,0.0854973667832102,1
513,743,11,0.0868474392571646,1
513,744,11,0.0902580933394163,1
513,745,11,0.0959381980276034,1
513,746,11,0.094648298236292,1
513,747,11,0.0832977734647219,1
514,744,11,0.0795045370624364,1
514,745,11,0.0832477332298797,1
514,746,11,0.0842814046266494,1
514,747,11,0.0765712711746082,1
472,742,12,0.0723530815287655,1
473,742,12,0.0718243842110092,1
477,739,12,0.0752077945109601,1
477,740,12,0.0777745382262202,1
477,741,12,0.0720097849916109,1
478,738,12,0.0762760866593932,1
478,739,12,0.0814084669225048,1
478,740,12,0.0795339267590963,1
479,737,12,0.0789747263572298,1
479,738,12,0.0858605363533444,1
479,739,12,0.0826151612170501,1
479,740,12,0.0731037099315646,1
480,735,12,0.0765465713893306,1
480,736,12,0.0769607266406335,1
480,737,12,0.0899835220421337,1
480,738,12,0.0957848491214755,1
480,739,12,0.0825231916816397,1
481,734,12,0.0783326003604701,1
481,735,12,0.0951646736515968,1
481,736,12,0.0903923404977256,1
481,737,12,0.0974727071757083,1
481,738,12,0.102123258134679,1
481,739,12,0.0862248877313867,1
482,734,12,0.0768935937314164,1
482,735,12,0.0946850773423978,1
482,736,12,0.0946683267703121,1
482,737,12,0.098213327531539,1
482,738,12,0.0997353095158189,1
482,739,12,0.0860507016858279,1
483,735,12,0.07407329001947,1
483,736,12,0.0773435515422906,1
483,737,12,0.0819273116943332,1
483,738,12,0.0828816029199338,1
483,739,12,0.0746177489226943,1
484,773,12,0.0744510331471226,1
484,774,12,0.0780180217554803,1
484,775,12,0.0863691864769558,1
485,774,12,0.0839201321692096,1
485,775,12,0.084902911185435,1
485,776,12,0.0766774037447899,1
486,775,12,0.080777555660788,1
488,776,12,0.0746741273799485,1
494,776,12,0.0742564142648383,1
495,776,12,0.0748042693107879,1
496,776,12,0.0755199348596345,1
508,736,12,0.08514775690381,1
508,737,12,0.071555404731144,1
508,743,12,0.0800087709564967,1
508,744,12,0.0751679053840437,1
509,737,12,0.0954422119087327,1
509,738,12,0.0798463843298933,1
509,739,12,0.077844862016789,1
509,740,12,0.075695290273018,1
509,741,12,0.0774532481963212,1
509,742,12,0.0945428436506469,1
509,743,12,0.106372355167337,1
509,744,12,0.0932299794656702,1
509,745,12,0.0742957062677592,1
510,738,12,0.0913878705992744,1
510,739,12,0.0822565384973409,1
510,740,12,0.0865559183464645,1
510,741,12,0.100340643966389,1
510,742,12,0.123107949392878,1
510,743,12,0.119863177600621,1
510,744,12,0.0984662717441048,1
510,745,12,0.0860829090613423,1
510,746,12,0.0780079141878459,1
510,747,12,0.0719659088180153,1
511,739,12,0.0777868103683388,1
511,740,12,0.0854645187434089,1
511,741,12,0.104444005423864,1
511,742,12,0.125707292346275,1
511,743,12,0.115327610331059,1
511,744,12,0.0977853202475458,1
511,745,12,0.0955870206977147,1
511,746,12,0.0910152652260009,1
511,747,12,0.0772874903071591,1
512,740,12,0.0778060116368233,1
512,741,12,0.0916647308718735,1
512,742,12,0.106754066681544,1
512,743,12,0.100065736786859,1
512,744,12,0.0929179572977867,1
512,745,12,0.0973303864033747,1
512,746,12,0.0962236108574316,1
512,747,12,0.0812271402691649,1
513,742,12,0.0870387926175978,1
513,743,12,0.0856558658838004,1
513,744,12,0.0841346116443902,1
513,745,12,0.0885010622023146,1
513,746,12,0.0888719446240591,1
513,747,12,0.0770183428861702,1
514,744,12,0.0791097759009083,1
514,745,12,0.077525394459085,1
514,746,12,0.0771695458779388,1
473,741,13,0.0761791162105194,1
473,742,13,0.0745103910043132,1
474,741,13,0.0747680437883863,1
474,742,13,0.0715926316802466,1
474,743,13,0.074421867371961,1
474,744,13,0.0800837037979068,1
474,745,13,0.0753698079350663,1
475,739,13,0.0727863198677621,1
475,740,13,0.0775239016490959,1
475,741,13,0.0769867761749428,1
475,742,13,0.0731294609038762,1
475,743,13,0.0800496366299477,1
475,744,13,0.0874208462340939,1
475,745,13,0.0797374651810653,1
475,756,13,0.0727349423239714,1
475,757,13,0.0713892611994014,1
476,738,13,0.0766985892065516,1
476,739,13,0.082303984974827,1
476,740,13,0.0858112611836217,1
476,741,13,0.079328572084974,1
476,743,13,0.0714371555198843,1
476,744,13,0.0755725377516245,1
476,745,13,0.071864397738758,1
476,755,13,0.0721997015224295,1
476,756,13,0.0731976947604603,1
476,757,13,0.0722107420963071,1
477,737,13,0.0740627035086308,1
477,738,13,0.0847649568823194,1
477,739,13,0.0920432204045207,1
477,740,13,0.0932061691463444,1
477,741,13,0.0803113946414907,1
478,737,13,0.0801360267880239,1
478,738,13,0.0901664907864616,1
478,739,13,0.093807858652525,1
478,740,13,0.0891709917851209,1
478,741,13,0.0734192028826728,1
479,737,13,0.0880933135938816,1
479,738,13,0.0945728304713025,1
479,739,13,0.0904156843139298,1
479,740,13,0.0781484498082342,1
480,734,13,0.0774851818900042,1
480,735,13,0.0896762022257158,1
480,736,13,0.081137018086116,1
480,737,13,0.09365935515882,1
480,738,13,0.104385145170003,1
480,739,13,0.0952759315360744,1
480,740,13,0.0723806425331889,1
481,734,13,0.0898544126382035,1
481,735,13,0.106150349441795,1
481,736,13,0.0919860706621055,1
481,737,13,0.0991987811656615,1
481,738,13,0.116811028057288,1
481,739,13,0.110660800183291,1
481,740,13,0.0776792907288755,1
482,734,13,0.0853374432930887,1
482,735,13,0.103341316445266,1
482,736,13,0.1001467714891,1
482,737,13,0.10049365699027,1
482,738,13,0.109661799298517,1
482,739,13,0.107699761809624,1
482,740,13,0.0809635411253021,1
483,734,13,0.0720207136047392,1
483,735,13,0.0819577961183185,1
483,736,13,0.086058352337022,1
483,737,13,0.0834514084927643,1
483,738,13,0.0811882463489079,1
483,739,13,0.0829621835591358,1
483,740,13,0.0724946683361878,1
483,774,13,0.0749504216287601,1
484,774,13,0.0906519712550342,1
484,775,13,0.098456039775638,1
485,775,13,0.0940491402870512,1
490,730,13,0.0738468929445432,1
490,731,13,0.0732913374870667,1
491,729,13,0.0731208585863142,1
491,730,13,0.0763022730346182,1
491,731,13,0.0740373443989413,1
494,776,13,0.0800465079490123,1
495,776,13,0.0852124826569197,1
507,735,13,0.0722207190430674,1
508,735,13,0.0904664336335168,1
508,736,13,0.0854706143841976,1
509,736,13,0.120578382866388,1
509,737,13,0.0921325277621172,1
509,738,13,0.0797741945268382,1
509,739,13,0.077345908938065,1
509,742,13,0.0783629541635813,1
509,743,13,0.086491155273105,1
509,744,13,0.0765954733565561,1
510,737,13,0.105934961840538,1
510,738,13,0.0860481639088465,1
510,739,13,0.0778967558240343,1
510,740,13,0.0739691292024821,1
510,741,13,0.0851946995579249,1
510,742,13,0.102327337700269,1
510,743,13,0.0961177208688731,1
510,744,13,0.0822000853995873,1
510,745,13,0.0788858046422138,1
511,738,13,0.0800050140513576,1
511,739,13,0.0730357435367703,1
511,740,13,0.0753802576049899,1
511,741,13,0.0920844966007187,1
511,742,13,0.108858916326059,1
511,743,13,0.0960997884888793,1
511,744,13,0.0818308886091221,1
511,745,13,0.0858176616064498,1
511,746,13,0.0823472391442605,1
512,740,13,0.0725108902047358,1
512,741,13,0.0820888834954843,1
512,742,13,0.0944976674883525,1
512,743,13,0.0874830279901805,1
512,744,13,0.0791568118556474,1
512,745,13,0.0864040249300759,1
512,746,13,0.0870373682280666,1
512,747,13,0.0744346060172011,1
513,742,13,0.0819623180885771,1
513,743,13,0.0807041778297833,1
513,744,13,0.0766539293077117,1
513,745,13,0.080573525855531,1
513,746,13,0.0811400037060942,1
513,747,13,0.0713593552392869,1
514,745,13,0.0745162254033539,1
514,746,13,0.0718171503026038,1
474,740,14,0.0722030479048217,1
474,741,14,0.0752556950514846,1
474,743,14,0.076550390494886,1
474,744,14,0.0902641703200801,1
474,745,14,0.0800912984687262,1
475,738,14,0.0735084107196033,1
475,739,14,0.0821154119729985,1
475,740,14,0.090197416833402,1
475,741,14,0.0859667995444002,1
475,742,14,0.0746596098028047,1
475,743,14,0.084382760204866,1
475,744,14,0.103453563316361,1
475,745,14,0.0901871848649351,1
476,737,14,0.0715082692557389,1
476,738,14,0.0812225436584069,1
476,739,14,0.0928657213882522,1
476,740,14,0.100945194691716,1
476,741,14,0.0887800559491898,1
476,744,14,0.0815311261432739,1
476,745,14,0.078649623441817,1
477,737,14,0.0771520489008585,1
477,738,14,0.0883951535536313,1
477,739,14,0.0983985541509753,1
477,740,14,0.101480118271135,1
477,741,14,0.0831994221666082,1
478,737,14,0.0793250764215829,1
478,738,14,0.0879921943772465,1
478,739,14,0.09052407475922,1
478,740,14,0.0856281804785446,1
479,737,14,0.0820666344066055,1
479,738,14,0.0883006649013643,1
479,739,14,0.0841167539048958,1
479,740,14,0.0724343899128373,1
480,734,14,0.0838784516703062,1
480,735,14,0.093548103494384,1
480,736,14,0.078330236744654,1
480,737,14,0.0848296888554708,1
480,738,14,0.0992380109681661,1
480,739,14,0.0972538052509351,1
480,740,14,0.0750062589423932,1
481,734,14,0.0896034215187067,1
481,735,14,0.100643709274339,1
481,736,14,0.0855744019986882,1
481,737,14,0.0890212131828835,1
481,738,14,0.113915424521476,1
481,739,14,0.120548626187272,1
481,740,14,0.0901644070725185,1
482,734,14,0.0804587163272877,1
482,735,14,0.0929054425740449,1
482,736,14,0.0935435690840422,1
482,737,14,0.0898845362997747,1
482,738,14,0.101576410735472,1
482,739,14,0.109352327347698,1
482,740,14,0.0900405473837165,1
483,735,14,0.074261377858052,1
483,736,14,0.0858476608671886,1
483,737,14,0.0821983811081831,1
483,738,14,0.0784716120706612,1
483,739,14,0.0820077306124531,1
483,740,14,0.0749189357780738,1
484,737,14,0.0760108578646256,1
484,738,14,0.0771134162223495,1
484,739,14,0.0774636543259534,1
487,730,14,0.0781986642042418,1
490,730,14,0.0734255659852512,1
490,731,14,0.0745294429917988,1
491,730,14,0.0718606408336189,1
501,773,14,0.072076227476208,1
507,734,14,0.0714750666735652,1
507,735,14,0.0786455741947216,1
508,734,14,0.0807285417328133,1
508,735,14,0.0908940863751375,1
508,736,14,0.080812182632493,1
508,738,14,0.0721135477259349,1
509,735,14,0.112045257047327,1
509,736,14,0.102594699969313,1
509,737,14,0.0831231644563329,1
509,738,14,0.0807224958523576,1
509,739,14,0.0766098976330756,1
510,737,14,0.087847721470512,1
510,738,14,0.0778384242737111,1
510,742,14,0.0772533858189503,1
511,738,14,0.0715194591106154,1
511,741,14,0.0733432561744785,1
511,742,14,0.083556919058784,1
511,743,14,0.0725373813620003,1
512,742,14,0.0768276239699824,1
513,742,14,0.0726284738715421,1
474,743,15,0.0738976484841719,1
474,744,15,0.0938301637217785,1
474,745,15,0.0805395768683627,1
475,738,15,0.074641528141812,1
475,739,15,0.0875885385562002,1
475,740,15,0.0941443940044375,1
475,741,15,0.0833600174212247,1
475,743,15,0.079324186955631,1
475,744,15,0.109457209689514,1
475,745,15,0.096051048242736,1
476,737,15,0.0719276555620452,1
476,738,15,0.0829352445588746,1
476,739,15,0.0975490519665663,1
476,740,15,0.103828096902537,1
476,741,15,0.0842562880985832,1
476,744,15,0.0809984790990881,1
476,745,15,0.0820276534057657,1
476,746,15,0.071982479008894,1
477,737,15,0.0767344104262478,1
477,738,15,0.0878988066723465,1
477,739,15,0.097017250848041,1
477,740,15,0.0980010623911755,1
477,741,15,0.0756003288975879,1
478,737,15,0.0742655390658966,1
478,738,15,0.0816709713390423,1
478,739,15,0.0832316357621641,1
478,740,15,0.0788750688503757,1
479,737,15,0.0739954586386645,1
479,738,15,0.0821692650933545,1
479,739,15,0.081851004223725,1
479,740,15,0.0737510732033694,1
480,734,15,0.0801533060636475,1
480,735,15,0.0874852796452474,1
480,736,15,0.0716112358247355,1
480,737,15,0.0754983326550842,1
480,738,15,0.0940190290655631,1
480,739,15,0.102204722019791,1
480,740,15,0.0854380275861444,1
481,734,15,0.0834733963398951,1
481,735,15,0.0884123333085889,1
481,736,15,0.0768741747614751,1
481,737,15,0.0788253085174065,1
481,738,15,0.104089898454372,1
481,739,15,0.122205533314398,1
481,740,15,0.103026153156364,1
482,734,15,0.0741386750969915,1
482,735,15,0.0797063649729595,1
482,736,15,0.0855130412880955,1
482,737,15,0.082154610675295,1
482,738,15,0.0905857837921435,1
482,739,15,0.10179740259423,1
482,740,15,0.0958703995739328,1
482,741,15,0.0760939078603512,1
483,736,15,0.0859999461461993,1
483,737,15,0.0856690461519956,1
483,738,15,0.0798449412802372,1
483,739,15,0.0802505812945607,1
483,740,15,0.0784084848682481,1
484,737,15,0.0797898503715987,1
484,738,15,0.0834834230469884,1
484,739,15,0.0816730052926524,1
487,730,15,0.0753078314403531,1
500,729,15,0.0870736559508844,1
500,730,15,0.0759407268953471,1
501,730,15,0.0935877500396773,1
501,731,15,0.0727329767908191,1
502,731,15,0.078331567833561,1
503,731,15,0.072035921606503,1
506,735,15,0.0767388826361734,1
506,771,15,0.0859024780939959,1
507,734,15,0.0783950122580967,1
507,735,15,0.0873637773522198,1
507,770,15,0.0782105818039879,1
508,734,15,0.0845425530741135,1
508,735,15,0.0916903263431446,1
508,736,15,0.074430438589315,1
508,738,15,0.0846019606916371,1
508,739,15,0.0746083939800961,1
509,735,15,0.0968201626092332,1
509,736,15,0.0824878307450234,1
509,737,15,0.0752444740964001,1
509,738,15,0.0838419338059484,1
509,739,15,0.0758260542080195,1
510,736,15,0.0840367703896894,1
510,737,15,0.075463512862089,1
510,738,15,0.074811080256363,1
511,737,15,0.0744321055604694,1
474,744,16,0.0826486996814713,1
474,745,16,0.0746460749922371,1
475,739,16,0.0821859037046911,1
475,740,16,0.0871066159514348,1
475,744,16,0.0961379733243916,1
475,745,16,0.0901020387151832,1
476,738,16,0.0765190290450321,1
476,739,16,0.0915419410302303,1
476,740,16,0.095999017594575,1
476,741,16,0.072096405291227,1
476,744,16,0.0724756847691601,1
476,745,16,0.0775952766266986,1
477,738,16,0.0783975251549117,1
477,739,16,0.0856522893598682,1
477,740,16,0.0846569271994432,1
478,739,16,0.0717671473880113,1
479,738,16,0.0720738700804336,1
479,739,16,0.0744844285505866,1
480,734,16,0.0723525714853526,1
480,735,16,0.0805451749058217,1
480,738,16,0.0813900182790564,1
480,739,16,0.0936042953503895,1
480,740,16,0.0825429154336204,1
481,734,16,0.0732715888549196,1
481,735,16,0.0768777264052408,1
481,738,16,0.0833416620784007,1
481,739,16,0.100729483648294,1
481,740,16,0.0932426123702027,1
482,736,16,0.0725738121457754,1
482,737,16,0.0715927436409958,1
482,738,16,0.0715074668703698,1
482,739,16,0.0789100254842866,1
482,740,16,0.0819046334225825,1
482,741,16,0.0761769080957439,1
483,736,16,0.0766435853784957,1
483,737,16,0.0792438240178857,1
499,729,16,0.0765934580630709,1
500,729,16,0.110415021458672,1
500,730,16,0.099487702098964,1
500,731,16,0.073473659347066,1
501,730,16,0.110058501113031,1
501,731,16,0.0807671122109061,1
502,731,16,0.0791393521988169,1
505,771,16,0.0745771693711579,1
506,735,16,0.0739701679494329,1
506,770,16,0.0731156088711859,1
506,771,16,0.0930306520118787,1
507,734,16,0.0772163765713045,1
507,735,16,0.0861688078361304,1
507,770,16,0.0800101580257783,1
508,734,16,0.084110086020278,1
508,735,16,0.0871569671883581,1
508,738,16,0.088130839104982,1
509,734,16,0.0910092193455451,1
509,735,16,0.0842656554812646,1
509,738,16,0.078953379174386,1
510,735,16,0.0835864207161931,1
475,739,17,0.0821143670060062,1
475,740,17,0.0806249780398211,1
475,744,17,0.0795207838111508,1
475,745,17,0.0804622182107204,1
476,738,17,0.0776477675579395,1
476,739,17,0.0878414143483081,1
476,740,17,0.086762386408037,1
476,745,17,0.0727172836258089,1
477,738,17,0.0766537551465463,1
477,739,17,0.0794507461424966,1
477,740,17,0.0749272457536797,1
479,739,17,0.075386838409025,1
480,735,17,0.0724345889541691,1
480,738,17,0.071918841763068,1
480,739,17,0.086070649359307,1
480,740,17,0.0810596780885986,1
481,739,17,0.0795578117189215,1
481,740,17,0.0781147869429805,1
499,728,17,0.089547758366239,1
499,729,17,0.0861249876429094,1
499,730,17,0.0753469679422334,1
500,730,17,0.114397054784285,1
500,731,17,0.0769260623486788,1
501,731,17,0.0796524683123122,1
502,731,17,0.0751076705009844,1
505,771,17,0.0801788331144607,1
506,770,17,0.0715022731356161,1
506,771,17,0.0935116975907754,1
507,734,17,0.07272419409205,1
507,735,17,0.0787023507346395,1
507,770,17,0.0772330587229324,1
508,733,17,0.073286193512646,1
508,734,17,0.0812937631349691,1
508,735,17,0.0791873460399657,1
508,738,17,0.0769387636736692,1
509,734,17,0.0864981217197207,1
509,735,17,0.0756573044788376,1
510,735,17,0.0758962411576726,1
511,736,17,0.0729053465842245,1
512,737,17,0.0816590599593378,1
513,739,17,0.0742272484896767,1
475,739,18,0.0724527203754948,1
476,739,18,0.0771754673575621,1
476,740,18,0.0738690176325897,1
477,739,18,0.0714157212564578,1
479,739,18,0.0715864613989584,1
480,739,18,0.0752896502586945,1
480,740,18,0.0731553300569786,1
499,730,18,0.0762395501349105,1
500,731,18,0.0718068125934294,1
505,730,18,0.0818386450010237,1
505,731,18,0.0719593653342298,1
505,771,18,0.0813471310920786,1
506,731,18,0.0770173725596773,1
506,771,18,0.0876525614446067,1
506,772,18,0.100457033385204,1
507,731,18,0.0900633065160083,1
507,732,18,0.0738833983688178,1
507,734,18,0.0717959088604675,1
507,770,18,0.0724441615982241,1
507,771,18,0.0902798634850903,1
508,732,18,0.0904847765362576,1
508,733,18,0.0832611996199895,1
508,734,18,0.080141985587897,1
508,735,18,0.0719173738332454,1
508,770,18,0.0731166973784696,1
509,733,18,0.0950110572836792,1
509,734,18,0.0849877338930226,1
509,735,18,0.0725315345228764,1
510,734,18,0.0884836771859835,1
510,735,18,0.075091554373144,1
511,735,18,0.0824744452154547,1
511,736,18,0.0744916500189087,1
512,736,18,0.091587589915688,1
512,737,18,0.0836066234113786,1
513,737,18,0.105729986588954,1
513,738,18,0.0863914106856682,1
513,739,18,0.072141457052689,1
514,739,18,0.11071785040504,1
514,740,18,0.104230956558256,1
514,741,18,0.0913570938333329,1
514,742,18,0.0765490718460623,1
486,771,19,0.0782899930753652,1
492,772,19,0.0741639471260983,1
493,772,19,0.0764378637219177,1
499,730,19,0.0763433564095259,1
503,731,19,0.0735860990394515,1
504,731,19,0.0769763389451026,1
505,731,19,0.0784475778298371,1
505,771,19,0.0837615770882448,1
506,771,19,0.0844331114417893,1
506,772,19,0.1037227480576,1
507,734,19,0.0769748088148638,1
507,770,19,0.0737354235786506,1
507,771,19,0.0852595061715757,1
508,734,19,0.0837682200926961,1
508,770,19,0.0864141946981265,1
509,733,19,0.10042137388659,1
509,734,19,0.0863566904133389,1
509,735,19,0.0737375819330931,1
510,733,19,0.104984850482907,1
510,734,19,0.0880640731782205,1
510,735,19,0.0775578070959728,1
511,734,19,0.0922593481907309,1
511,735,19,0.0832797788843119,1
511,736,19,0.078188071473361,1
512,735,19,0.101290263940733,1
512,736,19,0.0973502407762294,1
512,737,19,0.0873246408503395,1
513,736,19,0.130825403833907,1
513,737,19,0.107694474774246,1
513,738,19,0.0863629539952514,1
513,739,19,0.0724602093056067,1
514,737,19,0.121480425742371,1
514,738,19,0.112295862524243,1
514,739,19,0.109923240087938,1
514,740,19,0.100844448677578,1
514,741,19,0.0858939752970997,1
514,742,19,0.0715823375113636,1
515,740,19,0.150146246398531,1
515,741,19,0.125088273804138,1
515,744,19,0.083049345002373,1
486,771,20,0.074197510470686,1
487,771,20,0.0768037638903237,1
491,772,20,0.0769954158127546,1
492,772,20,0.0755689052473178,1
493,772,20,0.0806903631173427,1
496,772,20,0.0752819498471675,1
497,772,20,0.0715166787520107,1
498,726,20,0.0738966905977622,1
498,727,20,0.0763661155418177,1
498,728,20,0.0734110857283572,1
499,730,20,0.0721934939208916,1
503,731,20,0.0802522420456735,1
504,731,20,0.0872198331490231,1
504,732,20,0.0722118803639237,1
505,771,20,0.082679669268703,1
506,771,20,0.0816734842358572,1
507,770,20,0.0787719032400473,1
507,771,20,0.0872438425096807,1
508,770,20,0.100573963947641,1
509,734,20,0.0883373071665545,1
509,735,20,0.0747011472407508,1
510,733,20,0.107524816918988,1
510,734,20,0.0918744582352556,1
510,735,20,0.0806768656270248,1
510,736,20,0.0725500204865745,1
511,733,20,0.114687879050323,1
511,734,20,0.0968830783302311,1
511,735,20,0.0888490797510598,1
511,736,20,0.0831696530474094,1
511,737,20,0.0717265553963917,1
512,735,20,0.110235623018235,1
512,736,20,0.104018224914771,1
512,737,20,0.088453130561582,1
513,736,20,0.131524810193956,1
513,737,20,0.107288455337384,1
513,738,20,0.0892992055030577,1
513,739,20,0.075763343748395,1
514,737,20,0.118969656181659,1
514,738,20,0.11376860665905,1
514,739,20,0.106828047856586,1
514,740,20,0.0937094762542032,1
514,741,20,0.0790235972242472,1
515,738,20,0.138747646925272,1
515,739,20,0.140646239989629,1
515,740,20,0.129126598506421,1
515,741,20,0.113460080154558,1
515,743,20,0.0950635544349617,1
515,744,20,0.0808059688109134,1
487,771,21,0.0766839161283673,1
488,730,21,0.0721212356973787,1
488,731,21,0.0723964414389066,1
488,771,21,0.0799051077428386,1
489,730,21,0.073457667620058,1
489,771,21,0.0781924006223293,1
490,729,21,0.0713691455847986,1
490,730,21,0.0714465726628987,1
490,772,21,0.0830265112295818,1
491,772,21,0.0779376152774436,1
491,773,21,0.0908794817174111,1
492,772,21,0.0786630462916355,1
493,772,21,0.0839464553853503,1
495,728,21,0.0738435527821927,1
496,728,21,0.081873906416974,1
496,729,21,0.0739154129230419,1
496,772,21,0.0762130216573963,1
497,728,21,0.0773585729428056,1
497,729,21,0.0735152030050536,1
497,772,21,0.073515657068092,1
498,729,21,0.0736246508574195,1
499,772,21,0.0727651033057923,1
502,731,21,0.0727790735192734,1
503,731,21,0.0835369962654714,1
506,771,21,0.0820330959421842,1
507,770,21,0.0854613340820988,1
508,735,21,0.0719432678665143,1
509,734,21,0.0925651067767019,1
509,735,21,0.0779065026292546,1
510,734,21,0.0957279357406419,1
510,735,21,0.0847305413920296,1
510,736,21,0.076069071234158,1
511,735,21,0.0950002841715914,1
511,736,21,0.0885238213346064,1
511,737,21,0.0753696213338177,1
512,736,21,0.112669388463677,1
512,737,21,0.0950367149553665,1
512,738,21,0.0763783441436449,1
513,737,21,0.114450273460395,1
513,738,21,0.0990511671379083,1
513,739,21,0.0822539385199432,1
514,737,21,0.121118892043183,1
514,738,21,0.116719966647954,1
514,739,21,0.104074404330694,1
514,740,21,0.0859812424810445,1
514,741,21,0.074380871077636,1
515,738,21,0.121212553429914,1
515,739,21,0.116719867127288,1
515,740,21,0.10979452254663,1
515,741,21,0.103892094910778,1
515,742,21,0.0961989483924037,1
515,743,21,0.0914433844707432,1
515,744,21,0.0824489119445999,1
516,743,21,0.108945524185592,1
488,771,22,0.0752841019815685,1
488,772,22,0.0837310615640514,1
489,771,22,0.074453029780483,1
489,772,22,0.0820492431702327,1
490,729,22,0.071914425533517,1
490,772,22,0.0774835211388914,1
491,729,22,0.0716589497640114,1
491,772,22,0.0745876812414977,1
491,773,22,0.0838196598369031,1
492,772,22,0.077236989789237,1
492,773,22,0.0924339945193696,1
493,772,22,0.0821073134788078,1
495,728,22,0.0769566587334132,1
495,729,22,0.0731569286076752,1
496,728,22,0.0807305259260905,1
496,729,22,0.0731026898447388,1
496,772,22,0.0775179677293893,1
497,772,22,0.0785072964494418,1
498,772,22,0.0795254550624083,1
499,772,22,0.0824349106309107,1
502,731,22,0.0738714994291965,1
503,732,22,0.0716170826638594,1
504,733,22,0.0745690646569256,1
507,770,22,0.0874846887412934,1
508,735,22,0.0754646760098721,1
509,734,22,0.10143290815523,1
509,735,22,0.0844383611569175,1
510,736,22,0.083456782608725,1
511,736,22,0.0969154225466611,1
511,737,22,0.081428657177607,1
512,737,22,0.0964339477848925,1
512,738,22,0.0789896855573287,1
513,737,22,0.112751082490329,1
513,738,22,0.0999005076012351,1
513,739,22,0.0827371486733241,1
514,737,22,0.115569545069955,1
514,738,22,0.111331196269219,1
514,739,22,0.0989998269143673,1
514,740,22,0.083771703316004,1
514,741,22,0.07634690183325,1
515,739,22,0.107026939907464,1
515,740,22,0.103530094708468,1
515,741,22,0.100838085575,1
515,742,22,0.093240852098424,1
515,743,22,0.0861746173550045,1
515,744,22,0.0802644582074175,1
516,742,22,0.0920591499311125,1
516,743,22,0.0871741034030244,1
489,772,23,0.0750673895114459,1
490,772,23,0.0729820334773717,1
491,730,23,0.0720520252942601,1
491,772,23,0.0728851936493719,1
492,772,23,0.0765088717170648,1
492,773,23,0.0893258957016541,1
493,772,23,0.0806616949455108,1
494,729,23,0.077875794283771,1
494,772,23,0.0820153812636472,1
495,728,23,0.0778958352578743,1
495,729,23,0.0795001954733848,1
495,772,23,0.0798852720301088,1
496,729,23,0.0735938305511866,1
496,772,23,0.0807829484368735,1
497,772,23,0.0866655901203286,1
498,772,23,0.0912423154052978,1
499,772,23,0.0938065711039094,1
501,730,23,0.0874566798938733,1
502,730,23,0.0956885379970136,1
502,731,23,0.079079832620544,1
508,735,23,0.0804050746883469,1
509,736,23,0.075120483786724,1
510,737,23,0.0777211640490691,1
511,737,23,0.0888559342369263,1
511,738,23,0.0737451144034963,1
512,737,23,0.102230790214225,1
512,738,23,0.0854107216034275,1
513,737,23,0.115281967665643,1
513,738,23,0.100654961329631,1
513,739,23,0.0828498558274994,1
514,737,23,0.112322123539968,1
514,738,23,0.106058118664636,1
514,739,23,0.0961621257460065,1
514,740,23,0.0851766738773068,1
514,741,23,0.0812348220205671,1
514,742,23,0.0753217705536262,1
515,739,23,0.104373812254169,1
515,740,23,0.100133273998782,1
515,741,23,0.0954123681490344,1
515,742,23,0.0863527344668679,1
515,743,23,0.0763964009244711,1
515,744,23,0.0719657470969331,1
516,742,23,0.0759647673562128,1
491,730,24,0.0737603099651768,1
492,772,24,0.0746906975708272,1
493,729,24,0.072334290783028,1
493,772,24,0.0792724486494263,1
494,729,24,0.0809215371842344,1
494,772,24,0.08117382829243,1
495,728,24,0.0716219467364071,1
495,729,24,0.0772948610564802,1
495,772,24,0.0818382593584432,1
496,772,24,0.0861635021406275,1
497,771,24,0.074035478386455,1
497,772,24,0.095954326595527,1
498,771,24,0.0750135550512148,1
498,772,24,0.101789745722994,1
499,771,24,0.0716519957574789,1
500,730,24,0.0758517118797068,1
500,771,24,0.0721701874249372,1
501,729,24,0.0947172287375376,1
501,730,24,0.0864333275461532,1
502,729,24,0.102712016174329,1
503,728,24,0.105810909330445,1
508,735,24,0.0820210104013143,1
509,736,24,0.0789587843905548,1
510,737,24,0.0823393583515265,1
511,738,24,0.0798434733504146,1
512,738,24,0.0909433615448603,1
512,739,24,0.0715269667008521,1
513,737,24,0.1164267041256,1
513,738,24,0.0997810206016927,1
513,739,24,0.0814535622242581,1
514,738,24,0.10100924868033,1
514,739,24,0.0923078271951261,1
514,740,24,0.0852466182453366,1
514,741,24,0.0820657698208201,1
514,742,24,0.0745706818677471,1
515,739,24,0.099998000533605,1
515,740,24,0.0942554030872502,1
515,741,24,0.0866179943618436,1
515,742,24,0.0772774947002739,1
487,766,25,0.072167071184085,1
487,767,25,0.0808679266455017,1
491,730,25,0.071539462764469,1
492,771,25,0.0738973748023405,1
492,772,25,0.0754812088805012,1
493,771,25,0.0774018519924056,1
493,772,25,0.0806036308569773,1
494,729,25,0.074078346913308,1
494,771,25,0.0771065181961917,1
494,772,25,0.0829428516697773,1
495,771,25,0.0774279886072977,1
495,772,25,0.08633240737085,1
496,771,25,0.0809188936665455,1
496,772,25,0.0937377339032881,1
496,773,25,0.100544561810897,1
497,771,25,0.0867657390104708,1
497,772,25,0.10736686518206,1
497,773,25,0.11636243865557,1
498,771,25,0.0857261088138281,1
498,772,25,0.113475369016862,1
499,771,25,0.0802571309983878,1
500,729,25,0.0817016423642762,1
500,730,25,0.0738865705900446,1
500,771,25,0.0781823925753609,1
501,727,25,0.0956212869070057,1
501,728,25,0.090595232035366,1
501,729,25,0.0907945035087829,1
501,730,25,0.0838014413349947,1
502,727,25,0.0982950028980663,1
502,728,25,0.0956136860161446,1
502,729,25,0.0980997744517032,1
503,728,25,0.0988969723061199,1
510,738,25,0.072606392723787,1
511,738,25,0.0868842059231873,1
512,738,25,0.0973225429308904,1
512,739,25,0.0750131507485094,1
513,738,25,0.100890738227323,1
513,739,25,0.0841275021368172,1
513,740,25,0.0741199714318367,1
514,739,25,0.093629884601619,1
514,740,25,0.0871852870378592,1
514,741,25,0.0819573544953634,1
514,742,25,0.0714755518368117,1
515,739,25,0.0998210838897746,1
515,740,25,0.0905916181911841,1
515,741,25,0.0802180566969237,1
487,766,26,0.0768865713044261,1
487,767,26,0.0867382650866302,1
488,767,26,0.0730119891978191,1
492,769,26,0.0747451353750956,1
492,770,26,0.0787850524080344,1
492,771,26,0.0762458883573225,1
493,769,26,0.0741694891831827,1
493,770,26,0.0818703983134997,1
493,771,26,0.0826388595756267,1
494,770,26,0.0786753059936707,1
494,771,26,0.0859553484477757,1
494,772,26,0.0850152700172795,1
495,770,26,0.0760986350919833,1
495,771,26,0.0912967345494413,1
495,772,26,0.0920106647066756,1
496,770,26,0.0746562074400379,1
496,771,26,0.0960413200976405,1
496,772,26,0.101170832921565,1
497,729,26,0.071351785448634,1
497,770,26,0.0725969444805645,1
497,771,26,0.0976580084356441,1
497,772,26,0.11436035653872,1
498,771,26,0.092723854678957,1
499,729,26,0.0761759066690429,1
499,771,26,0.0871968438751913,1
500,727,26,0.087806134272233,1
500,728,26,0.084121972519816,1
500,729,26,0.0778380697313387,1
500,771,26,0.084828339106439,1
501,728,26,0.0870629699193792,1
501,729,26,0.0826211573371729,1
501,730,26,0.0764148806681276,1
502,728,26,0.0875855653763052,1
502,729,26,0.0896766314085877,1
503,728,26,0.0892850797885361,1
506,734,26,0.0727123697929282,1
507,734,26,0.0877246019666629,1
509,737,26,0.0730556725501245,1
510,738,26,0.0804571302166743,1
511,738,26,0.100776899025572,1
511,739,26,0.077027032284315,1
512,739,26,0.0912286561938978,1
512,740,26,0.0761405706125931,1
513,739,26,0.100067472178472,1
513,740,26,0.0925215913655203,1
513,741,26,0.0850183738180484,1
514,740,26,0.0972001138516613,1
514,741,26,0.0882804870863453,1
514,742,26,0.0744444647831706,1
515,740,26,0.0945207749429751,1
515,741,26,0.0824342699666237,1
515,742,26,0.0728822951099765,1
487,766,27,0.0745723799391097,1
487,767,27,0.08172298954712,1
491,769,27,0.0755108971391589,1
491,770,27,0.0730278627440363,1
492,769,27,0.0889552185412831,1
492,770,27,0.0894189039840152,1
493,769,27,0.08630006315442,1
493,770,27,0.0946425198176259,1
493,771,27,0.0886420270055748,1
494,769,27,0.0766695167320143,1
494,770,27,0.0920939759441493,1
494,771,27,0.0952280496556747,1
495,769,27,0.0735523553136568,1
495,770,27,0.0935349978666883,1
495,771,27,0.105451577525991,1
496,769,27,0.0726838944423866,1
496,770,27,0.0924093880347163,1
496,771,27,0.109716000741204,1
497,770,27,0.0859613259077736,1
497,771,27,0.106756181495695,1
498,729,27,0.0747435741446486,1
498,770,27,0.0767087340944357,1
498,771,27,0.099272818321078,1
499,728,27,0.0808803480686192,1
499,729,27,0.075355234377548,1
499,770,27,0.0722654909026565,1
499,771,27,0.095896386907826,1
500,728,27,0.0841921221492193,1
500,729,27,0.0753142878435559,1
500,770,27,0.0718267975871582,1
501,728,27,0.0831366308464427,1
501,729,27,0.0758857479474577,1
501,730,27,0.071524652845369,1
501,770,27,0.073289067171875,1
502,728,27,0.0809507962600204,1
502,729,27,0.0827371424532825,1
502,770,27,0.0734539169349604,1
503,770,27,0.0754029607569071,1
507,733,27,0.0977796662297122,1
508,731,27,0.117274595319229,1
508,736,27,0.0755653162833024,1
509,737,27,0.0814959766880728,1
510,738,27,0.0883446903559588,1
511,739,27,0.0873024415217936,1
512,741,27,0.0834292340443849,1
513,740,27,0.107213939238762,1
513,741,27,0.0972822992616016,1
513,742,27,0.0799512666717092,1
514,741,27,0.0958015561532699,1
514,742,27,0.0807547654282881,1
515,741,27,0.0892905845253708,1
515,742,27,0.0781764524356127,1
491,768,28,0.0714323101074614,1
491,769,28,0.0784583385018417,1
492,768,28,0.0755412571623118,1
492,769,28,0.0962682209959385,1
492,770,28,0.0956034975879692,1
493,769,28,0.0945767179973157,1
493,770,28,0.104749596068711,1
494,769,28,0.091531783702263,1
494,770,28,0.108684755160667,1
495,768,28,0.0772440868567267,1
495,769,28,0.0999909034661153,1
495,770,28,0.117173606723468,1
495,771,28,0.117202629437672,1
496,768,28,0.0806718895937279,1
496,769,28,0.100255280115181,1
496,770,28,0.114346013122742,1
496,771,28,0.12109743289959,1
497,769,28,0.0821549838777923,1
497,770,28,0.0998205365261119,1
497,771,28,0.115870122361256,1
498,770,28,0.0866313239110377,1
498,771,28,0.107973505841371,1
499,770,28,0.0814131381737623,1
499,771,28,0.104329177235496,1
500,770,28,0.0799525604403664,1
501,770,28,0.0793328017132763,1
502,729,28,0.0741070088650982,1
502,730,28,0.0811065647623389,1
502,770,28,0.0781988321453656,1
506,733,28,0.0764335470130326,1
507,731,28,0.094291460668528,1
507,732,28,0.0949397942668257,1
507,733,28,0.0910426458492172,1
507,734,28,0.0814463842962273,1
508,736,28,0.0781085855614843,1
509,737,28,0.0898661622968258,1
509,738,28,0.0731958474080988,1
511,741,28,0.080192405245278,1
512,742,28,0.0812448238474939,1
513,741,28,0.103184614936704,1
513,742,28,0.0868760825488301,1
514,741,28,0.100028808399755,1
514,742,28,0.0874230792290359,1
514,743,28,0.0767356730946969,1
515,741,28,0.095460019887894,1
515,742,28,0.0854664718364779,1
515,743,28,0.0786013185985871,1
491,768,29,0.0769515271990758,1
492,768,29,0.0805001418044846,1
492,769,29,0.09788701170801,1
493,768,29,0.0736635074574268,1
493,769,29,0.0989149357863218,1
494,768,29,0.0801340425947468,1
494,769,29,0.110868574453604,1
495,768,29,0.0970053581284614,1
495,769,29,0.131102320086881,1
495,770,29,0.13976869163755,1
496,768,29,0.0948332200736888,1
496,769,29,0.120991331429616,1
496,770,29,0.129239964985009,1
497,769,29,0.0871909037354431,1
497,770,29,0.109637864578359,1
498,770,29,0.0972418876511889,1
499,770,29,0.0910593155607619,1
500,770,29,0.086951755575193,1
501,770,29,0.0837165439869076,1
502,730,29,0.0736100088794433,1
502,731,29,0.0721440943503364,1
502,770,29,0.0851522850941102,1
503,732,29,0.0715831212366079,1
504,732,29,0.0766390696282788,1
504,769,29,0.0777931361506675,1
505,732,29,0.077495874141551,1
506,732,29,0.0791419583962561,1
507,732,29,0.0855369635681704,1
507,733,29,0.0847277485933417,1
507,734,29,0.07844513335348,1
508,736,29,0.0846679739933624,1
508,737,29,0.0716368623962146,1
509,765,29,0.0857210954602814,1
510,741,29,0.0764838547096645,1
511,742,29,0.082707236493168,1
512,742,29,0.0942816578829331,1
512,743,29,0.0760621732080001,1
513,742,29,0.0972527416238178,1
513,743,29,0.081331263765903,1
514,741,29,0.109657146707385,1
514,742,29,0.0972460861792832,1
514,743,29,0.0852164323833492,1
515,743,29,0.0863148917336448,1
492,768,30,0.0790923286841609,1
493,768,30,0.0729312406174933,1
494,768,30,0.0850063193773866,1
495,768,30,0.106074365413351,1
495,769,30,0.145035287958763,1
496,768,30,0.0962348691327659,1
496,769,30,0.125028847526489,1
497,769,30,0.0872891181926411,1
501,770,30,0.0840672859138828,1
503,769,30,0.0759389666235683,1
504,769,30,0.081848180324829,1
505,768,30,0.073803551694527,1
508,734,30,0.0881391615206711,1
508,735,30,0.085416033518972,1
508,736,30,0.0792467412174061,1
510,742,30,0.0725792235819858,1
511,743,30,0.07281439713564,1
512,743,30,0.0851492248336326,1
513,742,30,0.103081660807791,1
513,743,30,0.0907085300934953,1
513,744,30,0.0781327317630576,1
514,741,30,0.111879256576542,1
514,742,30,0.103583176543663,1
514,743,30,0.0920111809701301,1
514,744,30,0.0805900276259519,1
514,745,30,0.0750988131617159,1
514,746,30,0.0721843939999999,1
515,744,30,0.0809938824883301,1
495,767,31,0.0740811148318294,1
495,768,31,0.0989636511522986,1
496,768,31,0.0847276304125509,1
496,769,31,0.112338332968432,1
500,770,31,0.0847888107419365,1
501,770,31,0.0859230104513873,1
502,769,31,0.075642587860362,1
502,770,31,0.0963628029488298,1
503,769,31,0.0830776088714995,1
504,768,31,0.0722918763192134,1
504,769,31,0.0867849838192467,1
505,768,31,0.085214547710738,1
506,767,31,0.0766256654385852,1
508,734,31,0.0726091295421003,1
508,735,31,0.0736165212630206,1
508,736,31,0.0722315854557796,1
509,735,31,0.0927326187176012,1
509,736,31,0.099685132440061,1
509,762,31,0.071565437658279,1
509,763,31,0.0797918221247925,1
510,759,31,0.0733979801006614,1
511,743,31,0.0828135867648065,1
512,743,31,0.0959362262744095,1
512,744,31,0.0844845263058297,1
512,745,31,0.0735002251448299,1
513,742,31,0.106899366853814,1
513,743,31,0.0965638844543584,1
513,744,31,0.0916126815635877,1
513,745,31,0.0894960325001175,1
513,746,31,0.0862800221803166,1
513,747,31,0.082550522544523,1
513,748,31,0.0783332596848819,1
514,741,31,0.110244654518669,1
514,742,31,0.103685626849205,1
514,743,31,0.0949291517756119,1
514,744,31,0.0902097884961864,1
514,745,31,0.0928782423320356,1
514,746,31,0.0951839495605808,1
502,769,32,0.0787452379216174,1
502,770,32,0.0946424887174178,1
503,769,32,0.0855801368770629,1
504,768,32,0.0786485349345333,1
504,769,32,0.0892673899901655,1
505,767,32,0.0735851535931251,1
509,735,32,0.0720625371645999,1
509,736,32,0.0807021687563396,1
509,762,32,0.081637072112207,1
509,763,32,0.0855970491702308,1
510,743,32,0.0718610140361161,1
510,759,32,0.0769624806923706,1
511,743,32,0.0907874499815845,1
511,744,32,0.081518138696369,1
512,743,32,0.101323603363822,1
512,744,32,0.0999443651147058,1
512,745,32,0.0966732016858502,1
512,746,32,0.0959012696404986,1
512,747,32,0.0886958179255146,1
512,748,32,0.078376078451402,1
513,742,32,0.100439256506251,1
513,743,32,0.0969266808219954,1
513,744,32,0.10450714506636,1
513,745,32,0.117186917612537,1
513,746,32,0.123666073727544,1
513,747,32,0.111590285882906,1
513,748,32,0.0975020595521185,1
514,743,32,0.0957593469508288,1
514,744,32,0.0972280356184986,1
514,745,32,0.107550717172298,1
514,746,32,0.119123689292365,1
514,747,32,0.114934118058022,1
501,769,33,0.0719043055257994,1
502,769,33,0.0792644932161928,1
502,770,33,0.0911414076700778,1
503,768,33,0.0731069443532077,1
503,769,33,0.0843727272777311,1
503,770,33,0.0975098657043531,1
504,768,33,0.0805487763099204,1
504,769,33,0.0898531748499208,1
504,770,33,0.0993685323215444,1
505,767,33,0.0743815988225057,1
505,768,33,0.0915630518514925,1
510,743,33,0.0780970162840689,1
511,743,33,0.0979882988657689,1
511,744,33,0.099237469824545,1
511,745,33,0.0925428701279063,1
511,746,33,0.0883757159235652,1
511,747,33,0.0822513945229202,1
511,748,33,0.0713808517031296,1
511,753,33,0.0724217632283463,1
512,742,33,0.0954750039681594,1
512,743,33,0.100687927550223,1
512,744,33,0.116257879755919,1
512,745,33,0.128488422236091,1
512,746,33,0.133911701405741,1
512,747,33,0.11627726140561,1
512,748,33,0.0939234456859709,1
512,749,33,0.0822506170177175,1
512,750,33,0.0759085257398744,1
513,742,33,0.0900532549287485,1
513,743,33,0.0914539336613327,1
513,744,33,0.109531987029884,1
513,745,33,0.134798094657005,1
513,746,33,0.150102930028682,1
513,747,33,0.133146536765673,1
513,748,33,0.112226670781249,1
513,749,33,0.104489156705992,1
502,769,34,0.0722288486374663,1
503,769,34,0.0766050273404862,1
503,770,34,0.0847844318326352,1
504,768,34,0.0724806545824154,1
504,769,34,0.0830046788834915,1
504,770,34,0.0882307329734177,1
505,768,34,0.0794641254520237,1
505,769,34,0.0907663267202391,1
505,770,34,0.0946466810254704,1
511,742,34,0.0814913738572731,1
511,743,34,0.0884268073454413,1
511,744,34,0.0984514431648799,1
511,745,34,0.105643851452584,1
511,746,34,0.108384364470615,1
511,747,34,0.0948213646743589,1
511,748,34,0.0786669711378984,1
511,749,34,0.0723648747276792,1
512,742,34,0.0800763641487938,1
512,743,34,0.0881796913118745,1
512,744,34,0.115980640060781,1
512,745,34,0.146633664494234,1
512,746,34,0.159225529192179,1
512,747,34,0.13173887914639,1
512,748,34,0.101243818889947,1
512,749,34,0.0894581586666863,1
512,750,34,0.083668201823428,1
512,751,34,0.0758974602858303,1
513,746,34,0.152361165899574,1
513,747,34,0.136538288141438,1
513,748,34,0.115896271416231,1
513,749,34,0.112228350192487,1
513,750,34,0.10411924461074,1
504,769,35,0.0729795827809729,1
505,769,35,0.0749991867550699,1
511,743,35,0.0729871090313345,1
511,744,35,0.08305317032797,1
511,745,35,0.101696588159634,1
511,746,35,0.117435769037716,1
511,747,35,0.103450932238756,1
511,748,35,0.0836445345650595,1
511,749,35,0.0781296341823302,1
511,750,35,0.0761364405049567,1
512,746,35,0.158570533929305,1
512,747,35,0.136350343363813,1
512,748,35,0.106141516982693,1
512,749,35,0.0944166452261953,1
512,750,35,0.0901848461292856,1
512,751,35,0.080333307848122,1
513,748,35,0.119671774479855,1
513,749,35,0.122143196057271,1
513,750,35,0.121353536893299,1
513,751,35,0.101017029952399,1
511,746,36,0.104670949862453,1
511,747,36,0.092877464826833,1
511,748,36,0.075651550940338,1
511,749,36,0.0731896335865193,1
512,748,36,0.0938375904514741,1
512,749,36,0.0859459064245948,1
512,750,36,0.0867192815196024,1
512,751,36,0.0787387006578735,1
512,750,37,0.0759784949880707,1
