x,y,z,signal,mito.p
655,681,5,0.247582862511644,2
655,682,5,0.234794655979886,1
656,682,5,0.222466906689258,1
657,682,5,0.215501231358728,2
658,681,5,0.23665997182157,2
658,682,5,0.239261068826704,2
658,683,5,0.21810750343849,1
659,682,5,0.241974897866179,1
659,683,5,0.22215364051305,1
660,683,5,0.236843363528728,1
653,681,6,0.211893656978792,1
654,678,6,0.214610869720909,1
654,679,6,0.223961532930488,1
654,680,6,0.244598511421981,2
654,681,6,0.28577068364388,2
654,682,6,0.274197375641565,2
654,683,6,0.230714905800405,1
655,677,6,0.224322494385847,1
655,678,6,0.241563628714189,1
655,679,6,0.251430878820487,2
655,680,6,0.266191236628815,2
655,681,6,0.303214765490237,2
655,682,6,0.294344289493811,2
655,683,6,0.256517404936768,2
656,679,6,0.229436338924927,1
656,680,6,0.242871852748116,1
656,681,6,0.272699465218359,2
656,682,6,0.275658239496876,2
656,683,6,0.252259040042094,2
657,680,6,0.227087551688114,1
657,681,6,0.276897844031638,2
657,682,6,0.29192188184437,2
657,683,6,0.263354051723909,2
658,680,6,0.251890962859121,2
658,681,6,0.308924738818289,2
658,682,6,0.317991618848944,2
658,683,6,0.278360499258936,2
658,684,6,0.20886913686034,1
659,681,6,0.27701015310315,2
659,682,6,0.294431320316174,2
659,683,6,0.293728505373317,2
659,684,6,0.244137929780018,1
660,682,6,0.257828116987343,1
660,683,6,0.302652846930182,2
660,684,6,0.266854840429292,1
661,683,6,0.238668348620541,1
652,681,7,0.170083009924565,1
653,678,7,0.204959144056784,1
653,679,7,0.218236905184377,1
653,680,7,0.22867378670234,2
653,681,7,0.25835109808685,2
653,682,7,0.267557083128321,2
653,683,7,0.226341519896073,1
654,677,7,0.214179795956397,1
654,678,7,0.252540857687865,1
654,679,7,0.286890017453856,2
654,680,7,0.306784372736117,2
654,681,7,0.343961835187579,2
654,682,7,0.352974028612301,2
654,683,7,0.295305161523447,2
654,684,7,0.199152150519525,1
655,676,7,0.224380465173756,1
655,677,7,0.247436542252548,1
655,678,7,0.274305753646772,2
655,679,7,0.30705457134414,2
655,680,7,0.31696165459698,2
655,681,7,0.349127679274613,2
655,682,7,0.359126321540116,2
655,683,7,0.305099214179948,2
655,684,7,0.208378674138429,2
656,677,7,0.2154593829187,1
656,678,7,0.222352010080432,1
656,679,7,0.250047865006107,2
656,680,7,0.269482907534895,2
656,681,7,0.321477852656934,2
656,682,7,0.348204674858367,2
656,683,7,0.301325266126729,2
656,684,7,0.209249616806306,2
657,679,7,0.223931676730706,1
657,680,7,0.258402998114137,2
657,681,7,0.330389356047893,2
657,682,7,0.366864749961492,2
657,683,7,0.314162262664964,2
657,684,7,0.215346302562028,2
658,680,7,0.286715607486799,2
658,681,7,0.339801473268688,2
658,682,7,0.362964758984863,2
658,683,7,0.321669554339698,2
658,684,7,0.234686004292847,2
658,685,7,0.153195907925216,1
659,680,7,0.244330129066112,1
659,681,7,0.27726437864429,2
659,682,7,0.313263342249875,2
659,683,7,0.340645284115014,2
659,684,7,0.289318744665584,2
659,685,7,0.180722104995633,1
660,681,7,0.2081890250694,1
660,682,7,0.261685712160283,2
660,683,7,0.325116825806973,2
660,684,7,0.296752888650853,2
660,685,7,0.195851659594426,1
661,682,7,0.198077513928638,1
661,683,7,0.22423180617901,2
661,684,7,0.210363377458989,1
662,683,7,0.144904206801639,1
652,678,8,0.190886834812505,1
652,679,8,0.196871062215716,1
652,680,8,0.189221891391604,1
652,681,8,0.194365517489967,2
652,682,8,0.209745055561514,2
652,683,8,0.186379767773651,1
653,677,8,0.184185374409958,1
653,678,8,0.225312998693766,1
653,679,8,0.255238962462122,2
653,680,8,0.271607250789851,2
653,681,8,0.300149951942163,2
653,682,8,0.347728891434681,2
653,683,8,0.302887914743128,2
653,684,8,0.192046598893018,1
654,676,8,0.184097534982184,1
654,677,8,0.227632875177124,1
654,678,8,0.286400549938604,2
654,679,8,0.339400479625456,2
654,680,8,0.357810285133913,2
654,681,8,0.383461736779548,2
654,682,8,0.431299454883672,2
654,683,8,0.362421102467008,2
654,684,8,0.220300938915774,2
655,675,8,0.175777122146483,1
655,676,8,0.230550497660275,1
655,677,8,0.254217581867596,1
655,678,8,0.28653639564761,2
655,679,8,0.328160988816865,2
655,680,8,0.342465119012364,2
655,681,8,0.383539387779146,2
655,682,8,0.431611501931722,2
655,683,8,0.349931980416561,2
655,684,8,0.21468008634407,2
656,676,8,0.203046891781026,1
656,677,8,0.198748059295565,1
656,678,8,0.214723427594086,1
656,679,8,0.257901239796642,2
656,680,8,0.298565234618092,2
656,681,8,0.382711798801368,2
656,682,8,0.446565278154301,2
656,683,8,0.355378024938544,2
656,684,8,0.216340165692422,2
657,679,8,0.250210257852752,2
657,680,8,0.302877017230208,2
657,681,8,0.381612468645246,2
657,682,8,0.444901193099145,2
657,683,8,0.366330498146568,2
657,684,8,0.225985211031847,2
657,685,8,0.141178513831317,1
658,679,8,0.267856316890631,1
658,680,8,0.301761216403873,2
658,681,8,0.34837005332499,2
658,682,8,0.407586267727855,2
658,683,8,0.380471986693758,2
658,684,8,0.260817444110303,2
658,685,8,0.155801122597903,1
659,680,8,0.219356413155518,1
659,681,8,0.270006635039397,2
659,682,8,0.343201397779144,2
659,683,8,0.393069014026248,2
659,684,8,0.319551232085032,2
659,685,8,0.189999284633499,2
660,681,8,0.223751046722028,1
660,682,8,0.281520753125645,2
660,683,8,0.339204399033391,2
660,684,8,0.304197333025047,2
660,685,8,0.205851272186422,1
661,682,8,0.20858483119792,1
661,683,8,0.218636779220117,2
661,684,8,0.204928964414838,1
651,678,9,0.175747825750448,1
651,679,9,0.179761382246996,1
651,680,9,0.162663570117689,1
651,682,9,0.132966976604154,1
652,677,9,0.163198058294194,1
652,678,9,0.198454361370298,1
652,679,9,0.216518830167948,1
652,680,9,0.205667967559847,1
652,681,9,0.193136424825544,2
652,682,9,0.208907750878724,2
652,683,9,0.19283537481108,2
653,677,9,0.181075316279132,1
653,678,9,0.241610552708179,1
653,679,9,0.28230313484092,2
653,680,9,0.285908395365372,2
653,681,9,0.289482953764383,2
653,682,9,0.351718799332986,2
653,683,9,0.317483540969162,2
653,684,9,0.196196287220487,2
654,676,9,0.165959483092155,1
654,677,9,0.220310766581535,1
654,678,9,0.291524794387276,2
654,679,9,0.338469115473271,2
654,680,9,0.34514610623208,2
654,681,9,0.360477787303394,2
654,682,9,0.431544823085544,2
654,683,9,0.364205906089948,2
654,684,9,0.214820709045041,2
654,685,9,0.136913393971443,1
655,676,9,0.195646435541177,1
655,677,9,0.224257432750489,1
655,678,9,0.261353338016215,2
655,679,9,0.301176781293149,2
655,680,9,0.328073435511006,2
655,681,9,0.380559216557453,2
655,682,9,0.454181296156573,2
655,683,9,0.356674654814889,2
655,684,9,0.20725188871859,2
655,685,9,0.138274824241398,1
656,677,9,0.160551704266225,1
656,678,9,0.188583590720441,1
656,679,9,0.254637708358855,2
656,680,9,0.326104568416412,2
656,681,9,0.406897460318729,2
656,682,9,0.487699955965308,2
656,683,9,0.376030802335755,2
656,684,9,0.213294684033707,2
656,685,9,0.139724628862706,1
657,679,9,0.249891244358086,2
657,680,9,0.326949623271062,2
657,681,9,0.38166792653634,2
657,682,9,0.456303823159375,2
657,683,9,0.383083209926651,2
657,684,9,0.226370231608196,2
657,685,9,0.142633070564424,1
658,680,9,0.269621539822548,2
658,681,9,0.318085342436091,2
658,682,9,0.414146172423188,2
658,683,9,0.405749215755297,2
658,684,9,0.267669765402329,2
658,685,9,0.163655330874015,1
659,680,9,0.178109177471336,1
659,681,9,0.258272128438428,2
659,682,9,0.361574156719705,2
659,683,9,0.399743541648576,2
659,684,9,0.306501261321689,2
659,685,9,0.198531751128148,2
660,681,9,0.230994932074189,1
660,682,9,0.292736607776075,2
660,683,9,0.315497904642358,2
660,684,9,0.2738327816819,2
660,685,9,0.209688478062928,1
661,682,9,0.211215348999922,1
661,683,9,0.208987989415637,2
661,684,9,0.197117388303997,1
651,679,10,0.186809672170338,1
651,680,10,0.175029211901873,1
651,681,10,0.149468187221326,1
651,682,10,0.129702462399791,1
652,678,10,0.200231277980462,1
652,679,10,0.236432442699068,1
652,680,10,0.225529580543014,1
652,681,10,0.197872414276223,1
652,682,10,0.206537977221481,2
652,683,10,0.194631498909771,2
653,677,10,0.165965989255691,1
653,678,10,0.245880337599269,1
653,679,10,0.291821838694935,1
653,680,10,0.280605262519677,2
653,681,10,0.27275168868781,2
653,682,10,0.345205694230811,2
653,683,10,0.322942622698383,2
653,684,10,0.199371145744923,2
654,677,10,0.184019373939172,1
654,678,10,0.258025615748898,1
654,679,10,0.288989978145657,2
654,680,10,0.295654404420391,2
654,681,10,0.334794862247156,2
654,682,10,0.437694603116544,2
654,683,10,0.372135712751923,2
654,684,10,0.216678088113616,2
654,685,10,0.134757564865801,1
655,677,10,0.166577518867716,1
655,678,10,0.205891590496211,1
655,679,10,0.243680980642362,2
655,680,10,0.303527907265612,2
655,681,10,0.372675164521643,2
655,682,10,0.47021312999293,2
655,683,10,0.365189991314914,2
655,684,10,0.206249927094005,2
655,685,10,0.134704408390107,1
656,678,10,0.151874708884467,1
656,679,10,0.239666192577573,2
656,680,10,0.356961050411294,2
656,681,10,0.404319352587427,2
656,682,10,0.479479698239791,2
656,683,10,0.37298397714805,2
656,684,10,0.211385678619676,2
656,685,10,0.137961943707771,1
657,679,10,0.2176916314557,2
657,680,10,0.322066268594295,2
657,681,10,0.346543550543021,2
657,682,10,0.416420891404376,2
657,683,10,0.361772177964756,2
657,684,10,0.225228679809549,2
657,685,10,0.155013478727417,1
658,680,10,0.215648347783151,2
658,681,10,0.280424955953163,2
658,682,10,0.395701435160986,2
658,683,10,0.387421191354075,2
658,684,10,0.268149654053485,2
658,685,10,0.201729151083418,1
659,681,10,0.247373794472674,2
659,682,10,0.36943835438266,2
659,683,10,0.370382954783415,2
659,684,10,0.284691556182943,2
659,685,10,0.242131369233201,1
659,686,10,0.215286167199635,1
660,681,10,0.22032970038823,1
660,682,10,0.301511643453866,2
660,683,10,0.298361640215748,2
660,684,10,0.264845493303829,2
660,685,10,0.252195446336559,1
660,686,10,0.22504451681723,1
661,682,10,0.212524394079343,1
661,683,10,0.231455314674821,2
661,684,10,0.232719973537233,1
661,685,10,0.219714911474395,1
651,679,11,0.183038709737098,1
651,680,11,0.181717946099263,1
651,681,11,0.157507230254252,1
651,682,11,0.134905614296468,1
652,678,11,0.19281265921908,1
652,679,11,0.244660015193531,1
652,680,11,0.234288717794421,1
652,681,11,0.206416101725956,1
652,682,11,0.20756853859744,2
652,683,11,0.18762081535807,1
653,678,11,0.229023054479451,1
653,679,11,0.274502431362833,1
653,680,11,0.246090749167229,1
653,681,11,0.243965584866779,2
653,682,11,0.311219436573164,2
653,683,11,0.291796709726786,2
653,684,11,0.180542507513864,1
654,678,11,0.197982757814582,1
654,679,11,0.220335049624024,1
654,680,11,0.226973600525614,2
654,681,11,0.290949117095155,2
654,682,11,0.397071362007795,2
654,683,11,0.338612400352056,2
654,684,11,0.197986489839554,2
654,685,11,0.124733830952398,1
655,679,11,0.186971654494236,1
655,680,11,0.267593582332553,2
655,681,11,0.344085837937339,2
655,682,11,0.424003097260395,2
655,683,11,0.327983269787665,2
655,684,11,0.188440579523488,2
656,679,11,0.20265229234058,2
656,680,11,0.339544610429901,2
656,681,11,0.361535567581487,2
656,682,11,0.396614860713136,2
656,683,11,0.314620182129114,2
656,684,11,0.194188644386428,2
656,685,11,0.143870734446201,1
657,679,11,0.161547532929772,1
657,680,11,0.261671007981891,2
657,681,11,0.27727746561186,2
657,682,11,0.327725461502552,2
657,683,11,0.297846944211681,2
657,684,11,0.221724233719692,2
657,685,11,0.190729330918574,1
658,680,11,0.150853029727943,1
658,681,11,0.226124838526158,2
658,682,11,0.337781552072469,2
658,683,11,0.323887869983466,2
658,684,11,0.261643092435095,2
658,685,11,0.25482020438002,3
658,686,11,0.201166112915872,1
659,681,11,0.211147052942922,2
659,682,11,0.336733723860969,2
659,683,11,0.311320823251589,2
659,684,11,0.25583009033763,2
659,685,11,0.278551031573875,3
659,686,11,0.241582363479551,1
660,682,11,0.275679835481384,2
660,683,11,0.27675324050403,2
660,684,11,0.259588587807462,3
660,685,11,0.283674156415054,3
660,686,11,0.237288270665806,1
661,683,11,0.249660679855274,1
661,684,11,0.268566546123101,3
661,685,11,0.244751474685529,1
662,684,11,0.282177564640672,3
651,681,12,0.161592055987696,1
651,682,12,0.151934122722032,1
652,679,12,0.223218362357593,1
652,680,12,0.220401305507372,1
652,681,12,0.215423256916965,1
652,682,12,0.2272717395606,1
652,683,12,0.181416759243883,1
653,679,12,0.228632734427641,1
653,680,12,0.201266690988886,1
653,681,12,0.212458760200157,1
653,682,12,0.27455970550608,2
653,683,12,0.244846641322332,1
653,684,12,0.149679506915363,1
654,680,12,0.171875302477617,1
654,681,12,0.236066928173243,2
654,682,12,0.327032548865956,2
654,683,12,0.279489511453674,2
654,684,12,0.170240302337081,1
655,679,12,0.14161503635229,1
655,680,12,0.215055478295989,1
655,681,12,0.288658947530579,2
655,682,12,0.34174550995713,2
655,683,12,0.259429877225456,2
655,684,12,0.161293245188216,1
656,679,12,0.151408255523214,1
656,680,12,0.262692164654919,2
656,681,12,0.286958313510856,2
656,682,12,0.296766249300256,2
656,683,12,0.235600449931823,2
656,684,12,0.173063604109089,1
656,685,12,0.147977840368732,1
657,680,12,0.182149741388603,1
657,681,12,0.203193224480205,2
657,682,12,0.240643759198919,2
657,683,12,0.226930408556597,2
657,684,12,0.221436071631467,1
657,685,12,0.236079641938316,3
657,686,12,0.171055575632449,1
658,682,12,0.264879628892246,2
658,683,12,0.255470547051761,2
658,684,12,0.26921074339372,3
658,685,12,0.323522305697308,3
658,686,12,0.243386051148853,3
658,687,12,0.12666551463818,1
659,682,12,0.278986310086523,2
659,683,12,0.268219094598143,2
659,684,12,0.271683956343123,3
659,685,12,0.337363764316859,3
659,686,12,0.269802667434556,3
659,687,12,0.136055264589306,1
660,682,12,0.232009196941101,1
660,683,12,0.280695303842185,3
660,684,12,0.312130398988832,3
660,685,12,0.342430983423948,3
660,686,12,0.250988758262056,3
661,683,12,0.274249798152348,3
661,684,12,0.335555871899421,3
661,685,12,0.290586414028142,3
662,683,12,0.265564604755733,3
662,684,12,0.320105089471146,3
662,685,12,0.224256163861999,3
663,684,12,0.268347252335705,3
651,681,13,0.176416641945804,1
651,682,13,0.185042458825103,1
652,680,13,0.193284287654962,1
652,681,13,0.228470864064492,1
652,682,13,0.256556964401478,1
652,683,13,0.174671260946658,1
653,681,13,0.192037716673583,1
653,682,13,0.245414655523176,1
653,683,13,0.197931268310042,1
654,681,13,0.18787588682487,1
654,682,13,0.249543519151297,2
654,683,13,0.213144681509971,1
654,684,13,0.138971954066214,1
655,680,13,0.158000529315143,1
655,681,13,0.226572781043547,1
655,682,13,0.250563406935835,2
655,683,13,0.18785578365035,1
656,680,13,0.168167013183752,1
656,681,13,0.207763387621264,1
656,682,13,0.209594654955114,2
656,683,13,0.167224166834734,1
656,684,13,0.151540157725832,1
656,685,13,0.14921577793234,1
657,682,13,0.17373758293899,1
657,683,13,0.172066357276053,1
657,684,13,0.211384484371684,1
657,685,13,0.255181539037876,3
657,686,13,0.181078214818527,1
658,683,13,0.205726485711419,1
658,684,13,0.272012722863051,3
658,685,13,0.351773311777754,3
658,686,13,0.249917642214727,3
658,687,13,0.120110884538142,1
659,683,13,0.24284301663516,3
659,684,13,0.311045673490436,3
659,685,13,0.375460474279428,3
659,686,13,0.266049096237688,3
659,687,13,0.123750628973342,1
660,683,13,0.289008364588689,3
660,684,13,0.391801021221527,3
660,685,13,0.390609161726248,3
660,686,13,0.241855224265388,3
661,683,13,0.284256277670295,3
661,684,13,0.405183664690936,3
661,685,13,0.334201221474834,3
661,686,13,0.177525700247022,3
662,683,13,0.239029981840395,3
662,684,13,0.341699307487968,3
662,685,13,0.257048621371381,3
663,684,13,0.290540609641644,3
651,681,14,0.17947889283673,1
651,682,14,0.199211987319921,1
652,680,14,0.160414378187313,1
652,681,14,0.229483561480915,1
652,682,14,0.258636025753432,1
652,683,14,0.153694294980153,1
653,681,14,0.182131641067485,1
653,682,14,0.215179829368079,1
653,683,14,0.156933195053119,1
654,682,14,0.189090760474147,1
654,683,14,0.159403907545791,1
655,681,14,0.175431250512097,1
655,682,14,0.179299183394211,1
656,682,14,0.149518146595627,1
656,685,14,0.136143601620409,1
657,684,14,0.178587001068673,1
657,685,14,0.229944889527873,3
657,686,14,0.169647333329253,1
658,683,14,0.160457781637746,1
658,684,14,0.24973318066041,3
658,685,14,0.32799314721376,3
658,686,14,0.22561539223722,3
659,683,14,0.202923772277177,3
659,684,14,0.323253848700939,3
659,685,14,0.37510772327901,3
659,686,14,0.236975526973094,3
660,683,14,0.253103423132249,3
660,684,14,0.415534212031198,3
660,685,14,0.39326462189515,3
660,686,14,0.212637847638513,3
661,683,14,0.242734315187789,3
661,684,14,0.406410530580458,3
661,685,14,0.337301339979149,3
661,686,14,0.166628274407345,3
662,683,14,0.181612902036365,3
662,684,14,0.308800785828862,3
662,685,14,0.257670376731831,3
663,684,14,0.259041920789462,3
664,684,14,0.2163888064179,1
665,684,14,0.188496634538578,1
665,685,14,0.209685318281784,1
666,685,14,0.197133535532046,1
667,685,14,0.208368709631752,1
668,685,14,0.235425990204433,1
669,685,14,0.202253425951582,1
675,681,14,0.238842310744601,1
677,671,14,0.109839232205802,1
677,675,14,0.187400140721434,1
652,678,15,0.0807191805701735,1
652,679,15,0.10071596127781,1
652,681,15,0.217121303399373,1
652,682,15,0.220915329746944,1
653,678,15,0.0725952961695349,1
653,679,15,0.0953616934699468,1
653,680,15,0.128990404475085,1
653,681,15,0.177778980341835,1
653,682,15,0.174851741674338,1
654,679,15,0.0786512033323888,1
654,680,15,0.108387586452174,1
654,681,15,0.140189925296218,1
655,680,15,0.0967376724172534,1
655,681,15,0.128821580105403,1
655,682,15,0.122232677576033,1
656,680,15,0.0823807029681823,1
656,681,15,0.107124196478252,1
656,682,15,0.106678729537429,1
657,681,15,0.0843821008804542,1
657,682,15,0.0946396896986883,1
657,683,15,0.103871450592637,1
657,685,15,0.184910444661736,1
658,681,15,0.0758454731779607,1
658,682,15,0.0981256747050137,1
658,683,15,0.132721695482865,1
658,684,15,0.22108946603217,3
658,685,15,0.275486491707632,3
658,686,15,0.182229059359356,1
659,662,15,0.139974923337541,1
659,665,15,0.140449350792153,1
659,681,15,0.0730152173994205,1
659,682,15,0.103968576542551,1
659,683,15,0.173861560808583,3
659,684,15,0.319706534084229,3
659,685,15,0.350193271924982,3
659,686,15,0.196271213841856,3
660,662,15,0.161526135986595,1
660,663,15,0.133891983873802,1
660,664,15,0.127422182701393,1
660,665,15,0.10389977666218,1
660,682,15,0.0980260980587006,1
660,683,15,0.206822245563651,3
660,684,15,0.394658707383616,3
660,685,15,0.370562738866433,3
660,686,15,0.182407251111719,3
661,661,15,0.1837650239972,1
661,662,15,0.174062119830616,1
661,663,15,0.129745952930806,1
661,664,15,0.0958365438873889,1
661,665,15,0.074091595601961,1
661,682,15,0.0841813179369234,1
661,683,15,0.186780898257799,3
661,684,15,0.356825279342787,3
661,685,15,0.314442512860247,3
661,686,15,0.154154117777038,3
662,663,15,0.120201784226393,1
662,664,15,0.0830791887620713,1
662,683,15,0.132641917229032,1
662,684,15,0.248914797344231,3
662,685,15,0.234329446626956,3
663,663,15,0.116386995379891,1
663,664,15,0.0790144102227728,1
663,673,15,0.0943931645690755,1
663,674,15,0.1193513428157,1
663,675,15,0.097378815647437,1
663,683,15,0.109981696039093,1
663,684,15,0.207666566453389,1
663,685,15,0.21532371137086,1
664,664,15,0.0817302110154422,1
664,672,15,0.0740427122948604,1
664,673,15,0.113053376513117,1
664,674,15,0.155286065831422,1
664,675,15,0.130134357209797,1
664,676,15,0.0760197587441855,1
664,683,15,0.0958536925421384,1
664,684,15,0.182465943424456,1
664,685,15,0.203593770280441,1
665,664,15,0.0917056027653661,1
665,673,15,0.0865320831469722,1
665,674,15,0.117782150715515,1
665,675,15,0.108938346257561,1
665,683,15,0.083262717310145,1
665,684,15,0.156463805832221,1
665,685,15,0.189495834464683,1
665,686,15,0.116498309244743,1
666,664,15,0.100839273602949,1
666,675,15,0.0740114565857141,1
666,683,15,0.072470086731701,1
666,684,15,0.137222654440847,1
666,685,15,0.192487040040212,1
666,686,15,0.133915047788133,1
667,664,15,0.112265546041382,1
667,665,15,0.0758521783828283,1
667,684,15,0.133860983186362,1
667,685,15,0.217297828180581,1
667,686,15,0.169562292920209,1
668,665,15,0.0809695559055497,1
668,684,15,0.134960350662734,1
668,685,15,0.226635702984587,1
668,686,15,0.197371041601308,1
669,665,15,0.0850063566976364,1
669,684,15,0.108789164779319,1
669,685,15,0.172383940161145,1
669,686,15,0.179589273695339,1
670,665,15,0.0915036566740522,1
670,681,15,0.0798116827176889,1
670,684,15,0.0926878717381786,1
670,685,15,0.145183859872926,1
671,665,15,0.115847182847757,1
671,666,15,0.0748792954528222,1
671,680,15,0.0915863832276135,1
671,681,15,0.109376821871603,1
671,682,15,0.0838055652225896,1
671,684,15,0.0908969164940752,1
671,685,15,0.140192525273616,1
672,666,15,0.104222621702484,1
672,667,15,0.0732704630273861,1
672,680,15,0.084579238879595,1
672,681,15,0.0975392989413044,1
672,682,15,0.0779662647891507,1
672,683,15,0.0734188359002171,1
672,684,15,0.098699523304898,1
672,685,15,0.141784370765384,1
673,666,15,0.155785721774849,1
673,667,15,0.109027429693659,1
673,668,15,0.0901565636000342,1
673,669,15,0.0745916309679271,1
673,677,15,0.0725183107143898,1
673,680,15,0.0752174791157643,1
673,681,15,0.0798813720640123,1
673,682,15,0.0733630732270835,1
673,683,15,0.0801923741450699,1
674,666,15,0.211507267993286,1
674,669,15,0.110541922747827,1
674,670,15,0.0812157078326653,1
674,671,15,0.0778674843081651,1
674,672,15,0.0814059042653569,1
674,673,15,0.0802950421520687,1
674,674,15,0.0745247033200835,1
674,675,15,0.0772746956815444,1
674,676,15,0.0861140776899059,1
674,677,15,0.088487527391747,1
674,678,15,0.0864398834700218,1
674,679,15,0.0944313183043796,1
674,680,15,0.116666262808597,1
674,681,15,0.117954147306423,1
674,682,15,0.0965507415064129,1
675,670,15,0.0943122169474178,1
675,671,15,0.086138752595017,1
675,672,15,0.104708245232014,1
675,673,15,0.107888341031494,1
675,674,15,0.0873137619975441,1
675,675,15,0.0921107576164432,1
675,676,15,0.107253896786137,1
675,677,15,0.100228776517833,1
675,678,15,0.113618691215897,1
675,679,15,0.169815734736104,1
676,671,15,0.0954639385141153,1
676,672,15,0.106754688685706,1
676,673,15,0.112043254193925,1
676,674,15,0.0936553059117246,1
676,675,15,0.108573528376397,1
676,676,15,0.130758824508395,1
676,677,15,0.114258061734219,1
677,666,15,0.140384139875797,1
677,671,15,0.121846960355022,1
677,672,15,0.0966972794669656,1
677,673,15,0.0982057390807612,1
677,674,15,0.107088692480679,1
677,675,15,0.143575506390695,1
677,676,15,0.167331437672533,1
678,666,15,0.0979962667390856,1
678,672,15,0.0968237391331653,1
678,673,15,0.0944251480230915,1
679,666,15,0.0932048753776872,1
648,670,16,0.123041892550861,1
648,671,16,0.0870933610427402,1
649,670,16,0.146774436476204,1
649,671,16,0.094437009642463,1
650,671,16,0.0955729385234844,1
651,671,16,0.0835209361180056,1
652,670,16,0.100025281636155,1
652,671,16,0.0713988214033731,1
652,679,16,0.0757529935991374,1
652,680,16,0.11970571102694,1
653,669,16,0.145225073868708,1
653,670,16,0.0856640079182825,1
653,679,16,0.0755482173888859,1
653,680,16,0.119759178504715,1
653,681,16,0.164201176846521,1
653,682,16,0.134711561437971,1
654,668,16,0.127046094104812,1
654,669,16,0.091967049774828,1
654,680,16,0.093365252930847,1
654,681,16,0.11535669524568,1
654,682,16,0.0989471493818777,1
655,667,16,0.109786448932605,1
655,668,16,0.0769205887120522,1
655,680,16,0.0765953613958069,1
655,681,16,0.09123131215167,1
655,682,16,0.0843348907645497,1
655,683,16,0.0748988761438456,1
656,667,16,0.0859097120024013,1
656,681,16,0.0771431853415484,1
656,682,16,0.0772797214751743,1
656,683,16,0.077353379208052,1
657,666,16,0.10045244921453,1
657,682,16,0.0737638802690673,1
657,683,16,0.0861337641216368,1
657,684,16,0.116199486005179,1
657,685,16,0.144510366206271,1
658,661,16,0.0958061652041112,1
658,662,16,0.118971484873896,1
658,666,16,0.0880769673245012,1
658,682,16,0.0775524640802202,1
658,683,16,0.112704743180251,1
658,684,16,0.190059158754144,1
658,685,16,0.22297448696571,1
658,686,16,0.144186525959307,1
659,661,16,0.144966568938933,1
659,662,16,0.135088583040796,1
659,663,16,0.137047336347713,1
659,665,16,0.124701026452888,1
659,666,16,0.0804553139645209,1
659,682,16,0.0824591128128586,1
659,683,16,0.149157122939852,1
659,684,16,0.294071378947641,3
659,685,16,0.313472111726848,3
659,686,16,0.163980153887555,1
660,661,16,0.179216444400567,1
660,662,16,0.164700173465536,1
660,663,16,0.124836449199064,1
660,664,16,0.107332878874642,1
660,665,16,0.0871145713846683,1
660,682,16,0.0777960906704375,1
660,683,16,0.161247440801718,3
660,684,16,0.335297068407648,3
660,685,16,0.332297391135431,3
660,686,16,0.161230397887676,3
661,660,16,0.128682773656586,1
661,661,16,0.155399656231507,1
661,662,16,0.148971380056962,1
661,663,16,0.111743448187785,1
661,664,16,0.0830414890898055,1
661,683,16,0.135470070633504,1
661,684,16,0.272371196301761,3
661,685,16,0.268681965215423,3
661,686,16,0.141026844336427,1
662,662,16,0.127937898792286,1
662,663,16,0.0959087088102775,1
662,664,16,0.0742249968346099,1
662,674,16,0.0803870552277704,1
662,683,16,0.0968820831235717,1
662,684,16,0.178203336461397,1
662,685,16,0.192666065278152,1
662,686,16,0.122843037820233,1
663,663,16,0.0995571861839139,1
663,664,16,0.0728443839562955,1
663,672,16,0.0739471040351016,1
663,673,16,0.102803637387409,1
663,674,16,0.145492896420831,1
663,675,16,0.123517763055129,1
663,683,16,0.0826747367756975,1
663,684,16,0.148986743559766,1
663,685,16,0.175308093687999,1
663,686,16,0.120682593443708,1
664,663,16,0.1220117043774,1
664,664,16,0.0753678361818724,1
664,672,16,0.0741063122204367,1
664,673,16,0.108637507724512,1
664,674,16,0.164688940070369,1
664,675,16,0.146835878047338,1
664,676,16,0.0790238149257039,1
664,683,16,0.0742075496178626,1
664,684,16,0.134547004016842,1
664,685,16,0.162755116690269,1
664,686,16,0.110412371720942,1
665,664,16,0.0811265746362341,1
665,673,16,0.0754259686908637,1
665,674,16,0.103362439706611,1
665,675,16,0.101122839080416,1
665,684,16,0.112708413004808,1
665,685,16,0.145870602228234,1
665,686,16,0.104946721627769,1
666,664,16,0.0870349237517094,1
666,675,16,0.0718326008859907,1
666,684,16,0.10325508178823,1
666,685,16,0.163295986629478,1
666,686,16,0.13326680749046,1
667,664,16,0.0975097661836871,1
667,684,16,0.106516473531699,1
667,685,16,0.193796284160965,1
667,686,16,0.166541081863899,1
667,687,16,0.090760548301573,1
668,664,16,0.111671444985979,1
668,684,16,0.102961477163587,1
668,685,16,0.181032472632445,1
668,686,16,0.163734524443936,1
668,687,16,0.100279158854964,1
669,665,16,0.0730900382800814,1
669,684,16,0.0835763193686003,1
669,685,16,0.129616389463837,1
669,686,16,0.142988160300492,1
669,687,16,0.115774955724452,1
670,665,16,0.0780437851678751,1
670,684,16,0.0738161721589764,1
670,685,16,0.112500800455577,1
670,686,16,0.152859142431764,1
671,665,16,0.0979086201326019,1
671,684,16,0.0742781719704291,1
671,685,16,0.110884087237407,1
671,686,16,0.14988909743783,1
672,665,16,0.150474266513465,1
672,666,16,0.0939222700981045,1
672,684,16,0.0812855340199043,1
673,665,16,0.19544743152955,1
673,666,16,0.138889899277147,1
673,667,16,0.10782743438394,1
673,668,16,0.0883772273936791,1
674,663,16,0.133875575404005,1
674,664,16,0.151632587544322,1
674,665,16,0.170127756903988,1
674,666,16,0.190573593516463,1
674,668,16,0.161352024581536,1
674,669,16,0.100048333110403,1
674,670,16,0.0746890990201306,1
674,671,16,0.0733018617974897,1
674,672,16,0.0735506323621277,1
674,679,16,0.0766065201504753,1
675,664,16,0.0982153614851491,1
675,665,16,0.132732269553621,1
675,669,16,0.149945326614085,1
675,670,16,0.0904173761652508,1
675,671,16,0.0881341917074158,1
675,672,16,0.0941365318718283,1
675,673,16,0.0844870516427279,1
675,675,16,0.0717554412696803,1
675,676,16,0.0779613944965613,1
675,677,16,0.0769366550795596,1
675,678,16,0.0857936211455841,1
676,665,16,0.104114050875987,1
676,670,16,0.128081109030571,1
676,671,16,0.107751077152999,1
676,672,16,0.10280076372818,1
676,673,16,0.0902068650766245,1
676,674,16,0.0763435119105665,1
676,675,16,0.0805231435183996,1
676,676,16,0.0916402052477613,1
677,666,16,0.108374549244937,1
677,672,16,0.10697969247131,1
677,673,16,0.0936286468133364,1
678,666,16,0.0791485889606243,1
678,667,16,0.105746842901747,1
647,670,17,0.114801158448328,1
647,671,17,0.0752768058727468,1
648,670,17,0.107460116046044,1
648,671,17,0.0756728483628489,1
649,670,17,0.120850484807147,1
649,671,17,0.0806212273547236,1
650,671,17,0.0839858655690619,1
651,664,17,0.117094375833298,1
651,671,17,0.079105166850067,1
652,663,17,0.100917988229665,1
652,664,17,0.119059635303751,1
652,670,17,0.101809121152644,1
653,663,17,0.104898317263873,1
653,664,17,0.133793445974439,1
653,669,17,0.125640115896766,1
653,670,17,0.0768147484838266,1
653,680,17,0.104811112280344,1
654,662,17,0.106231695146116,1
654,668,17,0.102169553904465,1
654,669,17,0.0747265063504402,1
654,680,17,0.078375618168322,1
654,681,17,0.0922616309460059,1
654,682,17,0.0775642199588842,1
655,667,17,0.0980698373913806,1
656,661,17,0.0850180317157593,1
656,667,17,0.0813427210825692,1
656,683,17,0.0716801476658562,1
656,684,17,0.0846223126678215,1
657,661,17,0.0746075604945189,1
657,662,17,0.103385335679819,1
657,666,17,0.10103817809391,1
657,683,17,0.083414834648032,1
657,684,17,0.112710913461539,1
657,685,17,0.126121037074831,1
658,661,17,0.0913541393135629,1
658,662,17,0.101721138663913,1
658,663,17,0.126255190932516,1
658,665,17,0.116116348928871,1
658,666,17,0.0827199067179503,1
658,683,17,0.108400723180078,1
658,684,17,0.178986713383331,1
658,685,17,0.190067356769001,1
659,660,17,0.101964721713839,1
659,661,17,0.141852791223217,1
659,662,17,0.135538889174001,1
659,663,17,0.122869435676873,1
659,664,17,0.119962598745894,1
659,665,17,0.100866001121795,1
659,666,17,0.0717458437454589,1
659,682,17,0.0732178165951047,1
659,683,17,0.133921889833916,1
659,684,17,0.263644627188282,1
659,685,17,0.275665952348486,1
659,686,17,0.140695452958936,1
660,660,17,0.116886489602236,1
660,661,17,0.160265258909488,1
660,662,17,0.153126392740058,1
660,663,17,0.116864358694148,1
660,664,17,0.0898688742349726,1
660,665,17,0.0726223409105036,1
660,683,17,0.128470993679469,1
660,684,17,0.265968136175947,3
660,685,17,0.282548776724622,3
660,686,17,0.14433007207984,1
661,660,17,0.110573520559263,1
661,661,17,0.125790914585829,1
661,662,17,0.119711147343317,1
661,663,17,0.09665704823776,1
661,664,17,0.0743425307410832,1
661,683,17,0.0991826712578627,1
661,684,17,0.188318629387464,1
661,685,17,0.211645128995777,1
661,686,17,0.129107950821641,1
662,659,17,0.0950289958837146,1
662,660,17,0.130624073526714,1
662,661,17,0.127224596859255,1
662,662,17,0.100888374611507,1
662,663,17,0.0810946907028841,1
662,673,17,0.0802175528735524,1
662,674,17,0.0878410287057276,1
662,683,17,0.0754580392254624,1
662,684,17,0.125137611174277,1
662,685,17,0.155970929734161,1
662,686,17,0.121886271018068,1
663,659,17,0.131047683241281,1
663,662,17,0.137715393697991,1
663,663,17,0.0880351126644325,1
663,671,17,0.0748580229104779,1
663,672,17,0.0854698928593695,1
663,673,17,0.111065799533327,1
663,674,17,0.148264609167633,1
663,675,17,0.12377095606936,1
663,684,17,0.108711352058639,1
663,685,17,0.140775654175599,1
663,686,17,0.116966653498649,1
664,663,17,0.106240365884136,1
664,671,17,0.073495970636361,1
664,672,17,0.07897971483061,1
664,673,17,0.0977528267501169,1
664,674,17,0.139665140384641,1
664,675,17,0.127574747882277,1
664,684,17,0.0975189718452864,1
664,685,17,0.123306866323923,1
664,686,17,0.100960869196601,1
665,664,17,0.0750936505271704,1
665,670,17,0.0853537460221778,1
665,671,17,0.0801463769372815,1
665,674,17,0.0764534635863036,1
665,675,17,0.0774633993042469,1
665,684,17,0.0810987710501876,1
665,685,17,0.107392230511791,1
665,686,17,0.0944631524773967,1
666,664,17,0.0798292605553103,1
666,670,17,0.0931370022835172,1
666,671,17,0.0927949559747284,1
666,684,17,0.0784539098322074,1
666,685,17,0.127623749370168,1
666,686,17,0.121888746594633,1
667,664,17,0.0896177400545186,1
667,670,17,0.0861935325015745,1
667,671,17,0.0967331877672446,1
667,672,17,0.084115634297404,1
667,684,17,0.0826790845847907,1
667,685,17,0.149088453680355,1
667,686,17,0.144008495928026,1
668,664,17,0.101243893530447,1
668,671,17,0.0775019138019651,1
668,672,17,0.0800373147274962,1
668,684,17,0.0770452134659736,1
668,685,17,0.128082340598812,1
668,686,17,0.130476297777879,1
668,687,17,0.100937127297733,1
669,664,17,0.107345169676885,1
669,685,17,0.0991577724312532,1
669,686,17,0.125064961088141,1
669,687,17,0.11859330634333,1
670,664,17,0.116886091519572,1
670,665,17,0.0752462903485535,1
670,685,17,0.0925194267910362,1
670,686,17,0.133183160370738,1
670,687,17,0.125320132075608,1
671,664,17,0.141739972108292,1
671,665,17,0.0923096994276541,1
671,685,17,0.0894298014969355,1
671,686,17,0.120820168324285,1
671,687,17,0.119519408340303,1
672,665,17,0.12366659621104,1
672,666,17,0.0876381993685034,1
673,666,17,0.123373221727937,1
673,667,17,0.107159799996492,1
673,668,17,0.0867889211055928,1
674,666,17,0.164233645463783,1
674,667,17,0.18541457903513,1
674,668,17,0.144601626656936,1
674,669,17,0.0922697978606544,1
674,670,17,0.0713699790703758,1
675,668,17,0.224023608945867,1
675,669,17,0.132438907510601,1
675,670,17,0.0931821349055203,1
675,671,17,0.0942433610866717,1
675,672,17,0.0876936012792231,1
676,669,17,0.173706072208138,1
676,670,17,0.13913638708651,1
676,671,17,0.137232332825609,1
676,672,17,0.115057287322204,1
676,673,17,0.0824472636335703,1
677,672,17,0.141541154697914,1
647,670,18,0.107585910167791,1
648,670,18,0.100844038154831,1
649,671,18,0.0746995735702206,1
650,671,18,0.0838375051363142,1
651,664,18,0.087319378695128,1
651,671,18,0.0901203256375494,1
652,663,18,0.0725232307673122,1
652,664,18,0.0876080570468073,1
652,670,18,0.124120136765888,1
652,671,18,0.0780752336983116,1
653,663,18,0.0817913104842867,1
653,664,18,0.107086913548775,1
653,669,18,0.115789821623927,1
653,670,18,0.0794578618701112,1
653,680,18,0.0826399232027439,1
654,662,18,0.0829984464017871,1
654,663,18,0.112833746843474,1
654,668,18,0.0860304616703927,1
655,662,18,0.091749310997838,1
655,667,18,0.0874421809768544,1
656,661,18,0.0722032780463617,1
656,662,18,0.0886406896966263,1
656,667,18,0.0753709151024749,1
656,684,18,0.081448063707465,1
657,662,18,0.0792455158692067,1
657,663,18,0.127002902135794,1
657,666,18,0.106496146435681,1
657,683,18,0.0800850162266888,1
657,684,18,0.112168948795005,1
657,685,18,0.117395214366346,1
658,661,18,0.0822045762696378,1
658,662,18,0.0884773514036548,1
658,663,18,0.102716320443131,1
658,664,18,0.115399650853115,1
658,665,18,0.107040014434952,1
658,666,18,0.0796829465162559,1
658,683,18,0.0984297974200383,1
658,684,18,0.161501728543274,1
658,685,18,0.165152756133975,1
658,686,18,0.0976540338290482,1
659,660,18,0.0864417868027579,1
659,661,18,0.117832918695227,1
659,662,18,0.121149693689291,1
659,663,18,0.106976557570333,1
659,664,18,0.093945016790313,1
659,665,18,0.0828976692874412,1
659,683,18,0.109892662363328,1
659,684,18,0.208976046935724,1
659,685,18,0.224854880188284,1
659,686,18,0.119966430291532,1
660,660,18,0.0953756325832198,1
660,661,18,0.123551189558801,1
660,662,18,0.124776189435838,1
660,663,18,0.102232513165754,1
660,664,18,0.0769489272216781,1
660,683,18,0.0962436456114933,1
660,684,18,0.185323691786962,1
660,685,18,0.215396709779326,1
660,686,18,0.12611930790326,1
661,660,18,0.0925998581492393,1
661,661,18,0.100028839499963,1
661,662,18,0.0966801556923826,1
661,663,18,0.085537940114705,1
661,683,18,0.0729839679103158,1
661,684,18,0.12138392801666,1
661,685,18,0.156732598710837,1
661,686,18,0.123047391067655,1
662,660,18,0.109416095214399,1
662,661,18,0.107352671047081,1
662,662,18,0.088213982401332,1
662,663,18,0.0748518899494394,1
662,671,18,0.0748030999429631,1
662,672,18,0.0833900851024214,1
662,673,18,0.0908181521070265,1
662,674,18,0.0895136787581967,1
662,684,18,0.0882701929174623,1
662,685,18,0.1273916671772,1
662,686,18,0.129293370262368,1
662,687,18,0.101567068232957,1
663,659,18,0.108895191608793,1
663,660,18,0.175646700313771,1
663,661,18,0.177663561249513,1
663,662,18,0.118573265369226,1
663,663,18,0.0807861455382668,1
663,671,18,0.0820910356298852,1
663,672,18,0.101634512144255,1
663,673,18,0.116669833112488,1
663,674,18,0.130953350090055,1
663,675,18,0.102269342032193,1
663,684,18,0.0782452336558594,1
663,685,18,0.111114552219554,1
663,686,18,0.115082316769687,1
664,659,18,0.147279615816591,1
664,662,18,0.171033034201614,1
664,663,18,0.0947460586304516,1
664,670,18,0.0799740631242507,1
664,671,18,0.0777705760597076,1
664,672,18,0.0790644442375733,1
664,673,18,0.0826112923511617,1
664,674,18,0.101241728955963,1
664,675,18,0.090293298774992,1
664,685,18,0.0894257024895071,1
664,686,18,0.0905515735632271,1
665,663,18,0.1191258165466,1
665,664,18,0.0717687086184582,1
665,669,18,0.0754209366771922,1
665,670,18,0.111442721615486,1
665,671,18,0.0930855127789773,1
665,685,18,0.0786893819478594,1
665,686,18,0.0831004675244573,1
665,687,18,0.0717552235682236,1
666,664,18,0.0761566120999341,1
666,669,18,0.0762557284631671,1
666,670,18,0.120817642987387,1
666,671,18,0.115035143974032,1
666,672,18,0.077108023446264,1
666,685,18,0.0909990557975361,1
666,686,18,0.0994742170487294,1
666,687,18,0.0761749239024667,1
667,664,18,0.0845773666470671,1
667,670,18,0.100625011829225,1
667,671,18,0.118762068512595,1
667,672,18,0.10098177475649,1
667,685,18,0.100442789489892,1
667,686,18,0.111352443931396,1
667,687,18,0.0863274499976779,1
668,664,18,0.0936971854519598,1
668,671,18,0.0826213812586712,1
668,672,18,0.0862842269284525,1
668,685,18,0.088270870901999,1
668,686,18,0.108126717906583,1
668,687,18,0.104001573863351,1
669,664,18,0.0992847794611155,1
669,685,18,0.0791640706442193,1
669,686,18,0.113841343825768,1
669,687,18,0.119800641302162,1
670,665,18,0.0739213841629982,1
670,685,18,0.0770614539946464,1
670,686,18,0.112569917558071,1
670,687,18,0.110461609570415,1
671,665,18,0.090025302061703,1
671,685,18,0.0730049045704126,1
671,686,18,0.0948335061956034,1
671,687,18,0.0944759346629282,1
672,666,18,0.0820279955080549,1
673,667,18,0.104756606055618,1
673,668,18,0.0824109696907109,1
674,667,18,0.162681446517308,1
674,668,18,0.125930542080141,1
674,669,18,0.0834159355953989,1
675,668,18,0.163485374456759,1
675,669,18,0.110471897519256,1
675,670,18,0.0872334426000902,1
675,671,18,0.089682092605131,1
675,672,18,0.0795857770260502,1
676,669,18,0.134572045904409,1
676,670,18,0.13069246910438,1
676,671,18,0.146089709414381,1
676,672,18,0.121726888671567,1
676,673,18,0.0794726531290863,1
677,669,18,0.137273210939144,1
677,672,18,0.162562904964092,1
649,671,19,0.0735855641158721,1
650,665,19,0.0962557435924465,1
650,671,19,0.0886866371440817,1
651,671,19,0.106987679004751,1
652,664,19,0.0727844040949428,1
652,670,19,0.148878166513227,1
652,671,19,0.0932921861019233,1
653,663,19,0.071997108546787,1
653,664,19,0.0900853876637634,1
653,665,19,0.131524760433623,1
653,669,19,0.108589887085861,1
653,670,19,0.0836367719531163,1
654,662,19,0.0729061178693855,1
654,663,19,0.0947411074773212,1
654,664,19,0.142692820284237,1
654,666,19,0.151781818782897,1
654,667,19,0.112563125272621,1
654,668,19,0.0766670224953242,1
655,662,19,0.0767739387907502,1
655,663,19,0.114213078393214,1
655,667,19,0.0780460554830668,1
656,684,19,0.082858103602689,1
656,685,19,0.0930835596859082,1
657,663,19,0.0975818502460347,1
657,666,19,0.10559295907204,1
657,683,19,0.0784155010751968,1
657,684,19,0.112454784587664,1
657,685,19,0.11572522027165,1
657,686,19,0.0791194978259621,1
658,661,19,0.0716683855671506,1
658,662,19,0.0779886009586122,1
658,663,19,0.0870109641513848,1
658,664,19,0.0964489069849914,1
658,665,19,0.0971972899527653,1
658,666,19,0.0775133337983815,1
658,683,19,0.0871537141065902,1
658,684,19,0.143210439707866,1
658,685,19,0.152758240916585,1
658,686,19,0.0898979964698429,1
659,661,19,0.0904542672321058,1
659,662,19,0.0998819283369127,1
659,663,19,0.0915864329879465,1
659,664,19,0.0781945838569383,1
659,665,19,0.0717898692000534,1
659,683,19,0.0866767239948305,1
659,684,19,0.155429885633786,1
659,685,19,0.181215988740436,1
659,686,19,0.109139726325087,1
660,660,19,0.0756528073887455,1
660,661,19,0.0900233178684259,1
660,662,19,0.0951879614874264,1
660,663,19,0.0857288331920581,1
660,683,19,0.0741676045105715,1
660,684,19,0.125532272815139,1
660,685,19,0.160679837123621,1
660,686,19,0.120191633118468,1
660,687,19,0.0856255929412302,1
661,660,19,0.0757037246494563,1
661,661,19,0.078518934147315,1
661,662,19,0.0783652182587314,1
661,663,19,0.0751408482029917,1
661,684,19,0.0853943504538806,1
661,685,19,0.122714183438009,1
661,686,19,0.133000104545828,1
661,687,19,0.114388371606182,1
662,660,19,0.0888263952592674,1
662,661,19,0.0897829754601845,1
662,662,19,0.0813245772211603,1
662,663,19,0.0725915952447703,1
662,671,19,0.0720837786067361,1
662,672,19,0.0924938313197651,1
662,673,19,0.0933368024604719,1
662,674,19,0.0813276934620125,1
662,685,19,0.109456836487017,1
662,686,19,0.14424758188786,1
662,687,19,0.129770969938206,1
663,660,19,0.131697652710525,1
663,661,19,0.138883069671447,1
663,662,19,0.107494288954711,1
663,663,19,0.0786997445372003,1
663,671,19,0.07323418152461,1
663,672,19,0.0966160830436431,1
663,673,19,0.103104363959708,1
663,674,19,0.0959765383641562,1
663,675,19,0.072711847309432,1
663,685,19,0.0923427527288289,1
663,686,19,0.118600757953192,1
663,687,19,0.109224493052301,1
664,659,19,0.114070925562005,1
664,660,19,0.195607274159131,1
664,662,19,0.146194815677695,1
664,663,19,0.0900035381360706,1
664,670,19,0.0782530584682188,1
664,685,19,0.0745302951375009,1
664,686,19,0.0899103308123776,1
664,687,19,0.085517942680893,1
665,659,19,0.13953955774431,1
665,663,19,0.115165727527827,1
665,669,19,0.078287337117593,1
665,670,19,0.120500209383293,1
665,671,19,0.0923363958462921,1
665,686,19,0.0805397634696113,1
665,687,19,0.0756673498460558,1
666,664,19,0.0734925682735943,1
666,669,19,0.077722824800182,1
666,670,19,0.12951165640302,1
666,671,19,0.119769205211809,1
666,672,19,0.0714747245712761,1
666,685,19,0.0721950924715883,1
666,686,19,0.0864659081241648,1
666,687,19,0.0783900735450495,1
667,664,19,0.0826328323552958,1
667,670,19,0.0966451555181804,1
667,671,19,0.114490081726771,1
667,672,19,0.0922486434991009,1
667,685,19,0.074548911722073,1
667,686,19,0.0962797342929793,1
667,687,19,0.0924122057135707,1
668,664,19,0.0949726547467102,1
668,671,19,0.0719259885908907,1
668,672,19,0.0725062127334367,1
668,685,19,0.0727108334426478,1
668,686,19,0.106452966906747,1
668,687,19,0.115700464505997,1
668,688,19,0.0894159867844949,1
669,664,19,0.104070690965846,1
669,685,19,0.0714405827628175,1
669,686,19,0.110657926524062,1
669,687,19,0.122451187638184,1
669,688,19,0.0924736846049542,1
670,665,19,0.072227523768601,1
670,686,19,0.0998800747645096,1
670,687,19,0.101875314835577,1
670,688,19,0.0817595944920605,1
671,665,19,0.0859602063002818,1
672,666,19,0.0808206481091393,1
673,667,19,0.109278794015653,1
673,668,19,0.0839252574835054,1
674,668,19,0.11661896561211,1
674,669,19,0.0797769811054845,1
675,669,19,0.0978802380826846,1
675,670,19,0.0879185739646185,1
675,671,19,0.087908534817442,1
675,672,19,0.0745580614032978,1
676,669,19,0.109393665744313,1
676,670,19,0.126468538360121,1
676,671,19,0.145868363013251,1
676,672,19,0.120163195088176,1
676,673,19,0.075224806324794,1
677,671,19,0.180869420461388,1
649,671,20,0.0767768435501873,1
650,665,20,0.0802965225219745,1
650,671,20,0.0954485314710198,1
651,665,20,0.0855783081848262,1
651,671,20,0.120224014655147,1
651,672,20,0.0718187488533004,1
652,665,20,0.0950786940162676,1
652,670,20,0.156292816888055,1
652,671,20,0.101936967888125,1
653,664,20,0.0775468909229277,1
653,665,20,0.105719263237199,1
653,666,20,0.150409117797525,1
653,669,20,0.0976710145426739,1
653,670,20,0.0814805385447691,1
654,663,20,0.0807453358451904,1
654,664,20,0.111096700700101,1
654,666,20,0.122241310993803,1
654,667,20,0.095958301202123,1
655,663,20,0.0910351693591885,1
655,667,20,0.0716990441523013,1
656,663,20,0.0914963916654386,1
657,663,20,0.0819875030371011,1
657,664,20,0.13380023825989,1
657,666,20,0.10726254264399,1
657,683,20,0.0741570926402318,1
657,684,20,0.106085387327104,1
657,685,20,0.113476749866102,1
657,686,20,0.0784905645374809,1
658,663,20,0.0753194629181847,1
658,664,20,0.0848315175477074,1
658,665,20,0.0928795672009009,1
658,666,20,0.0769684457122853,1
658,683,20,0.0742641706567399,1
658,684,20,0.118663791854981,1
658,685,20,0.139077047889444,1
658,686,20,0.0912568392024832,1
659,661,20,0.0717705870710278,1
659,662,20,0.0793719133349901,1
659,663,20,0.0772604828864401,1
659,684,20,0.109090301874366,1
659,685,20,0.139850995228281,1
659,686,20,0.103885843768948,1
659,687,20,0.0727106903816905,1
660,662,20,0.0753907010548718,1
660,663,20,0.0734340003616895,1
660,684,20,0.0869595990476773,1
660,685,20,0.118568202255347,1
660,686,20,0.119438187036814,1
660,687,20,0.106703124540667,1
661,672,20,0.0747090031533183,1
661,685,20,0.100986023044917,1
661,686,20,0.145375797917271,1
661,687,20,0.153104087670805,1
662,660,20,0.0745575202596767,1
662,661,20,0.0780259460885056,1
662,662,20,0.0785906636672901,1
662,663,20,0.0738925045097512,1
662,672,20,0.102028085277834,1
662,673,20,0.0927866397790809,1
662,685,20,0.0945565899426297,1
662,686,20,0.153877612046811,1
662,687,20,0.162757554946584,1
663,660,20,0.0965431468355935,1
663,661,20,0.106355324693378,1
663,662,20,0.0990195568863896,1
663,663,20,0.0796632041041504,1
663,672,20,0.0816157062692384,1
663,673,20,0.0799320778433079,1
663,685,20,0.0797888613849809,1
663,686,20,0.121650730481958,1
663,687,20,0.125366483825768,1
663,688,20,0.0960610873899125,1
664,660,20,0.128041773487359,1
664,661,20,0.148406139994681,1
664,662,20,0.124936392827832,1
664,663,20,0.0868269131198148,1
664,686,20,0.0893494696593983,1
664,687,20,0.0897883993364782,1
664,688,20,0.0759934541881696,1
665,659,20,0.106668765030752,1
665,663,20,0.106706881445806,1
665,669,20,0.0713749862038809,1
665,670,20,0.105817166692316,1
665,671,20,0.0801788393345023,1
665,686,20,0.0761599149420349,1
665,687,20,0.0759488378296211,1
666,664,20,0.073072180540587,1
666,670,20,0.111916166303522,1
666,671,20,0.103658532347903,1
666,686,20,0.0752640921076732,1
666,687,20,0.0773375056618348,1
667,664,20,0.0812170451416138,1
667,670,20,0.0807681820580649,1
667,671,20,0.09227542077828,1
667,686,20,0.0860198253992205,1
667,687,20,0.0950827619234879,1
667,688,20,0.0765298705775778,1
668,664,20,0.0946913533643936,1
668,686,20,0.0991970706542157,1
668,687,20,0.116052867184085,1
668,688,20,0.0882767239611645,1
669,664,20,0.107174877377382,1
669,686,20,0.0977291159514571,1
669,687,20,0.112367766205384,1
669,688,20,0.0889193413412123,1
670,665,20,0.0728891869160927,1
670,686,20,0.0850301670169621,1
670,688,20,0.0787909925477826,1
672,666,20,0.0847543268311889,1
672,667,20,0.0765803586554167,1
673,667,20,0.115022529729625,1
673,668,20,0.0881858180528714,1
674,668,20,0.109615721230188,1
674,669,20,0.0779775044043601,1
675,669,20,0.0876347596854869,1
675,670,20,0.0863128328998682,1
675,671,20,0.0850959937174388,1
676,670,20,0.11504000804658,1
676,671,20,0.133418887508097,1
676,672,20,0.111772682383405,1
676,673,20,0.0742430473953945,1
649,671,21,0.0814720170877481,1
650,671,21,0.10416332604571,1
650,672,21,0.0721946881688829,1
651,665,21,0.0730169216908247,1
651,671,21,0.131201193868491,1
651,672,21,0.0904410247634944,1
651,673,21,0.0751459175369129,1
652,665,21,0.0767139962496472,1
652,666,21,0.115278335161336,1
652,670,21,0.149498118061607,1
652,671,21,0.108900839406586,1
652,672,21,0.0905042950268648,1
652,673,21,0.0831907141083386,1
652,674,21,0.0729944113601978,1
653,665,21,0.0828802158506523,1
653,666,21,0.105821732202866,1
653,667,21,0.118367630793231,1
653,668,21,0.104193194685574,1
653,669,21,0.0890170581950806,1
653,670,21,0.077373687643945,1
654,664,21,0.0859010723645895,1
654,665,21,0.111097596386095,1
654,666,21,0.0985906663564862,1
654,667,21,0.0833464390703658,1
655,664,21,0.120865450227287,1
655,666,21,0.119482623014156,1
656,667,21,0.0724820851919882,1
656,686,21,0.0783564977603785,1
657,664,21,0.106340471233987,1
657,666,21,0.108832443828919,1
657,684,21,0.0999458765848198,1
657,685,21,0.114048819534083,1
657,686,21,0.0839643628851776,1
658,664,21,0.0720105687168551,1
658,665,21,0.08337707277535,1
658,666,21,0.0746563318408704,1
658,684,21,0.095620640022677,1
658,685,21,0.122752934297309,1
658,686,21,0.0983500005060806,1
659,684,21,0.0801545749521382,1
659,685,21,0.109678394369563,1
659,686,21,0.108204269385516,1
659,687,21,0.0908037527106735,1
660,685,21,0.0959201910071101,1
660,686,21,0.130725870727886,1
660,687,21,0.142261783839974,1
661,672,21,0.081535903135239,1
661,685,21,0.0909266296328994,1
661,686,21,0.163752450603888,1
661,687,21,0.202582553233924,1
662,662,21,0.0722618583983497,1
662,672,21,0.0905203240741225,1
662,673,21,0.0781535937826549,1
662,685,21,0.0877467390947926,1
662,686,21,0.168840208288409,1
662,687,21,0.206685939571565,1
662,688,21,0.14149659431974,1
663,660,21,0.0744556670781303,1
663,661,21,0.0840699107714469,1
663,662,21,0.0887958361947827,1
663,663,21,0.0781240112647047,1
663,685,21,0.0765224873881735,1
663,686,21,0.132538477936872,1
663,687,21,0.151804596575314,1
663,688,21,0.109114012673026,1
664,660,21,0.0878103576804937,1
664,661,21,0.105096612190755,1
664,662,21,0.106837017156604,1
664,663,21,0.0848938548048346,1
664,686,21,0.0954621844623782,1
664,687,21,0.100249924659345,1
664,688,21,0.0819068539774413,1
665,660,21,0.12422423538246,1
665,662,21,0.157473318587334,1
665,663,21,0.10295477195872,1
665,670,21,0.0804430045021527,1
665,686,21,0.076286169346861,1
665,687,21,0.0788376677401077,1
666,663,21,0.135957473094938,1
666,664,21,0.0763181092605857,1
666,670,21,0.0856149131297667,1
666,671,21,0.0805020824574704,1
666,686,21,0.0731037348117311,1
666,687,21,0.0809911145698087,1
666,688,21,0.0716992245335083,1
667,664,21,0.0837598603567573,1
667,686,21,0.0824044635271751,1
667,687,21,0.098848847844097,1
667,688,21,0.0788974361200454,1
668,664,21,0.098061620716399,1
668,686,21,0.0913584311422815,1
668,687,21,0.11255959228898,1
668,688,21,0.0874715893336392,1
669,664,21,0.113156492363112,1
669,686,21,0.0861029873556953,1
669,687,21,0.101924863687131,1
669,688,21,0.0868524712708362,1
670,665,21,0.0787554263497928,1
671,666,21,0.0836800758828828,1
672,667,21,0.0921887444982892,1
673,668,21,0.0943375760571073,1
674,669,21,0.0783014752721978,1
675,670,21,0.0847055243846293,1
675,671,21,0.0831418183611547,1
676,671,21,0.115775975811278,1
648,671,22,0.0796574692257757,1
649,671,22,0.0968441719698908,1
650,672,22,0.094685599825894,1
650,673,22,0.0752299005388817,1
651,666,22,0.092494440883844,1
651,671,22,0.148603016752074,1
651,672,22,0.134310965877403,1
651,673,22,0.120654976458911,1
651,674,22,0.0941183693502946,1
652,666,22,0.0827700153732503,1
652,667,22,0.112586736550615,1
652,670,22,0.1430372986293,1
652,671,22,0.115251240660035,1
652,672,22,0.12507926718387,1
652,673,22,0.133402105835803,1
652,674,22,0.119350161007792,1
652,675,22,0.0895684026843796,1
653,666,22,0.079302727812038,1
653,667,22,0.0907285959477652,1
653,668,22,0.0907223137057278,1
653,669,22,0.084958748499068,1
653,670,22,0.0737985383409804,1
653,672,22,0.0783400581903738,1
653,673,22,0.0895869757286604,1
653,674,22,0.0923063717053868,1
653,675,22,0.080679652205671,1
654,665,22,0.0866461462702209,1
654,666,22,0.0846324451156224,1
654,667,22,0.0771986121324345,1
655,664,22,0.0893664752531905,1
655,665,22,0.132576868033758,1
655,666,22,0.114597999448898,1
655,667,22,0.0807451865641915,1
656,664,22,0.100069904214746,1
656,666,22,0.145095186959575,1
656,667,22,0.0913082665066069,1
656,683,22,0.0738338370771804,1
656,686,22,0.0743599406375808,1
657,664,22,0.0820962480247638,1
657,665,22,0.123571802776734,1
657,666,22,0.110141003745094,1
657,667,22,0.074010374298472,1
657,684,22,0.0910443190404133,1
657,685,22,0.109875631889369,1
657,686,22,0.087857965879062,1
658,665,22,0.0741630452200632,1
658,684,22,0.0771242390947703,1
658,685,22,0.103715221807238,1
658,686,22,0.103243468970524,1
658,687,22,0.0772854998938403,1
659,685,22,0.0904797383025445,1
659,686,22,0.117247152495597,1
659,687,22,0.116027912377101,1
660,685,22,0.0863567526137551,1
660,686,22,0.144691332097197,1
660,687,22,0.176874748011202,1
661,672,22,0.0767450404773784,1
661,685,22,0.0869366968544282,1
661,686,22,0.174491451983474,1
661,687,22,0.230687512737105,1
661,688,22,0.155350343741535,1
662,672,22,0.0721282892245771,1
662,685,22,0.0841358929729641,1
662,686,22,0.174176344674947,1
662,687,22,0.225757706789512,1
662,688,22,0.146988318827389,1
663,661,22,0.0741346320699378,1
663,662,22,0.0807287469941868,1
663,663,22,0.0770133855129981,1
663,685,22,0.0746611026127938,1
663,686,22,0.134739576505433,1
663,687,22,0.161393275897567,1
663,688,22,0.112104322562561,1
664,660,22,0.0717950256145573,1
664,661,22,0.0842238257013624,1
664,662,22,0.0928471172437633,1
664,663,22,0.0843424418950777,1
664,686,22,0.0937038595566193,1
664,687,22,0.101509999351083,1
664,688,22,0.0832038632763257,1
665,660,22,0.0936168784945891,1
665,661,22,0.11615697824074,1
665,662,22,0.123325800130617,1
665,663,22,0.0996307008558343,1
665,664,22,0.0738110779448886,1
665,686,22,0.0744139990193102,1
665,687,22,0.0802462521455924,1
665,688,22,0.0740269631494756,1
666,663,22,0.126310014379364,1
666,664,22,0.0800989740000867,1
666,686,22,0.0721183682581913,1
666,687,22,0.0846876853052598,1
666,688,22,0.0770736079559741,1
667,664,22,0.0907120941773442,1
667,686,22,0.0790673676571352,1
667,687,22,0.0992766498667167,1
667,688,22,0.0843518217178424,1
668,664,22,0.114014833226665,1
668,665,22,0.0764252930178014,1
668,686,22,0.0823880737175034,1
668,687,22,0.104069254136231,1
668,688,22,0.0881413323151969,1
669,665,22,0.0946974179049742,1
669,686,22,0.0760017703838171,1
669,688,22,0.0834100514360253,1
673,669,22,0.07315901854166,1
675,671,22,0.0771285993439468,1
648,671,23,0.0883376306087188,1
649,672,23,0.0748164108320323,1
650,666,23,0.0890718940820127,1
650,672,23,0.121100318998902,1
650,673,23,0.0932936540317459,1
651,666,23,0.076975281538027,1
651,667,23,0.111436128371367,1
651,671,23,0.165160792427749,1
651,672,23,0.174878525173559,1
651,673,23,0.16007814761744,1
651,674,23,0.125216083219369,1
651,675,23,0.0964460146656376,1
651,676,23,0.0782123482958083,1
652,667,23,0.08703461896967,1
652,668,23,0.123087062493114,1
652,670,23,0.137984970301852,1
652,671,23,0.114360406299053,1
652,672,23,0.141562253079093,1
652,673,23,0.163973436242604,1
652,674,23,0.163582618587464,1
652,675,23,0.140177933055972,1
652,676,23,0.109544738115207,1
652,677,23,0.0835847102047473,1
653,667,23,0.0795225565230128,1
653,668,23,0.0883295258944865,1
653,669,23,0.0859819329056645,1
653,670,23,0.0728811133020685,1
653,672,23,0.0757164321944883,1
653,673,23,0.095844045257584,1
653,674,23,0.114923133464519,1
653,675,23,0.116971816133195,1
653,676,23,0.0989263246825301,1
653,677,23,0.0761483954249525,1
654,666,23,0.076992125410737,1
654,667,23,0.0780642739849752,1
655,665,23,0.0949741724368658,1
655,666,23,0.111520870218414,1
655,667,23,0.094298800317641,1
655,682,23,0.0718724153724077,1
656,664,23,0.0723874907990138,1
656,665,23,0.118097183383543,1
656,666,23,0.146190150646479,1
656,667,23,0.112236983610257,1
656,683,23,0.0782151473145379,1
657,665,23,0.0928471918842628,1
657,666,23,0.105638166334543,1
657,667,23,0.0804280266419289,1
657,684,23,0.0820872414044963,1
657,686,23,0.085359636401593,1
658,685,23,0.0871276148119479,1
658,686,23,0.104190296146179,1
658,687,23,0.0919089545860865,1
659,685,23,0.0820121592820874,1
659,686,23,0.132973632048688,1
659,687,23,0.15120600464986,1
660,685,23,0.0877355554599577,1
660,686,23,0.169281346080265,1
660,687,23,0.216464690925678,1
661,685,23,0.0915274732134195,1
661,686,23,0.1909056939787,1
661,687,23,0.248943807618352,1
661,688,23,0.161352907827446,1
662,685,23,0.0882427189936217,1
662,686,23,0.180535939149912,1
662,687,23,0.228010406823361,1
662,688,23,0.143372757914012,1
663,662,23,0.0731595534652394,1
663,663,23,0.0751901171526728,1
663,685,23,0.0769444674518358,1
663,686,23,0.133989937089252,1
663,687,23,0.157309768812947,1
663,688,23,0.108411048449169,1
664,661,23,0.0726581559101582,1
664,662,23,0.0834574979135115,1
664,663,23,0.0860124733100243,1
664,664,23,0.0751478892901068,1
664,686,23,0.0939489291964928,1
664,687,23,0.102132407815904,1
664,688,23,0.0853535532008875,1
665,662,23,0.0989896944665664,1
665,663,23,0.0969110933976928,1
665,664,23,0.0784250177388772,1
665,686,23,0.0795224943225966,1
665,687,23,0.0872688408569561,1
665,688,23,0.0793949523691549,1
666,663,23,0.115819814664624,1
666,664,23,0.0851890082198415,1
666,686,23,0.0770038626292762,1
666,687,23,0.0900349058059661,1
666,688,23,0.0818887536563237,1
667,664,23,0.102528437865922,1
667,665,23,0.0730540802194695,1
667,686,23,0.0793014527035057,1
667,687,23,0.0969630431853127,1
667,688,23,0.0874530784897747,1
668,665,23,0.0946200716874152,1
668,686,23,0.0786617214227701,1
668,688,23,0.0861481697380314,1
649,672,24,0.0848740626323961,1
650,667,24,0.112146606405502,1
650,672,24,0.140461143991067,1
650,673,24,0.104039677838323,1
650,674,24,0.081725353162936,1
650,675,24,0.0722995394104907,1
651,667,24,0.0873627012850193,1
651,672,24,0.18973815484616,1
651,673,24,0.17416545960211,1
651,674,24,0.149969970418988,1
651,675,24,0.132988050105166,1
651,676,24,0.104565296235477,1
651,677,24,0.0768779814269473,1
652,667,24,0.075115887175966,1
652,668,24,0.103027770367185,1
652,671,24,0.112957525671735,1
652,672,24,0.136355443797943,1
652,673,24,0.16391475636995,1
652,674,24,0.187456991901852,1
652,675,24,0.191454077728187,1
652,676,24,0.15026540995591,1
652,677,24,0.0989031239272832,1
653,667,24,0.0767662321591816,1
653,668,24,0.0939892350661978,1
653,669,24,0.0946369653204582,1
653,670,24,0.0788292333636694,1
653,673,24,0.0927644964309096,1
653,674,24,0.123089973472593,1
653,675,24,0.144268095585127,1
653,676,24,0.123316358107436,1
653,677,24,0.0857214375625706,1
654,666,24,0.0751691991527009,1
654,667,24,0.0831327557605127,1
654,668,24,0.0817263981299284,1
654,675,24,0.0762195838013066,1
654,676,24,0.0721447847749564,1
654,680,24,0.0730653820350951,1
655,665,24,0.0785337005261236,1
655,666,24,0.106792581179262,1
655,667,24,0.105719499598781,1
655,668,24,0.0768271885670689,1
655,681,24,0.0919646612788455,1
655,682,24,0.0914928338016314,1
656,665,24,0.0918849949857618,1
656,666,24,0.13315657591285,1
656,667,24,0.120628093439024,1
656,668,24,0.072470777156321,1
656,682,24,0.0779499496199784,1
656,683,24,0.0821799324647348,1
657,665,24,0.0770776074427365,1
657,666,24,0.0965341650954925,1
657,667,24,0.0845262316848996,1
657,684,24,0.0748280049896142,1
657,685,24,0.0839093963773715,1
657,686,24,0.0760369260590598,1
658,685,24,0.075208634216579,1
658,686,24,0.0962057717780622,1
658,687,24,0.100275370849617,1
659,685,24,0.0773509471717781,1
659,686,24,0.138116884944554,1
659,687,24,0.174041942015597,1
660,685,24,0.0898633508380131,1
660,686,24,0.187253808022255,1
660,687,24,0.244359388141898,1
660,688,24,0.17219603270377,1
661,685,24,0.0975052255533037,1
661,686,24,0.205629490382379,1
661,687,24,0.25776713569929,1
661,688,24,0.165678287450546,1
662,685,24,0.092817323244398,1
662,686,24,0.179884476870679,1
662,687,24,0.212545741262187,1
662,688,24,0.133029052619533,1
663,663,24,0.0751377133020146,1
663,664,24,0.0748761418917203,1
663,685,24,0.0780220523424508,1
663,686,24,0.125459933731085,1
663,687,24,0.139005728892216,1
663,688,24,0.099291322944901,1
664,662,24,0.077688427970017,1
664,663,24,0.08692005202305,1
664,664,24,0.0815581024637849,1
664,686,24,0.0903793654909039,1
664,687,24,0.0968917552882926,1
664,688,24,0.0844835746394617,1
665,661,24,0.0734980543503041,1
665,663,24,0.0930207061653265,1
665,664,24,0.0830600434739614,1
665,686,24,0.0829989004648255,1
665,687,24,0.0904006380332482,1
665,688,24,0.0835671821274589,1
666,664,24,0.0938774298180576,1
666,665,24,0.0754370403649494,1
666,686,24,0.0828585265655193,1
666,687,24,0.0925338013072226,1
667,665,24,0.100207846077778,1
667,685,24,0.0750734913722762,1
667,686,24,0.0851000802847839,1
667,687,24,0.0948502878678973,1
667,688,24,0.0898354912715919,1
668,666,24,0.0857779031004074,1
668,686,24,0.0834547237749484,1
669,667,24,0.0882935927140411,1
670,668,24,0.0841465914445525,1
671,669,24,0.081635199879679,1
672,670,24,0.074440633237532,1
648,671,25,0.1012890634727,1
649,672,25,0.0969154660869525,1
650,667,25,0.0852650855489098,1
650,673,25,0.109308998537766,1
650,674,25,0.0939351766844684,1
650,675,25,0.0890184390443205,1
650,676,25,0.0757626160035254,1
651,667,25,0.0732492153652083,1
651,668,25,0.0962224850298982,1
651,672,25,0.172774645855537,1
651,673,25,0.160432814390678,1
651,674,25,0.161271350641709,1
651,675,25,0.165317947999349,1
651,676,25,0.129816214520959,1
652,668,25,0.0920739536301708,1
652,669,25,0.120813873642165,1
652,671,25,0.113627536115082,1
652,672,25,0.119346155300988,1
652,673,25,0.142008802307159,1
652,674,25,0.182262436102695,1
652,675,25,0.213706226867529,1
652,676,25,0.171968963864349,1
652,677,25,0.107202146039849,1
653,667,25,0.0767778885171797,1
653,668,25,0.10563892517962,1
653,669,25,0.11190641327826,1
653,670,25,0.0924335964367059,1
653,673,25,0.0848846056029439,1
653,674,25,0.114175098819076,1
653,675,25,0.144321849184817,1
653,676,25,0.127863930057327,1
653,677,25,0.0881525532702814,1
654,667,25,0.0877684781402585,1
654,668,25,0.105082617097108,1
654,669,25,0.0908895208645876,1
654,675,25,0.0758621428895054,1
654,676,25,0.0738577717973386,1
654,680,25,0.078881861135826,1
655,666,25,0.0859122870996324,1
655,667,25,0.101076058147383,1
655,668,25,0.0929137712097756,1
655,680,25,0.0770287925560937,1
655,681,25,0.101577157140467,1
656,666,25,0.0983854423032379,1
656,667,25,0.105060809631184,1
656,668,25,0.0789682886141519,1
656,681,25,0.0753536855871843,1
656,682,25,0.0828761790436401,1
656,683,25,0.0801884928390983,1
657,666,25,0.0791408263486811,1
657,667,25,0.0798312012082961,1
658,686,25,0.0915324927870078,1
658,687,25,0.11238240818336,1
659,685,25,0.0750294534775985,1
659,686,25,0.138452879152845,1
659,687,25,0.190619758665376,1
660,685,25,0.0934239576836674,1
660,686,25,0.197320024819931,1
660,687,25,0.260488403908544,1
660,688,25,0.185404826009868,1
661,685,25,0.105117984253766,1
661,686,25,0.21070040419419,1
661,687,25,0.250089091441972,1
661,688,25,0.158738773615074,1
662,685,25,0.0983856911049027,1
662,686,25,0.16821324053308,1
662,687,25,0.180426230055798,1
663,663,25,0.0787340107464912,1
663,664,25,0.0782553163433273,1
663,685,25,0.0786709768447024,1
663,686,25,0.111023975973467,1
663,687,25,0.114919077997382,1
664,662,25,0.0733603923891448,1
664,663,25,0.0835962670420794,1
664,664,25,0.0822688417396675,1
664,686,25,0.0862051328791979,1
664,687,25,0.0914833357980759,1
665,663,25,0.0865083599082291,1
665,664,25,0.0858239065282375,1
665,665,25,0.0728977270332385,1
665,685,25,0.0716538120096323,1
665,686,25,0.088417881585715,1
665,687,25,0.0933749686358592,1
666,665,25,0.0978708022795453,1
666,685,25,0.0831403255511656,1
666,686,25,0.0976240470083926,1
666,687,25,0.0978016354167181,1
667,666,25,0.0959517390582126,1
667,684,25,0.0760981623688201,1
667,686,25,0.107301318383456,1
667,687,25,0.100081492152286,1
668,667,25,0.0835331584997912,1
669,668,25,0.0738361322725386,1
649,672,26,0.1030906736481,1
649,673,26,0.0780616553474527,1
650,668,26,0.0890974584530756,1
650,673,26,0.111074258789932,1
650,674,26,0.108687193416982,1
650,675,26,0.1090309626773,1
650,676,26,0.0897624742030012,1
651,668,26,0.0821061316708998,1
651,669,26,0.126142545978756,1
651,672,26,0.141009092337641,1
651,673,26,0.139869605592812,1
651,674,26,0.168785484362226,1
651,676,26,0.144905251768631,1
652,668,26,0.0871286535588986,1
652,669,26,0.120284087817124,1
652,670,26,0.14884042330067,1
652,671,26,0.127916302807777,1
652,672,26,0.107059296563977,1
652,673,26,0.122647902674494,1
652,674,26,0.167714816157894,1
652,675,26,0.205053539408426,1
652,676,26,0.166103999539181,1
652,677,26,0.103162938091655,1
653,667,26,0.0775118845286838,1
653,668,26,0.11471154008865,1
653,669,26,0.134529513259803,1
653,670,26,0.11650911967708,1
653,671,26,0.0851063687468629,1
653,672,26,0.0720956526661909,1
653,673,26,0.0811668805059392,1
653,674,26,0.103237267589027,1
653,675,26,0.128229718264984,1
653,676,26,0.117842746360988,1
653,677,26,0.085183385302216,1
654,667,26,0.0894388951977856,1
654,668,26,0.127978067821075,1
654,669,26,0.120682929325956,1
654,670,26,0.0822821153084871,1
654,675,26,0.0734973950258923,1
654,676,26,0.0738731228600596,1
654,680,26,0.0819460899999875,1
655,667,26,0.0906190236945669,1
655,668,26,0.107648011063336,1
655,669,26,0.087012438301249,1
655,680,26,0.0828987826748914,1
655,681,26,0.0986059241185829,1
656,666,26,0.0743067468416367,1
656,667,26,0.0866758407489203,1
656,668,26,0.0835535602363085,1
656,681,26,0.0756223291848019,1
656,682,26,0.0826791219050404,1
657,667,26,0.0752155509028617,1
657,682,26,0.0779870957085399,1
657,683,26,0.071698260427057,1
658,681,26,0.073332576363015,1
658,682,26,0.0825399298136422,1
658,686,26,0.0846658964994609,1
658,687,26,0.114522724505199,1
659,681,26,0.073434106102397,1
659,682,26,0.07707098309841,1
659,686,26,0.126840384888317,1
659,687,26,0.186809137246759,1
660,685,26,0.0912128261879719,1
660,686,26,0.187400924446679,1
660,687,26,0.249038501531993,1
660,688,26,0.180138739732068,1
661,685,26,0.106842664954396,1
661,686,26,0.197296625023352,1
661,687,26,0.220028600613433,1
661,688,26,0.139376306531921,1
662,662,26,0.0726887522948927,1
662,663,26,0.0806657193124397,1
662,664,26,0.0722232692601321,1
662,685,26,0.097070643685317,1
662,686,26,0.144796027837764,1
662,687,26,0.141074377894496,1
663,662,26,0.0744264017823028,1
663,663,26,0.084058826657278,1
663,664,26,0.0782204219098326,1
663,685,26,0.0745572465778454,1
663,686,26,0.0921157336497401,1
663,687,26,0.0918040846843538,1
664,663,26,0.0769578032210715,1
664,664,26,0.0764254360787587,1
664,686,26,0.0769153141167574,1
664,687,26,0.0816401323726846,1
665,664,26,0.085510242269366,1
665,665,26,0.0798569024202747,1
665,685,26,0.0760625712906638,1
665,686,26,0.0905776728578695,1
665,687,26,0.0890043257698821,1
666,665,26,0.123394233028533,1
666,666,26,0.0856963334745876,1
666,684,26,0.0741409640723081,1
666,685,26,0.101556369761369,1
666,686,26,0.120261621026789,1
666,687,26,0.099515169802763,1
667,666,26,0.147695910762211,1
667,667,26,0.0858261084229714,1
667,684,26,0.089965029858394,1
668,667,26,0.125344726120178,1
669,668,26,0.0963139569619789,1
670,669,26,0.0918835768162722,1
671,670,26,0.0882537222472495,1
671,671,26,0.0715519339479194,1
649,670,27,0.141165737865828,1
649,671,27,0.138641993298295,1
649,672,27,0.110642898903505,1
649,673,27,0.095493465051691,1
649,674,27,0.0804231998896309,1
649,675,27,0.0725350301862675,1
650,668,27,0.0753616410204177,1
650,669,27,0.111998208652505,1
650,672,27,0.128563908661205,1
650,673,27,0.117123945911165,1
650,674,27,0.125729236653114,1
651,668,27,0.0745436060265702,1
651,669,27,0.109824328986078,1
651,670,27,0.178759022539747,1
651,671,27,0.184370072325856,1
651,672,27,0.129219762289823,1
651,673,27,0.128395868016768,1
652,668,27,0.0828956291137895,1
652,669,27,0.119109507597469,1
652,670,27,0.161988110917881,1
652,671,27,0.15858816152726,1
652,672,27,0.115130646493084,1
652,673,27,0.114610912255303,1
652,674,27,0.149951583975956,1
652,676,27,0.144362130174355,1
653,667,27,0.0731043008355187,1
653,668,27,0.110757957233413,1
653,669,27,0.142483913966349,1
653,670,27,0.130461245277155,1
653,671,27,0.104935973395848,1
653,672,27,0.0837526762086849,1
653,673,27,0.0842278438482496,1
653,674,27,0.0989846624528949,1
653,675,27,0.110876511226712,1
653,676,27,0.102381868805162,1
653,677,27,0.0810550317175076,1
654,667,27,0.0814026200833809,1
654,668,27,0.126637350289719,1
654,669,27,0.133200165964531,1
654,670,27,0.092274319830913,1
654,675,27,0.074543954348901,1
654,676,27,0.0739648684739717,1
655,667,27,0.0778953127743782,1
655,668,27,0.104863870673375,1
655,669,27,0.0951210027393747,1
655,679,27,0.0722356471429582,1
655,680,27,0.0850052744103943,1
656,667,27,0.0755755731319357,1
656,668,27,0.0839644997260933,1
656,669,27,0.0730711169134698,1
656,678,27,0.074416941098997,1
656,679,27,0.0726591759969841,1
656,680,27,0.0737686759211572,1
656,681,27,0.0769788705020424,1
657,667,27,0.0716558895035338,1
657,668,27,0.0715398484070495,1
657,678,27,0.073992970622016,1
657,679,27,0.0731662151298156,1
657,680,27,0.0726975536537866,1
657,681,27,0.0808361111326095,1
657,682,27,0.0904053030644641,1
657,683,27,0.074623172798988,1
658,679,27,0.075427884463683,1
658,680,27,0.0833149843198876,1
658,681,27,0.0959481998545302,1
658,682,27,0.101302567183059,1
658,683,27,0.0751810794321973,1
658,686,27,0.0788559982027652,1
659,680,27,0.0807994128870447,1
659,681,27,0.0871269617075776,1
659,682,27,0.0881522298281171,1
659,686,27,0.11266752245119,1
660,685,27,0.0912548612292477,1
660,686,27,0.166808755135024,1
660,687,27,0.21314801545228,1
661,684,27,0.0742557176201768,1
661,685,27,0.109150486997092,1
661,686,27,0.171959347680002,1
661,687,27,0.176013409087588,1
662,663,27,0.0865864214305746,1
662,664,27,0.0750168827734821,1
662,684,27,0.0720975870991351,1
662,685,27,0.0937304502345498,1
662,686,27,0.120881112292089,1
663,663,27,0.0801288613000763,1
663,664,27,0.0720279848333944,1
663,686,27,0.0787256510105524,1
664,686,27,0.0721798533696164,1
665,664,27,0.0811138546511189,1
665,665,27,0.0817154757368417,1
665,684,27,0.0749644975829487,1
665,685,27,0.0816108732968987,1
665,686,27,0.0906730323159634,1
666,666,27,0.114615751447685,1
666,667,27,0.0736654294502877,1
666,683,27,0.072687433646069,1
666,684,27,0.0857107328709406,1
666,685,27,0.111822156594459,1
666,686,27,0.131655630109332,1
667,667,27,0.114646752135124,1
667,683,27,0.082732241060485,1
668,668,27,0.087591250494347,1
669,668,27,0.121629694301195,1
669,669,27,0.0886288591774628,1
670,669,27,0.128310168283312,1
670,670,27,0.100128409926234,1
670,671,27,0.0743662042194933,1
671,670,27,0.106738852459739,1
671,671,27,0.084661281228578,1
672,671,27,0.0736909938213507,1
649,672,28,0.123541498733956,1
649,673,28,0.119855365228345,1
650,669,28,0.0922820451226065,1
650,670,28,0.135836319124241,1
650,671,28,0.156916288979993,1
651,669,28,0.0977080486704862,1
651,670,28,0.154650651259571,1
651,671,28,0.188773662752301,1
652,668,28,0.0814244897497209,1
652,669,28,0.113169641531099,1
652,670,28,0.153245394576354,1
652,671,28,0.177919876724637,1
652,672,28,0.136219896650934,1
652,673,28,0.123257342352535,1
652,676,28,0.128797060701333,1
653,668,28,0.10174318871146,1
653,669,28,0.137972866100857,1
653,670,28,0.128454523009256,1
653,671,28,0.117793670232598,1
653,672,28,0.097931030942563,1
653,673,28,0.0952424303919028,1
653,674,28,0.112870930252285,1
653,675,28,0.116987851400494,1
653,676,28,0.0999326589963748,1
653,677,28,0.0876157636783759,1
654,667,28,0.0726866312606999,1
654,668,28,0.110422796510699,1
654,669,28,0.135180776497705,1
654,670,28,0.104603605471821,1
654,671,28,0.083110618632383,1
654,672,28,0.0750447112396951,1
654,673,28,0.0741292206337274,1
654,674,28,0.0831004924046238,1
654,675,28,0.08746533819181,1
654,676,28,0.0815500350698022,1
654,677,28,0.082192832831057,1
654,678,28,0.099503563205098,1
655,668,28,0.0958499667372073,1
655,669,28,0.10620799678754,1
655,670,28,0.089507483596742,1
655,671,28,0.076756112151464,1
655,674,28,0.0721155941196283,1
655,675,28,0.0747530348279544,1
655,676,28,0.0771012622610218,1
655,677,28,0.0820434336513585,1
655,678,28,0.0914766305932082,1
655,679,28,0.0944311503632559,1
656,668,28,0.0829328809430586,1
656,669,28,0.0846183567213505,1
656,670,28,0.0760904432971682,1
656,676,28,0.0730377899304637,1
656,677,28,0.0807992947062539,1
656,678,28,0.0861605662809824,1
656,679,28,0.0878165839421565,1
656,680,28,0.0951529302130161,1
656,682,28,0.0820572421437575,1
657,668,28,0.074167990153152,1
657,677,28,0.0742988847090276,1
657,678,28,0.0808810136130726,1
657,679,28,0.0878898249322456,1
657,680,28,0.103365257385466,1
657,681,28,0.11246436345176,1
657,682,28,0.103582137796712,1
657,683,28,0.0747914809052148,1
658,678,28,0.0759755591284255,1
658,679,28,0.0877775096406924,1
658,680,28,0.108936330964076,1
658,681,28,0.125482972765249,1
658,682,28,0.116347075152766,1
658,683,28,0.0784545815967025,1
659,679,28,0.0788300108688721,1
659,680,28,0.0929625985365017,1
659,681,28,0.100734322840675,1
659,682,28,0.0965531175623122,1
659,683,28,0.0744392150680424,1
660,682,28,0.0749110612053814,1
660,683,28,0.0728972978503667,1
660,684,28,0.0733264869422679,1
660,685,28,0.0930203267427876,1
661,683,28,0.0726337546868784,1
661,684,28,0.0810959658114164,1
661,685,28,0.104824535130163,1
662,663,28,0.0818726872888163,1
662,684,28,0.0726630635229973,1
662,685,28,0.0832894821492409,1
663,672,28,0.0726878379487744,1
664,681,28,0.0726552387106379,1
664,682,28,0.0725081907066722,1
664,683,28,0.071411367227323,1
665,664,28,0.0792054774612913,1
665,665,28,0.0940759548864799,1
665,666,28,0.0979344706255794,1
665,667,28,0.0827118393239677,1
665,681,28,0.0757727484513262,1
665,682,28,0.082725641596325,1
665,683,28,0.0868651477156601,1
665,684,28,0.0844707178134308,1
665,685,28,0.0832543762343311,1
666,664,28,0.128440963318522,1
666,667,28,0.122445552280475,1
666,668,28,0.0753718232285516,1
666,681,28,0.0876891788296304,1
666,682,28,0.095988232042404,1
666,683,28,0.099043043763551,1
666,684,28,0.097700615720749,1
666,685,28,0.111862736145996,1
667,668,28,0.0857875939252532,1
667,680,28,0.0763870708620394,1
667,681,28,0.0950704275809531,1
667,684,28,0.115559630323611,1
668,668,28,0.11245749652581,1
668,669,28,0.092506688145796,1
668,670,28,0.0791939144039176,1
669,668,28,0.15412293048835,1
669,669,28,0.156555713167215,1
669,670,28,0.133181356558668,1
669,671,28,0.0899476075218132,1
670,668,28,0.1697912402122,1
670,669,28,0.192910886116361,1
670,670,28,0.170630497988059,1
670,671,28,0.113230262056739,1
670,672,28,0.0742932493513188,1
671,669,28,0.144352252748261,1
671,670,28,0.134874302606947,1
671,671,28,0.104589566837882,1
671,672,28,0.0785206446587608,1
672,670,28,0.089366991516645,1
672,671,28,0.0812261512825472,1
672,672,28,0.0717574192429158,1
673,670,28,0.0743235036337641,1
651,669,29,0.0981854244248265,1
651,670,29,0.13608651407841,1
652,668,29,0.0846667921854544,1
652,669,29,0.111222494821847,1
652,670,29,0.138818829081584,1
652,671,29,0.17754092690891,1
652,676,29,0.115901794813191,1
652,677,29,0.102240425058697,1
653,668,29,0.0907675396283552,1
653,669,29,0.125769069799656,1
653,670,29,0.12992077342061,1
653,671,29,0.130773976529784,1
653,672,29,0.114699709569487,1
653,673,29,0.105995520165761,1
653,674,29,0.128325979629113,1
653,675,29,0.133149161623237,1
653,676,29,0.101783625202039,1
653,677,29,0.0991343539745496,1
654,668,29,0.0922003697560791,1
654,669,29,0.131337076897747,1
654,670,29,0.134062263733222,1
654,671,29,0.117807652886162,1
654,672,29,0.0983312781808009,1
654,673,29,0.0864503144798205,1
654,674,29,0.0962733836304841,1
654,675,29,0.102839290665981,1
654,676,29,0.0911887919471478,1
654,677,29,0.105399291856124,1
655,668,29,0.0877891100183159,1
655,669,29,0.121009095868486,1
655,670,29,0.132050540551859,1
655,671,29,0.117454877005577,1
655,672,29,0.0953834760557041,1
655,673,29,0.0814602487690009,1
655,674,29,0.0815412772511996,1
655,675,29,0.0834985501882111,1
655,676,29,0.0870245238421189,1
655,677,29,0.100380924955928,1
656,668,29,0.0831103511705933,1
656,669,29,0.0995891696379299,1
656,670,29,0.101244944717481,1
656,671,29,0.0921802852416844,1
656,672,29,0.0812835187264191,1
656,673,29,0.0751942908006006,1
656,674,29,0.0750002628222704,1
656,675,29,0.0752638308659251,1
656,676,29,0.0821623732872382,1
656,677,29,0.0919587211390973,1
656,678,29,0.0977158237225127,1
657,668,29,0.0754377618897774,1
657,669,29,0.0787177204574854,1
657,670,29,0.072214076038616,1
657,676,29,0.0749232027266259,1
657,677,29,0.0817639609612785,1
657,678,29,0.0887191182014274,1
657,682,29,0.115056503596959,1
658,677,29,0.0742650290224836,1
658,678,29,0.0825214314098609,1
658,679,29,0.100800230401693,1
658,680,29,0.131357777196262,1
658,681,29,0.146100743768217,1
658,682,29,0.125444906110528,1
659,678,29,0.0753891025041751,1
659,679,29,0.085985913732302,1
659,680,29,0.0995668832288013,1
659,681,29,0.107343403185065,1
659,682,29,0.102073603542417,1
659,683,29,0.0842391643240001,1
660,674,29,0.0714280182787428,1
660,679,29,0.074784383837725,1
660,680,29,0.0789250220046352,1
660,681,29,0.0794116780610742,1
660,682,29,0.0814361150075108,1
660,683,29,0.0824866738172819,1
661,672,29,0.0732858514103569,1
661,673,29,0.0777540307489953,1
661,674,29,0.0743221725448572,1
661,680,29,0.0721920197710274,1
661,681,29,0.0717437413713909,1
661,682,29,0.0742398813942093,1
661,683,29,0.0788544183121935,1
662,670,29,0.0718680613432729,1
662,671,29,0.0769311316826,1
662,672,29,0.0845270900506433,1
662,673,29,0.0843755573966688,1
662,674,29,0.0737877465687677,1
662,680,29,0.0753438081610899,1
662,681,29,0.0746371741126772,1
662,682,29,0.0738982082879178,1
662,683,29,0.0723956950339121,1
663,670,29,0.0717164416087157,1
663,671,29,0.080341369022063,1
663,672,29,0.0921136188355889,1
663,673,29,0.0907040081232367,1
663,674,29,0.0758203690899778,1
663,679,29,0.0748269040422472,1
663,680,29,0.0846581649877258,1
663,681,29,0.0856871402530715,1
663,682,29,0.0812715202661319,1
663,683,29,0.0732255978671728,1
664,665,29,0.0747504410705984,1
664,666,29,0.081337421607108,1
664,667,29,0.0734934826197126,1
664,671,29,0.0768734407965638,1
664,672,29,0.0856819216381514,1
664,673,29,0.0860834315448384,1
664,674,29,0.0756047637872637,1
664,679,29,0.0753380173023406,1
664,680,29,0.0897019469779858,1
664,681,29,0.10202427239232,1
664,682,29,0.104926207930502,1
665,664,29,0.0794616685355834,1
665,665,29,0.113812408192146,1
665,667,29,0.127745015301614,1
665,668,29,0.0826899012371698,1
665,671,29,0.0748945532149189,1
665,672,29,0.0752629165198068,1
665,673,29,0.0729759378365829,1
665,679,29,0.0743997613440394,1
665,680,29,0.0960305283254278,1
666,663,29,0.0752648944930423,1
666,664,29,0.118809092027251,1
666,668,29,0.102036202432149,1
666,671,29,0.0743646429890464,1
666,679,29,0.0736120677132199,1
666,680,29,0.105136445337297,1
666,681,29,0.146664802022589,1
666,683,29,0.140833562763092,1
667,668,29,0.108767618555144,1
667,669,29,0.0776432144874728,1
667,670,29,0.0717321223336426,1
667,671,29,0.0718699584559674,1
667,679,29,0.072677549999933,1
667,680,29,0.102267071717002,1
667,681,29,0.135528999307823,1
668,668,29,0.138289690140872,1
668,669,29,0.133850757437937,1
668,670,29,0.120767472131671,1
668,671,29,0.0949929258623535,1
668,672,29,0.0745890123304046,1
669,667,29,0.164965122358431,1
669,668,29,0.176808628968769,1
669,671,29,0.14179498215639,1
669,672,29,0.0886192989734911,1
670,667,29,0.122127260310637,1
670,668,29,0.161609273062903,1
670,671,29,0.153225079920419,1
670,672,29,0.0932358885052103,1
671,664,29,0.0960056792591513,1
671,665,29,0.0880512723325642,1
671,666,29,0.0851023070596843,1
671,668,29,0.109767602206493,1
671,669,29,0.139244267488388,1
671,670,29,0.14535553302167,1
671,671,29,0.118390134903816,1
671,672,29,0.0871283985371921,1
672,666,29,0.0792837069247606,1
672,667,29,0.0770850279523906,1
672,668,29,0.0829585448347874,1
672,669,29,0.093593895440799,1
672,670,29,0.0993265035003102,1
673,668,29,0.0746445075417485,1
673,669,29,0.0841449493535645,1
652,669,30,0.110343578060612,1
652,670,30,0.128094220878309,1
652,675,30,0.134068446454594,1
652,676,30,0.108798681443,1
653,668,30,0.0801798532012866,1
653,669,30,0.112592135546742,1
653,670,30,0.139177526441793,1
653,675,30,0.142406748129997,1
653,676,30,0.109757127656403,1
654,668,30,0.0799597570285221,1
654,669,30,0.126737642240819,1
654,675,30,0.118182024751256,1
654,676,30,0.107430769889676,1
655,668,30,0.0839650595298392,1
655,669,30,0.132301904873853,1
655,673,30,0.104894647439317,1
655,674,30,0.100711346006927,1
655,675,30,0.100642664307346,1
655,676,30,0.103214010853406,1
656,668,30,0.0832424648546266,1
656,669,30,0.111194852956883,1
656,670,30,0.123281289512776,1
656,671,30,0.111202229926246,1
656,674,30,0.0906174562440784,1
656,675,30,0.0942274937604961,1
656,676,30,0.0992701374831393,1
656,677,30,0.103860938722297,1
657,668,30,0.0771328787325821,1
657,669,30,0.0877387712214759,1
657,677,30,0.0900433215222795,1
658,678,30,0.0825246782715872,1
659,679,30,0.0852154620568563,1
659,680,30,0.0957007417186743,1
659,681,30,0.102201369417357,1
659,682,30,0.100136607941091,1
660,680,30,0.0863480943158185,1
660,681,30,0.0897047086764656,1
660,682,30,0.0864373892333318,1
661,680,30,0.0867287111027001,1
661,681,30,0.0899983133011088,1
661,682,30,0.0825975273990541,1
662,680,30,0.0850668590424853,1
662,681,30,0.0857058376981847,1
662,682,30,0.0793854543655994,1
663,680,30,0.0968507652140092,1
663,681,30,0.0993665916685586,1
663,682,30,0.0947298492019869,1
664,666,30,0.100447914804188,1
665,664,30,0.0758393153367558,1
665,665,30,0.12394629904266,1
665,667,30,0.153994996672286,1
666,664,30,0.101012918504887,1
667,668,30,0.119331351601929,1
667,680,30,0.126464495333067,1
668,664,30,0.135316435605462,1
668,668,30,0.149171590756663,1
669,664,30,0.124134691663282,1
669,665,30,0.141296856343202,1
669,667,30,0.141070919551355,1
670,664,30,0.106998041594092,1
670,665,30,0.0968521336231659,1
670,666,30,0.0948492118006968,1
670,667,30,0.103613150924235,1
671,667,30,0.0845098480952695,1
671,668,30,0.099210282022619,1
671,671,30,0.135114620135022,1
672,668,30,0.0874975144671162,1
672,669,30,0.104948264198091,1
672,670,30,0.121452074792661,1
673,669,30,0.100268528803834,1
