x,y,z,signal,mito.p
222,337,30,0.151306669803457,1
221,337,31,0.121767306502021,1
222,336,31,0.126341736591632,1
222,337,31,0.152159300668801,1
222,338,31,0.147594835085868,1
223,336,31,0.135937631162166,1
223,337,31,0.138674822677971,1
220,337,32,0.080953166095878,1
221,336,32,0.101807889584403,1
221,337,32,0.12239619003017,1
221,338,32,0.122026756878123,1
222,335,32,0.106860516473848,1
222,336,32,0.137727087376239,1
222,337,32,0.173097702377256,1
222,338,32,0.151907849266225,1
222,339,32,0.102223413244863,1
223,335,32,0.121939402613595,1
223,336,32,0.15317301817205,1
223,337,32,0.168247811524411,1
223,338,32,0.128418036245106,1
224,336,32,0.134493785340732,1
224,337,32,0.115120570025657,1
220,337,33,0.0788566015468025,1
221,336,33,0.103126407787214,1
221,337,33,0.129495795296887,1
221,338,33,0.121843750813545,1
222,335,33,0.101750683861613,1
222,336,33,0.147880384756611,1
222,337,33,0.206358591221127,1
222,338,33,0.167642215832092,1
222,339,33,0.0997693766837779,1
223,335,33,0.125980887097023,1
223,336,33,0.156266841994245,1
223,337,33,0.190608351109042,1
223,338,33,0.139510584790439,1
223,339,33,0.0843588939051657,1
224,336,33,0.132119558133688,1
224,337,33,0.116762673453725,1
224,338,33,0.0953117154355209,1
220,337,34,0.0762091590115496,1
221,336,34,0.106911060532062,1
221,337,34,0.131002326697779,1
221,338,34,0.120392503142581,1
222,335,34,0.101778375486911,1
222,336,34,0.148877357907816,1
222,337,34,0.207724922883879,1
222,338,34,0.172186789721921,1
222,339,34,0.100057806233792,1
222,345,34,0.10378497957402,1
222,346,34,0.0985956175096167,1
223,336,34,0.145905583742312,1
223,337,34,0.180977499904597,1
223,338,34,0.142013703699956,1
223,339,34,0.0857608415262406,1
224,337,34,0.11388340374721,1
224,338,34,0.0999254064278445,1
224,339,34,0.0845909512179677,1
224,340,34,0.0732185630000992,1
225,337,34,0.105238839662465,1
225,338,34,0.120581430686782,1
225,339,34,0.132427114311687,1
225,340,34,0.100621503725751,1
225,341,34,0.0879190280276569,1
226,336,34,0.145268663920389,1
226,337,34,0.12174746456925,1
226,338,34,0.144633995753533,1
226,339,34,0.168971550687282,1
226,340,34,0.114287146648839,1
227,335,34,0.123247950089687,1
227,336,34,0.129674036809582,1
227,337,34,0.106159704384393,1
236,336,34,0.0884831236022792,1
236,340,34,0.115377918027691,1
237,340,34,0.115173751381518,1
237,341,34,0.105546557561546,1
220,345,35,0.0950429101168211,1
220,346,35,0.0989228165790558,1
220,347,35,0.100159734055838,1
220,348,35,0.112736092190022,1
220,349,35,0.112401118068556,1
221,336,35,0.111320647078629,1
221,337,35,0.12746905693505,1
221,338,35,0.119660802326435,1
221,343,35,0.0730408501909413,1
221,344,35,0.0911889101279386,1
221,345,35,0.112719671280142,1
221,346,35,0.114429050678384,1
221,347,35,0.105293887030812,1
221,348,35,0.101272082759074,1
221,349,35,0.0941144818242814,1
221,350,35,0.092588239111491,1
222,335,35,0.110276675292935,1
222,336,35,0.140520806630297,1
222,337,35,0.177541076189909,1
222,338,35,0.163819216530649,1
222,339,35,0.108738645601272,1
222,344,35,0.0768184742887577,1
222,345,35,0.083789237613334,1
222,346,35,0.0826495331670486,1
222,347,35,0.0764787231753271,1
222,350,35,0.0761684363990559,1
222,351,35,0.103724676270503,1
223,336,35,0.135127794183176,1
223,337,35,0.15494738456515,1
223,338,35,0.141061004805011,1
223,339,35,0.0950101989179355,1
224,337,35,0.125517444235914,1
224,338,35,0.114627594406931,1
224,339,35,0.0956560818198344,1
224,340,35,0.0824039286035957,1
224,341,35,0.0811800856543009,1
225,337,35,0.128690125745782,1
225,338,35,0.12642955113924,1
225,339,35,0.133738299085426,1
225,340,35,0.112578128013011,1
225,341,35,0.0955964502808124,1
225,342,35,0.0779052959411801,1
226,337,35,0.129762946084515,1
226,338,35,0.130107474189911,1
226,339,35,0.152681012879817,1
226,340,35,0.119694651792938,1
226,341,35,0.0854164191615525,1
227,336,35,0.130429834066969,1
227,337,35,0.100808932239921,1
227,338,35,0.0924899064735022,1
227,339,35,0.106567689354408,1
227,340,35,0.0951086932770064,1
227,341,35,0.0774435511514338,1
228,334,35,0.0861989812580346,1
228,335,35,0.0738772032073631,1
228,340,35,0.0772385572397255,1
228,341,35,0.0781990622869056,1
229,341,35,0.0718047724197777,1
230,339,35,0.0814082865412978,1
231,339,35,0.0807670624505731,1
235,340,35,0.0775161452571943,1
236,336,35,0.0768071164927575,1
236,340,35,0.109968111468193,1
236,341,35,0.0963971748988283,1
237,336,35,0.0964171474524738,1
237,337,35,0.0724721206853112,1
237,340,35,0.0934480727850327,1
237,341,35,0.088273744561228,1
219,347,36,0.0780495449264163,1
219,348,36,0.106394560715925,1
219,349,36,0.128104521267234,1
219,350,36,0.101133954294793,1
220,344,36,0.0811590930138295,1
220,345,36,0.0964688297783039,1
220,346,36,0.100677496540425,1
220,347,36,0.101886255888788,1
220,348,36,0.124459887879319,1
220,349,36,0.135290311430653,1
220,350,36,0.108571003039499,1
221,337,36,0.121450221220258,1
221,338,36,0.119771942030122,1
221,339,36,0.100757660436838,1
221,340,36,0.0732310528436745,1
221,344,36,0.0813376579686896,1
221,345,36,0.0947231688772858,1
221,346,36,0.0979247611406088,1
221,347,36,0.09370217392534,1
221,348,36,0.0975403936686297,1
221,349,36,0.0953984539159278,1
221,350,36,0.089757815391827,1
221,351,36,0.105932424063556,1
222,336,36,0.127412044033551,1
222,337,36,0.142248933233985,1
222,338,36,0.147690088803254,1
222,339,36,0.120018703521316,1
222,340,36,0.0782930719959677,1
222,351,36,0.0903928318810137,1
223,336,36,0.130103841685604,1
223,337,36,0.137037595762534,1
223,338,36,0.142420332700897,1
223,339,36,0.116768980575929,1
223,340,36,0.0787152511009618,1
223,351,36,0.0716605109944583,1
224,337,36,0.144241971410318,1
224,338,36,0.134204665366097,1
224,339,36,0.119518413133644,1
224,340,36,0.0969603499072907,1
224,341,36,0.086879236109932,1
224,342,36,0.074302374152377,1
225,338,36,0.128265981107635,1
225,339,36,0.131008347698069,1
225,340,36,0.116615768510717,1
225,341,36,0.0966025668932003,1
225,342,36,0.0733439279389736,1
226,337,36,0.122521100906006,1
226,338,36,0.108836076333226,1
226,339,36,0.12346439509802,1
226,340,36,0.11212683911323,1
226,341,36,0.0920582107048277,1
226,342,36,0.0741688049786044,1
227,336,36,0.112459760620961,1
227,337,36,0.0860246397114353,1
227,338,36,0.077359798291005,1
227,339,36,0.08516233668137,1
227,340,36,0.0861265799735644,1
227,341,36,0.0863033473363959,1
227,342,36,0.0815109234480884,1
227,343,36,0.0729062360501763,1
228,333,36,0.0978072334541771,1
228,334,36,0.0781669295518907,1
228,341,36,0.0772744219997131,1
228,342,36,0.0767391749781296,1
235,340,36,0.073108169701407,1
236,340,36,0.0867013677997335,1
236,341,36,0.0813129706234952,1
237,336,36,0.0803396771707421,1
218,348,37,0.0817314052634334,1
218,349,37,0.103071304438492,1
218,350,37,0.0847786596340108,1
219,345,37,0.0738004230135916,1
219,346,37,0.073598060179489,1
219,347,37,0.082316101615905,1
219,348,37,0.12083138927937,1
219,349,37,0.159695950939987,1
219,350,37,0.115958160830362,1
219,351,37,0.0943166393970104,1
220,339,37,0.0723115503108611,1
220,344,37,0.0824143596133944,1
220,345,37,0.0896748835768921,1
220,346,37,0.0895047405583871,1
220,347,37,0.0926737273635321,1
220,348,37,0.118360577266033,1
220,349,37,0.141792456819492,1
220,350,37,0.109103028079523,1
220,351,37,0.102642202427173,1
221,338,37,0.105979273417047,1
221,339,37,0.0942708163503874,1
221,340,37,0.0756536470943644,1
221,345,37,0.0726833221985574,1
221,346,37,0.074955578043264,1
221,347,37,0.0772272616441415,1
221,348,37,0.08466784959253,1
221,349,37,0.0878761532807623,1
221,350,37,0.0823327091270335,1
221,351,37,0.0946001053538112,1
221,352,37,0.11899686264371,1
222,337,37,0.11430292067439,1
222,338,37,0.122882584844861,1
222,339,37,0.116630385608526,1
222,340,37,0.0855456405262319,1
222,351,37,0.0744995619118508,1
222,352,37,0.0940467642311519,1
223,337,37,0.128441908764848,1
223,338,37,0.137898026560072,1
223,339,37,0.140164982929317,1
223,340,37,0.103310073176203,1
223,341,37,0.0770617276764777,1
224,338,37,0.146660995357117,1
224,339,37,0.150239211140601,1
224,340,37,0.120207282743186,1
224,341,37,0.0925806755408796,1
224,342,37,0.075957508567641,1
225,338,37,0.124989959826274,1
225,339,37,0.129646121262787,1
225,340,37,0.116629614323365,1
225,341,37,0.097717098831045,1
225,342,37,0.0780514731393188,1
226,337,37,0.104834238395092,1
226,338,37,0.0914971878307662,1
226,339,37,0.0990141703303457,1
226,340,37,0.0985103531790739,1
226,341,37,0.0974751765322319,1
226,342,37,0.0919958299074091,1
226,343,37,0.0819213217942521,1
227,336,37,0.0895073902961177,1
227,337,37,0.0725032706537499,1
227,340,37,0.0741670758070337,1
227,341,37,0.0873967560128951,1
227,342,37,0.0970714522907277,1
227,343,37,0.0947089063218485,1
227,344,37,0.0724000988233798,1
228,333,37,0.0916940148278259,1
228,334,37,0.0722118243835492,1
228,341,37,0.0756853133262577,1
228,342,37,0.0836994326524078,1
228,343,37,0.0816559437184856,1
229,333,37,0.0819741050674492,1
229,341,37,0.0714682743881149,1
229,342,37,0.0729081393829124,1
238,353,37,0.0746762981744743,1
239,352,37,0.0723334324172843,1
218,348,38,0.0861604418801499,1
218,349,38,0.109783824075041,1
218,350,38,0.0901284801121147,1
219,344,38,0.0741048069703644,1
219,345,38,0.0759670874317375,1
219,347,38,0.0763397176851776,1
219,348,38,0.114535550231021,1
219,349,38,0.159561262158723,1
219,350,38,0.120153255461665,1
219,351,38,0.0950294872670027,1
220,344,38,0.0752928100398381,1
220,345,38,0.0762720622924643,1
220,346,38,0.0723941400235068,1
220,347,38,0.0765770744734408,1
220,348,38,0.102393176840829,1
220,349,38,0.134204540965265,1
220,350,38,0.109227204990447,1
220,351,38,0.0966232982919237,1
220,352,38,0.116682447356895,1
221,338,38,0.0899440683181308,1
221,339,38,0.0827243664877926,1
221,340,38,0.0734465648457642,1
221,348,38,0.0714718322519222,1
221,349,38,0.0800391620798577,1
221,350,38,0.0759725735084474,1
221,351,38,0.079462135038705,1
221,352,38,0.0955567539751862,1
221,353,38,0.120814644927326,1
222,337,38,0.0975928845998706,1
222,338,38,0.105101861905884,1
222,339,38,0.1122743660604,1
222,340,38,0.0931429921835984,1
222,353,38,0.0902092349124821,1
223,337,38,0.121219295955031,1
223,338,38,0.135383624495054,1
223,339,38,0.164321037048561,1
223,340,38,0.13369311670309,1
223,341,38,0.0851927713450223,1
224,338,38,0.147062337322681,1
224,339,38,0.173166657758668,1
224,340,38,0.14231199201594,1
224,341,38,0.093384018796418,1
225,338,38,0.113915013998729,1
225,339,38,0.121839981468323,1
225,340,38,0.109914345428419,1
225,341,38,0.0908555843175026,1
225,342,38,0.0791856852888528,1
226,337,38,0.0893708417224086,1
226,338,38,0.0802861039522591,1
226,339,38,0.0809777788005729,1
226,340,38,0.0829703255936179,1
226,341,38,0.0900106663037684,1
226,342,38,0.101143340337599,1
226,343,38,0.0943532381219093,1
227,336,38,0.0763005065427978,1
227,341,38,0.0767057920147489,1
227,342,38,0.0963492930184286,1
227,343,38,0.103375682175223,1
227,344,38,0.0805292204990635,1
228,342,38,0.0807121643632248,1
228,343,38,0.0839848392621944,1
228,344,38,0.073768794101948,1
229,341,38,0.0753205949657598,1
229,342,38,0.0800176282957653,1
230,341,38,0.0717704440100705,1
230,342,38,0.0765969661665452,1
238,353,38,0.076495504847621,1
238,354,38,0.0979043531840498,1
239,352,38,0.0746252627329727,1
239,353,38,0.0868212217817315,1
240,352,38,0.0727698118772995,1
218,348,39,0.0850111088094349,1
218,349,39,0.103667395907213,1
218,350,39,0.0928068797945161,1
219,348,39,0.0980970562935148,1
219,349,39,0.13637906751602,1
219,350,39,0.120348676729319,1
219,351,39,0.095260816834935,1
219,352,39,0.106802545685939,1
220,338,39,0.0723889027484618,1
220,348,39,0.0878610323595812,1
220,349,39,0.123147172975341,1
220,350,39,0.113697449382904,1
220,351,39,0.0919312347751735,1
220,352,39,0.106072972124028,1
220,353,39,0.130813187672163,1
221,337,39,0.0856264326468491,1
221,338,39,0.0787204634958403,1
221,339,39,0.0729734871401842,1
221,349,39,0.0760220103992523,1
221,350,39,0.0742035750112666,1
221,352,39,0.0808365029952317,1
221,353,39,0.10231444977403,1
221,354,39,0.112895922379519,1
221,355,39,0.110280929801404,1
222,337,39,0.0993660069846462,1
222,338,39,0.10299203000803,1
222,339,39,0.115100914694134,1
222,340,39,0.101745869549399,1
222,353,39,0.0759802365997246,1
222,354,39,0.0929734960494219,1
223,337,39,0.122034283128484,1
223,338,39,0.138217251536153,1
223,339,39,0.179047931032967,1
223,340,39,0.15381169204571,1
223,341,39,0.088318385799943,1
224,338,39,0.135736201334307,1
224,339,39,0.170253065862488,1
224,340,39,0.145539696013989,1
224,341,39,0.0882944013194518,1
225,338,39,0.0973122363219242,1
225,339,39,0.103860546859675,1
225,340,39,0.0956673525352519,1
225,341,39,0.0795208273514422,1
225,342,39,0.0763923703375006,1
226,337,39,0.0786101261775227,1
226,338,39,0.0729797445020551,1
226,340,39,0.0713970300313862,1
226,341,39,0.0767907142430025,1
226,342,39,0.0947959184840868,1
226,343,39,0.0962176955978499,1
227,333,39,0.0852475139313301,1
227,342,39,0.083332512397176,1
227,343,39,0.0950755528952489,1
227,344,39,0.0806772015092723,1
228,342,39,0.0757231809396473,1
228,343,39,0.0792577320309506,1
228,344,39,0.0753484918524306,1
229,341,39,0.0757338980713605,1
229,342,39,0.0816290482585157,1
230,336,39,0.0755661684290045,1
230,341,39,0.0715607975072296,1
230,342,39,0.0767739014705005,1
231,336,39,0.0875616057759806,1
231,337,39,0.0818441497378584,1
232,336,39,0.0764486306139639,1
232,337,39,0.0738102568993946,1
237,353,39,0.0741972181287298,1
237,354,39,0.097508683896445,1
238,353,39,0.0832892582277425,1
238,354,39,0.103171484428842,1
239,352,39,0.0720873613507099,1
239,353,39,0.0834520118368016,1
217,349,40,0.072816630130582,1
218,348,40,0.0799705923410261,1
218,349,40,0.0933366220792648,1
218,350,40,0.0915171603844117,1
218,351,40,0.0808427727971858,1
218,352,40,0.0879752696439953,1
219,348,40,0.0855053035563188,1
219,349,40,0.113730689285327,1
219,350,40,0.116817758142322,1
219,351,40,0.0949588027140199,1
219,352,40,0.098951578051512,1
219,353,40,0.120528858895,1
220,337,40,0.0761843472655228,1
220,348,40,0.0783037082671398,1
220,349,40,0.11299924971093,1
220,350,40,0.116558320206304,1
220,351,40,0.0891607722567374,1
220,352,40,0.0925524489920029,1
220,353,40,0.112041325981022,1
220,354,40,0.109142363622735,1
221,337,40,0.0811122063400893,1
221,349,40,0.0727134769603368,1
221,350,40,0.0739706282325128,1
221,353,40,0.0860457318725726,1
221,354,40,0.0912275365864059,1
221,355,40,0.0946390614744845,1
221,356,40,0.110136189432879,1
222,337,40,0.0990005359991121,1
222,338,40,0.0978920934820145,1
222,339,40,0.112959777326802,1
222,340,40,0.101908604498333,1
222,354,40,0.0850994769407466,1
222,355,40,0.100016405636762,1
223,338,40,0.129651495378747,1
223,339,40,0.170478343329923,1
223,340,40,0.148408080647667,1
223,341,40,0.0831221257093821,1
223,354,40,0.0834504692664796,1
224,338,40,0.116864644816062,1
224,339,40,0.146522450150048,1
224,340,40,0.128167492968606,1
224,341,40,0.0795127288572514,1
225,338,40,0.0833696398256127,1
225,339,40,0.0860233210626116,1
225,340,40,0.0800544696022874,1
226,337,40,0.0744671679350879,1
226,342,40,0.0755841754494977,1
226,343,40,0.0814059415856066,1
227,333,40,0.0748141218567158,1
227,334,40,0.0804149272342748,1
227,335,40,0.0748091396033772,1
227,343,40,0.0768168073176032,1
227,344,40,0.0725585481636371,1
229,336,40,0.077907727977454,1
229,337,40,0.0795873133763307,1
229,342,40,0.0752322703747394,1
230,336,40,0.0975961376816385,1
230,337,40,0.101088473350459,1
231,335,40,0.0725883421630024,1
231,336,40,0.108696374198415,1
231,337,40,0.113224029575035,1
232,336,40,0.0845081686840317,1
232,337,40,0.090008078766454,1
236,353,40,0.0715023788763237,1
237,353,40,0.0891388092897731,1
237,354,40,0.107533338376009,1
238,353,40,0.093499736450738,1
238,354,40,0.107825369330122,1
238,355,40,0.111341683259392,1
239,353,40,0.0792262337401811,1
239,354,40,0.0855724115853694,1
242,351,40,0.0748309097490513,1
218,349,41,0.0781950565801015,1
218,350,41,0.0823346808802274,1
218,351,41,0.0787239591592314,1
218,352,41,0.0853705276944716,1
218,353,41,0.111029113727846,1
219,348,41,0.0731418263466191,1
219,349,41,0.0904059748289592,1
219,350,41,0.101414901134737,1
219,351,41,0.0912081984770058,1
219,352,41,0.0896252787449634,1
219,353,41,0.104997663768646,1
219,354,41,0.109779743727738,1
220,336,41,0.0810873572738128,1
220,337,41,0.0715657673204849,1
220,349,41,0.0905450611796498,1
220,350,41,0.100554544977699,1
220,351,41,0.0831865653405773,1
220,352,41,0.0798430441675427,1
220,353,41,0.0910447109030354,1
220,354,41,0.0948591389871242,1
220,355,41,0.107360309258191,1
221,337,41,0.0790564763642566,1
221,353,41,0.0740230196430878,1
221,354,41,0.0857115228162265,1
221,355,41,0.108170357718597,1
222,337,41,0.0989675137981454,1
222,338,41,0.0902232237860881,1
222,339,41,0.103334872482147,1
222,340,41,0.092921415640928,1
222,354,41,0.0885785079405396,1
222,355,41,0.119656460737384,1
223,338,41,0.116654656210932,1
223,339,41,0.14525711952314,1
223,340,41,0.12299841445993,1
223,341,41,0.0719891095732622,1
223,354,41,0.090504357227281,1
224,338,41,0.103656156292004,1
224,339,41,0.118809403029332,1
224,340,41,0.100812950386808,1
224,354,41,0.0807821833717541,1
225,337,41,0.0847298820676177,1
225,338,41,0.0776659238594317,1
225,339,41,0.0740578332160414,1
226,336,41,0.0818460157503448,1
226,337,41,0.074848842129045,1
227,334,41,0.0750903601251528,1
227,335,41,0.0714399607586554,1
227,336,41,0.0724828502571077,1
227,337,41,0.0758235288711213,1
228,336,41,0.0737272442239187,1
228,337,41,0.0840637156099923,1
228,354,41,0.072651904768329,1
229,336,41,0.0855531481164687,1
229,337,41,0.103542596992127,1
229,354,41,0.0877596083609067,1
230,336,41,0.103775873433086,1
230,337,41,0.126529134005594,1
230,338,41,0.0751856636028721,1
230,354,41,0.0907776658561144,1
231,336,41,0.107589555112181,1
231,337,41,0.127383531362759,1
231,338,41,0.0746416898628942,1
231,354,41,0.0807621734978589,1
232,336,41,0.0782481259752132,1
232,337,41,0.0912988804638006,1
232,354,41,0.0905827732919988,1
236,353,41,0.0784076700427958,1
236,354,41,0.100995564588764,1
237,353,41,0.0980254138541223,1
237,354,41,0.111056668512227,1
238,353,41,0.0971768757761646,1
238,354,41,0.104411207144396,1
238,355,41,0.103346192957897,1
239,353,41,0.0753751198506108,1
239,354,41,0.0802115380933047,1
239,355,41,0.0778399606239915,1
242,351,41,0.0825100860539439,1
244,347,41,0.0716525991015162,1
218,350,42,0.0728482030618509,1
218,351,42,0.0768764886169582,1
218,352,42,0.0832953352084064,1
218,353,42,0.103491791692165,1
219,350,42,0.0836555564788122,1
219,351,42,0.08575021147511,1
219,352,42,0.0820111516353448,1
219,353,42,0.0893315683796126,1
219,354,42,0.0984028832999436,1
220,336,42,0.0874397924808719,1
220,350,42,0.0784024763080421,1
220,351,42,0.0739624613178643,1
220,353,42,0.073490963502856,1
220,354,42,0.0886038981504372,1
221,337,42,0.078544579378919,1
221,354,42,0.0882671948574009,1
222,337,42,0.0979264840921379,1
222,338,42,0.0793334299374801,1
222,339,42,0.0858006746727824,1
222,340,42,0.0770574171876343,1
222,354,42,0.0930754736318007,1
222,355,42,0.142358841369431,1
223,338,42,0.0990928227566451,1
223,339,42,0.1103202031442,1
223,340,42,0.0907044684063167,1
223,354,42,0.0957960949567265,1
223,355,42,0.140097246676063,1
224,337,42,0.0998473760057072,1
224,338,42,0.0927060093795459,1
224,339,42,0.0934922226404596,1
224,340,42,0.0756882865061526,1
224,354,42,0.0851280207117461,1
224,355,42,0.116900783257881,1
225,336,42,0.0946674435244019,1
225,337,42,0.0809311098282894,1
225,338,42,0.0735489405108068,1
226,334,42,0.0945548856512255,1
226,335,42,0.0821708947442592,1
226,336,42,0.0766064952703088,1
226,337,42,0.0763317995721938,1
227,336,42,0.0740698627765367,1
227,337,42,0.085656052485049,1
228,336,42,0.0792391092263369,1
228,337,42,0.106987007240256,1
228,338,42,0.0791141299300431,1
228,354,42,0.0803801447615293,1
229,336,42,0.093608605839233,1
229,337,42,0.134358337714389,1
229,338,42,0.0902729467988076,1
229,354,42,0.0919540125675901,1
230,336,42,0.103474711457873,1
230,337,42,0.143352020295247,1
230,338,42,0.091172221756269,1
231,336,42,0.0945842131474692,1
231,337,42,0.121038665946353,1
231,338,42,0.0795000150921778,1
231,354,42,0.0824073620665706,1
232,337,42,0.0814692429491851,1
232,354,42,0.100390553580358,1
236,353,42,0.0802594510739125,1
236,354,42,0.104395352258303,1
237,353,42,0.0959648633460333,1
237,354,42,0.108464963769942,1
237,355,42,0.118188817036706,1
238,353,42,0.0929860791936215,1
238,354,42,0.0975636130840015,1
238,355,42,0.0971195332124592,1
239,353,42,0.0746799057986145,1
239,354,42,0.0792332499471298,1
240,354,42,0.0764377953014599,1
241,352,42,0.0733861060412066,1
242,350,42,0.0748261638572943,1
243,348,42,0.0804807601547931,1
244,347,42,0.0801638241540288,1
218,351,43,0.0715945723332324,1
218,352,43,0.07954207501362,1
218,353,43,0.0923627937029323,1
219,336,43,0.0750311826491691,1
219,351,43,0.0756316779073585,1
219,352,43,0.0738175467881746,1
219,353,43,0.077463480164788,1
219,354,43,0.0936672172914291,1
220,354,43,0.094672711899655,1
221,337,43,0.0784897434919869,1
221,354,43,0.0933322929302965,1
222,337,43,0.094311787764546,1
222,354,43,0.0916367220244535,1
222,355,43,0.14786230931566,1
223,337,43,0.104186483260665,1
223,338,43,0.0834954215072756,1
223,339,43,0.0793218544400231,1
223,354,43,0.0922666069793028,1
223,355,43,0.142509503217578,1
223,356,43,0.153988403428167,1
224,336,43,0.109980750592767,1
224,337,43,0.0923265246402393,1
224,338,43,0.0829849675715941,1
224,339,43,0.0741933306027166,1
224,354,43,0.0838790425742602,1
224,355,43,0.126327716617818,1
224,356,43,0.142131187846097,1
225,335,43,0.0921135068748397,1
225,336,43,0.0804599043552373,1
225,337,43,0.0756550963640621,1
225,355,43,0.0982047936344348,1
226,334,43,0.0917935106135979,1
226,335,43,0.0737999316303035,1
226,336,43,0.0719667236434676,1
226,337,43,0.0739073517491008,1
226,355,43,0.0894402698269839,1
227,336,43,0.0720800279216385,1
227,337,43,0.0869366222139287,1
227,354,43,0.0784258885447041,1
227,355,43,0.110139112852441,1
228,336,43,0.0785127825261516,1
228,337,43,0.115019233107566,1
228,338,43,0.0875410858586724,1
228,354,43,0.0949651471564735,1
229,336,43,0.089863500119012,1
229,337,43,0.140569795678105,1
229,338,43,0.10209617607346,1
230,336,43,0.0886908667723841,1
230,337,43,0.13062367544405,1
230,338,43,0.0954120198267036,1
231,336,43,0.072259457462284,1
231,337,43,0.0947765306143536,1
231,338,43,0.0763521577684199,1
231,354,43,0.0868341594683035,1
234,353,43,0.073019838890345,1
235,353,43,0.0719801713734526,1
235,354,43,0.110195055906782,1
236,353,43,0.0757656451637949,1
236,354,43,0.100383916795948,1
236,355,43,0.118634147136614,1
237,353,43,0.082395058824244,1
237,354,43,0.0952720377900195,1
237,355,43,0.108114874947337,1
238,353,43,0.0805745335022736,1
238,354,43,0.0842651205576852,1
238,355,43,0.0864442685993648,1
239,353,43,0.0734494944853678,1
239,354,43,0.0778045250468758,1
240,353,43,0.0791684246733541,1
240,354,43,0.0857932168428787,1
241,351,43,0.0750680861561074,1
242,349,43,0.0731978378214176,1
217,352,44,0.0738554890420637,1
217,353,44,0.0851004223870731,1
218,352,44,0.0776343198279546,1
218,353,44,0.0841961900564396,1
218,354,44,0.0944251542431331,1
219,335,44,0.103256195175681,1
219,336,44,0.0769742614512011,1
219,354,44,0.0892745181578634,1
219,355,44,0.130882802377987,1
220,336,44,0.100245981152957,1
220,354,44,0.0967861016613157,1
221,337,44,0.0771377925654628,1
221,354,44,0.0915555442612558,1
222,337,44,0.0884159782529789,1
222,354,44,0.0879587181132414,1
222,355,44,0.140879541310755,1
223,337,44,0.0947184416456537,1
223,338,44,0.0741755910440131,1
223,354,44,0.0878751020937283,1
223,355,44,0.137063819458009,1
223,356,44,0.156628773776097,1
224,336,44,0.0929713065947713,1
224,337,44,0.0845435047404815,1
224,338,44,0.0748524932934767,1
224,354,44,0.0810494958804648,1
224,355,44,0.127562780522198,1
224,356,44,0.148733140022788,1
225,335,44,0.0822924841178695,1
225,336,44,0.0738569631919279,1
225,354,44,0.0727270366510709,1
225,355,44,0.107484486169116,1
226,354,44,0.0772441055168516,1
226,355,44,0.109639879871844,1
227,336,44,0.072374745933732,1
227,337,44,0.0843837989518168,1
227,354,44,0.0958010274497321,1
227,355,44,0.151023222506781,1
228,336,44,0.0779416085441644,1
228,337,44,0.110491453330113,1
228,338,44,0.093116762268082,1
228,354,44,0.113546414332259,1
229,336,44,0.0832997514379574,1
229,337,44,0.126144100989162,1
229,338,44,0.10523805593722,1
230,336,44,0.0742373062969782,1
230,337,44,0.105698861500682,1
230,338,44,0.09100559306128,1
230,354,44,0.0992616968866594,1
231,354,44,0.101688085362738,1
232,353,44,0.0728994624248508,1
233,353,44,0.0792720505667625,1
234,353,44,0.0798738644737756,1
235,353,44,0.0750015317107611,1
235,354,44,0.109082153619842,1
236,354,44,0.0939899939112756,1
236,355,44,0.109736228316556,1
237,354,44,0.0833252909288539,1
237,355,44,0.0958632962864015,1
238,354,44,0.0761759564293758,1
239,353,44,0.0733286079764607,1
239,354,44,0.0807505855603187,1
240,340,44,0.072758901924296,1
244,346,44,0.0738030416511141,1
216,352,45,0.074045542413798,1
217,351,45,0.0792958235658386,1
217,352,45,0.0860251995151812,1
217,353,45,0.0877779077233562,1
218,335,45,0.0891085487872862,1
218,351,45,0.0753099338144211,1
218,352,45,0.0797524181611226,1
218,353,45,0.0812807197076895,1
218,354,45,0.0879237614793306,1
219,335,45,0.109104147687014,1
219,336,45,0.0810525188206927,1
219,354,45,0.0875858203980117,1
219,355,45,0.134840938303691,1
220,336,45,0.106079291686315,1
220,354,45,0.0971288508348077,1
221,337,45,0.077662092313793,1
221,354,45,0.0889564065692328,1
222,337,45,0.0841492971626577,1
222,354,45,0.086302967913857,1
222,355,45,0.129786383201344,1
223,337,45,0.0855867114610564,1
223,354,45,0.085111587361783,1
223,355,45,0.124651701522832,1
223,356,45,0.148189520825183,1
224,336,45,0.084491368351613,1
224,337,45,0.0771161717007877,1
224,354,45,0.0781046855953878,1
224,355,45,0.120201174662314,1
225,335,45,0.082023510858046,1
225,336,45,0.0722026560421996,1
225,354,45,0.0757753546487655,1
225,355,45,0.115509372387312,1
226,335,45,0.0735337947094593,1
226,354,45,0.0880062765514768,1
226,355,45,0.135072672174329,1
227,336,45,0.0720861297824689,1
227,337,45,0.0783417500416948,1
227,354,45,0.113136737510924,1
228,336,45,0.0751156943546757,1
228,337,45,0.0952895285470582,1
228,338,45,0.0895654792648177,1
229,336,45,0.0751286196011645,1
229,337,45,0.0995207678402221,1
229,338,45,0.0948147278899491,1
229,353,45,0.0726970684905402,1
229,354,45,0.121142627722009,1
230,337,45,0.0820324863781053,1
230,338,45,0.0807925584011782,1
230,353,45,0.0766711028426277,1
230,354,45,0.115554629410148,1
231,353,45,0.084189385330906,1
232,353,45,0.0931148838155124,1
233,353,45,0.0956478091644783,1
234,353,45,0.087413357303982,1
234,354,45,0.12237201894843,1
235,353,45,0.0775033879518293,1
235,354,45,0.104103899768061,1
235,355,45,0.116131948793257,1
236,354,45,0.0864497857762827,1
236,355,45,0.0962186286040931,1
237,354,45,0.0751562490260457,1
237,355,45,0.0833881009091443,1
238,354,45,0.0752740192941006,1
240,351,45,0.0720506257848954,1
241,338,45,0.0719507816767926,1
241,350,45,0.073588226293686,1
242,338,45,0.0783994098275229,1
242,339,45,0.077098680943749,1
242,348,45,0.0778234090932376,1
243,340,45,0.0746184953276889,1
243,347,45,0.0775342331382286,1
244,346,45,0.0798817950268425,1
245,345,45,0.0812245527318505,1
216,350,46,0.0713611155110657,1
216,351,46,0.0886350232387094,1
217,335,46,0.0805623733209042,1
217,350,46,0.0803564215227862,1
217,351,46,0.101757780929103,1
217,352,46,0.101934622932434,1
218,335,46,0.0920162503040514,1
218,351,46,0.0823847211150696,1
218,352,46,0.0820326356591042,1
218,353,46,0.0788528944019963,1
219,335,46,0.114543798006211,1
219,336,46,0.0845670102777678,1
219,354,46,0.082311865767561,1
220,336,46,0.109456537925019,1
220,354,46,0.0923301073842131,1
220,355,46,0.165651939354239,1
221,337,46,0.0776119774384514,1
221,354,46,0.0875660468856981,1
221,355,46,0.140166438419056,1
222,337,46,0.0802525406076714,1
222,354,46,0.0863550794225591,1
222,355,46,0.118821221108412,1
222,356,46,0.142877966043132,1
223,336,46,0.0961240590912851,1
223,337,46,0.0762289947242794,1
223,354,46,0.0828174680707781,1
223,355,46,0.110354637294614,1
223,356,46,0.135478741371524,1
224,335,46,0.0939897699897772,1
224,336,46,0.0771619014467864,1
224,354,46,0.0744242434278603,1
224,355,46,0.108178095450374,1
225,335,46,0.0804922796718754,1
225,354,46,0.0773083087864651,1
225,355,46,0.118372432665363,1
226,334,46,0.0994117553907697,1
226,335,46,0.0749035660552279,1
226,354,46,0.099588199311437,1
227,334,46,0.0802554702472749,1
227,335,46,0.0716282103183196,1
227,336,46,0.0733220271724255,1
227,337,46,0.071695305907287,1
227,353,46,0.0734701636836749,1
228,335,46,0.0713637154884633,1
228,336,46,0.0776922097553227,1
228,337,46,0.080004547548236,1
228,338,46,0.0762762359403921,1
228,353,46,0.0820659999623601,1
229,336,46,0.0755852017563652,1
229,337,46,0.0777984542862536,1
229,338,46,0.0757254699149638,1
229,353,46,0.0880917523634347,1
230,353,46,0.0999664400424193,1
230,354,46,0.144116301689404,1
231,352,46,0.073710953934913,1
231,353,46,0.115092928160693,1
232,352,46,0.0772444227389742,1
232,353,46,0.121681967530979,1
233,352,46,0.0738306959561618,1
233,353,46,0.113230622819153,1
233,354,46,0.135519569724726,1
234,353,46,0.0932400061727635,1
234,354,46,0.113786607459502,1
234,355,46,0.121574709133264,1
235,353,46,0.0799263740651413,1
235,354,46,0.099001686706812,1
235,355,46,0.104894834040565,1
236,354,46,0.0810381567445894,1
237,354,46,0.072655779854259,1
238,354,46,0.079877633818998,1
241,349,46,0.0746684484819484,1
242,339,46,0.0894590419125965,1
242,340,46,0.077140859045982,1
242,348,46,0.0894043242064552,1
243,340,46,0.0875545335886573,1
243,341,46,0.0729306434934977,1
243,347,46,0.0946364988173366,1
244,346,46,0.0933071888423136,1
245,344,46,0.0757688173850217,1
245,345,46,0.0887211210548294,1
216,350,47,0.0826851740055378,1
217,350,47,0.086502090106275,1
217,351,47,0.116446085775292,1
218,335,47,0.0941107808995168,1
218,351,47,0.0852978278480036,1
218,352,47,0.0835514703023238,1
219,336,47,0.0875685038021384,1
220,354,47,0.091532013843803,1
221,337,47,0.0762217981361237,1
221,354,47,0.0920098312210983,1
222,337,47,0.0769136284854781,1
222,354,47,0.0872102542849265,1
222,355,47,0.111720745035868,1
223,336,47,0.0895632338297924,1
223,354,47,0.0817538907138939,1
223,355,47,0.10142039965153,1
224,335,47,0.0896076076067177,1
224,336,47,0.0745118029537613,1
224,354,47,0.0758239518339516,1
224,355,47,0.104517943058615,1
225,335,47,0.0808916996445778,1
225,354,47,0.0835822906085567,1
225,355,47,0.126522229759395,1
226,335,47,0.0750444251177806,1
226,353,47,0.0722171736193433,1
226,354,47,0.125200495795066,1
227,335,47,0.0770634817282149,1
227,336,47,0.0721910618846178,1
227,353,47,0.0904384434462216,1
228,335,47,0.0855895851202854,1
228,336,47,0.0832946136835783,1
228,353,47,0.0981927765140227,1
229,335,47,0.0837889701515443,1
229,336,47,0.0815794745267951,1
229,353,47,0.106021656780653,1
230,352,47,0.0813889670920225,1
230,353,47,0.133128063242058,1
231,352,47,0.0924919901874452,1
231,353,47,0.154957871555323,1
232,352,47,0.0932832168019056,1
232,353,47,0.149164076946385,1
233,352,47,0.0853146592806304,1
233,353,47,0.128123828276426,1
233,354,47,0.136239340501042,1
234,352,47,0.0734140837884186,1
234,353,47,0.102961483383629,1
234,354,47,0.112453478378923,1
235,353,47,0.0867640471591499,1
235,354,47,0.0972059171504938,1
236,353,47,0.0728163315685842,1
241,339,47,0.0729189187150418,1
241,349,47,0.0837394150799486,1
242,340,47,0.0832972758613922,1
242,347,47,0.0752310885668314,1
243,341,47,0.0744820960349786,1
243,346,47,0.0806649480272787,1
244,344,47,0.0724722202059771,1
244,345,47,0.0829298082424977,1
216,347,48,0.0763919473746704,1
216,348,48,0.076349315209399,1
216,349,48,0.0780466090667711,1
217,347,48,0.0824912517679151,1
217,348,48,0.0772764124130318,1
217,349,48,0.0716079951830509,1
217,350,48,0.0892099790060023,1
218,351,48,0.0837065234998559,1
219,336,48,0.0915793919008313,1
221,337,48,0.0773327037897033,1
222,336,48,0.104744271713084,1
222,337,48,0.0752706107112922,1
222,354,48,0.0858515732733683,1
223,336,48,0.0827622403212239,1
224,354,48,0.086996216432701,1
225,354,48,0.102977854533176,1
226,353,48,0.0867459281779074,1
227,336,48,0.0736481501746642,1
227,353,48,0.10890526807622,1
228,336,48,0.0869950595049595,1
228,353,48,0.114888699314104,1
229,336,48,0.0824452670002099,1
229,352,48,0.079148806662081,1
229,353,48,0.132239343695228,1
230,352,48,0.0982569735635946,1
231,352,48,0.108629110668324,1
232,352,48,0.104288753185,1
232,353,48,0.159278200504627,1
233,352,48,0.0967083511410513,1
233,353,48,0.133509190072353,1
234,352,48,0.0860124670899827,1
234,353,48,0.112575664876529,1
235,352,48,0.0731376278185248,1
235,353,48,0.0943343043152145,1
241,340,48,0.0728584225902345,1
241,348,48,0.0848737080900237,1
242,341,48,0.0723721583964176,1
242,346,48,0.0771520426808169,1
242,347,48,0.0969497758365347,1
243,345,48,0.0828422238364303,1
243,346,48,0.0995300232621543,1
216,347,49,0.0896283763256908,1
216,348,49,0.0917541004298863,1
217,348,49,0.0874493775650101,1
221,337,49,0.0776129104446946,1
222,337,49,0.0730708992120131,1
232,353,49,0.150938443339485,1
233,352,49,0.10235753600234,1
234,352,49,0.0956602803479287,1
242,346,49,0.0958219205695376,1
