x,y,z,signal,mito.p
724,765,26,0.0831416628601142,1
724,766,26,0.0853896854226648,1
725,764,26,0.0811299894390841,1
725,766,26,0.092155417515283,1
726,766,26,0.085742330682376,1
727,766,26,0.074230625972277,1
729,767,26,0.0813049965301369,1
729,768,26,0.0979061321159535,1
729,769,26,0.105852819970889,1
729,770,26,0.0992976425071881,1
730,767,26,0.0948038428171121,1
730,768,26,0.121335299731266,1
730,769,26,0.134585717555892,1
730,770,26,0.121604602653295,1
730,771,26,0.101723097977024,1
731,769,26,0.121674466160784,1
731,770,26,0.112080661524235,1
715,777,27,0.0875152291456533,1
716,777,27,0.0744565130037908,1
725,765,27,0.0729367515743697,1
726,764,27,0.0819352920077332,1
726,765,27,0.0828629490151119,1
727,764,27,0.0815177157335387,1
727,765,27,0.0757345884959805,1
729,767,27,0.0736000505928078,1
729,768,27,0.0882528327812977,1
729,769,27,0.0922324091904697,1
729,770,27,0.0819445785298736,1
730,767,27,0.0853062497843586,1
730,768,27,0.107587353217447,1
730,769,27,0.114851366624294,1
730,770,27,0.0972570334525364,1
730,771,27,0.077526035123372,1
730,772,27,0.0717635335438294,1
731,767,27,0.0801378492602189,1
731,768,27,0.0925643914719155,1
731,769,27,0.0970026399702729,1
731,770,27,0.0868235231971313,1
731,771,27,0.0738537785306179,1
732,769,27,0.072799997739287,1
714,777,28,0.0752485109034122,1
715,777,28,0.071531942734149,1
715,778,28,0.0890754954861114,1
716,778,28,0.0775455473939375,1
730,768,28,0.082262938920169,1
730,769,28,0.0830922508494757,1
712,775,29,0.0789368276436321,1
713,776,29,0.0770389561041027,1
713,777,29,0.0775075118394241,1
714,778,29,0.0795458941191754,1
715,778,29,0.078411147046062,1
715,779,29,0.0903370070074639,1
716,779,29,0.0748449608230734,1
711,766,30,0.0806238895325374,1
711,775,30,0.0829372038719853,1
712,775,30,0.0773237220496023,1
712,776,30,0.086300965060455,1
712,777,30,0.0785485104452235,1
713,778,30,0.0738072277391252,1
714,779,30,0.0773637293573096,1
715,780,30,0.074826792081498,1
710,766,31,0.132312640665692,1
710,767,31,0.100629471599068,1
710,768,31,0.0741638413853907,1
710,773,31,0.0739695210651043,1
710,774,31,0.0862540659466315,1
710,775,31,0.0970595409110232,1
711,765,31,0.104148740048108,1
711,766,31,0.0901442479176243,1
711,775,31,0.0809777725805313,1
711,776,31,0.0871633924913527,1
711,777,31,0.0820993580455743,1
712,776,31,0.0776228749513717,1
712,777,31,0.0734115211312706,1
712,778,31,0.0738586923634986,1
713,779,31,0.0740113073047152,1
709,767,32,0.145553604027054,1
709,768,32,0.106390654529787,1
709,769,32,0.0849501524015476,1
709,770,32,0.0880830069849153,1
709,771,32,0.0912787959494059,1
709,772,32,0.0904514371131682,1
709,773,32,0.10013518355156,1
709,774,32,0.112815733602939,1
710,765,32,0.157295089514721,1
710,766,32,0.128832390537741,1
710,767,32,0.0956147620833451,1
710,768,32,0.0720536487251232,1
710,773,32,0.0764350958033963,1
710,774,32,0.0876156454975851,1
710,775,32,0.0978393972894001,1
710,776,32,0.103067510213103,1
711,764,32,0.101478071877442,1
711,765,32,0.104287820178757,1
711,766,32,0.0894993726624681,1
711,776,32,0.0761351778365076,1
711,777,32,0.0750371663292087,1
712,779,32,0.0714221714396189,1
708,769,33,0.105007167992243,1
708,770,33,0.120471174229005,1
708,771,33,0.127770990195424,1
708,772,33,0.120253186650351,1
709,766,33,0.153135710362407,1
709,767,33,0.131530159429751,1
709,768,33,0.0980961792676462,1
709,769,33,0.0794719253842167,1
709,770,33,0.0805893994017481,1
709,771,33,0.0847631779504158,1
709,772,33,0.094637773925869,1
709,773,33,0.110762771545628,1
709,774,33,0.116865105099142,1
709,775,33,0.12417140234893,1
710,764,33,0.136409122757133,1
710,765,33,0.146113295812208,1
710,766,33,0.117064208631435,1
710,767,33,0.0857844901244842,1
710,773,33,0.0735653116603537,1
710,774,33,0.0823857971822701,1
710,775,33,0.0916538146988284,1
710,776,33,0.0996013360393409,1
711,763,33,0.0942086594744672,1
711,764,33,0.0932284742155979,1
711,765,33,0.0945235801817462,1
711,766,33,0.0826518097022819,1
711,778,33,0.0714283292808239,1
712,762,33,0.0724231254174613,1
708,768,34,0.119363919739858,1
708,769,34,0.0948973735829694,1
708,770,34,0.100692368659941,1
708,771,34,0.115015725004091,1
708,772,34,0.129204162425437,1
708,773,34,0.141202971034972,1
709,765,34,0.14908728431253,1
709,766,34,0.136114093742959,1
709,767,34,0.111866654772217,1
709,768,34,0.087482281585186,1
709,769,34,0.0749147559101044,1
709,770,34,0.0730650337127643,1
709,771,34,0.0781778395048942,1
709,772,34,0.0906715084057662,1
709,773,34,0.105767306838681,1
709,774,34,0.106874810129494,1
709,775,34,0.114027920194236,1
709,776,34,0.13458424962607,1
710,764,34,0.121496709811335,1
710,765,34,0.123089376348597,1
710,766,34,0.102274299405365,1
710,767,34,0.0774076552912382,1
710,774,34,0.072841454316692,1
710,775,34,0.0800334458616079,1
710,776,34,0.0871054092633603,1
710,777,34,0.0851692036073198,1
711,762,34,0.112979096776077,1
711,763,34,0.099786910981108,1
711,764,34,0.0827027767233256,1
711,765,34,0.0821232741056077,1
711,766,34,0.0758250901015682,1
712,761,34,0.0763424731636157,1
712,762,34,0.080304888477955,1
708,767,35,0.121676269972854,1
708,768,35,0.104210946684361,1
708,770,35,0.0886187827100366,1
708,771,35,0.103030793307413,1
708,772,35,0.127830540873905,1
708,773,35,0.142897248172158,1
708,774,35,0.1309971889434,1
708,775,35,0.132528513430195,1
709,765,35,0.128771235088522,1
709,766,35,0.117945028725407,1
709,767,35,0.0979170482889986,1
709,768,35,0.0801262177823873,1
709,772,35,0.08010217110148,1
709,773,35,0.0901049434746203,1
709,774,35,0.0923047731546902,1
709,775,35,0.100745910778216,1
709,776,35,0.11607003449896,1
709,777,35,0.110116646062106,1
710,763,35,0.121165069632178,1
710,764,35,0.104685461219556,1
710,765,35,0.101618781658995,1
710,766,35,0.0912203213381254,1
710,767,35,0.0744924213040697,1
710,775,35,0.0722740558999688,1
710,776,35,0.0776881356280608,1
710,777,35,0.0766180210074328,1
710,778,35,0.0715014583101638,1
711,762,35,0.118927894822215,1
711,763,35,0.0963338610951665,1
711,764,35,0.0755217511117878,1
711,765,35,0.0737317537540941,1
711,766,35,0.0731273834099748,1
712,761,35,0.0791426737010426,1
712,762,35,0.079462215899246,1
713,760,35,0.0748176361802317,1
723,785,35,0.077720772186447,1
724,785,35,0.0746479534448067,1
724,786,35,0.108950288737474,1
725,786,35,0.0878529960658067,1
707,770,36,0.0925382299768569,1
707,771,36,0.114014758586166,1
707,772,36,0.157204699869883,1
707,773,36,0.181078625341274,1
708,766,36,0.109590542501705,1
708,767,36,0.102852097731679,1
708,768,36,0.0916960861016858,1
708,769,36,0.083306176740952,1
708,770,36,0.0811681431743883,1
708,771,36,0.0915726307155891,1
708,772,36,0.111326369516921,1
708,773,36,0.124104312980004,1
708,774,36,0.118167656455111,1
708,775,36,0.1211165781877,1
708,776,36,0.127598993604516,1
709,764,36,0.119519570061385,1
709,765,36,0.111284035913647,1
709,766,36,0.104747313313436,1
709,767,36,0.0936239755620789,1
709,768,36,0.0775274595129032,1
709,772,36,0.0733700832139905,1
709,773,36,0.0777557226003163,1
709,774,36,0.0799935069743584,1
709,775,36,0.0880455934345641,1
709,776,36,0.0966622979528883,1
709,777,36,0.0917692648913586,1
710,763,36,0.11098293613885,1
710,764,36,0.095270750241404,1
710,765,36,0.090236540895199,1
710,766,36,0.0902954695695178,1
710,767,36,0.0846387833380343,1
711,761,36,0.112443165549915,1
711,762,36,0.114324802780814,1
711,763,36,0.092653779690053,1
711,764,36,0.0782139592865882,1
711,765,36,0.0747964755986365,1
711,766,36,0.0769956210741281,1
711,767,36,0.0726888144953089,1
712,760,36,0.0966173705922587,1
712,761,36,0.0883611672462133,1
712,762,36,0.0796519644889409,1
713,759,36,0.0908500982407928,1
713,760,36,0.0830916412853969,1
713,761,36,0.0762514428544901,1
714,758,36,0.0854484026155685,1
714,759,36,0.07343097120142,1
717,757,36,0.0759723869071987,1
718,756,36,0.0903896783199118,1
718,757,36,0.0755553642167086,1
719,756,36,0.0790996869933988,1
723,785,36,0.0811511997810123,1
724,785,36,0.0789938405451316,1
725,785,36,0.0717370112863568,1
725,786,36,0.102945883519243,1
707,768,37,0.101236821343124,1
707,769,37,0.0954781575292613,1
707,770,37,0.0938216298246742,1
707,771,37,0.108635318269862,1
707,772,37,0.143487107159175,1
707,773,37,0.16847609949199,1
707,774,37,0.147783202826322,1
707,775,37,0.128287303410313,1
708,765,37,0.120188361376575,1
708,766,37,0.103958500075125,1
708,767,37,0.0976582758974338,1
708,768,37,0.0879396350255478,1
708,769,37,0.0801468558804863,1
708,770,37,0.0790989343683626,1
708,771,37,0.0864973877548094,1
708,772,37,0.0979274979589221,1
708,773,37,0.10478719000027,1
708,774,37,0.102837841396283,1
708,775,37,0.106662109586217,1
708,776,37,0.103280179656172,1
709,764,37,0.106792991702009,1
709,765,37,0.100116965049651,1
709,766,37,0.0985367385956308,1
709,767,37,0.0989990867294144,1
709,768,37,0.0802961679796021,1
709,772,37,0.0775984115276757,1
709,773,37,0.0756011001827489,1
709,774,37,0.0728502245753778,1
709,775,37,0.0787159104253736,1
709,776,37,0.0822926147387436,1
709,777,37,0.0766516403323951,1
710,762,37,0.116673838819292,1
710,763,37,0.100594633145948,1
710,764,37,0.0942349889106496,1
710,765,37,0.0897281395732524,1
710,766,37,0.0949065730245271,1
710,767,37,0.099976230387931,1
710,768,37,0.0781535191421555,1
711,761,37,0.120048671681847,1
711,762,37,0.100044115922184,1
711,763,37,0.0872074241659889,1
711,764,37,0.0875188243297103,1
711,765,37,0.0837940892457985,1
711,766,37,0.0814469565400565,1
711,767,37,0.0785119366004912,1
711,785,37,0.0891370738981608,1
712,760,37,0.110198203247842,1
712,761,37,0.104422141977566,1
712,762,37,0.0809448685603554,1
712,785,37,0.0879930589630318,1
713,759,37,0.0958082240378878,1
713,760,37,0.0929323877943477,1
713,761,37,0.0942203282725485,1
714,758,37,0.0952562451043434,1
714,759,37,0.0738221682790992,1
715,757,37,0.0873928684868819,1
715,758,37,0.0727721319528242,1
716,757,37,0.0800217024230271,1
717,756,37,0.106137150513475,1
717,757,37,0.0884950971824,1
718,756,37,0.119879698031167,1
718,757,37,0.093846031047954,1
719,755,37,0.0989633401502176,1
719,756,37,0.0997335803442482,1
719,757,37,0.0752900048010669,1
720,755,37,0.0748202672578375,1
722,785,37,0.0772502944582646,1
723,785,37,0.080833592015753,1
724,785,37,0.0823500568231149,1
725,785,37,0.0797969909793797,1
725,786,37,0.118306015060932,1
707,767,38,0.107974637888946,1
707,768,38,0.0984373672106913,1
707,769,38,0.0943608825530617,1
707,770,38,0.0965886215598857,1
707,771,38,0.102205841627283,1
707,772,38,0.119577901611708,1
707,773,38,0.13784994563834,1
707,774,38,0.130030743756472,1
707,775,38,0.117762744185657,1
707,776,38,0.104142893208984,1
708,765,38,0.120133413528894,1
708,766,38,0.103048632386783,1
708,767,38,0.0967995618313839,1
708,768,38,0.0858673908392109,1
708,769,38,0.0762945166427166,1
708,770,38,0.0763126605041255,1
708,771,38,0.0816421352260866,1
708,772,38,0.0881597560784787,1
708,773,38,0.0897022766401917,1
708,774,38,0.0903524327106843,1
708,775,38,0.0931642211856513,1
708,776,38,0.0859478657377054,1
708,777,38,0.0751046973210895,1
709,763,38,0.104238209126787,1
709,764,38,0.103433099379428,1
709,765,38,0.0996023001457921,1
709,766,38,0.0986104585289247,1
709,767,38,0.102784100236677,1
709,768,38,0.0815628296954169,1
709,772,38,0.0781290868186676,1
709,773,38,0.0719480199783128,1
709,776,38,0.0716261141642933,1
710,762,38,0.103364859302802,1
710,763,38,0.0949387430797917,1
710,764,38,0.106712666084514,1
710,765,38,0.108134430758194,1
710,766,38,0.105950561704923,1
710,767,38,0.107082472439058,1
710,768,38,0.0801808484079459,1
710,785,38,0.084725198376277,1
711,761,38,0.124276122969664,1
711,762,38,0.090372336843872,1
711,763,38,0.0844680369754921,1
711,764,38,0.101924216802802,1
711,765,38,0.101942758746875,1
711,766,38,0.0874148376738878,1
711,767,38,0.0763337651053461,1
711,784,38,0.0745679761496419,1
711,785,38,0.0864021464775063,1
711,786,38,0.088543202984298,1
712,760,38,0.117128548741964,1
712,761,38,0.122936898248296,1
712,762,38,0.0883740240722442,1
712,784,38,0.0736770671481609,1
712,785,38,0.0856234967872039,1
712,786,38,0.0847669783958463,1
713,759,38,0.0951264266156683,1
713,760,38,0.0979929887771512,1
713,761,38,0.111809567230218,1
713,762,38,0.0806582801426608,1
713,785,38,0.0831656971009383,1
714,758,38,0.0944188222407628,1
714,761,38,0.0726418594011108,1
715,757,38,0.0840947909379315,1
716,756,38,0.0934830169788603,1
716,757,38,0.0786271006711068,1
717,756,38,0.122494765249782,1
717,757,38,0.0939363273921683,1
718,755,38,0.134887389574518,1
718,756,38,0.148641767611373,1
718,757,38,0.101015686423408,1
719,755,38,0.113016031383223,1
719,756,38,0.111951185137849,1
719,757,38,0.0756851453851339,1
720,755,38,0.0735681106790832,1
721,785,38,0.0732313825058804,1
722,785,38,0.0796653064782183,1
723,785,38,0.0795589810867463,1
724,785,38,0.0821523652402698,1
725,785,38,0.0812972152580688,1
725,786,38,0.124827828221377,1
706,772,39,0.130329479915453,1
706,773,39,0.148333178906465,1
707,767,39,0.116449195796102,1
707,768,39,0.100218463688825,1
707,769,39,0.0946835783123671,1
707,770,39,0.0977618769106757,1
707,771,39,0.0968838869356419,1
707,772,39,0.10082254791103,1
707,773,39,0.110122716822728,1
707,774,39,0.111323321696526,1
707,775,39,0.106259722653661,1
708,764,39,0.111969671101547,1
708,765,39,0.111074196589516,1
708,766,39,0.100747876311368,1
708,767,39,0.0978437761987014,1
708,768,39,0.0865183990554057,1
708,769,39,0.0748642616122239,1
708,770,39,0.0741586103303873,1
708,771,39,0.0791946048285376,1
708,772,39,0.0833842196031727,1
708,773,39,0.0800870564003406,1
708,774,39,0.081048656174846,1
708,775,39,0.0834261551237825,1
708,776,39,0.076745177318294,1
709,763,39,0.0988578482443228,1
709,764,39,0.0997442974759614,1
709,765,39,0.102216645839579,1
709,766,39,0.100451248746497,1
709,767,39,0.10081667619174,1
709,768,39,0.0822766914321934,1
709,772,39,0.0764813293727663,1
710,761,39,0.135521796499626,1
710,762,39,0.0966704586474952,1
710,763,39,0.089836393177627,1
710,764,39,0.115405174250075,1
710,765,39,0.128573960248465,1
710,766,39,0.114410689115518,1
710,767,39,0.0996394213541872,1
710,768,39,0.0753882316983482,1
710,785,39,0.0870493044879375,1
710,786,39,0.0884856302790526,1
711,760,39,0.137653255482196,1
711,761,39,0.129193302232767,1
711,762,39,0.092556485799015,1
711,763,39,0.083905135648861,1
711,764,39,0.108042821985197,1
711,765,39,0.114047861647673,1
711,766,39,0.0898393787976051,1
711,784,39,0.0806343267623777,1
711,785,39,0.0877262067374011,1
711,786,39,0.0865831123684321,1
711,787,39,0.075270268609003,1
712,759,39,0.114004296476159,1
712,760,39,0.116459521065193,1
712,761,39,0.137375530623812,1
712,762,39,0.104043378763087,1
712,763,39,0.0748453962259869,1
712,784,39,0.0804706214869506,1
712,785,39,0.0876551552019627,1
712,786,39,0.0838011054527472,1
712,787,39,0.07156916346321,1
713,758,39,0.12191686118276,1
713,759,39,0.0868267576187743,1
713,760,39,0.094969538505858,1
713,761,39,0.120213963067888,1
713,762,39,0.0963023130440641,1
713,784,39,0.0766855271191472,1
713,785,39,0.0852196232647008,1
713,786,39,0.0827116589427606,1
714,757,39,0.0978221553340263,1
714,758,39,0.0845731494588479,1
714,761,39,0.0724150953437284,1
714,785,39,0.0776711549144351,1
715,757,39,0.0785935684267272,1
716,756,39,0.091017069038071,1
716,757,39,0.0753654725660564,1
717,755,39,0.124214370396449,1
717,756,39,0.124613112384614,1
717,757,39,0.0874407254871151,1
718,754,39,0.101766874629953,1
718,755,39,0.146420242426129,1
718,756,39,0.1448639258121,1
718,757,39,0.0898177330527635,1
719,755,39,0.107066399851509,1
719,756,39,0.10220970427313,1
720,785,39,0.0729079901019135,1
721,785,39,0.0819376183032995,1
722,785,39,0.0832508370306487,1
723,785,39,0.0813133002857011,1
724,785,39,0.0785323507770918,1
725,785,39,0.0749293356876644,1
725,786,39,0.117762843706323,1
726,755,39,0.073712857267649,1
726,786,39,0.104081694219474,1
727,786,39,0.0913582321009496,1
728,785,39,0.072813296188273,1
729,785,39,0.0764685534072765,1
706,770,40,0.128892028296804,1
706,771,40,0.116362525736153,1
706,772,40,0.112448328184461,1
706,773,40,0.12186636688488,1
706,774,40,0.127701624291265,1
707,766,40,0.144426109522471,1
707,767,40,0.1203535159217,1
707,768,40,0.100138865816199,1
707,769,40,0.0943931832292004,1
707,770,40,0.0962126138238454,1
707,771,40,0.0924991556753928,1
707,772,40,0.0897980777212407,1
707,773,40,0.0925543212245308,1
707,774,40,0.0969257291556273,1
707,775,40,0.0961682649270866,1
708,764,40,0.10110727653628,1
708,765,40,0.0986145824165195,1
708,766,40,0.0956433991549688,1
708,767,40,0.0947824707541018,1
708,768,40,0.0843043690203147,1
708,769,40,0.0755589345205991,1
708,770,40,0.0765795127297562,1
708,771,40,0.0808890001465142,1
708,772,40,0.0805723564877062,1
708,773,40,0.0736120739332615,1
708,774,40,0.0741522534478505,1
708,775,40,0.0766044364365322,1
709,762,40,0.117659902017493,1
709,763,40,0.0947448954826684,1
709,764,40,0.0952353768647045,1
709,765,40,0.100610338751041,1
709,766,40,0.0968900261167219,1
709,767,40,0.0900877450595378,1
709,768,40,0.0772214023649344,1
710,761,40,0.135525628045265,1
710,762,40,0.0983732199214523,1
710,763,40,0.0881839582604266,1
710,764,40,0.115219207445686,1
710,765,40,0.13386580993866,1
710,766,40,0.111788643010205,1
710,767,40,0.0837703971072636,1
710,784,40,0.0929663927618906,1
710,785,40,0.0904067087938705,1
711,760,40,0.127217891654388,1
711,761,40,0.129492921637658,1
711,762,40,0.103752032013552,1
711,763,40,0.0875877237307478,1
711,764,40,0.10390821725866,1
711,765,40,0.108844174827417,1
711,766,40,0.0816399582115192,1
711,783,40,0.0779612825358121,1
711,784,40,0.0914037939058246,1
711,785,40,0.0904295425666617,1
711,786,40,0.082703541788445,1
712,759,40,0.101202940776413,1
712,760,40,0.105202427538814,1
712,761,40,0.135648473867282,1
712,762,40,0.118505155913475,1
712,763,40,0.0818671638918567,1
712,784,40,0.0842243046445672,1
712,785,40,0.087674605272112,1
712,786,40,0.0799708722428991,1
713,758,40,0.103303517252334,1
713,759,40,0.0759591693187538,1
713,760,40,0.083441711447877,1
713,761,40,0.109770090223142,1
713,762,40,0.101357247568951,1
713,784,40,0.0748875618881367,1
713,785,40,0.0827085053816587,1
714,757,40,0.0876763904240573,1
714,758,40,0.0740212904715171,1
714,785,40,0.0770364307672045,1
715,756,40,0.0806690159344989,1
715,757,40,0.07277065780296,1
715,785,40,0.0717575934040812,1
716,756,40,0.0888656188417304,1
717,755,40,0.129170711041599,1
717,756,40,0.112417787780101,1
717,757,40,0.0771608502597524,1
718,755,40,0.13116988217897,1
718,756,40,0.11689548378242,1
718,757,40,0.0748646721349709,1
719,754,40,0.0731103031756831,1
719,755,40,0.0892899127608757,1
719,756,40,0.0836124578104192,1
719,785,40,0.073754854988675,1
720,785,40,0.0816219698511509,1
721,785,40,0.0830953111099533,1
722,785,40,0.084120610330701,1
723,785,40,0.0832634139548066,1
724,785,40,0.0725505989504452,1
724,786,40,0.120960853225672,1
725,786,40,0.102922881805328,1
726,786,40,0.0990794310070348,1
727,786,40,0.0930692287100131,1
728,786,40,0.0955231346502239,1
729,785,40,0.0764736911616556,1
729,786,40,0.0953068264828066,1
730,785,40,0.0714855474436969,1
730,786,40,0.0817382162090086,1
731,785,40,0.0783449844633378,1
732,784,40,0.07206480125975,1
706,769,41,0.13615166279435,1
706,770,41,0.131250941761377,1
706,771,41,0.111639984015459,1
706,772,41,0.099256335210782,1
707,766,41,0.137202824948159,1
707,767,41,0.124459303195407,1
707,768,41,0.101743008330253,1
707,769,41,0.0950462751593382,1
707,770,41,0.0932233426812604,1
707,771,41,0.0885014789451033,1
707,772,41,0.0832202717461223,1
707,773,41,0.0818847852697694,1
707,774,41,0.0865133732617758,1
707,775,41,0.0884233614423832,1
708,764,41,0.0966432335253194,1
708,765,41,0.0940714951166376,1
708,766,41,0.095325505267795,1
708,767,41,0.0937162871997784,1
708,768,41,0.0827893970229418,1
708,769,41,0.0785270886218803,1
708,770,41,0.0805872783675553,1
708,771,41,0.0820444101978931,1
708,772,41,0.0782257649255852,1
708,775,41,0.0737413326181907,1
709,762,41,0.112825884710865,1
709,763,41,0.0931208301753022,1
709,764,41,0.0972487794573052,1
709,765,41,0.102969749818943,1
709,766,41,0.0961208682099334,1
709,767,41,0.0827916486780087,1
709,768,41,0.0724837024028098,1
710,760,41,0.150650094650011,1
710,761,41,0.126473128750838,1
710,762,41,0.10150676492944,1
710,763,41,0.0947642709123183,1
710,764,41,0.120310871316345,1
710,765,41,0.134232307231061,1
710,766,41,0.106392122459609,1
710,767,41,0.0730759063455181,1
710,782,41,0.074167218867991,1
710,784,41,0.103837887248049,1
710,785,41,0.0861506204344301,1
711,759,41,0.126170934248715,1
711,760,41,0.110128103378772,1
711,761,41,0.120435297028935,1
711,762,41,0.120413166120847,1
711,763,41,0.104524735344065,1
711,764,41,0.108621074374549,1
711,765,41,0.104014337388758,1
711,766,41,0.0751128393555716,1
711,783,41,0.0795771249481552,1
711,784,41,0.088597398206943,1
711,785,41,0.0804078612669932,1
711,786,41,0.0726777428212232,1
712,758,41,0.120529182337164,1
712,759,41,0.0875508699841425,1
712,760,41,0.0889046558229448,1
712,761,41,0.121994151419945,1
712,762,41,0.132468751270299,1
712,763,41,0.0973453642635984,1
712,784,41,0.0748258590752549,1
712,785,41,0.0754726998635634,1
713,758,41,0.0880572124723124,1
713,760,41,0.0749390202924685,1
713,761,41,0.0938888684745989,1
713,762,41,0.0987312206369994,1
713,785,41,0.0735560251382133,1
714,757,41,0.0830101836203262,1
714,758,41,0.0717908830668376,1
715,756,41,0.0828322282295451,1
715,757,41,0.0716335097937808,1
715,785,41,0.0749782936352645,1
716,755,41,0.114355629307088,1
716,756,41,0.0910082303589273,1
717,755,41,0.119932244942782,1
717,756,41,0.0944377560474575,1
718,754,41,0.0884915455386343,1
718,755,41,0.0992654911120483,1
718,756,41,0.0862904034297823,1
718,786,41,0.113561989316479,1
719,785,41,0.0825212634687371,1
719,786,41,0.144591823871341,1
720,785,41,0.083791881131023,1
721,785,41,0.0810214186125869,1
722,785,41,0.0850509979363514,1
723,785,41,0.0819340728795755,1
724,786,41,0.112259848483257,1
725,786,41,0.091556066744752,1
726,786,41,0.0934036927880657,1
727,786,41,0.0943160422730148,1
728,786,41,0.0983864872702302,1
729,785,41,0.0765928049587006,1
729,786,41,0.100637968175922,1
730,785,41,0.0785108356531242,1
730,786,41,0.0909056556525529,1
731,785,41,0.0844825607726775,1
732,784,41,0.0753784848931278,1
706,768,42,0.136729977384119,1
706,769,42,0.135126512854602,1
706,770,42,0.12147367077717,1
706,771,42,0.101352383496403,1
707,765,42,0.125164282712748,1
707,766,42,0.122456263192147,1
707,767,42,0.117633292679438,1
707,768,42,0.0985527241025972,1
707,769,42,0.0916317024508652,1
707,770,42,0.0861816460020364,1
707,771,42,0.0817312373223096,1
707,772,42,0.0775534406267547,1
707,773,42,0.0753977421419869,1
707,774,42,0.0796437913542507,1
707,775,42,0.0834023759046648,1
707,776,42,0.0820226773724688,1
708,763,42,0.104244653089906,1
708,764,42,0.0966876259623696,1
708,765,42,0.0912762084120915,1
708,766,42,0.0901316523333415,1
708,767,42,0.0869422513515959,1
708,768,42,0.07812169118918,1
708,769,42,0.0781206026818963,1
708,770,42,0.0782360466543849,1
708,771,42,0.0765466709099965,1
708,772,42,0.0724640035309956,1
709,761,42,0.137672400770306,1
709,762,42,0.109915788478075,1
709,763,42,0.0985746808495199,1
709,764,42,0.102432145401585,1
709,765,42,0.10242471867189,1
709,766,42,0.0897554206758028,1
709,767,42,0.0752410344133836,1
710,760,42,0.140486957163794,1
710,761,42,0.116463128689333,1
710,762,42,0.10823966142234,1
710,763,42,0.105286485181283,1
710,764,42,0.124467812212344,1
710,765,42,0.127038816656115,1
710,766,42,0.0934558042967678,1
710,782,42,0.0768536672842502,1
711,759,42,0.124236600825203,1
711,760,42,0.0973871007428764,1
711,761,42,0.11422921318118,1
711,762,42,0.141833322492943,1
711,763,42,0.12486701448359,1
711,764,42,0.112388155501818,1
711,765,42,0.0958677809364103,1
711,783,42,0.0769917086679484,1
711,784,42,0.0792384561219667,1
712,758,42,0.106003606219869,1
712,759,42,0.0762751909733997,1
712,760,42,0.0765876423241551,1
712,761,42,0.110220993480342,1
712,762,42,0.146867550499273,1
712,763,42,0.113723996520543,1
712,764,42,0.0716409738437262,1
713,757,42,0.111698290685616,1
713,758,42,0.0799969155571668,1
713,761,42,0.0806107341445087,1
713,762,42,0.0923326576012778,1
714,756,42,0.0943035524294395,1
714,757,42,0.0803762199152663,1
714,758,42,0.0728406394912396,1
715,756,42,0.0871052848625279,1
715,757,42,0.0739823778911352,1
715,785,42,0.0733668363522643,1
715,786,42,0.0994743165693953,1
716,755,42,0.116434155735462,1
716,756,42,0.0897109038379202,1
717,755,42,0.0978256820976255,1
717,756,42,0.0766201669217921,1
718,786,42,0.118216968945083,1
719,785,42,0.0846275250627,1
719,786,42,0.151516011524259,1
720,785,42,0.0804433030641505,1
721,785,42,0.0778631738193217,1
722,785,42,0.0825339585736859,1
723,785,42,0.0747283785829682,1
724,786,42,0.101410671506435,1
725,786,42,0.0831855017134601,1
726,786,42,0.0854768219857355,1
727,786,42,0.0905915622108095,1
727,787,42,0.112498996643507,1
728,786,42,0.0953598461175854,1
728,787,42,0.108614120368017,1
729,785,42,0.0737721715845483,1
729,786,42,0.100084975375594,1
730,755,42,0.0978449455665262,1
730,756,42,0.0759012358510944,1
730,785,42,0.0801013127357363,1
730,786,42,0.095247518385949,1
731,785,42,0.0843161435591035,1
732,784,42,0.0783619776170468,1
706,766,43,0.159740386917328,1
706,767,43,0.154526412148231,1
706,768,43,0.1385479338289,1
706,769,43,0.130685204095767,1
706,770,43,0.111003673757615,1
706,771,43,0.0945940408132306,1
707,764,43,0.12139305903776,1
707,765,43,0.11755096420854,1
707,766,43,0.114214036279624,1
707,767,43,0.111322811653113,1
707,768,43,0.0976532749839704,1
707,769,43,0.0903483710235057,1
707,770,43,0.0819163582010384,1
707,771,43,0.0776498326117577,1
707,772,43,0.0758819226218607,1
707,773,43,0.0745552810446931,1
707,774,43,0.0781886748173982,1
707,775,43,0.0836086387048638,1
707,776,43,0.0846699457465563,1
708,762,43,0.119308623569846,1
708,763,43,0.116783933555986,1
708,764,43,0.108653070268648,1
708,765,43,0.0985885639824183,1
708,766,43,0.0920762799257371,1
708,767,43,0.0855173393368557,1
708,768,43,0.0782895452323685,1
708,769,43,0.0793558220873162,1
708,770,43,0.0746018069560193,1
709,761,43,0.126959486245279,1
709,762,43,0.12401240564501,1
709,763,43,0.124516092175408,1
709,764,43,0.115426459232502,1
709,765,43,0.104960953082998,1
709,766,43,0.0876993548177226,1
709,767,43,0.075017983720849,1
710,760,43,0.120851094371226,1
710,761,43,0.111541135114016,1
710,762,43,0.132829327083077,1
710,763,43,0.135056363225198,1
710,764,43,0.130854140426197,1
710,765,43,0.11858329207632,1
710,766,43,0.0832246817556317,1
710,782,43,0.0776132525469837,1
711,759,43,0.112093835572388,1
711,760,43,0.0861213302584361,1
711,761,43,0.111121244984338,1
711,762,43,0.16003908575606,1
711,763,43,0.146268249489074,1
711,764,43,0.114997587362724,1
711,765,43,0.0891618110036881,1
711,783,43,0.0758150820545998,1
712,758,43,0.0972525550225692,1
712,759,43,0.0722948805993164,1
712,760,43,0.0723686751731098,1
712,761,43,0.103821827100583,1
712,762,43,0.146684693715694,1
712,763,43,0.117849451565856,1
712,764,43,0.071602558866674,1
713,757,43,0.104980832336019,1
713,758,43,0.0789605571024168,1
713,761,43,0.0755595565247612,1
713,762,43,0.0828094504371284,1
714,756,43,0.0990470681304799,1
714,757,43,0.086274449023024,1
714,758,43,0.0792411618400719,1
714,759,43,0.0735774656216814,1
715,755,43,0.102035941190401,1
715,756,43,0.0995466058931163,1
715,757,43,0.089938712862295,1
715,758,43,0.0810575197341561,1
715,785,43,0.0721862351323197,1
716,755,43,0.105158315003637,1
716,756,43,0.0919725918319125,1
716,757,43,0.0848237860359723,1
716,758,43,0.0753715557667619,1
717,755,43,0.0751265047870133,1
717,786,43,0.0998127490340022,1
718,785,43,0.0726897661616769,1
718,786,43,0.118780629116792,1
719,785,43,0.0821379720639585,1
719,786,43,0.141283284212384,1
720,785,43,0.0784922750489267,1
720,786,43,0.132377727181215,1
721,785,43,0.0803627348650317,1
722,785,43,0.0822958491603866,1
724,786,43,0.0973290304343013,1
725,786,43,0.0814257959584613,1
726,786,43,0.0819189332982696,1
726,787,43,0.1216837340228,1
727,786,43,0.090083471890944,1
727,787,43,0.127991005507647,1
728,786,43,0.0958104881330379,1
728,787,43,0.126928000394592,1
729,755,43,0.0777160636149398,1
729,785,43,0.0727702099599633,1
729,786,43,0.099872598274481,1
730,755,43,0.111357295563861,1
730,756,43,0.082066429145232,1
730,785,43,0.0807773317392896,1
730,786,43,0.0963500891837561,1
731,785,43,0.0887164560236135,1
732,784,43,0.0861402329649228,1
732,785,43,0.107662541080563,1
733,784,43,0.108455297825262,1
705,770,44,0.13598272646392,1
706,766,44,0.142997341081925,1
706,767,44,0.141054735003057,1
706,768,44,0.134033489820683,1
706,769,44,0.12163404833033,1
706,770,44,0.101146437918327,1
706,771,44,0.0901464062720669,1
706,772,44,0.0884838451271073,1
707,764,44,0.128041636646444,1
707,765,44,0.119152624925987,1
707,766,44,0.109502441832183,1
707,767,44,0.104350903840879,1
707,768,44,0.0965257307190543,1
707,769,44,0.0915388185693365,1
707,770,44,0.0809658798609516,1
707,771,44,0.0757811144073067,1
707,772,44,0.0763806828792945,1
707,773,44,0.0778761301660185,1
707,774,44,0.080365471683345,1
707,775,44,0.087398006241261,1
707,776,44,0.09480345095449,1
708,762,44,0.127603534234899,1
708,763,44,0.134583067818162,1
708,764,44,0.122788861257713,1
708,765,44,0.110431803130966,1
708,766,44,0.0960197800935064,1
708,767,44,0.0854004834149191,1
708,768,44,0.0805355898216835,1
708,769,44,0.0832998136383736,1
708,770,44,0.0729609350961927,1
709,760,44,0.130075229494147,1
709,761,44,0.119782777342626,1
709,762,44,0.150490712303511,1
709,763,44,0.160071367772073,1
709,764,44,0.128473444375867,1
709,765,44,0.108259851677442,1
709,766,44,0.0878738829655705,1
709,767,44,0.0752685891977653,1
709,769,44,0.0725165380025278,1
710,759,44,0.1574256108681,1
710,760,44,0.101943921894658,1
710,761,44,0.111215080532235,1
710,762,44,0.165143003108713,1
710,763,44,0.175202726182936,1
710,764,44,0.134565577061123,1
710,765,44,0.107349959108934,1
710,766,44,0.076384533085058,1
710,782,44,0.0793895782531942,1
711,758,44,0.142060366452198,1
711,759,44,0.098253683161577,1
711,760,44,0.0797014138198291,1
711,761,44,0.108465585774104,1
711,762,44,0.167993884545269,1
711,763,44,0.163789123969286,1
711,764,44,0.114458869557916,1
711,765,44,0.0801920631429889,1
711,783,44,0.0766983777251365,1
712,757,44,0.136566054407235,1
712,758,44,0.0946157922987798,1
712,759,44,0.0754356968359592,1
712,760,44,0.0730021428719329,1
712,761,44,0.0983338470579904,1
712,762,44,0.131872460760246,1
712,763,44,0.110794518638062,1
713,757,44,0.100796728518261,1
713,758,44,0.0855940262300029,1
713,759,44,0.0776082205333122,1
713,761,44,0.0723130369008086,1
714,756,44,0.107439477947945,1
714,757,44,0.0984957049810561,1
714,758,44,0.0866180752223846,1
714,759,44,0.0759728347501955,1
715,755,44,0.10159739093586,1
715,756,44,0.116526996076699,1
715,757,44,0.115089544458051,1
715,758,44,0.0921871024073012,1
716,755,44,0.0889957172322784,1
716,756,44,0.0985009671362676,1
716,757,44,0.10738321145144,1
716,758,44,0.0873294365024294,1
716,786,44,0.0912631774248951,1
717,757,44,0.0713837129222753,1
717,786,44,0.0933170227281166,1
718,786,44,0.109893881491486,1
719,785,44,0.073708801800512,1
719,786,44,0.120829560587133,1
720,785,44,0.0737945139740515,1
720,786,44,0.124456914699424,1
721,785,44,0.0781834188822284,1
722,785,44,0.0744015962563177,1
723,786,44,0.10781097615381,1
724,786,44,0.0882036571322408,1
725,786,44,0.0768759412532955,1
725,787,44,0.12663044604352,1
726,786,44,0.0782500044277828,1
726,787,44,0.121360067937001,1
727,786,44,0.0903372433690455,1
727,787,44,0.138300413492627,1
728,786,44,0.0980835277029888,1
728,787,44,0.139463225393535,1
729,755,44,0.0797732179803037,1
729,756,44,0.0727561899861492,1
729,785,44,0.0752640547874235,1
729,786,44,0.100285696118708,1
729,787,44,0.11652281620873,1
730,755,44,0.114368940196157,1
730,756,44,0.0865145799498503,1
730,757,44,0.0784008590972206,1
730,785,44,0.092183625404035,1
730,786,44,0.10063442897224,1
731,757,44,0.0937426912764602,1
731,758,44,0.0951814055635577,1
731,784,44,0.0875191353317913,1
731,785,44,0.113629128445737,1
731,786,44,0.105198123270013,1
732,759,44,0.0828737781075744,1
732,784,44,0.104434470100059,1
732,785,44,0.12935093052753,1
705,769,45,0.143276471669716,1
705,770,45,0.116936337015788,1
706,765,45,0.146894408638993,1
706,766,45,0.135147536595281,1
706,767,45,0.13018370702002,1
706,768,45,0.126777400746861,1
706,769,45,0.114694559375025,1
706,770,45,0.0978851145953156,1
706,771,45,0.089828412864227,1
706,772,45,0.091815492240687,1
706,773,45,0.0978258189385411,1
707,764,45,0.135098634628056,1
707,765,45,0.121383579694329,1
707,766,45,0.106818804874737,1
707,767,45,0.100934496220127,1
707,768,45,0.0988940302264331,1
707,769,45,0.0967747314252322,1
707,770,45,0.0865405921639099,1
707,771,45,0.0779858641402989,1
707,772,45,0.0782942289237092,1
707,773,45,0.081798252050736,1
707,774,45,0.0842073674712328,1
707,775,45,0.092535437178169,1
707,776,45,0.106104370894131,1
707,777,45,0.107741821731066,1
708,762,45,0.134516675093897,1
708,763,45,0.146671805789455,1
708,764,45,0.132327394604417,1
708,765,45,0.119514245705758,1
708,766,45,0.100641905462268,1
708,767,45,0.0884107596380587,1
708,768,45,0.0858948336628435,1
708,769,45,0.0880659578508318,1
708,770,45,0.0763308727859923,1
708,777,45,0.0713751230447965,1
709,760,45,0.108221312299558,1
709,761,45,0.112076170654184,1
709,762,45,0.167073156664256,1
709,763,45,0.187188783707148,1
709,764,45,0.138951801131361,1
709,765,45,0.110098396459989,1
709,766,45,0.0895895135056418,1
709,767,45,0.0776956867585889,1
709,768,45,0.0745290573492183,1
709,769,45,0.0745173823310954,1
710,759,45,0.123687595071553,1
710,760,45,0.0903343137294419,1
710,761,45,0.110691066905819,1
710,762,45,0.183597406315593,1
710,763,45,0.208356418829508,1
710,764,45,0.140032993646116,1
710,765,45,0.0978001799269788,1
710,766,45,0.0738069042969609,1
710,782,45,0.0799034283316009,1
711,758,45,0.123773630687257,1
711,759,45,0.0905879732467941,1
711,760,45,0.0809343131497243,1
711,761,45,0.106610110038264,1
711,762,45,0.160744625077147,1
711,763,45,0.172111465017889,1
711,764,45,0.114755217220914,1
711,765,45,0.0738889155457357,1
711,782,45,0.0754481244791183,1
711,783,45,0.0772871979652029,1
712,758,45,0.0978397020714396,1
712,759,45,0.086032377443212,1
712,760,45,0.0811459251857175,1
712,761,45,0.0952419825489061,1
712,762,45,0.111303666365003,1
712,763,45,0.100180061151856,1
712,783,45,0.071478238894792,1
713,757,45,0.101146618299534,1
713,758,45,0.095883169319381,1
713,759,45,0.0885128180809786,1
713,760,45,0.0766308467332556,1
714,756,45,0.115953047956149,1
714,757,45,0.113438471729966,1
714,758,45,0.0956077458763964,1
714,759,45,0.0794030757435121,1
715,755,45,0.0945195558148173,1
715,756,45,0.123771316831774,1
715,757,45,0.135893767428654,1
715,758,45,0.100647198717688,1
716,755,45,0.0724625231610897,1
716,756,45,0.0983536641105954,1
716,757,45,0.123592341354167,1
716,758,45,0.0938403521499539,1
716,786,45,0.0853147463612131,1
717,757,45,0.0744308677721868,1
717,786,45,0.0914221368085653,1
717,787,45,0.107193126979498,1
718,786,45,0.100783510929816,1
719,786,45,0.107370833568614,1
720,785,45,0.0744854299772876,1
723,786,45,0.099922427027908,1
724,786,45,0.0840711298996047,1
725,786,45,0.0763344306497996,1
726,786,45,0.0805007451485218,1
727,786,45,0.0947540327238099,1
727,787,45,0.143098864601266,1
728,786,45,0.0998391842108921,1
728,787,45,0.141619091819427,1
729,755,45,0.0821398816167361,1
729,756,45,0.079303878519738,1
729,785,45,0.0810435184204669,1
729,786,45,0.101524585348685,1
729,787,45,0.114946794502846,1
730,755,45,0.114836040441739,1
730,756,45,0.0945682463006277,1
730,757,45,0.0917713983656347,1
730,758,45,0.0735887425571405,1
730,784,45,0.0808500378057993,1
730,785,45,0.117369463394035,1
730,786,45,0.113770310950454,1
731,756,45,0.101945408484605,1
731,757,45,0.111431276738903,1
731,758,45,0.119378910040165,1
731,784,45,0.112928179515366,1
731,786,45,0.125524908285859,1
732,759,45,0.101425338364577,1
733,760,45,0.0786577903564656,1
706,766,46,0.129573209934903,1
706,767,46,0.121689319620175,1
706,768,46,0.11909025034861,1
706,769,46,0.108610201741796,1
706,770,46,0.0944252662038823,1
706,771,46,0.0868952527171064,1
706,772,46,0.0906555602190496,1
707,764,46,0.14066562163932,1
707,765,46,0.122256587416024,1
707,766,46,0.104864380716788,1
707,767,46,0.0999401043861953,1
707,768,46,0.101395985988167,1
707,769,46,0.0977242021185764,1
707,770,46,0.0863895322330986,1
707,771,46,0.0762957979712906,1
707,772,46,0.0772331706836816,1
707,773,46,0.0835687246977809,1
707,774,46,0.0873446880444845,1
707,775,46,0.0939666749752379,1
707,776,46,0.108929638199291,1
707,777,46,0.116880779604027,1
708,762,46,0.137095143587613,1
708,763,46,0.154745581534794,1
708,764,46,0.140877127934606,1
708,765,46,0.124648703462771,1
708,766,46,0.101240180165599,1
708,767,46,0.0889162188803185,1
708,768,46,0.0867015046406492,1
708,769,46,0.083602151201453,1
708,770,46,0.072037464176825,1
708,777,46,0.07136485375608,1
709,761,46,0.107324096175873,1
709,762,46,0.167813565538671,1
709,763,46,0.205096694057194,1
709,764,46,0.156979920005778,1
709,765,46,0.115736142664736,1
709,766,46,0.0891997408174939,1
709,767,46,0.0760361858741069,1
710,760,46,0.0874288700877852,1
710,761,46,0.110455103406879,1
710,762,46,0.181492506910746,1
710,763,46,0.222920148682108,1
710,764,46,0.151922453923951,1
710,765,46,0.0959705546841166,1
711,759,46,0.0924225807429948,1
711,760,46,0.0903527810330151,1
711,761,46,0.108460298738726,1
711,762,46,0.147569954919383,1
711,763,46,0.167004499844842,1
711,764,46,0.113962012633218,1
711,782,46,0.0848145057338735,1
711,783,46,0.0829321407581056,1
712,758,46,0.107065143403101,1
712,759,46,0.0990665804010455,1
712,760,46,0.0932827751789505,1
712,761,46,0.0926364941943879,1
712,762,46,0.0934561588391402,1
712,763,46,0.0876865539720663,1
712,782,46,0.0749226740230881,1
712,783,46,0.0805411567589345,1
712,784,46,0.0763282541484698,1
713,757,46,0.119096146948067,1
713,758,46,0.109631109613159,1
713,759,46,0.097327525184229,1
713,760,46,0.0811059116579687,1
713,784,46,0.0719245642013595,1
714,756,46,0.124964980139123,1
714,757,46,0.13824858810584,1
714,758,46,0.110891538847269,1
714,759,46,0.0832860860065157,1
715,756,46,0.120297560427276,1
715,757,46,0.149594578467068,1
715,758,46,0.109284379613029,1
716,756,46,0.0927621452551768,1
716,757,46,0.127508890081592,1
716,758,46,0.0934868112042492,1
717,757,46,0.074407057452861,1
717,786,46,0.0911184432764125,1
718,786,46,0.0942785354220393,1
718,787,46,0.101880010967,1
719,786,46,0.105658879073141,1
719,787,46,0.102592162192331,1
720,785,46,0.0766878471946719,1
723,786,46,0.0965605878322992,1
724,786,46,0.0797395799952165,1
725,786,46,0.073740144590241,1
726,786,46,0.0805455418882774,1
727,786,46,0.0951411681143105,1
727,787,46,0.134791538733136,1
728,786,46,0.101876111000904,1
728,787,46,0.135059933529089,1
729,755,46,0.0862591663807609,1
729,756,46,0.0910132934728069,1
729,757,46,0.075514442562883,1
729,785,46,0.098028834877014,1
729,786,46,0.115812288414263,1
729,787,46,0.116333925984779,1
730,755,46,0.11972075108758,1
730,756,46,0.114397589707864,1
730,757,46,0.109854521068107,1
730,758,46,0.0846434608093334,1
730,784,46,0.0981059260728665,1
731,756,46,0.115630613438592,1
731,757,46,0.127823798348788,1
731,758,46,0.134426907453221,1
731,759,46,0.0777415035851703,1
732,756,46,0.100208704443522,1
732,759,46,0.114262888486517,1
733,760,46,0.095444668825173,1
734,761,46,0.0864301304447599,1
706,766,47,0.126974401905086,1
706,767,47,0.119785762962604,1
706,768,47,0.12039718061388,1
706,769,47,0.111829595764238,1
706,770,47,0.0976993219520918,1
706,771,47,0.0876188861392698,1
707,764,47,0.140498091038296,1
707,765,47,0.120227410797873,1
707,766,47,0.104940290104733,1
707,767,47,0.102585898610419,1
707,768,47,0.108551969712138,1
707,769,47,0.102686980506804,1
707,770,47,0.0903516365453568,1
707,771,47,0.0790361368281554,1
707,772,47,0.0779611643550213,1
707,773,47,0.0829054007991763,1
707,774,47,0.0890620290960016,1
707,775,47,0.0945152328858906,1
707,776,47,0.106916870050936,1
708,762,47,0.132637588080064,1
708,763,47,0.151345370902424,1
708,764,47,0.144461489119212,1
708,765,47,0.125411579127522,1
708,766,47,0.102718740039322,1
708,767,47,0.0929937920452318,1
708,768,47,0.0926693795544389,1
708,769,47,0.0837695263014366,1
708,770,47,0.0726067783663675,1
708,776,47,0.0727291763453885,1
708,777,47,0.0731822877173647,1
709,761,47,0.104655045216028,1
709,762,47,0.150120644707219,1
709,763,47,0.19455410915192,1
709,764,47,0.169673283342897,1
709,765,47,0.123614360301506,1
709,766,47,0.0918553129471457,1
709,767,47,0.0775802925464333,1
709,768,47,0.0718067752731797,1
710,760,47,0.0983652147278859,1
710,761,47,0.112610036826528,1
710,762,47,0.161464147051799,1
710,763,47,0.203116705528182,1
710,764,47,0.15895569134657,1
710,765,47,0.102289488747004,1
710,766,47,0.0715368752271546,1
710,781,47,0.0775169538626051,1
711,759,47,0.107320936394729,1
711,760,47,0.105997858901411,1
711,761,47,0.112639893026309,1
711,762,47,0.131985951639665,1
711,763,47,0.145180799612448,1
711,764,47,0.109560636541591,1
711,781,47,0.072123922755359,1
711,782,47,0.0920193292246538,1
712,758,47,0.122769492048105,1
712,759,47,0.107694748456077,1
712,760,47,0.100748492095488,1
712,761,47,0.0896397776619823,1
712,762,47,0.0817285316042044,1
712,763,47,0.0756576528011684,1
712,782,47,0.082798440963459,1
712,783,47,0.0916784771638563,1
713,757,47,0.140659040835285,1
713,758,47,0.119860080019894,1
713,759,47,0.0984208032398542,1
713,760,47,0.0804003723368813,1
713,783,47,0.0790550022143924,1
713,784,47,0.0847831505040613,1
714,756,47,0.118116863595233,1
714,757,47,0.146406371733314,1
714,758,47,0.119802569515065,1
714,759,47,0.0861020045891192,1
715,756,47,0.100286871706575,1
715,757,47,0.136277767918178,1
715,758,47,0.108390883074234,1
716,756,47,0.0811802909156744,1
716,757,47,0.113580039877263,1
716,758,47,0.0870023431736978,1
716,785,47,0.080896358455752,1
717,757,47,0.0732921025521861,1
717,785,47,0.0750529527948432,1
718,785,47,0.0715306365254086,1
718,786,47,0.0925893587189828,1
719,785,47,0.0740312860784023,1
719,786,47,0.109692700465291,1
719,787,47,0.106334823436195,1
720,785,47,0.079778088272893,1
720,786,47,0.134377458122333,1
722,786,47,0.119968781467265,1
723,786,47,0.0975484113022794,1
723,787,47,0.122896965581089,1
724,786,47,0.0825201314211621,1
724,787,47,0.106974156634267,1
725,786,47,0.0826017259271484,1
726,786,47,0.0893553786989384,1
726,787,47,0.112569618996073,1
727,786,47,0.0978878389735457,1
727,787,47,0.121344990556112,1
728,785,47,0.0825309231933748,1
728,786,47,0.109319659689104,1
729,756,47,0.100740617522796,1
729,757,47,0.0812689265087758,1
729,784,47,0.0805796961368191,1
729,785,47,0.12626637456735,1
730,756,47,0.133835903978545,1
730,757,47,0.117780433984028,1
730,758,47,0.0879526535726608,1
730,784,47,0.116711544711599,1
731,756,47,0.126133962321319,1
731,757,47,0.131527621652769,1
731,758,47,0.131795058562312,1
731,759,47,0.0847034966510608,1
732,757,47,0.129151043269992,1
732,758,47,0.152590523714313,1
732,759,47,0.120215978361373,1
733,760,47,0.112257845629855,1
734,761,47,0.109590953024452,1
706,767,48,0.117472094080784,1
706,768,48,0.121425577415355,1
706,769,48,0.116064287180502,1
706,770,48,0.0998335488531834,1
706,771,48,0.0876108933857866,1
707,765,48,0.117954371227922,1
707,766,48,0.105259191638649,1
707,767,48,0.107492360741808,1
707,768,48,0.113677346208384,1
707,769,48,0.107223294181361,1
707,770,48,0.0921639140921375,1
707,771,48,0.0808454847353326,1
707,772,48,0.0764827786424641,1
707,773,48,0.078427630156358,1
707,774,48,0.0846472425946391,1
707,775,48,0.0899911726933278,1
707,776,48,0.099722813452202,1
708,763,48,0.143284346242409,1
708,764,48,0.143926714820791,1
708,765,48,0.123757110256711,1
708,766,48,0.103458893892031,1
708,767,48,0.0998817230755392,1
708,768,48,0.100334374164435,1
708,769,48,0.0880774649278309,1
708,770,48,0.0738354978282933,1
708,776,48,0.0716135870004683,1
708,777,48,0.0726563023377551,1
709,762,48,0.130749071483133,1
709,763,48,0.168327365856745,1
709,764,48,0.171848021375067,1
709,765,48,0.132183176719389,1
709,766,48,0.0957350017079236,1
709,767,48,0.0829977186569174,1
709,768,48,0.077363673376935,1
710,760,48,0.131491719572532,1
710,761,48,0.120812057390011,1
710,762,48,0.137882451575852,1
710,763,48,0.166338395587632,1
710,764,48,0.155342431848593,1
710,765,48,0.111212206873006,1
710,766,48,0.0749371605000238,1
710,781,48,0.0814495440773709,1
711,759,48,0.145535702747268,1
711,760,48,0.133097361116616,1
711,761,48,0.117603498680072,1
711,762,48,0.11572249589342,1
711,763,48,0.118477352327428,1
711,764,48,0.101452333345213,1
711,765,48,0.0742264025640163,1
711,781,48,0.0763594600972831,1
711,782,48,0.0926729933986208,1
712,758,48,0.148660340655654,1
712,759,48,0.119765759308751,1
712,760,48,0.104902099049179,1
712,761,48,0.0872300651174899,1
712,762,48,0.0744371189140161,1
712,782,48,0.088750056688451,1
712,783,48,0.101244876297023,1
713,758,48,0.127313680295354,1
713,759,48,0.0964291894530523,1
713,760,48,0.076750053830925,1
713,782,48,0.0735788713510878,1
713,783,48,0.0905109255912329,1
713,784,48,0.0953374042074162,1
714,757,48,0.135048277171091,1
714,758,48,0.115774930844286,1
714,759,48,0.0843284343613469,1
714,784,48,0.0803097587705443,1
715,757,48,0.106247979215081,1
715,758,48,0.0952483332114013,1
715,784,48,0.0744196779173104,1
716,757,48,0.0870596421971119,1
716,758,48,0.0728909036475801,1
716,785,48,0.0951681071145717,1
717,785,48,0.0790446271849683,1
717,786,48,0.0972197256428928,1
718,785,48,0.0740422333516556,1
719,785,48,0.0766804951054757,1
719,786,48,0.111629098942622,1
720,785,48,0.0795338458985552,1
720,786,48,0.129893517198226,1
721,786,48,0.118959766315482,1
722,786,48,0.11014843047479,1
722,787,48,0.129481165758994,1
723,786,48,0.0933726299002097,1
723,787,48,0.109267025696906,1
724,786,48,0.0835488205645932,1
724,787,48,0.0960981152976832,1
725,786,48,0.0909601494371958,1
726,786,48,0.0979608062818034,1
727,785,48,0.0764246896737641,1
727,786,48,0.102142726864953,1
728,785,48,0.0983750797138971,1
729,756,48,0.106595443180121,1
729,757,48,0.0806286540844192,1
729,784,48,0.102069877737486,1
730,756,48,0.147108788593507,1
730,757,48,0.11373722032903,1
730,758,48,0.0813862053935427,1
730,783,48,0.0752406301106782,1
731,757,48,0.128684801390154,1
731,758,48,0.116683019600724,1
731,759,48,0.0840176748619125,1
732,757,48,0.156565590593309,1
732,758,48,0.147035280141629,1
732,759,48,0.114697308633421,1
732,760,48,0.0718346534997257,1
733,761,48,0.0762300645714382,1
706,768,49,0.121663319846199,1
706,769,49,0.120820168324285,1
706,770,49,0.109315044418221,1
706,771,49,0.0926742996073612,1
707,766,49,0.103576639279919,1
707,767,49,0.107373844068759,1
707,768,49,0.110946349854035,1
707,769,49,0.104585038647582,1
707,770,49,0.0939361967712943,1
707,771,49,0.0826064096184891,1
707,772,49,0.0757003907071474,1
707,773,49,0.0736746288918454,1
707,774,49,0.0786495674614424,1
708,764,49,0.134617800530574,1
708,765,49,0.115542948171983,1
708,766,49,0.0984943365718994,1
708,767,49,0.0982854737943027,1
708,768,49,0.0986868281999492,1
708,769,49,0.0851686064833241,1
708,770,49,0.0725774695302486,1
709,762,49,0.121061593019769,1
709,763,49,0.13607653713165,1
709,764,49,0.148148331709567,1
709,765,49,0.122745395606864,1
709,766,49,0.0904373424988547,1
709,767,49,0.0814370293536291,1
709,768,49,0.077434469890667,1
710,761,49,0.139184045045412,1
710,762,49,0.121363887042557,1
710,763,49,0.12701493169629,1
710,764,49,0.131235702659405,1
710,765,49,0.105522162558308,1
710,766,49,0.0740356463275788,1
711,760,49,0.1578788155407,1
711,761,49,0.118964605507863,1
711,762,49,0.0993367976691932,1
711,763,49,0.0935834457708754,1
711,764,49,0.0882944075394935,1
711,765,49,0.0749946834449362,1
711,781,49,0.0863710835896503,1
711,782,49,0.101158063176117,1
712,759,49,0.133340042260507,1
712,760,49,0.103875443859358,1
712,761,49,0.081628961177933,1
712,781,49,0.081844715761646,1
712,782,49,0.106992630157882,1
712,783,49,0.119886452996367,1
713,758,49,0.133798708129651,1
713,759,49,0.098910252094981,1
713,760,49,0.0744309361926446,1
713,782,49,0.0878881019807165,1
713,783,49,0.104689784148482,1
713,784,49,0.104099240956887,1
714,757,49,0.110530452991078,1
714,758,49,0.105596852818095,1
714,759,49,0.0838211277667257,1
714,783,49,0.0775996057756669,1
714,784,49,0.0976908067151124,1
715,757,49,0.0783840525447603,1
715,758,49,0.0800257827703306,1
715,784,49,0.0917384508051674,1
715,785,49,0.130689595445151,1
716,784,49,0.0723871611368078,1
717,785,49,0.0814626745852331,1
718,785,49,0.0764874063534302,1
718,786,49,0.0997262655753017,1
719,785,49,0.0772924228001647,1
719,786,49,0.107788546683724,1
720,785,49,0.0779509634867626,1
721,786,49,0.108508230379458,1
722,786,49,0.0988707610507284,1
723,786,49,0.0899063002254071,1
724,786,49,0.0903533843770524,1
725,785,49,0.0740978094235406,1
726,785,49,0.0817142255084758,1
727,785,49,0.0916304895427491,1
728,784,49,0.090749532607862,1
728,785,49,0.119312343154735,1
729,757,49,0.0808075984618182,1
729,783,49,0.0819971005613226,1
729,784,49,0.122748729549173,1
730,757,49,0.105046652816454,1
730,758,49,0.0725884354636267,1
731,757,49,0.129666498119137,1
731,758,49,0.100136402679717,1
731,759,49,0.0763322660753154,1
732,758,49,0.138789632206214,1
732,759,49,0.101087036520845,1
732,760,49,0.0741131480461783,1
733,760,49,0.13050212339069,1
733,761,49,0.0843952873686911,1
734,761,49,0.125602210963127,1
735,762,49,0.0830004430351475,1
736,763,49,0.0795761608417039,1
707,767,50,0.103866853981879,1
707,768,50,0.101860585777018,1
707,769,50,0.095363727423557,1
707,770,50,0.0883662987805507,1
707,771,50,0.078130722689614,1
708,764,50,0.119701008675474,1
708,765,50,0.104680615807133,1
708,766,50,0.09382061595789,1
708,767,50,0.09428686405777,1
708,768,50,0.0904739101235454,1
708,769,50,0.0772587723749942,1
709,763,50,0.110370809402829,1
709,764,50,0.11916130810409,1
709,765,50,0.106646323120582,1
709,766,50,0.0847339561948796,1
709,767,50,0.077480703460037,1
709,768,50,0.0723354850310193,1
710,761,50,0.150375380291771,1
710,762,50,0.107386831515664,1
710,763,50,0.0962991470428789,1
710,764,50,0.102538564093682,1
710,765,50,0.091763841015065,1
710,780,50,0.0776297543174047,1
711,760,50,0.161425296671833,1
711,761,50,0.109971345889836,1
711,762,50,0.0823138499608382,1
711,763,50,0.0736302986552115,1
711,764,50,0.074444228421589,1
711,765,50,0.0722867821051257,1
711,780,50,0.0737478201216015,1
711,781,50,0.100706649875503,1
712,759,50,0.13616037085262,1
712,760,50,0.0951476804978878,1
712,781,50,0.10191196954085,1
712,782,50,0.129817321688367,1
713,758,50,0.131641460854519,1
713,759,50,0.0971008171072212,1
713,781,50,0.073863363614756,1
713,782,50,0.0964796091104334,1
713,783,50,0.109318925724193,1
714,758,50,0.0904136379202365,1
714,759,50,0.0762058872696568,1
714,783,50,0.0781706615768634,1
715,784,50,0.0935084631691324,1
718,785,50,0.0726109706744202,1
719,785,50,0.0715239064403745,1
725,785,50,0.0817780804557585,1
726,785,50,0.0910655169422581,1
726,786,50,0.119067870638857,1
727,784,50,0.080144398964046,1
727,785,50,0.105825489108005,1
727,786,50,0.134714422657117,1
728,783,50,0.0736126710572571,1
728,784,50,0.111627183169803,1
728,785,50,0.135704640843121,1
729,757,50,0.0814658654665848,1
729,783,50,0.0944176839731461,1
729,784,50,0.136418440379482,1
730,757,50,0.107863535505509,1
730,758,50,0.0756613910461827,1
731,758,50,0.102138329295527,1
732,758,50,0.138807135403336,1
732,759,50,0.0929940221867717,1
732,760,50,0.0731264130834819,1
733,760,50,0.129572488410075,1
733,761,50,0.0866434405521157,1
734,761,50,0.121911847829214,1
734,762,50,0.0824795518696257,1
735,761,50,0.130825590435156,1
735,762,50,0.099014804774591,1
735,763,50,0.0835360259389785,1
736,762,50,0.0880980159453472,1
736,763,50,0.0868122400416305,1
736,764,50,0.0751609575975529,1
707,767,51,0.0987886876015372,1
707,768,51,0.0916935856449541,1
708,765,51,0.0951509211395725,1
708,766,51,0.0901967512889485,1
708,767,51,0.0880238979293895,1
708,768,51,0.0811719560599021,1
709,764,51,0.0948429668789092,1
709,765,51,0.0889491166804528,1
709,766,51,0.0776702343482751,1
710,763,51,0.077710658398771,1
710,764,51,0.0795026026294922,1
710,765,51,0.0757257560368784,1
711,761,51,0.0979480925167298,1
711,780,51,0.0826460872639904,1
711,781,51,0.116842202905893,1
712,760,51,0.0895888977215213,1
712,780,51,0.0787409025526074,1
712,781,51,0.112104372322894,1
712,782,51,0.143861777586267,1
713,759,51,0.0943737393790926,1
713,781,51,0.0747213748161027,1
713,782,51,0.0949322866765889,1
713,783,51,0.105004232132598,1
724,785,51,0.0746449989250366,1
725,785,51,0.0873750231874708,1
725,786,51,0.108029983819291,1
726,784,51,0.0801843191911705,1
726,785,51,0.0989725644719418,1
726,786,51,0.121464141673406,1
727,784,51,0.10391773392234,1
727,785,51,0.119301818844312,1
727,786,51,0.144654745812381,1
728,783,51,0.0883817680240625,1
728,784,51,0.129835782771899,1
728,785,51,0.141714668978978,1
728,786,51,0.171150966190751,1
729,757,51,0.0872912392268339,1
729,758,51,0.0725635988374335,1
729,783,51,0.102275139110984,1
729,784,51,0.13619405859804,1
729,785,51,0.148517851942197,1
730,757,51,0.127041130511598,1
730,758,51,0.098032660202611,1
730,782,51,0.0775617506023606,1
731,758,51,0.122320753365388,1
731,759,51,0.0730007682427346,1
732,759,51,0.0956951125810071,1
732,760,51,0.0714495956031266,1
733,760,51,0.122624415797333,1
733,761,51,0.0862089395446701,1
734,761,51,0.125763459322114,1
734,762,51,0.102440187915402,1
734,763,51,0.081678839691693,1
735,762,51,0.121177932678251,1
735,763,51,0.0972610453793821,1
735,764,51,0.0762532093463106,1
736,763,51,0.0947686062813283,1
736,764,51,0.0911844938983876,1
736,765,51,0.0788156052524775,1
737,765,51,0.085651325253417,1
708,767,52,0.0777960160299381,1
709,765,52,0.0745528490084192,1
711,780,52,0.0848684459348122,1
712,780,52,0.0777484762518276,1
712,781,52,0.109412736391923,1
713,782,52,0.0845409420833336,1
724,785,52,0.074843523993459,1
725,784,52,0.0771713559100506,1
725,785,52,0.0860866784065647,1
725,786,52,0.0958429629703419,1
726,783,52,0.0745539623958694,1
726,784,52,0.0978361566477155,1
726,785,52,0.10294360698401,1
726,786,52,0.111930285798002,1
727,783,52,0.0879084601769425,1
727,784,52,0.126320439169121,1
727,785,52,0.126445238084208,1
727,786,52,0.135362961516788,1
728,783,52,0.0963670636773403,1
728,784,52,0.135546465184695,1
728,785,52,0.135247144341802,1
728,786,52,0.145603215079024,1
729,757,52,0.0972450536523741,1
729,758,52,0.0918775682560661,1
729,782,52,0.0725808034725576,1
729,783,52,0.102153817199164,1
729,784,52,0.126404944654586,1
729,785,52,0.130445359290855,1
729,786,52,0.136572921333185,1
730,758,52,0.128261266316087,1
730,759,52,0.0762380511048798,1
730,782,52,0.0878094308942922,1
731,758,52,0.142368681475275,1
731,759,52,0.0780629615561931,1
732,759,52,0.0966577262222967,1
733,760,52,0.112191938068837,1
733,761,52,0.0884245867905826,1
733,762,52,0.0774768221540654,1
734,761,52,0.137923454090219,1
734,762,52,0.11982553390873,1
734,763,52,0.0914989481025449,1
735,762,52,0.138465306796004,1
735,763,52,0.099795793200543,1
735,764,52,0.0785998817689726,1
736,763,52,0.0920562265115505,1
736,764,52,0.0929058282166254,1
736,765,52,0.0899622805999975,1
737,765,52,0.101822326301006,1
724,785,53,0.0724234364195424,1
725,783,53,0.0828796062865734,1
725,784,53,0.0891580540985489,1
725,785,53,0.0871941319370445,1
725,786,53,0.0848338749434818,1
726,783,53,0.0960980655373503,1
726,784,53,0.118822104354322,1
726,785,53,0.110687123399431,1
726,786,53,0.100801511730267,1
726,787,53,0.0957569895550544,1
727,783,53,0.104002133667097,1
727,784,53,0.141541527900411,1
727,785,53,0.129879385263663,1
727,786,53,0.115860406656244,1
727,787,53,0.116364341988306,1
728,758,53,0.0732102716846182,1
728,783,53,0.104106518405584,1
728,784,53,0.136426290072007,1
728,785,53,0.128702578269107,1
728,786,53,0.116174157995698,1
728,787,53,0.116403901453017,1
729,758,53,0.106001429205301,1
729,759,53,0.0742264274441827,1
729,782,53,0.0808072128192377,1
729,783,53,0.104557819745448,1
729,784,53,0.125984270799665,1
729,785,53,0.126739085290475,1
729,786,53,0.112637566730743,1
730,758,53,0.144777541874066,1
730,759,53,0.0826624273133292,1
731,759,53,0.0835814944432291,1
732,760,53,0.0720939297146618,1
733,761,53,0.0942345846079442,1
733,762,53,0.0843916735245092,1
733,763,53,0.0716104520994912,1
734,762,53,0.129027463483063,1
734,763,53,0.0925357544002917,1
734,764,53,0.0742679026817126,1
735,763,53,0.098935306422631,1
735,764,53,0.0777816974941262,1
736,765,53,0.0938534080173167,1
736,766,53,0.0751318664628907,1
724,782,54,0.0762800861461556,1
724,783,54,0.0813322962928121,1
724,784,54,0.0717224563889633,1
725,782,54,0.0832444241677372,1
725,783,54,0.0984847203875531,1
725,784,54,0.0945812088673662,1
725,785,54,0.0852520918819633,1
725,786,54,0.0741005089216041,1
726,782,54,0.0748549937502084,1
726,783,54,0.10751765143104,1
726,784,54,0.125120219937904,1
726,785,54,0.110996010666338,1
726,786,54,0.0882686690072651,1
727,782,54,0.0731007180915449,1
727,783,54,0.110351066990724,1
727,784,54,0.138779008375125,1
727,785,54,0.123635956286015,1
727,786,54,0.0966344383864671,1
728,758,54,0.0725328842719082,1
728,782,54,0.0773468979246827,1
728,783,54,0.107518945199697,1
728,784,54,0.130736656280057,1
728,785,54,0.121469155026953,1
728,786,54,0.0971574568062234,1
729,759,54,0.0751905525555863,1
729,782,54,0.0832413887874261,1
729,783,54,0.106571097937216,1
729,784,54,0.126182914048878,1
729,785,54,0.124624793622779,1
729,786,54,0.0985081388442568,1
730,759,54,0.0787364054625153,1
733,762,54,0.0863753629782856,1
733,763,54,0.073642701418204,1
734,763,54,0.0880059406692292,1
734,764,54,0.0718887740818713,1
735,764,54,0.0745248837012905,1
724,782,55,0.0892660402411337,1
724,783,55,0.0931175895336176,1
724,784,55,0.0748512617252357,1
725,782,55,0.0907000210765576,1
725,783,55,0.106986310595595,1
725,784,55,0.0986042073870955,1
725,785,55,0.0875169209969742,1
725,786,55,0.0715781763035191,1
726,782,55,0.0792667573113429,1
726,783,55,0.108956247537347,1
726,784,55,0.119198043669905,1
726,785,55,0.106631892624021,1
726,786,55,0.0808694070154076,1
727,782,55,0.0778739780316176,1
727,783,55,0.109668355222386,1
727,784,55,0.125982666028926,1
727,785,55,0.114000713732185,1
727,786,55,0.0867854192221601,1
728,782,55,0.0788448829883882,1
728,783,55,0.10823060504174,1
728,784,55,0.125500600363204,1
728,785,55,0.118183355840163,1
728,786,55,0.091792080004025,1
729,782,55,0.0786429804373656,1
729,783,55,0.105367121800859,1
729,784,55,0.124930309627127,1
729,785,55,0.121857646386527,1
729,786,55,0.0935673234229934,1
730,782,55,0.0780551429638753,1
733,762,55,0.0831331662832597,1
724,782,56,0.0821696631760182,1
724,783,56,0.0882049571209396,1
724,784,56,0.0714194097411391,1
725,782,56,0.0807494410726604,1
725,783,56,0.0971562190179408,1
725,784,56,0.0899847536103747,1
725,785,56,0.0782636574191412,1
726,782,56,0.0720328489059421,1
726,783,56,0.0949808154413172,1
726,784,56,0.0991206450028165,1
726,785,56,0.088465166342119,1
727,782,56,0.0714511568335735,1
727,783,56,0.0966168854290122,1
727,784,56,0.1040598494333,1
727,785,56,0.0937770445663338,1
728,782,56,0.0717564489164229,1
728,783,56,0.100336358357712,1
728,784,56,0.111353974061635,1
728,785,56,0.103049123770071,1
729,783,56,0.0989213299891083,1
729,784,56,0.113601113378276,1
729,785,56,0.106898110405407,1
730,783,56,0.0876314133030948,1
725,783,57,0.0775703840201308,1
725,784,57,0.0738451264527228,1
726,783,57,0.0775638716365534,1
726,784,57,0.0785940846901817,1
727,783,57,0.0818516822082617,1
727,784,57,0.086115931262309,1
728,783,57,0.0881887414724333,1
728,784,57,0.09464219015542,1
729,783,57,0.086257785531521,1
729,784,57,0.0930446408854847,1
730,783,57,0.0739299616003937,1
728,783,58,0.0721349322290285,1
