x,y,z,signal,mito.p
26,24,1,0.192224380122634,1
26,25,1,0.227693259341182,1
26,26,1,0.22370758107118,1
26,27,1,0.199337395799086,1
27,23,1,0.178126854829623,1
27,24,1,0.257086339703771,1
27,25,1,0.319960510823704,2
27,26,1,0.316015188183739,2
27,27,1,0.271679328632157,2
27,28,1,0.224110241685566,1
27,29,1,0.198210610379248,1
27,30,1,0.191563326539221,1
28,23,1,0.185360190991195,1
28,24,1,0.257329991174155,1
28,25,1,0.322371747278393,2
28,26,1,0.346409720127501,2
28,27,1,0.337566438153043,2
28,28,1,0.287073434041181,2
28,29,1,0.24729420282009,1
28,30,1,0.239423610954348,1
28,31,1,0.217380704015142,1
29,24,1,0.201303538515449,1
29,25,1,0.2457484727169,1
29,26,1,0.296005587970322,2
29,27,1,0.344160154994628,2
29,28,1,0.317721345600421,2
29,29,1,0.268559878238483,2
29,30,1,0.246753706083378,1
29,31,1,0.222940475778126,1
30,25,1,0.176108488643809,1
30,26,1,0.21261281819103,1
30,27,1,0.265957387944026,1
30,28,1,0.267604355444641,1
30,29,1,0.239334042355003,1
30,30,1,0.216888002078247,1
30,31,1,0.202868675148497,1
31,27,1,0.1826261841367,1
31,28,1,0.196926719148142,1
31,29,1,0.197610650044638,1
31,30,1,0.193653384924761,1
31,31,1,0.19298980600445,1
32,29,1,0.171197056699164,1
32,30,1,0.182382184343986,1
32,31,1,0.190258013484773,1
33,31,1,0.188149319854536,1
35,30,1,0.17428336671108,1
40,31,1,0.167306383344883,1
41,27,1,0.190751971870075,1
41,28,1,0.183872680477579,1
41,29,1,0.174335403579283,1
41,30,1,0.177653372821338,1
41,31,1,0.19731157800341,1
42,26,1,0.207097644126469,1
42,27,1,0.223564072270896,1
42,28,1,0.198591749649626,1
42,29,1,0.178180160586316,1
42,30,1,0.191135872838932,1
43,26,1,0.21944685256069,1
43,27,1,0.242497630164021,1
43,28,1,0.213204468550034,1
43,29,1,0.186745008617645,1
43,30,1,0.201854509802251,1
44,27,1,0.221270071160682,1
44,28,1,0.210067950362151,1
44,29,1,0.193403525852839,1
44,30,1,0.200398932982319,1
45,31,1,0.180943998760426,1
46,31,1,0.176163349410907,1
47,30,1,0.182732559288505,1
47,31,1,0.187227223564366,1
48,30,1,0.195811988168966,1
48,31,1,0.200398211457491,1
49,30,1,0.194146621785235,1
49,31,1,0.196118362539057,1
50,31,1,0.187351711477372,1
61,29,1,0.293002925078126,3
61,30,1,0.298057057217644,1
61,31,1,0.301408291242289,1
62,30,1,0.288367526140545,1
63,31,1,0.277650717869463,1
25,24,2,0.14340805043017,1
25,25,2,0.162261705668629,1
25,26,2,0.162662637111446,1
25,27,2,0.156264204696598,1
26,23,2,0.153207029359635,1
26,24,2,0.210811917100374,1
26,25,2,0.267458333747543,2
26,26,2,0.267376975603139,2
26,27,2,0.223863256272874,2
26,28,2,0.187598821290897,1
26,29,2,0.163265806987532,1
26,30,2,0.150972367446487,1
27,23,2,0.197096377003401,1
27,24,2,0.289872975254196,2
27,25,2,0.389895747832468,2
27,26,2,0.401612912957397,2
27,27,2,0.33082747089952,2
27,28,2,0.25705683182632,2
27,29,2,0.210427443887687,1
27,30,2,0.199807867307227,1
27,31,2,0.187581454934691,1
28,23,2,0.197757940630227,1
28,24,2,0.272366543710628,2
28,25,2,0.360837380349596,2
28,26,2,0.409248262849027,2
28,27,2,0.40300878981785,2
28,28,2,0.341876578674171,2
28,29,2,0.278408791662082,2
28,30,2,0.269629849798154,1
29,23,2,0.157977465400812,1
29,24,2,0.193267518422751,1
29,25,2,0.241289275118363,2
29,26,2,0.306264028934258,2
29,27,2,0.38330240419338,2
29,28,2,0.370341031702889,2
29,29,2,0.302418550402396,2
29,30,2,0.274493972106228,2
30,24,2,0.142631926076766,1
30,25,2,0.161250911584942,1
30,26,2,0.194337639263421,2
30,27,2,0.264472241046227,2
30,28,2,0.290004566454733,2
30,29,2,0.263939929884288,2
30,30,2,0.234183798132355,1
31,26,2,0.141339749750221,1
31,27,2,0.179036660317549,1
31,28,2,0.215769887396428,1
31,29,2,0.229029797004569,1
31,30,2,0.216664105460052,1
31,31,2,0.207859748506059,1
32,28,2,0.172785729969705,1
32,29,2,0.194030991211498,1
32,30,2,0.201170006661926,1
32,31,2,0.20725652886964,1
33,29,2,0.160521624144945,1
33,30,2,0.182041500224312,1
34,30,2,0.172542675623317,1
35,30,2,0.166126640490682,1
36,30,2,0.162087357901988,1
39,28,2,0.185312508152127,1
39,29,2,0.193424748634851,1
39,30,2,0.180488915635256,1
39,31,2,0.164755345234716,1
40,27,2,0.181150379741416,1
40,28,2,0.197482591827742,1
40,29,2,0.200425940403038,1
40,30,2,0.191172247642333,1
41,26,2,0.18085143210102,1
41,27,2,0.202460827019398,1
41,28,2,0.202235897874294,1
41,29,2,0.195994645911213,1
41,30,2,0.198487265390474,1
42,25,2,0.178022420330804,1
42,26,2,0.220056466399896,1
42,27,2,0.237324471308041,1
42,28,2,0.210713341880762,1
42,29,2,0.192614140370699,1
42,30,2,0.210813086468199,1
43,25,2,0.177712040253908,1
43,26,2,0.232360181449699,1
43,27,2,0.255302382006492,1
43,28,2,0.220473557510844,1
43,29,2,0.197327862072374,1
43,30,2,0.224396089918308,1
44,26,2,0.189763943138721,1
44,27,2,0.21856676643163,1
44,28,2,0.21080699082741,1
44,29,2,0.200362583059085,1
44,30,2,0.214995069251765,1
45,27,2,0.183123028621315,1
45,28,2,0.194579922324648,1
45,29,2,0.195844755348226,1
45,30,2,0.196757384735048,1
46,30,2,0.192841122129538,1
47,29,2,0.184376068445979,1
47,30,2,0.206342580833994,1
48,29,2,0.203357446019087,1
48,30,2,0.22768761154339,1
49,29,2,0.223492715953418,1
49,30,2,0.242832641605736,1
50,30,2,0.236943730120327,1
57,30,2,0.245107086905093,1
58,30,2,0.252025838241634,1
59,30,2,0.247880479063133,1
60,29,2,0.274153785589884,3
60,30,2,0.287934735644545,1
61,28,2,0.283236190844426,3
61,29,2,0.292953936030318,3
61,30,2,0.308135116974567,3
62,29,2,0.291240364324023,3
62,30,2,0.289642883474546,1
63,30,2,0.233668206442295,1
64,31,2,0.216854961217155,1
25,24,3,0.153488038399995,1
25,25,3,0.173567477240735,1
25,26,3,0.173561331839613,1
25,27,3,0.159402452056051,1
25,28,3,0.15793168589448,1
26,23,3,0.175965029603858,1
26,24,3,0.226302905877689,1
26,25,3,0.287662248061206,2
26,26,3,0.292060339970857,2
26,27,3,0.234830334138625,2
26,28,3,0.193440958063315,1
26,29,3,0.17105861101276,1
26,30,3,0.155704276549862,1
26,31,3,0.149169836704926,1
27,22,3,0.146096290218416,1
27,23,3,0.226070002639226,1
27,24,3,0.299238516803332,2
27,25,3,0.405674873817841,2
27,26,3,0.435985335679051,2
27,27,3,0.351842180078583,2
27,28,3,0.276027162605509,2
27,29,3,0.229409592745956,2
27,30,3,0.210577645452755,1
28,22,3,0.144405483864455,1
28,23,3,0.213345165891504,1
28,24,3,0.264950786168392,2
28,25,3,0.351813816688791,2
28,26,3,0.421309669957437,2
28,27,3,0.414684380184583,2
28,28,3,0.366827156029934,2
28,29,3,0.300254523281898,2
28,30,3,0.281871737634243,2
29,23,3,0.161456098317941,1
29,24,3,0.183852428022061,1
29,25,3,0.224037467198599,2
29,26,3,0.291063441460151,2
29,27,3,0.367693582947594,2
29,28,3,0.381153827656268,2
29,29,3,0.313183725717124,2
29,30,3,0.279249069524767,2
30,25,3,0.154961441859214,1
30,26,3,0.180826539494452,2
30,27,3,0.243603205241931,2
30,28,3,0.295774525864179,2
30,29,3,0.277821047489216,2
30,30,3,0.240649879719875,1
31,26,3,0.14110850104283,1
31,27,3,0.182861612712061,1
31,28,3,0.245034088496628,2
31,29,3,0.263193997612913,1
31,30,3,0.234543739500888,1
32,27,3,0.153479255701226,1
32,28,3,0.193126597159782,1
32,29,3,0.214880620485935,1
32,30,3,0.211594597377647,1
33,28,3,0.149631575274631,1
33,29,3,0.168261246814312,1
33,30,3,0.187708368663929,1
34,30,3,0.172924088575526,1
35,30,3,0.162327103186234,1
36,25,3,0.181228652745176,1
36,30,3,0.156219470157259,1
38,28,3,0.191748111535702,1
38,29,3,0.20045430379283,1
38,30,3,0.183692386351148,1
39,27,3,0.187893203420743,1
39,28,3,0.220785455277895,1
39,29,3,0.232782870598106,1
39,30,3,0.209535863121711,1
39,31,3,0.18475909860901,1
40,27,3,0.195482674285376,1
40,28,3,0.223361323794213,1
40,29,3,0.231293867274502,1
40,30,3,0.216439860519526,1
41,26,3,0.182652295871426,1
41,27,3,0.208999322331471,1
41,28,3,0.220908338420162,1
41,29,3,0.216517660800123,1
41,30,3,0.212354139100089,1
42,25,3,0.175540573963631,1
42,26,3,0.218813851364988,1
42,27,3,0.238214733425193,1
42,28,3,0.225646990048655,1
42,29,3,0.208240278212358,1
42,30,3,0.217921598834517,1
43,25,3,0.167599509026321,1
43,26,3,0.222966400911603,1
43,27,3,0.245980231467704,1
43,28,3,0.223580443420443,1
43,29,3,0.203316742066718,1
43,30,3,0.225036629804454,1
44,26,3,0.175116093443237,1
44,27,3,0.204924871627451,1
44,28,3,0.208931088474887,1
44,29,3,0.201295502221675,1
44,30,3,0.210473422435351,1
45,27,3,0.177900059672032,1
45,28,3,0.199583585046451,1
45,29,3,0.197928942014476,1
45,30,3,0.192139538754922,1
46,30,3,0.195158485716081,1
47,29,3,0.188164272834593,1
47,30,3,0.217007601038538,1
48,28,3,0.182842952587197,1
48,29,3,0.219431128295471,1
48,30,3,0.245225143295063,1
49,28,3,0.201712593332623,1
49,29,3,0.265834803363756,1
49,30,3,0.282837859379007,1
50,29,3,0.248904297913975,1
50,30,3,0.291351628428543,1
51,30,3,0.228903480399326,1
56,30,3,0.208330966419194,1
57,30,3,0.26263588571833,1
58,30,3,0.246403244058276,1
59,30,3,0.217341940715759,1
61,29,3,0.274540871220052,3
61,30,3,0.282941360871583,1
62,30,3,0.254594939352668,1
25,24,4,0.151745008576583,1
25,25,4,0.179212301852847,1
25,26,4,0.183408105568895,2
25,27,4,0.158969736200551,1
25,28,4,0.14870552303799,1
26,23,4,0.186430349152114,1
26,24,4,0.226345475842544,1
26,25,4,0.287399961346125,2
26,26,4,0.301054967998041,2
26,27,4,0.236854385442481,2
26,28,4,0.192115118871517,1
26,29,4,0.172306226961131,1
26,30,4,0.158372425603672,1
26,31,4,0.157518774651501,1
27,22,4,0.151083146387759,1
27,23,4,0.240491567220533,1
27,24,4,0.285972561314736,2
27,25,4,0.379680225155718,2
27,26,4,0.429086911438529,2
27,27,4,0.347933779605682,2
27,28,4,0.28544405681827,2
27,29,4,0.24705547762267,2
27,30,4,0.22008997998415,1
28,22,4,0.142825842094347,1
28,23,4,0.213360243272394,1
28,24,4,0.242993118679562,2
28,25,4,0.320080134664162,2
28,26,4,0.400332554709932,2
28,27,4,0.388329640872928,2
28,28,4,0.363900502046349,2
28,29,4,0.306681617648536,2
28,30,4,0.280483474104735,2
29,23,4,0.157679612487741,1
29,24,4,0.173611378294497,1
29,25,4,0.213793158169226,2
29,26,4,0.275581882265934,2
29,27,4,0.331417006444373,2
29,28,4,0.366071868815961,2
29,29,4,0.3136334596065,2
29,30,4,0.282609633611844,2
30,25,4,0.154662830101066,1
30,26,4,0.177476014554552,1
30,27,4,0.225491314846961,2
30,28,4,0.291373572735382,2
30,29,4,0.290070573536416,2
30,30,4,0.25490081611943,2
31,26,4,0.141792270218243,1
31,27,4,0.186186100557735,1
31,28,4,0.264051492550805,2
31,29,4,0.292005528964091,2
31,30,4,0.25539829504829,1
32,27,4,0.157163709795599,1
32,28,4,0.202988995633616,1
32,29,4,0.230114721544297,1
32,30,4,0.225882530584765,1
33,28,4,0.154790353394383,1
33,29,4,0.177566491279973,1
33,30,4,0.198166373443238,1
34,30,4,0.177381494802077,1
35,24,4,0.185324699433704,1
35,25,4,0.192802756912819,1
35,26,4,0.173455640892387,1
35,30,4,0.160243152881566,1
36,24,4,0.189033548531316,1
36,25,4,0.20477738200053,1
36,26,4,0.189476365734409,1
36,30,4,0.153795296015997,1
37,25,4,0.181033729080853,1
37,26,4,0.177726620031468,1
37,27,4,0.169548049024896,1
37,28,4,0.17414086555754,1
37,29,4,0.17596530328569,1
37,30,4,0.166731216096175,1
38,27,4,0.189671438679731,1
38,28,4,0.223515655466917,1
38,29,4,0.23333772319088,1
38,30,4,0.204707443852542,1
38,31,4,0.174646455420673,1
39,26,4,0.169421520938239,1
39,27,4,0.205091494102399,1
39,28,4,0.250560595477022,1
39,29,4,0.265286295213437,4
39,30,4,0.237390254468226,1
40,26,4,0.16805470411224,1
40,27,4,0.200744754856372,1
40,28,4,0.235874728887149,1
40,29,4,0.247215108770835,1
40,30,4,0.235689346766672,1
41,26,4,0.18477721137021,1
41,27,4,0.208989046822712,1
41,28,4,0.226158451631079,1
41,29,4,0.222510894823603,1
41,30,4,0.217962327667052,1
42,25,4,0.184644276640683,1
42,26,4,0.217793789419286,1
42,27,4,0.23554165809842,1
42,28,4,0.232580047480924,1
42,29,4,0.213922659435778,1
42,30,4,0.214402796888599,1
43,25,4,0.169327822231258,1
43,26,4,0.213871008210156,1
43,27,4,0.235677105724762,1
43,28,4,0.226241601147471,1
43,29,4,0.205606438908131,1
43,30,4,0.215352721644981,1
44,26,4,0.171808996833936,1
44,27,4,0.203026191482511,1
44,28,4,0.217419168752527,1
44,29,4,0.205090996499069,1
44,30,4,0.202754400543833,1
45,27,4,0.187699884527158,1
45,28,4,0.220141631209773,1
45,29,4,0.207596702945901,1
45,30,4,0.19207921679128,1
46,28,4,0.202501692692849,1
46,29,4,0.196914602507064,1
46,30,4,0.198351568962466,1
47,29,4,0.197061096927326,1
47,30,4,0.224715949338634,1
48,28,4,0.193993086277859,1
48,29,4,0.237210072302545,1
48,30,4,0.266188275889003,1
49,28,4,0.212834724395906,1
49,29,4,0.3027187544912,5
49,30,4,0.328718677748618,1
50,28,4,0.176701905494633,1
50,29,4,0.278617287457223,1
50,30,4,0.332165799934894,1
51,29,4,0.181575905228802,1
51,30,4,0.238753389029585,1
56,30,4,0.225413315525031,1
57,30,4,0.263438942851954,1
58,30,4,0.224603291944792,1
25,24,5,0.150253193794166,1
25,25,5,0.189237242454325,1
25,26,5,0.203066746153881,2
25,27,5,0.167317753580966,1
25,28,5,0.141727283223385,1
26,23,5,0.18071158068521,1
26,24,5,0.217722905824971,1
26,25,5,0.281531227675735,2
26,26,5,0.308010442460312,2
26,27,5,0.244946609831268,2
26,28,5,0.194206234664132,1
26,29,5,0.177722539684165,1
26,30,5,0.163411020079219,1
26,31,5,0.16728078165357,1
27,22,5,0.138105813270468,1
27,23,5,0.224364666268038,1
27,24,5,0.253278330702636,2
27,25,5,0.331474454748786,2
27,26,5,0.394105919844661,2
27,27,5,0.334272702193144,2
27,28,5,0.284931699549852,2
27,29,5,0.259054808715701,2
27,30,5,0.22456069709977,1
28,23,5,0.193851928653308,1
28,24,5,0.21126702510571,1
28,25,5,0.279904089667807,2
28,26,5,0.355478789612806,2
28,27,5,0.341532660132854,2
28,28,5,0.333218305617693,2
28,29,5,0.297505215125015,2
28,30,5,0.264420216618107,2
29,24,5,0.163795219610075,1
29,25,5,0.208425125409255,1
29,26,5,0.25682144057121,2
29,27,5,0.282771827417157,2
29,28,5,0.326062272133389,2
29,29,5,0.302463857185565,2
29,30,5,0.278125456326156,2
30,25,5,0.154439754528365,1
30,26,5,0.177741187368945,1
30,27,5,0.212777400492325,2
30,28,5,0.282714752315241,2
30,29,5,0.300275696303576,2
30,30,5,0.274387261072176,2
31,26,5,0.147418583986491,1
31,27,5,0.192266290763077,1
31,28,5,0.273294300238673,2
31,29,5,0.311039105126484,2
31,30,5,0.279354063827332,2
32,27,5,0.165445122970335,1
32,28,5,0.213803209756486,1
32,29,5,0.248812664260812,2
32,30,5,0.249006654918893,1
33,28,5,0.16184384327252,1
33,29,5,0.188833176110532,1
33,30,5,0.211488160025426,1
34,24,5,0.188579796495053,1
34,25,5,0.188660880957626,1
34,26,5,0.1653747742996,1
34,29,5,0.155113608957434,1
34,30,5,0.181381404527308,1
35,23,5,0.193491464801279,1
35,24,5,0.239922433412198,1
35,25,5,0.240890520690114,1
35,26,5,0.205052581522017,1
35,27,5,0.163989483949987,1
35,30,5,0.158667479498013,1
36,23,5,0.195999908066424,1
36,24,5,0.241801906068612,1
36,25,5,0.242987595282602,1
36,26,5,0.213778827193331,1
36,27,5,0.179612412250169,1
36,28,5,0.159898512815421,1
36,29,5,0.153200859078347,1
37,24,5,0.195541976162192,1
37,25,5,0.198165900720075,1
37,26,5,0.194234660254341,1
37,27,5,0.196283069241186,1
37,28,5,0.21034688190861,1
37,29,5,0.206712262787706,1
37,30,5,0.181424857738074,1
38,25,5,0.168774661489806,1
38,26,5,0.192773771518864,1
38,27,5,0.231472581510361,1
38,28,5,0.282961041083272,4
38,29,5,0.288081055903641,4
38,30,5,0.236871602517688,1
38,31,5,0.19218028002754,1
39,26,5,0.193819833238543,1
39,27,5,0.238277083122404,1
39,28,5,0.294438261882624,4
39,29,5,0.309498798899588,4
39,30,5,0.276402355516097,4
40,26,5,0.187215741367534,1
40,27,5,0.219446180796195,1
40,28,5,0.258985816014039,1
40,29,5,0.274368252624981,4
40,30,5,0.269559488687335,1
41,25,5,0.185256266535788,1
41,26,5,0.20152170025527,1
41,27,5,0.222872851485621,1
41,28,5,0.246357215750279,1
41,29,5,0.247182864075071,1
41,30,5,0.242639671034482,1
42,25,5,0.201203918328845,1
42,26,5,0.225065490797577,1
42,27,5,0.242442868917588,1
42,28,5,0.250211203299079,1
42,29,5,0.234000904028527,1
42,30,5,0.22520765606887,1
43,25,5,0.177739856280038,1
43,26,5,0.209724305502666,1
43,27,5,0.231492187081551,1
43,28,5,0.235778218721355,1
43,29,5,0.215851096259834,1
43,30,5,0.212504166503991,1
44,26,5,0.171640334185337,1
44,27,5,0.204683944535297,1
44,28,5,0.230415746678594,1
44,29,5,0.213809280517108,1
44,30,5,0.20385854501217,1
45,27,5,0.190603748278243,1
45,28,5,0.231366691521802,1
45,29,5,0.212338539235703,1
45,30,5,0.199625358845979,1
46,28,5,0.20459106687381,1
46,29,5,0.19698901908502,1
46,30,5,0.203783071027139,1
47,28,5,0.195533541785753,1
47,29,5,0.209582662714869,1
47,30,5,0.233847716843481,1
48,28,5,0.210320384531304,1
48,29,5,0.264078388010775,5
48,30,5,0.297650988020448,1
49,28,5,0.208373436863384,5
49,29,5,0.315876779817585,5
49,30,5,0.362780148149547,5
50,28,5,0.159667575110111,1
50,29,5,0.268120096415701,5
50,30,5,0.32977384560923,1
51,29,5,0.167360261345405,1
51,30,5,0.21778137421621,1
55,30,5,0.192949525014911,1
56,30,5,0.23819062454387,1
57,30,5,0.245117238013019,1
58,30,5,0.192890583900509,1
24,26,6,0.13429219379179,1
25,25,6,0.180410841672827,1
25,26,6,0.206802179709381,1
25,27,6,0.174823515125461,1
25,28,6,0.145420420495862,1
25,29,6,0.137883819985009,1
26,24,6,0.193091006081626,1
26,25,6,0.249878207150848,1
26,26,6,0.288070879915549,2
26,27,6,0.244790586307243,2
26,28,6,0.202318848349353,1
26,29,6,0.188353013777545,1
26,30,6,0.17923963271573,1
26,31,6,0.179684216410644,1
27,23,6,0.187243644474246,1
27,24,6,0.212985697246135,1
27,25,6,0.272981257983964,2
27,26,6,0.335716224572415,2
27,27,6,0.306904867382402,2
27,28,6,0.274288561451731,2
27,29,6,0.259483469104064,1
27,30,6,0.22935754343767,1
28,23,6,0.169548036584813,1
28,24,6,0.188934401067874,1
28,25,6,0.2431017703666,2
28,26,6,0.301044120245453,2
28,27,6,0.294079664043081,2
28,28,6,0.2951521236194,2
28,29,6,0.279211450713042,2
28,30,6,0.246736762690002,1
29,24,6,0.160360450426458,1
29,25,6,0.202958243747841,1
29,26,6,0.241604904910386,2
29,27,6,0.260741061999195,2
29,28,6,0.30678350193029,2
29,29,6,0.302700542209333,2
29,30,6,0.278171210952321,2
30,25,6,0.155009249099114,1
30,26,6,0.188886817749473,1
30,27,6,0.230458540564948,2
30,28,6,0.298786966661803,2
30,29,6,0.32163925029692,2
30,30,6,0.30012031966388,2
31,26,6,0.161865737819027,1
31,27,6,0.2126532982219,1
31,28,6,0.28702389762971,2
31,29,6,0.332868863679416,2
31,30,6,0.313945879857048,2
32,27,6,0.18218387697702,1
32,28,6,0.23238147887221,1
32,29,6,0.280306526360696,2
32,30,6,0.291183363862607,1
33,24,6,0.151169045162547,1
33,25,6,0.15937900249914,1
33,28,6,0.173746962761755,1
33,29,6,0.204626259869303,1
33,30,6,0.23623715827233,1
34,23,6,0.175526616190233,1
34,24,6,0.223650083006434,1
34,25,6,0.219771339691982,1
34,26,6,0.184359162372853,1
34,29,6,0.158411723826634,1
34,30,6,0.189663539226873,1
35,22,6,0.145544522766287,1
35,23,6,0.234108983471736,1
35,24,6,0.306143235725975,6
35,25,6,0.284768162215549,1
35,26,6,0.22717739396929,1
35,27,6,0.171986093858973,1
35,30,6,0.158414336244115,1
36,22,6,0.146308219476532,1
36,23,6,0.243271851184689,1
36,24,6,0.301673414296349,1
36,25,6,0.268260370794341,1
36,26,6,0.222680055075532,1
36,27,6,0.189030886353502,1
36,28,6,0.172810871377938,1
36,29,6,0.164070916734891,1
36,30,6,0.16274898372923,1
37,23,6,0.196198339834222,1
37,24,6,0.220536205770052,1
37,25,6,0.201991611959665,1
37,26,6,0.200970144284556,1
37,27,6,0.226433924834397,1
37,28,6,0.257746957884271,4
37,29,6,0.248797661520422,4
37,30,6,0.205717516411401,1
38,24,6,0.172708663654019,1
38,25,6,0.172283250127382,1
38,26,6,0.208870156947166,1
38,27,6,0.280368403334743,4
38,28,6,0.356082208290558,4
38,29,6,0.352126635022002,4
38,30,6,0.27119379218321,4
39,25,6,0.166199253256567,1
39,26,6,0.20403261909698,1
39,27,6,0.268605657744815,4
39,28,6,0.34359542497576,4
39,29,6,0.359416598442492,4
39,30,6,0.313011828646882,4
40,26,6,0.195650615409147,1
40,27,6,0.234077161738802,1
40,28,6,0.287636795650892,4
40,29,6,0.30993079323026,4
40,30,6,0.302150839811022,4
41,25,6,0.192428036725394,1
41,26,6,0.212237699920941,1
41,27,6,0.232780009378961,1
41,28,6,0.266220844026932,1
41,29,6,0.274466230720598,4
41,30,6,0.26559739681516,1
42,25,6,0.203664156271426,1
42,26,6,0.228788310108669,1
42,27,6,0.240580041092552,1
42,28,6,0.249128866296665,1
42,29,6,0.241607392927035,1
42,30,6,0.231156205313343,1
43,26,6,0.20187107999313,1
43,27,6,0.219704959407801,1
43,28,6,0.224790564957922,1
43,29,6,0.213018116103064,1
43,30,6,0.206790087948469,1
44,27,6,0.195093996324553,1
44,28,6,0.225690953302833,1
44,29,6,0.209750031594811,1
44,30,6,0.196602045415602,1
45,28,6,0.21996562891206,1
45,30,6,0.191770628086371,1
46,29,6,0.184502210890056,1
46,30,6,0.196553728132288,1
47,28,6,0.191873159252454,1
47,29,6,0.223134267394875,1
47,30,6,0.248263384825331,1
48,28,6,0.208320118666607,1
48,29,6,0.279333537689982,1
48,30,6,0.325278223446959,1
49,28,6,0.180752620519826,1
49,29,6,0.286756311439168,5
49,30,6,0.359101963857128,1
50,29,6,0.213553636806479,1
50,30,6,0.278321213476056,1
51,30,6,0.17322970410054,1
55,30,6,0.191506276317472,1
56,30,6,0.221504616490133,1
57,30,6,0.195638026044906,1
24,26,7,0.142267705319598,1
24,27,7,0.138199176095201,1
25,25,7,0.186257009032216,1
25,26,7,0.218048139361258,1
25,27,7,0.198847343599922,1
25,28,7,0.164975173945691,1
25,29,7,0.147521052952157,1
25,30,7,0.150439819922967,1
25,31,7,0.157141392286263,1
26,24,7,0.175567656024849,1
26,25,7,0.23116613249977,1
26,26,7,0.27325143171182,1
26,27,7,0.252362442014004,1
26,28,7,0.214397099330474,1
26,29,7,0.197396581092204,1
26,30,7,0.198686617724431,1
26,31,7,0.196822197568741,1
27,23,7,0.148755606813124,1
27,24,7,0.1859698794709,1
27,25,7,0.237840834283263,1
27,26,7,0.286590136807217,2
27,27,7,0.275893431710655,2
27,28,7,0.250621178682412,1
27,29,7,0.239040829592982,1
27,30,7,0.224691118932483,1
28,24,7,0.191118469162476,1
28,25,7,0.228221067192986,1
28,26,7,0.257699760208449,2
28,27,7,0.254415553352314,2
28,28,7,0.255971981927092,2
28,29,7,0.251513779535214,2
28,30,7,0.230227403818306,1
29,24,7,0.176317855244777,1
29,25,7,0.208689626459153,1
29,26,7,0.23717882281344,1
29,27,7,0.261034722604213,2
29,28,7,0.295841478392189,2
29,29,7,0.298756936300856,2
29,30,7,0.283065886104838,2
30,25,7,0.172062227168416,1
30,26,7,0.222544507928523,1
30,27,7,0.275733676161657,2
30,28,7,0.319504805694371,2
30,29,7,0.330913058672227,2
30,30,7,0.327175783984407,2
31,25,7,0.145727503950698,1
31,26,7,0.196538688071648,1
31,27,7,0.254646864260122,2
31,28,7,0.305502521678663,2
31,29,7,0.343921827879872,2
31,30,7,0.351033500027334,2
32,26,7,0.172668830507477,1
32,27,7,0.213183718491186,1
32,28,7,0.257986130924687,2
32,29,7,0.306598791574308,2
32,30,7,0.336718671360246,2
33,24,7,0.177703357075805,1
33,25,7,0.184078750456488,1
33,26,7,0.175416459253122,1
33,27,7,0.178969570948623,1
33,28,7,0.192791647918483,1
33,29,7,0.217486842805365,2
33,30,7,0.260726606622468,1
34,23,7,0.190116955380888,1
34,24,7,0.260848345277077,6
34,25,7,0.255560090770939,1
34,26,7,0.21162019906896,1
34,27,7,0.176260232779198,1
34,28,7,0.159879467047977,1
34,29,7,0.160905139471222,1
34,30,7,0.19445534733106,1
35,22,7,0.144952250403121,1
35,23,7,0.263324369685292,6
35,24,7,0.341464811918851,6
35,25,7,0.30041997638902,6
35,26,7,0.23618988595601,1
35,27,7,0.182702193045311,1
35,30,7,0.160195407842082,1
36,22,7,0.156900266152777,1
36,23,7,0.274988515175443,1
36,24,7,0.315927162154717,6
36,25,7,0.252433250967819,1
36,26,7,0.209595923843605,1
36,27,7,0.193768405934419,1
36,28,7,0.187827470020891,4
36,29,7,0.183635423209982,1
36,30,7,0.179160003742896,1
37,22,7,0.148004673628285,1
37,23,7,0.214690685294992,1
37,24,7,0.225518956711925,1
37,25,7,0.187015630188498,1
37,26,7,0.193735041631164,1
37,27,7,0.252279715460443,4
37,28,7,0.302455621850458,4
37,29,7,0.293806828137411,4
37,30,7,0.237055342547177,1
38,23,7,0.189714506247916,1
38,24,7,0.19004882104497,1
38,25,7,0.17092654708906,1
38,26,7,0.209808947829046,4
38,27,7,0.314598959347102,4
38,28,7,0.406418143911402,4
38,29,7,0.396367750899611,4
38,30,7,0.299155292646441,4
39,25,7,0.160302442318299,1
39,26,7,0.199754673511283,1
39,27,7,0.282208092604948,4
39,28,7,0.368274559715176,4
39,29,7,0.389084007520741,4
39,30,7,0.335692737695253,4
40,26,7,0.197926429117661,1
40,27,7,0.239806939679376,4
40,28,7,0.298490569238472,4
40,29,7,0.329436520312032,4
40,30,7,0.322711908914571,4
41,25,7,0.202852328879116,1
41,26,7,0.224234542997324,1
41,27,7,0.23633568373161,1
41,28,7,0.262592420067482,4
41,29,7,0.276025271712857,4
41,30,7,0.277511189895817,1
42,25,7,0.20475643290035,1
42,26,7,0.229146758667213,1
42,27,7,0.224753941352856,1
42,28,7,0.222011002518594,1
42,29,7,0.227432017593093,1
42,30,7,0.233928627144889,1
43,26,7,0.181967643450102,1
43,27,7,0.189458116132292,1
43,28,7,0.190103843533151,1
43,29,7,0.198309210479026,1
43,30,7,0.206551885234546,1
44,28,7,0.192613406405788,1
44,30,7,0.186112977748436,1
45,30,7,0.168414508639858,1
46,30,7,0.191803221104466,1
47,29,7,0.236389748333381,1
47,30,7,0.279175623273305,1
48,28,7,0.184860883370098,1
48,29,7,0.272958243829965,1
48,30,7,0.341752352002913,1
49,29,7,0.226586440254947,1
49,30,7,0.309286272517477,1
50,30,7,0.204382732799751,1
56,30,7,0.181350851682865,1
76,40,7,0.177075307033234,1
76,41,7,0.179437405159117,1
76,42,7,0.177462541944401,1
77,40,7,0.165130550585387,1
77,41,7,0.162919524830399,1
78,46,7,0.209271088389982,1
78,47,7,0.199498780998989,1
78,48,7,0.169210835688447,1
79,48,7,0.133116232722895,1
80,49,7,0.131845814101941,1
24,26,8,0.139066946541852,1
24,27,8,0.14903042069203,1
25,25,8,0.174561091569465,1
25,26,8,0.202688144660485,1
25,27,8,0.206893054517466,1
25,28,8,0.17809173647463,1
25,29,8,0.151479014716696,1
25,30,8,0.153821731192887,1
25,31,8,0.163950621129938,1
26,24,8,0.151730926402353,1
26,25,8,0.203344471012265,1
26,26,8,0.239114823208107,1
26,27,8,0.236448589927117,1
26,28,8,0.205700523257692,1
26,29,8,0.186501829870424,1
26,30,8,0.198518626840327,1
26,31,8,0.197499684502117,1
26,32,8,0.171100384812288,1
27,24,8,0.156769931400647,1
27,25,8,0.202164889879147,1
27,26,8,0.234039766848576,1
27,27,8,0.233043142019702,1
27,28,8,0.213243082568418,1
27,29,8,0.199996197727432,1
27,30,8,0.200077593192087,1
27,31,8,0.189174755916199,1
28,24,8,0.179207251179051,1
28,25,8,0.204420550652808,1
28,26,8,0.217420686442682,1
28,27,8,0.222621138841296,1
28,28,8,0.223459003327832,1
28,29,8,0.219587773823659,1
28,30,8,0.209922550669215,1
29,24,8,0.171726655922955,1
29,25,8,0.201738543346266,1
29,26,8,0.232461344206626,1
29,27,8,0.262499940488658,2
29,28,8,0.27805380144668,2
29,29,8,0.281612834621804,2
29,30,8,0.286811421007931,2
30,24,8,0.139261422363179,1
30,25,8,0.195126539582315,1
30,26,8,0.264557157054439,2
30,27,8,0.316340670521691,2
30,28,8,0.323356902350518,2
30,29,8,0.320594034502901,2
30,30,8,0.348556007689296,2
31,25,8,0.168480926244288,1
31,26,8,0.234124857017953,1
31,27,8,0.289307971553497,2
31,28,8,0.311582214280677,2
31,29,8,0.331466791657509,2
31,30,8,0.367457544808155,2
32,25,8,0.154168946356263,1
32,26,8,0.189483804904188,1
32,27,8,0.235870772940678,1
32,28,8,0.271723242126002,2
32,29,8,0.308570470127714,2
32,30,8,0.354472760081001,2
33,24,8,0.202800926455159,1
33,25,8,0.208570761463773,1
33,26,8,0.197776700275756,1
33,27,8,0.201470546632977,1
33,28,8,0.206121060271698,1
33,29,8,0.218706866649104,2
33,30,8,0.266732753452352,1
34,23,8,0.199459632057025,1
34,24,8,0.290791451480142,6
34,25,8,0.290583726970162,1
34,26,8,0.242948931503885,1
34,27,8,0.202353854743597,1
34,28,8,0.175005252301548,1
34,29,8,0.163913587002125,1
34,30,8,0.191918018192626,1
35,22,8,0.148075258660602,1
35,23,8,0.268717220411332,6
35,24,8,0.335228623069649,6
35,25,8,0.290434321570421,6
35,26,8,0.235172162745957,1
35,27,8,0.188097519347915,1
35,28,8,0.158077956393243,1
35,29,8,0.147008123439911,1
35,30,8,0.158971975415534,1
36,22,8,0.16752679673977,1
36,23,8,0.274604265884254,1
36,24,8,0.28172093894518,6
36,25,8,0.213634497347554,1
36,26,8,0.190048161720558,1
36,27,8,0.191225715120108,1
36,28,8,0.197265188932999,4
36,29,8,0.200061197162373,4
36,30,8,0.189958829482795,1
37,23,8,0.216217382070821,1
37,24,8,0.210843216349812,1
37,25,8,0.165848704150882,1
37,26,8,0.181417816650959,1
37,27,8,0.261669813733899,4
37,28,8,0.328102943388456,4
37,29,8,0.330811348551638,4
37,30,8,0.263363804749171,4
38,24,8,0.191477241163184,1
38,26,8,0.195029009329695,4
38,27,8,0.316087614348376,4
38,28,8,0.417539453929191,4
38,29,8,0.418773087223998,4
38,30,8,0.318434436052037,4
39,26,8,0.184290294072023,1
39,27,8,0.274846897267812,4
39,28,8,0.365662689597955,4
39,29,8,0.399276690204659,4
39,30,8,0.345689364667272,4
40,26,8,0.191873731496283,1
40,27,8,0.229954965995299,1
40,28,8,0.279301442275217,4
40,29,8,0.317413901383171,4
40,30,8,0.321534977519183,4
41,25,8,0.209029738334998,1
41,26,8,0.224786808052783,1
41,27,8,0.223256727574312,1
41,28,8,0.228566752226124,1
41,29,8,0.240978646239802,4
41,30,8,0.265595306881175,1
42,26,8,0.209902447494695,1
42,27,8,0.190828814264263,1
42,28,8,0.178506862052426,1
42,29,8,0.192080236878106,1
42,30,8,0.222279981998459,1
43,30,8,0.212812904489899,1
44,30,8,0.182457260246353,1
46,30,8,0.213007641552974,1
47,29,8,0.263247465090689,1
47,30,8,0.325580442829248,1
48,29,8,0.258157505511433,1
48,30,8,0.343771277992474,1
49,29,8,0.172514424194274,1
49,30,8,0.250866895206614,1
50,30,8,0.143878248256479,1
75,40,8,0.130854874391108,1
75,41,8,0.130387724385193,1
75,42,8,0.134416569744047,1
75,43,8,0.166973884799982,1
76,39,8,0.127730721645969,1
76,40,8,0.146841463644713,1
76,41,8,0.139529070754137,1
76,42,8,0.135574131929826,1
76,43,8,0.140645543344967,1
77,38,8,0.0772329529822248,1
77,39,8,0.130061657363329,1
77,40,8,0.150599874033962,1
77,41,8,0.134190359270368,1
77,42,8,0.119515452393832,1
77,43,8,0.12784625269904,1
77,46,8,0.199986432262087,1
77,47,8,0.192555199256297,1
77,48,8,0.165497980884032,1
77,49,8,0.158568120553156,1
77,50,8,0.167666872077078,1
78,39,8,0.100846880713852,1
78,40,8,0.123879023072486,1
78,41,8,0.120385026652553,1
78,42,8,0.108956670500177,1
78,43,8,0.1124156356457,1
78,44,8,0.139102997903088,1
78,45,8,0.148506606106946,1
78,46,8,0.151490335192446,1
78,47,8,0.14969315368668,1
78,48,8,0.133965405245098,1
78,49,8,0.137870658376939,1
79,40,8,0.0836992460511592,1
79,41,8,0.096638742655269,1
79,42,8,0.0989020229799163,1
79,43,8,0.0904438984227234,1
79,44,8,0.0981068901793178,1
79,45,8,0.105479331351705,1
79,46,8,0.105529676368587,1
79,47,8,0.102479890441069,1
79,48,8,0.10187298854001,1
79,49,8,0.118116191830738,1
80,42,8,0.0766759855753003,1
80,43,8,0.0735725580088423,1
80,44,8,0.0803037502103383,1
80,45,8,0.0861395176601364,1
80,46,8,0.0809716955998674,1
80,47,8,0.0771363184155986,1
80,48,8,0.0831284950320022,1
80,49,8,0.0994456857178131,1
80,50,8,0.108045359762179,1
81,49,8,0.0812002634693199,1
24,27,9,0.153247994553752,1
24,28,9,0.151845076606184,1
25,26,9,0.17389389258493,1
25,27,9,0.198833858549687,1
25,28,9,0.183900931906622,1
25,29,9,0.153370790615437,1
26,25,9,0.166690785825637,1
26,26,9,0.193285208221122,1
26,27,9,0.201371399169536,1
26,28,9,0.181729191934514,1
26,29,9,0.16514656097252,1
26,30,9,0.17812185391616,1
26,31,9,0.183549026831864,1
27,25,9,0.162629708211103,1
27,26,9,0.183648982900716,1
27,27,9,0.188584610807267,1
27,28,9,0.176774667541517,1
27,29,9,0.164673651208064,1
27,30,9,0.167547360197369,1
27,31,9,0.163619789556192,1
28,25,9,0.166638126953272,1
28,26,9,0.179143072789604,1
28,27,9,0.196870452651638,1
28,28,9,0.202005358251647,1
28,29,9,0.198590829083466,1
28,30,9,0.193108695879997,1
29,25,9,0.176440551785795,1
29,26,9,0.217701309840462,1
29,27,9,0.253817259988859,2
29,28,9,0.255945857752283,2
29,29,9,0.264730397653671,2
29,30,9,0.288318114129906,2
30,24,9,0.12546286959073,1
30,25,9,0.198236622593308,1
30,26,9,0.281991834197864,2
30,27,9,0.326173063514745,2
30,28,9,0.30819701882878,2
30,29,9,0.310442553374682,2
30,30,9,0.365832397213546,2
31,25,9,0.178836101295517,1
31,26,9,0.253438857536794,2
31,27,9,0.303513974372381,2
31,28,9,0.307972400685757,2
31,29,9,0.319261925509149,2
31,30,9,0.370768423202761,2
32,25,9,0.159678111860618,1
32,26,9,0.197508492081052,1
32,27,9,0.245035382265285,2
32,28,9,0.275180789102036,2
32,29,9,0.300885160861783,2
32,30,9,0.346630805286883,2
33,24,9,0.203698951184255,1
33,25,9,0.216699659217958,1
33,26,9,0.212443483777935,1
33,27,9,0.217457956932076,1
33,28,9,0.218077373556877,1
33,29,9,0.22271078208114,2
33,30,9,0.259286517706172,1
34,23,9,0.182865394497366,1
34,24,9,0.271033165828385,1
34,25,9,0.288544175322586,1
34,26,9,0.256442640036481,1
34,27,9,0.220701932559006,1
34,28,9,0.19133250079466,1
34,29,9,0.174334184451125,1
34,30,9,0.188704072926643,1
35,22,9,0.141279489986995,1
35,23,9,0.230215113016062,1
35,24,9,0.266250003582052,6
35,25,9,0.244412084334512,1
35,26,9,0.220906148965512,1
35,27,9,0.199320688767292,1
35,28,9,0.181192476983108,1
35,29,9,0.166360762857302,1
35,30,9,0.165681086469275,1
36,23,9,0.232553774025116,1
36,24,9,0.207492442608247,1
36,25,9,0.162596829071094,1
36,26,9,0.17185079551363,1
36,27,9,0.202383300420632,1
36,28,9,0.223478857700686,4
36,29,9,0.221880953888379,4
36,30,9,0.194239449686389,1
37,24,9,0.170013333018325,1
37,26,9,0.16338865280955,1
37,27,9,0.258167955181357,4
37,28,9,0.338279404203826,4
37,29,9,0.346721294452387,4
37,30,9,0.266943413821978,4
38,26,9,0.16394387860482,1
38,27,9,0.283273958937149,4
38,28,9,0.392658565919752,4
38,29,9,0.409277720966145,4
38,30,9,0.320343491226401,4
39,26,9,0.152196732879277,1
39,27,9,0.239564606857816,4
39,28,9,0.331427356593631,4
39,29,9,0.374395528513387,4
39,30,9,0.339683466639052,4
40,27,9,0.195055544027251,1
40,28,9,0.233366832985667,4
40,29,9,0.276049554755345,4
40,30,9,0.306945496694271,1
41,26,9,0.189335432031357,1
41,27,9,0.179135409698326,1
41,28,9,0.171754870031749,1
41,29,9,0.186981270678583,1
41,30,9,0.234956227781037,1
42,30,9,0.19353827683452,1
46,30,9,0.225568518003563,1
47,29,9,0.27546626413228,1
47,30,9,0.343599331161898,1
48,29,9,0.242003087094806,1
48,30,9,0.327692594802626,1
49,30,9,0.205005309205696,1
74,40,9,0.0892044058487097,1
74,41,9,0.0938759245679853,1
74,42,9,0.102070785863563,1
74,43,9,0.136813798665005,1
74,44,9,0.170567513846603,1
74,45,9,0.173243985316102,1
74,46,9,0.181648555314937,1
74,47,9,0.200516454448709,1
74,48,9,0.200650620746477,1
75,39,9,0.0856513190333753,1
75,40,9,0.100815276682375,1
75,41,9,0.100116262184948,1
75,42,9,0.0999998105657168,1
75,43,9,0.118030554297698,1
75,44,9,0.150674526973499,1
75,45,9,0.165717050749929,1
75,46,9,0.166597360800487,1
75,47,9,0.182412028103684,1
75,48,9,0.193562273755094,1
75,49,9,0.179053765432007,1
76,39,9,0.10413271100085,1
76,40,9,0.114186630776241,1
76,41,9,0.103893886282764,1
76,42,9,0.100159696735589,1
76,43,9,0.104223853270725,1
76,44,9,0.127206508978221,1
76,45,9,0.154514693589816,1
76,46,9,0.16326660315286,1
76,47,9,0.164424650501886,1
76,48,9,0.162216821848291,1
76,49,9,0.157045329963466,1
76,50,9,0.163700836698515,1
77,39,9,0.109764927588596,1
77,40,9,0.122184235891887,1
77,41,9,0.104989926036869,1
77,42,9,0.0911204274696897,1
77,43,9,0.0922249575806075,1
77,44,9,0.109717829433441,1
77,45,9,0.129190640054953,1
77,46,9,0.143809255554818,1
77,47,9,0.146685900403768,1
77,48,9,0.136587239868996,1
77,49,9,0.136117228643936,1
77,50,9,0.147499208165984,1
77,51,9,0.151403652692414,1
78,39,9,0.0775691897721395,1
78,40,9,0.0939830150245767,1
78,41,9,0.0933497525871271,1
78,42,9,0.0821901644332016,1
78,43,9,0.0794311094710987,1
78,44,9,0.0892455638641169,1
78,45,9,0.0978956202456137,1
78,46,9,0.106807397318404,1
78,47,9,0.110427100779501,1
78,48,9,0.106254161936452,1
78,49,9,0.111358415171353,1
78,50,9,0.118942972203104,1
78,51,9,0.118407812262104,1
79,45,9,0.0756615216670568,1
79,46,9,0.0786173041055535,1
79,47,9,0.0793953006914857,1
79,48,9,0.0795129527787498,1
79,49,9,0.0891958532914807,1
79,50,9,0.0980388678041489,1
79,51,9,0.096529823506441,1
80,49,9,0.0747743135903404,1
80,50,9,0.0829822245332392,1
80,51,9,0.0840840178258437,1
25,27,10,0.172394651072817,1
25,28,10,0.17393126259499,1
26,26,10,0.150905937401973,1
26,27,10,0.160328914815439,1
26,28,10,0.151771331792724,1
27,26,10,0.148332233460138,1
27,27,10,0.157853574611801,1
27,28,10,0.150877872574178,1
27,29,10,0.14190970460405,1
27,30,10,0.141286978917107,1
28,26,10,0.162956310156547,1
28,27,10,0.193843394756204,1
28,28,10,0.193535577336456,1
28,29,10,0.185785927959996,1
28,30,10,0.177289089863753,1
29,25,10,0.152925087313031,1
29,26,10,0.214733255259847,1
29,27,10,0.257710458680038,2
29,28,10,0.242797635211492,1
29,29,10,0.248757256130051,2
29,30,10,0.272244282572523,1
30,25,10,0.187801793689079,1
30,26,10,0.286215043417295,2
30,27,10,0.321435307572245,2
30,28,10,0.285856719259584,2
30,29,10,0.298011675793976,2
30,30,10,0.355605081337882,2
31,25,10,0.181453868012195,1
31,26,10,0.257780272427194,1
31,27,10,0.292480267420784,2
31,28,10,0.284207661824984,2
31,29,10,0.300477200771935,2
31,30,10,0.346644389857784,2
32,25,10,0.178360342751998,1
32,26,10,0.206838081789618,1
32,27,10,0.235141585021347,1
32,28,10,0.256515887246612,1
32,29,10,0.283303317533601,2
32,30,10,0.314576741358431,2
33,24,10,0.186999507840616,1
33,25,10,0.219362160473976,1
33,26,10,0.220756270842608,1
33,27,10,0.221602271143585,1
33,28,10,0.222924577351742,1
33,29,10,0.231654778969528,1
33,30,10,0.246137250198389,1
34,24,10,0.215608763438274,1
34,25,10,0.248819307265263,1
34,26,10,0.242991924431571,1
34,27,10,0.225340715199229,1
34,28,10,0.205551590581115,1
34,29,10,0.192427564002231,1
34,30,10,0.191785506425929,1
35,23,10,0.171361477279377,1
35,24,10,0.180513099157079,1
35,25,10,0.180183287670159,1
35,26,10,0.188558399551876,1
35,27,10,0.203364810548366,1
35,28,10,0.207068671172598,1
35,29,10,0.189994084678704,1
35,30,10,0.178812216335691,1
36,24,10,0.137424606752203,1
36,27,10,0.206414409874635,1
36,28,10,0.244475205316884,4
36,29,10,0.229221598207999,4
36,30,10,0.190048099520142,1
37,26,10,0.13440514974763,1
37,27,10,0.225693341798816,4
37,28,10,0.311283677163028,4
37,29,10,0.320599110056864,4
37,30,10,0.247843258334072,4
38,26,10,0.124117972191404,1
38,27,10,0.218229466014598,4
38,28,10,0.325307358121913,4
38,29,10,0.35556121760437,4
38,30,10,0.294934646084158,4
39,27,10,0.178246341829165,1
39,28,10,0.258783142177855,4
39,29,10,0.301253909809252,4
39,30,10,0.2972749491842,4
40,28,10,0.168404494372847,1
40,29,10,0.205459670806038,4
40,30,10,0.256537085148457,1
41,29,10,0.132696777996131,1
41,30,10,0.181364610414931,1
47,30,10,0.300406143016455,1
47,31,10,0.221433757775984,1
48,30,10,0.284388291833662,1
73,43,10,0.085597521893394,1
73,44,10,0.101600140194257,1
74,43,10,0.0822011925669959,1
74,44,10,0.0983876752981799,1
74,45,10,0.108160281251171,1
74,46,10,0.121123308272734,1
74,47,10,0.13588477324847,1
75,43,10,0.076877558464117,1
75,44,10,0.0923516909286385,1
75,45,10,0.106869834096197,1
75,46,10,0.116676712478521,1
75,47,10,0.131051066943923,1
75,48,10,0.141594883417437,1
75,49,10,0.137679715539253,1
76,39,10,0.0719037706022199,1
76,40,10,0.0789925778766825,1
76,41,10,0.071394143932074,1
76,44,10,0.0823058696474382,1
76,45,10,0.100854295003464,1
76,46,10,0.113410431782338,1
76,47,10,0.120980073154282,1
76,48,10,0.123166529744866,1
76,49,10,0.122445253718477,1
76,50,10,0.131562279724682,1
77,39,10,0.0744041962337153,1
77,40,10,0.0833268521593008,1
77,41,10,0.07386898031234,1
77,45,10,0.0802525095074632,1
77,46,10,0.09334366316638,1
77,47,10,0.101640551804669,1
77,48,10,0.102587621561948,1
77,49,10,0.105698600258934,1
77,50,10,0.116270630841242,1
77,51,10,0.124447149234079,1
78,47,10,0.0754371398856153,1
78,48,10,0.0790050552801745,1
78,49,10,0.0852373628234044,1
78,50,10,0.0913977169251607,1
78,51,10,0.0946265965110757,1
78,52,10,0.0929522546072857,1
79,50,10,0.0747855345454249,1
79,51,10,0.0794706938159757,1
79,52,10,0.0849938606340195,1
27,27,11,0.143528035033042,1
27,28,11,0.136449341546255,1
27,29,11,0.13241803305092,1
28,26,11,0.166794921762458,1
28,27,11,0.203185399667846,1
28,28,11,0.189417648541505,1
28,29,11,0.183480059010369,1
28,30,11,0.174431441021913,1
29,25,11,0.130239463473112,1
29,26,11,0.210931242378834,1
29,27,11,0.260326906747892,1
29,28,11,0.233422241116428,1
29,29,11,0.246280883399504,1
29,30,11,0.262890733263632,1
30,25,11,0.162376403236123,1
30,26,11,0.264691211391458,1
30,27,11,0.298159762544892,2
30,28,11,0.259345707622239,1
30,29,11,0.292120176771252,2
30,30,11,0.339070693018702,1
31,25,11,0.187336646536566,1
31,26,11,0.252816156730017,1
31,27,11,0.263326832821774,1
31,28,11,0.247699450971791,1
31,29,11,0.280529402892065,2
31,30,11,0.317610678619898,2
32,24,11,0.151606861452177,1
32,25,11,0.219699809213339,1
32,26,11,0.236005100959528,1
32,27,11,0.225554087507001,1
32,28,11,0.232892816053802,1
32,29,11,0.261895377323249,1
32,30,11,0.274583167503075,1
33,25,11,0.219111915759474,1
33,26,11,0.232836288315549,1
33,27,11,0.223377396381762,1
33,28,11,0.222161801207657,1
33,29,11,0.229475226625143,1
33,30,11,0.219239501253207,1
34,25,11,0.187894123986903,1
34,26,11,0.215585774164442,1
34,27,11,0.223734750212981,1
34,28,11,0.213398956811444,1
34,29,11,0.196780224727881,1
34,30,11,0.182348620999398,1
35,27,11,0.19885577797636,1
35,28,11,0.218960569706748,1
35,29,11,0.194321218353541,1
35,30,11,0.175997908743868,1
36,27,11,0.195147861884992,1
36,28,11,0.244660711838193,1
36,29,11,0.216188396676866,1
36,30,11,0.177438880906074,1
37,27,11,0.180459395317722,1
37,28,11,0.257527813377874,4
37,29,11,0.263898330245926,4
37,30,11,0.218509318127217,1
38,27,11,0.152633541522165,1
38,28,11,0.238403673409477,4
38,29,11,0.275026731111163,4
38,30,11,0.25437417763545,1
39,28,11,0.175607240369726,1
39,29,11,0.212288828663067,4
39,30,11,0.233669127008455,1
40,29,11,0.138386200306666,1
40,30,11,0.187671782379113,1
41,31,11,0.159817515433431,1
73,45,11,0.0800984141963408,1
74,45,11,0.0724399257498801,1
74,46,11,0.0842253247313931,1
74,47,11,0.0935266443507911,1
75,46,11,0.0826779276570491,1
75,47,11,0.0933216753192492,1
75,48,11,0.10064605423003,1
75,49,11,0.104828403996051,1
76,46,11,0.0757928454058042,1
76,47,11,0.0852793792045553,1
76,48,11,0.0894510429390717,1
76,49,11,0.0912261059768331,1
76,50,11,0.0993633696869988,1
77,48,11,0.0756853257663409,1
77,49,11,0.0782436910855373,1
77,50,11,0.0836944317389444,1
77,51,11,0.093012520590553,1
78,51,11,0.0733463724153307,1
28,27,12,0.187977771106624,1
28,28,12,0.16713962402902,1
28,29,12,0.170003393391815,1
28,30,12,0.166460407924073,1
29,26,12,0.18434683425036,1
29,27,12,0.234343976644183,1
29,28,12,0.208277797503417,1
29,29,12,0.234546003596038,1
29,30,12,0.248011821462005,1
30,25,12,0.128781025434033,1
30,26,12,0.213398384567615,1
30,27,12,0.249441535348877,1
30,28,12,0.222817592635858,1
30,29,12,0.27256399271185,1
30,30,12,0.309921562688495,1
31,25,12,0.177866658048527,1
31,26,12,0.22306572253621,1
31,27,12,0.217671801963012,1
31,28,12,0.207814292441892,1
31,29,12,0.255924187127275,1
31,30,12,0.290566086932124,1
32,25,12,0.234715188728134,1
32,26,12,0.246286755118795,1
32,27,12,0.205690745352264,1
32,28,12,0.206931307773436,1
32,29,12,0.236845876425543,1
32,30,12,0.240533863503557,1
33,25,12,0.194264143251625,1
33,26,12,0.222660947107671,1
33,27,12,0.210775119334143,1
33,28,12,0.213785047234952,1
33,29,12,0.21741511328539,1
33,30,12,0.19478005838385,1
34,26,12,0.172456776848529,1
34,27,12,0.204405448391752,1
34,28,12,0.207851177288705,1
34,29,12,0.189452692255999,1
34,30,12,0.169329874844993,1
35,28,12,0.203233779151575,1
36,28,12,0.214636471412222,1
36,29,12,0.201601329228104,1
36,30,12,0.177715622997882,1
36,31,12,0.188024147736952,1
37,28,12,0.19392916913016,1
37,29,12,0.212315375800706,1
37,30,12,0.202984044480486,1
38,28,12,0.159563625774539,1
38,29,12,0.202490222936099,1
38,30,12,0.22145530400016,1
39,29,12,0.144299693396562,1
39,30,12,0.181350988523781,1
40,31,12,0.151798874137022,1
28,29,13,0.1538928387087,1
28,30,13,0.158455587560146,1
29,27,13,0.189108450272518,1
29,28,13,0.179130408784863,1
29,29,13,0.213703987652545,1
29,30,13,0.228311058755161,1
30,26,13,0.15692671376975,1
30,27,13,0.188921189699471,1
30,28,13,0.1851248619365,1
30,29,13,0.239794026872971,1
30,30,13,0.273220132462382,1
31,26,13,0.179283670610408,1
31,27,13,0.166934387535688,1
31,28,13,0.169440031782103,1
31,29,13,0.220514385864045,1
31,30,13,0.256725104566581,1
32,26,13,0.221372453045766,1
32,27,13,0.174007706906514,1
32,28,13,0.176680794673371,1
32,29,13,0.200160867109311,1
32,30,13,0.202945243860853,1
33,26,13,0.185151906677469,1
33,27,13,0.182282414876382,1
33,28,13,0.1949144610432,1
33,29,13,0.190484049797285,1
33,30,13,0.164859916574451,1
34,28,13,0.191091710543422,1
37,29,13,0.16955846137457,1
37,30,13,0.193276151840521,1
37,31,13,0.212645286808292,1
38,30,13,0.189441919143911,1
38,31,13,0.214972129738266,1
28,30,14,0.142073552940435,1
29,29,14,0.179321227221717,1
29,30,14,0.193403227290842,1
30,28,14,0.149228342416415,1
30,29,14,0.196691701095529,1
30,30,14,0.223679939206215,1
31,28,14,0.137458120336457,1
31,29,14,0.180598351047538,1
31,30,14,0.213384675595882,1
32,29,14,0.161058301776102,1
32,30,14,0.167676799263506,1
29,30,15,0.161610454870811,1
30,29,15,0.158268215026351,1
30,30,15,0.18020903864247,1
31,29,15,0.146774846998951,1
31,30,15,0.172297444262362,1
28,31,16,0.149165781237789,1
29,30,16,0.140658356630707,1
30,30,16,0.148458189302967,1
