x,y,z,signal,mito.p
352,19,24,0.0735420922449819,1
353,19,24,0.0751185928940712,1
352,19,25,0.0768867579056747,1
352,20,25,0.0729668503557744,1
353,19,25,0.0774765609123173,1
353,20,25,0.074581255938503,1
352,19,26,0.0756140627494874,1
352,20,26,0.0719597820770184,1
353,19,26,0.0763852172896363,1
353,20,26,0.0760796328648307,1
357,33,26,0.0756642149450787,1
358,33,26,0.073482802808249,1
358,34,26,0.0753748523888211,1
352,19,27,0.0740083901051949,1
353,19,27,0.0739535915385125,1
353,20,27,0.0753704983596863,1
354,21,27,0.0766553972375343,1
354,22,27,0.0733267233038495,1
357,33,27,0.0877216909871842,1
357,34,27,0.0803039181514621,1
358,33,27,0.0768765010570414,1
358,34,27,0.0774233733364148,1
360,17,27,0.0725245183159278,1
353,21,28,0.0746863062214427,1
353,22,28,0.0728756272253586,1
354,21,28,0.0755542881495081,1
354,22,28,0.0810473188658974,1
354,23,28,0.0819929953338526,1
354,24,28,0.0826110808697466,1
354,25,28,0.0751632092526197,1
355,22,28,0.0720979727417156,1
355,23,28,0.0733135990160288,1
355,24,28,0.0735460357513697,1
356,30,28,0.0731319800207328,1
356,33,28,0.0761511757835572,1
357,33,28,0.0892789779277057,1
357,34,28,0.0818654036200779,1
358,33,28,0.0734731306435282,1
358,34,28,0.0715247710261599,1
360,17,28,0.0733532891016134,1
353,21,29,0.0752290483931796,1
353,22,29,0.0773766483837567,1
353,23,29,0.0750642919307185,1
353,24,29,0.0782496312252855,1
353,25,29,0.0766822553772544,1
354,22,29,0.0818359268428353,1
354,23,29,0.0870406648501258,1
354,24,29,0.0916175642962603,1
354,25,29,0.0869248041348486,1
354,26,29,0.0725650481071312,1
355,23,29,0.0727315959415792,1
355,24,29,0.0742342211563341,1
356,30,29,0.0788566513071355,1
356,31,29,0.0743987163770471,1
356,33,29,0.0738583129409597,1
357,30,29,0.0727096205345316,1
357,33,29,0.077757532632428,1
357,34,29,0.072993011850833,1
353,22,30,0.0755840137284156,1
353,23,30,0.0754554268079815,1
353,24,30,0.082478233220802,1
353,25,30,0.0876210071734626,1
353,26,30,0.0758974540657887,1
354,22,30,0.0751034035524323,1
354,23,30,0.0816601484666215,1
354,24,30,0.0889078156040883,1
354,25,30,0.0916410760535883,1
354,26,30,0.0806160273999283,1
356,30,30,0.0773681082666109,1
356,31,30,0.0732141218903817,1
353,24,31,0.0799639804367828,1
353,25,31,0.0866717541815752,1
353,26,31,0.0784001748926423,1
354,24,31,0.0787773333363825,1
354,25,31,0.0853725056677072,1
354,26,31,0.0807784700069063,1
356,30,31,0.0726425995860637,1
353,24,32,0.0714185140551457,1
353,25,32,0.0773341965996923,1
353,26,32,0.0722043292333957,1
354,25,32,0.0740019274819505,1
354,26,32,0.0739694028843135,1
356,28,33,0.0756275291395972,1
357,28,33,0.0794336721282466,1
355,25,34,0.0723372017625067,1
356,24,34,0.0733361342268223,1
356,25,34,0.0750840654430322,1
356,26,34,0.0728247161846895,1
356,27,34,0.0726950283168884,1
356,28,34,0.0836684506250929,1
356,29,34,0.0737973316529059,1
357,28,34,0.0861525735274992,1
357,29,34,0.0782616483456976,1
367,34,34,0.0801934750924369,1
367,35,34,0.0765083989939016,1
354,25,35,0.0715174375970885,1
355,24,35,0.0785524912718611,1
355,25,35,0.0798734850512367,1
355,26,35,0.0747058682523412,1
356,24,35,0.0804097894798957,1
356,25,35,0.081222213996201,1
356,26,35,0.077982119675243,1
356,27,35,0.075832597691805,1
356,28,35,0.087195288864786,1
356,29,35,0.0815696841812834,1
357,25,35,0.0719997271843095,1
357,26,35,0.0725984994909697,1
357,27,35,0.0740732029388873,1
357,28,35,0.0866842315850672,1
357,29,35,0.0850224790455184,1
358,28,35,0.0722023512601601,1
358,29,35,0.0742224528375868,1
366,34,35,0.0846895202175381,1
366,35,35,0.0799836668685138,1
367,34,35,0.0913611741806364,1
367,35,35,0.0823477491876735,1
367,38,35,0.0830812973561809,1
368,34,35,0.080750809481817,1
368,35,35,0.0736528960664211,1
368,38,35,0.0737758040888551,1
369,33,35,0.0717593661159433,1
369,34,35,0.0740216636740144,1
354,24,36,0.0740220430965533,1
354,25,36,0.0749088966308973,1
355,24,36,0.0804486585199863,1
355,25,36,0.0835226839497011,1
355,26,36,0.0767573250595801,1
356,24,36,0.0819826700647615,1
356,25,36,0.0858201558431399,1
356,26,36,0.0822295994970797,1
356,27,36,0.078919753629382,1
356,28,36,0.0868302035218324,1
356,29,36,0.0872071380440743,1
357,24,36,0.0718224373379817,1
357,25,36,0.0767125034396581,1
357,26,36,0.0800013504468427,1
357,27,36,0.0804705841667009,1
357,28,36,0.0863425584787757,1
357,29,36,0.0890614755122973,1
357,30,36,0.0748662644656259,1
358,26,36,0.0758629079546248,1
358,27,36,0.0799315740199366,1
358,28,36,0.079301825906003,1
358,29,36,0.079606172542526,1
358,30,36,0.0736743303298476,1
359,23,36,0.0725048194441136,1
359,27,36,0.0739438011930008,1
359,28,36,0.0737559808162085,1
362,14,36,0.0727804916887631,1
362,15,36,0.0769635691996543,1
362,28,36,0.0739210980410836,1
362,29,36,0.0718678934021491,1
363,14,36,0.0728553001293407,1
363,15,36,0.0723045527640373,1
363,29,36,0.0715745562392956,1
365,34,36,0.0845361277711188,1
365,35,36,0.0779228302385102,1
366,33,36,0.0771613914033735,1
366,34,36,0.098728091956064,1
366,35,36,0.0867510534922033,1
366,38,36,0.071756579537297,1
367,33,36,0.0802627725761381,1
367,34,36,0.095403573010182,1
367,35,36,0.0806141427273171,1
367,37,36,0.0715930546430769,1
367,38,36,0.0882053303234369,1
368,33,36,0.0831697339079504,1
368,34,36,0.0877564921200545,1
368,35,36,0.0752055179757268,1
368,38,36,0.0802422464387883,1
368,39,36,0.0726542497240201,1
369,32,36,0.0777253501370802,1
369,33,36,0.0835734954697043,1
369,34,36,0.0819117926904885,1
369,35,36,0.0749156267159314,1
370,32,36,0.0782486919990007,1
370,33,36,0.0755226094775316,1
370,34,36,0.0735804512416595,1
370,35,36,0.0735892463805118,1
354,24,37,0.0768770733008706,1
354,25,37,0.0780853226058211,1
355,24,37,0.0810686473886163,1
355,25,37,0.0868022879750367,1
355,26,37,0.079034239715461,1
355,27,37,0.0728704334906049,1
355,28,37,0.0721163032043731,1
356,24,37,0.0807322550976611,1
356,25,37,0.0885505301933277,1
356,26,37,0.0845567036688016,1
356,27,37,0.0811540672201996,1
356,28,37,0.0837332199184939,1
356,29,37,0.0864196247944618,1
356,30,37,0.0734818076015897,1
357,24,37,0.0715793145711357,1
357,25,37,0.0797620219053856,1
357,26,37,0.0841360111537549,1
357,27,37,0.0878815522768894,1
357,28,37,0.0888015337529077,1
357,29,37,0.0901317331938826,1
357,30,37,0.0782530957884685,1
358,26,37,0.0796003630236519,1
358,27,37,0.090552593650053,1
358,28,37,0.0891807883506742,1
358,29,37,0.0853934485478456,1
358,30,37,0.0755668899538326,1
359,22,37,0.0801280215944575,1
359,23,37,0.0826040895429644,1
359,24,37,0.0715530224552031,1
359,27,37,0.0802301173576271,1
359,28,37,0.0798293911761843,1
359,29,37,0.0751872559335271,1
360,22,37,0.0781884757760663,1
360,23,37,0.0747381440483134,1
361,28,37,0.0747590744883686,1
362,14,37,0.0764101845367036,1
362,15,37,0.0770228461963039,1
362,27,37,0.0719723838813429,1
362,28,37,0.088669706190789,1
362,29,37,0.0805763373143437,1
363,28,37,0.0815699018827402,1
363,29,37,0.0794027585213894,1
364,28,37,0.0735040193702188,1
364,29,37,0.0783887486761842,1
364,34,37,0.0750574996452682,1
365,28,37,0.0821628024701101,1
365,29,37,0.0896278165219449,1
365,33,37,0.0834441123839427,1
365,34,37,0.101547487541934,1
365,35,37,0.0859403705875519,1
366,27,37,0.0741274728020318,1
366,28,37,0.0916987047392083,1
366,29,37,0.0943250613333655,1
366,33,37,0.0905782699818651,1
366,34,37,0.107182926111239,1
366,35,37,0.0867102437991269,1
366,38,37,0.0788797276615499,1
366,39,37,0.0715850618895937,1
367,27,37,0.0755335567507848,1
367,28,37,0.0803233868817363,1
367,29,37,0.0766272639892818,1
367,32,37,0.072626800680346,1
367,33,37,0.0920605307803524,1
367,34,37,0.0961728926380527,1
367,35,37,0.0765880466268605,1
367,38,37,0.0889764786435442,1
367,39,37,0.0841169840464358,1
368,32,37,0.0810805463282376,1
368,33,37,0.0973041253876502,1
368,34,37,0.0929871490407804,1
368,35,37,0.0751378190427222,1
368,38,37,0.086355999988719,1
368,39,37,0.0886169975580913,1
368,40,37,0.0731542602098198,1
369,31,37,0.0818350062766753,1
369,32,37,0.0904953506070135,1
369,33,37,0.0913894380497629,1
369,34,37,0.085684801517422,1
369,35,37,0.0775272293713632,1
369,38,37,0.0758880182626494,1
369,39,37,0.077604333007299,1
370,31,37,0.0847862294246638,1
370,32,37,0.086695104217821,1
370,33,37,0.0781689261852511,1
370,34,37,0.0779988951274952,1
370,35,37,0.082802757672344,1
370,36,37,0.0764335967733656,1
371,34,37,0.0719701260062344,1
371,35,37,0.0801184551704441,1
371,36,37,0.0734682976711885,1
373,32,37,0.0774878005275267,1
373,33,37,0.0715203236964007,1
374,32,37,0.0801042983557144,1
374,33,37,0.0732765089078419,1
375,32,37,0.0754428623239068,1
375,33,37,0.0732618171695327,1
376,32,37,0.0748040516093311,1
376,33,37,0.0755125889904799,1
377,32,37,0.0714982612087705,1
354,24,38,0.0737334767056231,1
354,25,38,0.0764677199216993,1
355,24,38,0.0762307798762247,1
355,25,38,0.0839952205116601,1
355,26,38,0.0777519470350522,1
355,27,38,0.0727150941711583,1
356,24,38,0.0746095135875879,1
356,25,38,0.0858679382028736,1
356,26,38,0.0833723890840092,1
356,27,38,0.0810587886226468,1
356,28,38,0.0797633094540012,1
356,29,38,0.0806654580706916,1
356,30,38,0.0735840961860495,1
357,25,38,0.0772285554127987,1
357,26,38,0.083367680512502,1
357,27,38,0.0912404929331028,1
357,28,38,0.0905347918909333,1
357,29,38,0.0864859553183097,1
357,30,38,0.0755814510712677,1
358,26,38,0.0785271072820052,1
358,27,38,0.0948250469389986,1
358,28,38,0.0951856849521931,1
358,29,38,0.085928384567348,1
358,30,38,0.072355289643541,1
359,22,38,0.0884113070017214,1
359,23,38,0.0844802406971528,1
359,27,38,0.0800606025633258,1
359,28,38,0.0805351481987284,1
359,29,38,0.0740137642211555,1
360,22,38,0.0799537422482744,1
360,23,38,0.0725534850497575,1
361,27,38,0.0722551034331491,1
361,28,38,0.0805783401677457,1
362,14,38,0.0753631462704901,1
362,27,38,0.0802904020010193,1
362,28,38,0.0955867283557585,1
362,29,38,0.0828269163140006,1
363,27,38,0.0750914486324365,1
363,28,38,0.0868523717501702,1
363,29,38,0.0836588655409547,1
363,40,38,0.0730135068879747,1
364,28,38,0.0846057238168179,1
364,29,38,0.0988104764073361,1
364,30,38,0.072368967515066,1
364,33,38,0.0759901451260271,1
364,34,38,0.0839020940485082,1
364,35,38,0.0764297901078935,1
364,40,38,0.0724750814251228,1
365,27,38,0.0744421633677708,1
365,28,38,0.0986210636998888,1
365,29,38,0.12309636767538,1
365,30,38,0.0837413432928511,1
365,32,38,0.0725622677485265,1
365,33,38,0.0935444772101189,1
365,34,38,0.108270798950696,1
365,35,38,0.087014982298272,1
366,26,38,0.0756677603688028,1
366,27,38,0.0867911478804932,1
366,28,38,0.105712047988919,1
366,29,38,0.117131720963191,1
366,30,38,0.0804015541447893,1
366,32,38,0.0772128684678301,1
366,33,38,0.0970010351995347,1
366,34,38,0.106822449819127,1
366,35,38,0.0821078732825537,1
366,38,38,0.0826941806258052,1
366,39,38,0.0811677015514332,1
367,26,38,0.0861349023892535,1
367,27,38,0.0929402188267488,1
367,28,38,0.0952004326708768,1
367,29,38,0.0895788772344696,1
367,32,38,0.0830570765141081,1
367,33,38,0.0989085851238266,1
367,34,38,0.0962369341865841,1
367,35,38,0.0738450953525147,1
367,37,38,0.0716119511295219,1
367,38,38,0.0905072122263851,1
367,39,38,0.0979032397965996,1
367,40,38,0.0794946720764252,1
368,26,38,0.0792954752435078,1
368,27,38,0.0828489290412979,1
368,28,38,0.0823582361778467,1
368,29,38,0.0756543312989427,1
368,30,38,0.0714416837101845,1
368,31,38,0.081143486929402,1
368,32,38,0.0929267088963476,1
368,33,38,0.105484593506916,1
368,34,38,0.0954194714365657,1
368,35,38,0.0743761562860871,1
368,37,38,0.0749241730531188,1
368,38,38,0.0912690118239358,1
368,39,38,0.102361622569685,1
368,40,38,0.0810434313398842,1
369,25,38,0.0748266925608321,1
369,26,38,0.0764140223023839,1
369,27,38,0.0744531728414403,1
369,28,38,0.07403684057557,1
369,30,38,0.0779749106470041,1
369,31,38,0.0969449926245281,1
369,32,38,0.0985363591730919,1
369,33,38,0.096830425677908,1
369,34,38,0.0877626686213843,1
369,35,38,0.07848499760023,1
369,36,38,0.0744091971471787,1
369,37,38,0.0758178686332461,1
369,38,38,0.080094240548413,1
369,39,38,0.0831322519371414,1
370,25,38,0.0739372017288408,1
370,26,38,0.0776229869121209,1
370,27,38,0.0726579506487847,1
370,30,38,0.0731954120051853,1
370,31,38,0.0898749076753452,1
370,32,38,0.0872871526594888,1
370,33,38,0.0813241791384965,1
370,34,38,0.0819593573487654,1
370,35,38,0.0884283996760963,1
370,36,38,0.0828679126083256,1
370,37,38,0.0730884459494263,1
371,26,38,0.0725631261142703,1
371,34,38,0.0764532894251382,1
371,35,38,0.0845220518169301,1
371,36,38,0.0764160873562021,1
372,33,38,0.0723012623620197,1
373,22,38,0.0723644704249739,1
373,23,38,0.080210729487894,1
373,24,38,0.0861268287752292,1
373,25,38,0.0742487325134362,1
373,31,38,0.0848597067763344,1
373,32,38,0.090294990626313,1
373,33,38,0.0800117627965165,1
374,22,38,0.0770190706310399,1
374,23,38,0.0803473340419777,1
374,24,38,0.0807660548038305,1
374,25,38,0.0743754409813007,1
374,31,38,0.0871720694494142,1
374,32,38,0.0906017133187353,1
374,33,38,0.0791647735089225,1
375,31,38,0.0792412738008211,1
375,32,38,0.0847999197362719,1
375,33,38,0.079683748901625,1
376,31,38,0.0729463801987992,1
376,32,38,0.0821366782953013,1
376,33,38,0.0789852382275695,1
377,32,38,0.074741254069124,1
378,28,38,0.0723952658510402,1
351,31,39,0.0717881275883995,1
353,19,39,0.0785241776424016,1
354,24,39,0.072432144477812,1
354,25,39,0.0757219493714063,1
355,24,39,0.0725428923188766,1
355,25,39,0.0805045829142021,1
355,26,39,0.0765808935789961,1
355,27,39,0.0735618719773372,1
356,25,39,0.080588006112425,1
356,26,39,0.081248730033632,1
356,27,39,0.0809394944443947,1
356,28,39,0.078781643825226,1
356,29,39,0.07579866114472,1
356,30,39,0.0725314412222521,1
357,25,39,0.0733332854477598,1
357,26,39,0.0809294801773847,1
357,27,39,0.08962484334205,1
357,28,39,0.0902335863754289,1
357,29,39,0.0816241779659264,1
357,30,39,0.0718373218975812,1
358,26,39,0.0735265234808041,1
358,27,39,0.088622421434385,1
358,28,39,0.0923468766164238,1
358,29,39,0.0811082006332852,1
359,22,39,0.0830325508899959,1
359,23,39,0.0793909715425174,1
359,27,39,0.0739243511228515,1
359,28,39,0.0770790629324759,1
360,28,39,0.0714071749192703,1
361,27,39,0.0812908521554904,1
361,28,39,0.085554522745667,1
361,29,39,0.0721077755273105,1
362,27,39,0.0856831158861427,1
362,28,39,0.0939137921813749,1
362,29,39,0.0800996084443321,1
363,27,39,0.0801178082861156,1
363,28,39,0.087153882047714,1
363,29,39,0.0841311968415401,1
363,35,39,0.0717846816853413,1
363,40,39,0.0820433154705678,1
363,41,39,0.0755780362684177,1
364,27,39,0.0767415634741121,1
364,28,39,0.0924223879217045,1
364,29,39,0.111289310508942,1
364,30,39,0.0798263246956651,1
364,32,39,0.0713453290454312,1
364,33,39,0.0832481313125435,1
364,34,39,0.0865390371535047,1
364,35,39,0.0789378726106245,1
364,40,39,0.0744652708223934,1
365,27,39,0.0809809199215916,1
365,28,39,0.106768696219437,1
365,29,39,0.139191422014774,1
365,30,39,0.0952770013832332,1
365,32,39,0.0796911569711958,1
365,33,39,0.0990573374191965,1
365,34,39,0.103346964243058,1
365,35,39,0.0833981400563208,1
365,38,39,0.0714148442305892,1
365,39,39,0.0730690891799013,1
366,26,39,0.0873266063834918,1
366,27,39,0.0982405215535067,1
366,28,39,0.111909423778404,1
366,29,39,0.124335238245231,1
366,30,39,0.0905357435573013,1
366,31,39,0.0757439434385787,1
366,32,39,0.0882206378458666,1
366,33,39,0.102712302296244,1
366,34,39,0.102446656758688,1
366,35,39,0.0800666546638232,1
366,38,39,0.0819431043800094,1
366,39,39,0.088944482749445,1
366,40,39,0.0752038012442394,1
367,25,39,0.0822878253066953,1
367,26,39,0.0999755710635191,1
367,27,39,0.105995146963264,1
367,28,39,0.109097554442896,1
367,29,39,0.101973877615105,1
367,30,39,0.0852207677523591,1
367,31,39,0.0848759037647159,1
367,32,39,0.0978219189724447,1
367,33,39,0.105274841263368,1
367,34,39,0.0973393246031843,1
367,35,39,0.0772585484534959,1
367,36,39,0.0715694122648749,1
367,37,39,0.0765351949332055,1
367,38,39,0.0897771535012271,1
367,39,39,0.103926093658279,1
367,40,39,0.0854497150443505,1
368,25,39,0.091399041794026,1
368,26,39,0.097153998463082,1
368,27,39,0.0935304883365129,1
368,28,39,0.0982334244860169,1
368,29,39,0.0931496662882579,1
368,30,39,0.0890554607320496,1
368,31,39,0.0988493330073435,1
368,32,39,0.107202718283678,1
368,33,39,0.110138030565199,1
368,34,39,0.0967792969357822,1
368,35,39,0.0780788786427016,1
368,36,39,0.0768346463969727,1
368,37,39,0.0829398598297575,1
368,38,39,0.0906940125163515,1
368,39,39,0.103915388966649,1
368,40,39,0.0854923720897884,1
369,24,39,0.0728366586646021,1
369,25,39,0.100380788115012,1
369,26,39,0.10327591270762,1
369,27,39,0.0913701932409871,1
369,28,39,0.0914383586771133,1
369,29,39,0.0869495599005007,1
369,30,39,0.089978888111126,1
369,31,39,0.103884083497169,1
369,32,39,0.103034077489389,1
369,33,39,0.101395339103839,1
369,34,39,0.092498396830315,1
369,35,39,0.0834956205486075,1
369,36,39,0.0831735467934642,1
369,37,39,0.0827145699222393,1
369,38,39,0.079087582792404,1
369,39,39,0.0818017103938773,1
370,24,39,0.07347378996794,1
370,25,39,0.0950571291319671,1
370,26,39,0.103144663609372,1
370,27,39,0.0948964094765181,1
370,28,39,0.0866553768119867,1
370,29,39,0.0772897233021011,1
370,30,39,0.078426317727576,1
370,31,39,0.0870845285836381,1
370,32,39,0.0847312940170657,1
370,33,39,0.0860857454003215,1
370,34,39,0.0888851746525873,1
370,35,39,0.0928608075553715,1
370,36,39,0.0883205628145104,1
370,37,39,0.0769153763171736,1
371,24,39,0.0819206064894657,1
371,25,39,0.088036580594255,1
371,26,39,0.0910498735375809,1
371,27,39,0.0859998217453669,1
371,28,39,0.074983866792557,1
371,33,39,0.0763838737606461,1
371,34,39,0.0817261990885965,1
371,35,39,0.0849846549724202,1
371,36,39,0.0770463579536319,1
372,22,39,0.072159041110352,1
372,23,39,0.0855390286219887,1
372,24,39,0.0976923617255177,1
372,25,39,0.0888626083415858,1
372,26,39,0.0780810058969361,1
372,27,39,0.0715100046473512,1
372,31,39,0.0760233166079927,1
372,32,39,0.079815228141413,1
372,33,39,0.0803342781746149,1
372,34,39,0.0761709057555795,1
373,22,39,0.0935150066529179,1
373,23,39,0.103973739177097,1
373,24,39,0.104736341160017,1
373,25,39,0.0899669207510469,1
373,26,39,0.0782275003171975,1
373,27,39,0.0740812578927867,1
373,30,39,0.071886628167512,1
373,31,39,0.0967162443738685,1
373,32,39,0.0960827144746293,1
373,33,39,0.0850665480404043,1
373,34,39,0.0721431675641349,1
374,22,39,0.0837292204317315,1
374,23,39,0.0884328781060636,1
374,24,39,0.0869455915139464,1
374,25,39,0.0843085240081176,1
374,26,39,0.0872730891453834,1
374,27,39,0.0872712044727722,1
374,28,39,0.0730206910360471,1
374,30,39,0.072646157449871,1
374,31,39,0.0998136633801205,1
374,32,39,0.0962444542169041,1
374,33,39,0.0839930683772592,1
375,25,39,0.0720667419127358,1
375,26,39,0.0791267939347838,1
375,27,39,0.0779655494843642,1
375,31,39,0.0921125116681803,1
375,32,39,0.0924027823505147,1
375,33,39,0.0850647753285422,1
376,31,39,0.0818341976712646,1
376,32,39,0.0864459480106025,1
376,33,39,0.080452259924085,1
377,28,39,0.0728996117058498,1
377,32,39,0.0729729895368545,1
378,28,39,0.0731001271875909,1
350,33,40,0.072153032550146,1
351,30,40,0.0740006648135014,1
351,31,40,0.0754690113788821,1
351,32,40,0.0715203485765672,1
351,33,40,0.0763203235954028,1
351,34,40,0.074293541693275,1
352,19,40,0.0772495231731036,1
352,20,40,0.0744411184007785,1
353,19,40,0.0866114322179332,1
353,20,40,0.0769734963860817,1
354,25,40,0.072106108556156,1
355,25,40,0.0737329106818356,1
355,26,40,0.0732244036191815,1
356,25,40,0.0740708642032377,1
356,26,40,0.0791572659186858,1
356,27,40,0.0795738905265122,1
356,28,40,0.0778758253839791,1
356,29,40,0.072189481994046,1
357,26,40,0.0791833154529952,1
357,27,40,0.0862280412924886,1
357,28,40,0.0876635771383178,1
357,29,40,0.0772329840824329,1
358,27,40,0.0813039142428948,1
358,28,40,0.0864983332011358,1
358,29,40,0.0759366092277939,1
359,22,40,0.0723855314859031,1
359,23,40,0.0735794187147504,1
359,28,40,0.0731271968087261,1
360,27,40,0.0720360149071273,1
360,28,40,0.0727846715567325,1
361,27,40,0.0848006412611,1
361,28,40,0.0849069977527801,1
362,26,40,0.0753750949704443,1
362,27,40,0.0885317207874653,1
362,28,40,0.0889688466524751,1
362,29,40,0.0756870362777867,1
362,40,40,0.0758302838363219,1
362,41,40,0.0770218447696029,1
363,26,40,0.0798789835680298,1
363,27,40,0.0861553725462287,1
363,28,40,0.088329221112447,1
363,29,40,0.0831992666655677,1
363,35,40,0.0737878771896417,1
363,39,40,0.0717122182004549,1
363,40,40,0.0859930294599166,1
363,41,40,0.0796808379221463,1
364,26,40,0.0745393701782262,1
364,27,40,0.0816761712938376,1
364,28,40,0.0959355047495814,1
364,29,40,0.110211053853832,1
364,30,40,0.0838748502662076,1
364,32,40,0.0731829097215268,1
364,33,40,0.0830823734233813,1
364,34,40,0.082729647303129,1
364,35,40,0.07620022081174,1
364,39,40,0.0716361284313033,1
364,40,40,0.0735265048206793,1
365,26,40,0.0767313190655621,1
365,27,40,0.0882705972201677,1
365,28,40,0.106900598422055,1
365,29,40,0.131299283924857,1
365,30,40,0.100039338930219,1
365,31,40,0.0766720482889541,1
365,32,40,0.0830724524569956,1
365,33,40,0.0964814067024619,1
365,34,40,0.0920910400845041,1
365,35,40,0.0767374147063508,1
365,38,40,0.0725521353007257,1
365,39,40,0.0789784086218695,1
366,25,40,0.0772126321062485,1
366,26,40,0.0960003300233571,1
366,27,40,0.10877546824767,1
366,28,40,0.114214770244535,1
366,29,40,0.11937229191588,1
366,30,40,0.0987896081676972,1
366,31,40,0.0872541366785637,1
366,32,40,0.0971734485332314,1
366,33,40,0.104210585921947,1
366,34,40,0.0950898216707279,1
366,35,40,0.078138734103222,1
366,36,40,0.074079839723297,1
366,37,40,0.0716465407809772,1
366,38,40,0.0817716675928471,1
366,39,40,0.0945680037190045,1
366,40,40,0.0821295003672704,1
367,25,40,0.0906696423932799,1
367,26,40,0.105541332726585,1
367,27,40,0.112784397033252,1
367,28,40,0.119143556105303,1
367,29,40,0.114257153608142,1
367,30,40,0.102349331767441,1
367,31,40,0.103772869152983,1
367,32,40,0.115400086256029,1
367,33,40,0.110810616105778,1
367,34,40,0.095906681076709,1
367,35,40,0.0807548151886211,1
367,36,40,0.0821550087579588,1
367,37,40,0.0823389353886963,1
367,38,40,0.0900234547093415,1
367,39,40,0.103792337883257,1
367,40,40,0.0906673471979217,1
368,24,40,0.0773250655785925,1
368,25,40,0.110755506537014,1
368,26,40,0.113632798270294,1
368,27,40,0.102411302042113,1
368,28,40,0.112366522197059,1
368,29,40,0.114291911200721,1
368,30,40,0.106829092823578,1
368,31,40,0.115807063579301,1
368,32,40,0.126893902126425,1
368,33,40,0.118185408453898,1
368,34,40,0.0996265645281563,1
368,35,40,0.0838882295757347,1
368,36,40,0.0865295826902405,1
368,37,40,0.0882132173362125,1
368,38,40,0.0894441138127057,1
368,39,40,0.0995037124860969,1
368,40,40,0.0914805492194296,1
369,24,40,0.0826909462041622,1
369,25,40,0.124470325109159,1
369,26,40,0.132932007530159,1
369,27,40,0.110751762071958,1
369,28,40,0.10966100313319,1
369,29,40,0.10687940052021,1
369,30,40,0.0992256579655065,1
369,31,40,0.104872777772977,1
369,32,40,0.109392844698819,1
369,33,40,0.11015702657231,1
369,34,40,0.103293509205366,1
369,35,40,0.090955565266521,1
369,36,40,0.0892409734734005,1
369,37,40,0.0849678857402095,1
369,38,40,0.0769787709813764,1
369,39,40,0.0779099485323127,1
369,40,40,0.0754587731903737,1
370,24,40,0.0873123749282626,1
370,25,40,0.114922051177277,1
370,26,40,0.130202031262635,1
370,27,40,0.117953127219597,1
370,28,40,0.103689358874178,1
370,29,40,0.0890582597507791,1
370,30,40,0.0825082449216241,1
370,31,40,0.0857733500299407,1
370,32,40,0.0873245475497152,1
370,33,40,0.0951283237283628,1
370,34,40,0.100112928242639,1
370,35,40,0.0956036841892178,1
370,36,40,0.0886885466968594,1
370,37,40,0.0763155341633545,1
371,23,40,0.0785708963750181,1
371,24,40,0.106422986306133,1
371,25,40,0.11174465487586,1
371,26,40,0.111129915722358,1
371,27,40,0.102866515788157,1
371,28,40,0.0871469280411815,1
371,29,40,0.0729836631282764,1
371,30,40,0.0751857382433715,1
371,31,40,0.0826355505134842,1
371,32,40,0.0842451542240813,1
371,33,40,0.0861944841679425,1
371,34,40,0.0875973212549692,1
371,35,40,0.0829153031054372,1
371,36,40,0.0739020647137229,1
372,22,40,0.0832796358233546,1
372,23,40,0.103010976254808,1
372,24,40,0.117304787401258,1
372,25,40,0.108931753013443,1
372,26,40,0.0969780832459526,1
372,27,40,0.0879572564034605,1
372,28,40,0.075638942915972,1
372,30,40,0.0785977358546133,1
372,31,40,0.0914753803648424,1
372,32,40,0.0914013121092177,1
372,33,40,0.0864918394776833,1
372,34,40,0.0797259581040662,1
373,22,40,0.105048705430189,1
373,23,40,0.119482548373656,1
373,24,40,0.110392691509253,1
373,25,40,0.100484382908213,1
373,26,40,0.0999415660959763,1
373,27,40,0.0956959460665844,1
373,28,40,0.0785886483738048,1
373,30,40,0.0863483120172752,1
373,31,40,0.103349222118167,1
373,32,40,0.098112649937859,1
373,33,40,0.0865162469210047,1
373,34,40,0.0748379819363745,1
374,22,40,0.0802286556478461,1
374,23,40,0.088063967437513,1
374,24,40,0.0861402640651309,1
374,25,40,0.0933393713376614,1
374,26,40,0.10820693156333,1
374,27,40,0.106195195941883,1
374,28,40,0.0815794123263789,1
374,30,40,0.086983459127336,1
374,31,40,0.103059990182783,1
374,32,40,0.0963787138152967,1
374,33,40,0.084844741356194,1
374,34,40,0.0717164975890903,1
375,25,40,0.0780056314325709,1
375,26,40,0.0885563894725348,1
375,27,40,0.0843346668430513,1
375,30,40,0.0834135470994164,1
375,31,40,0.0947087446007663,1
375,32,40,0.0917206801462558,1
375,33,40,0.0829159873100155,1
376,30,40,0.0732790653449482,1
376,31,40,0.0791378034084532,1
376,32,40,0.0806891128889768,1
376,33,40,0.0741344765688973,1
377,28,40,0.0723988423749724,1
350,33,41,0.073806475114089,1
350,34,41,0.0751991735332732,1
351,30,41,0.0744251888741867,1
351,31,41,0.0739011254874381,1
351,33,41,0.0758115179707509,1
351,34,41,0.0794002518446161,1
352,19,41,0.0776691271808666,1
352,20,41,0.080963410504428,1
352,34,41,0.0718748909489729,1
353,19,41,0.0813165906877187,1
353,20,41,0.0774855364323766,1
355,27,41,0.0714064285142758,1
356,26,41,0.0766947265607049,1
356,27,41,0.0788042661166021,1
356,28,41,0.0777950021631538,1
357,26,41,0.0755407035786075,1
357,27,41,0.0803733649161622,1
357,28,41,0.0812906157939088,1
357,29,41,0.0726029157205208,1
358,27,41,0.0716605856349577,1
358,28,41,0.0759407331153887,1
360,27,41,0.0713560834973942,1
360,28,41,0.072540702864226,1
361,26,41,0.0756465375867914,1
361,27,41,0.0844646346127253,1
361,28,41,0.0814481321279229,1
361,40,41,0.0780293795514805,1
361,41,41,0.0815810046570339,1
362,25,41,0.071832053522328,1
362,26,41,0.0880441130646583,1
362,27,41,0.0932837019651521,1
362,28,41,0.086316546264716,1
362,35,41,0.0723147349721711,1
362,36,41,0.0724897420632239,1
362,39,41,0.072496192246385,1
362,40,41,0.0884438937997746,1
362,41,41,0.0868346384115083,1
363,25,41,0.0746008490696097,1
363,26,41,0.0890616247932962,1
363,27,41,0.092813678300008,1
363,28,41,0.0902924528493315,1
363,29,41,0.0797050152239277,1
363,34,41,0.0734055250111479,1
363,35,41,0.0752636442646765,1
363,39,41,0.0770986498435409,1
363,40,41,0.0852551086021495,1
363,41,41,0.0755470293609362,1
364,26,41,0.0804755415398729,1
364,27,41,0.0873125677495528,1
364,28,41,0.0950670252181863,1
364,29,41,0.0976325062649973,1
364,30,41,0.0844938252680534,1
364,31,41,0.0739556814724972,1
364,32,41,0.0741092605201651,1
364,33,41,0.0794155593670458,1
364,34,41,0.0795509634530966,1
364,35,41,0.0749610827800987,1
364,39,41,0.0754331466188945,1
364,40,41,0.0723623867110308,1
365,26,41,0.0827498810985226,1
365,27,41,0.0939920154248025,1
365,28,41,0.10205001714459,1
365,29,41,0.111487941318072,1
365,30,41,0.0995925844407799,1
365,31,41,0.0841210954939474,1
365,32,41,0.0855719202020813,1
365,33,41,0.0921322789604524,1
365,34,41,0.085658795523404,1
365,35,41,0.0761862132780091,1
365,36,41,0.072534414402147,1
365,38,41,0.0737297757808586,1
365,39,41,0.0825116597244741,1
365,40,41,0.0749783558356807,1
366,25,41,0.0785251355288113,1
366,26,41,0.097286018846491,1
366,27,41,0.11220434083183,1
366,28,41,0.112689217956365,1
366,29,41,0.114814108574983,1
366,30,41,0.107914689127801,1
366,31,41,0.100647721201184,1
366,32,41,0.104330638945277,1
366,33,41,0.103544021381658,1
366,34,41,0.0900940832819497,1
366,35,41,0.0808224146009597,1
366,36,41,0.0818589036765838,1
366,37,41,0.0758644878451966,1
366,38,41,0.0806606313183936,1
366,39,41,0.0926945582829213,1
366,40,41,0.084949194515138,1
367,25,41,0.0904219541158839,1
367,26,41,0.103488196508108,1
367,27,41,0.112133382597015,1
367,28,41,0.120249790507625,1
367,29,41,0.125199985751653,1
367,30,41,0.119230437646668,1
367,31,41,0.120871769789574,1
367,32,41,0.128654584427959,1
367,33,41,0.113529694860382,1
367,34,41,0.0945432044130609,1
367,35,41,0.0871608733744962,1
367,36,41,0.0925786975676441,1
367,37,41,0.0875559206579388,1
367,38,41,0.0872474065935296,1
367,39,41,0.095682373935767,1
367,40,41,0.090614818946431,1
367,41,41,0.0715855781530482,1
368,24,41,0.078620563407363,1
368,25,41,0.113960843265393,1
368,26,41,0.121455682416802,1
368,27,41,0.110524929594118,1
368,28,41,0.120861743082481,1
368,29,41,0.130193298324199,1
368,30,41,0.118669526733355,1
368,31,41,0.124238155835608,1
368,32,41,0.138485808053187,1
368,33,41,0.122928053349111,1
368,34,41,0.105129565971264,1
368,35,41,0.093386121170486,1
368,36,41,0.094598500583073,1
368,37,41,0.0901075123518098,1
368,38,41,0.0846161237264085,1
368,39,41,0.0886004584674207,1
368,40,41,0.0893127029933756,1
368,41,41,0.0722328294641038,1
369,24,41,0.0834493496589877,1
369,25,41,0.127675562316872,1
369,26,41,0.143654152596953,1
369,27,41,0.122310826178961,1
369,28,41,0.119795690149032,1
369,29,41,0.118795308415018,1
369,30,41,0.102768494152249,1
369,31,41,0.10224331737805,1
369,32,41,0.113482708665975,1
369,33,41,0.116724469958088,1
369,34,41,0.11583591213234,1
369,35,41,0.0996523217205095,1
369,36,41,0.0916261044134062,1
369,37,41,0.0832127392757191,1
369,38,41,0.0731016075574967,1
369,40,41,0.072239229886932,1
370,24,41,0.0933555247857515,1
370,25,41,0.122900859327143,1
370,26,41,0.139116159511158,1
370,27,41,0.125891281177428,1
370,28,41,0.109942858099211,1
370,29,41,0.0953604059213313,1
370,30,41,0.0864202467986239,1
370,31,41,0.0902273849939327,1
370,32,41,0.0957693176775475,1
370,33,41,0.103988306514574,1
370,34,41,0.109332647136009,1
370,35,41,0.0952665641533929,1
370,36,41,0.0830816643386365,1
371,23,41,0.0878572505742756,1
371,24,41,0.11775911168135,1
371,25,41,0.125369469445747,1
371,26,41,0.119482125410826,1
371,27,41,0.106671377448232,1
371,28,41,0.0895675443186359,1
371,29,41,0.0774338976468378,1
371,30,41,0.0840386550623006,1
371,31,41,0.0971394186855221,1
371,32,41,0.0980251961526656,1
371,33,41,0.0941943595987802,1
371,34,41,0.0904692015520382,1
371,35,41,0.0787380662136282,1
372,22,41,0.0880443991865728,1
372,23,41,0.110910385573381,1
372,24,41,0.119776719022087,1
372,25,41,0.118195497361407,1
372,26,41,0.112222888995944,1
372,27,41,0.100049558458603,1
372,28,41,0.0820303466837877,1
372,29,41,0.0741055284951924,1
372,30,41,0.0890108319334178,1
372,31,41,0.10153907182562,1
372,32,41,0.0982366775677848,1
372,33,41,0.0881876902853993,1
372,34,41,0.0775971737393931,1
373,22,41,0.0999819901464722,1
373,23,41,0.117187912819197,1
373,24,41,0.105150602152027,1
373,25,41,0.108565293041291,1
373,26,41,0.120945514603035,1
373,27,41,0.111720048391207,1
373,28,41,0.0850540208765793,1
373,29,41,0.0773740048660677,1
373,30,41,0.0971415521597981,1
373,31,41,0.102679995400063,1
373,32,41,0.095844816542745,1
373,33,41,0.0848736521096491,1
373,34,41,0.072211382760594,1
374,23,41,0.0789055781545275,1
374,24,41,0.0816679732789809,1
374,25,41,0.099963522842899,1
374,26,41,0.117963377848189,1
374,27,41,0.108380483164643,1
374,28,41,0.0810770195646384,1
374,29,41,0.0795260770665704,1
374,30,41,0.103040521452509,1
374,31,41,0.100919369078905,1
374,32,41,0.0920506595742996,1
374,33,41,0.0820831548371512,1
375,25,41,0.0772287731142554,1
375,26,41,0.0856702403999869,1
375,27,41,0.0784615169431101,1
375,29,41,0.0747703576438693,1
375,30,41,0.0952201564228575,1
375,31,41,0.0916947861129869,1
375,32,41,0.0856779159313474,1
375,33,41,0.0763345861508401,1
376,30,41,0.0720259695399091,1
350,33,42,0.072759362207376,1
350,34,42,0.079577193368613,1
351,33,42,0.0722253032137422,1
351,34,42,0.0799989370706937,1
352,20,42,0.0773966458175687,1
352,21,42,0.0731208648063558,1
355,27,42,0.0725931129349258,1
355,28,42,0.0745075297851675,1
356,26,42,0.0741946554715819,1
356,27,42,0.0786437703826515,1
356,28,42,0.0782288127459795,1
356,29,42,0.0716600942516697,1
357,27,42,0.0751443438663828,1
357,28,42,0.0749456321967118,1
360,27,42,0.0716127286347246,1
360,40,42,0.0727021689246695,1
360,41,42,0.0718043992172804,1
361,25,42,0.0747317809457349,1
361,26,42,0.0876529470871872,1
361,27,42,0.0882444170649842,1
361,28,42,0.0807198647747518,1
361,39,42,0.0738806055701299,1
361,40,42,0.0971578548888872,1
361,41,42,0.089254526944093,1
362,25,42,0.0868221423478914,1
362,26,42,0.104409079890161,1
362,27,42,0.10392065112186,1
362,28,42,0.0910655667025911,1
362,29,42,0.0714362349537244,1
362,35,42,0.0744151746071766,1
362,36,42,0.074078937817262,1
362,39,42,0.0837701296454738,1
362,40,42,0.102208982748302,1
362,41,42,0.087044552376139,1
363,25,42,0.0857529171932152,1
363,26,42,0.102127326041899,1
363,27,42,0.10471429111247,1
363,28,42,0.0962868686807187,1
363,29,42,0.0791864068136809,1
363,30,42,0.0718663570518687,1
363,34,42,0.0754778998183587,1
363,35,42,0.0752689188599712,1
363,39,42,0.0789440304518294,1
363,40,42,0.0818772590194078,1
364,25,42,0.0796390765627019,1
364,26,42,0.0966177500147976,1
364,27,42,0.102438751085787,1
364,28,42,0.0983830973475467,1
364,29,42,0.0896438704493691,1
364,30,42,0.0839842421381988,1
364,31,42,0.0789132288057215,1
364,32,42,0.0759703094132973,1
364,33,42,0.0767961940996707,1
364,34,42,0.077486581399369,1
364,35,42,0.0746966874709084,1
364,39,42,0.0750866094400552,1
365,25,42,0.077151974260359,1
365,26,42,0.0969488179501251,1
365,27,42,0.105669988067477,1
365,28,42,0.102397462449506,1
365,29,42,0.100895316177956,1
365,30,42,0.0987551677972408,1
365,31,42,0.0921775359832879,1
365,32,42,0.0894898808789542,1
365,33,42,0.0883079423500611,1
365,34,42,0.0818440813174006,1
365,35,42,0.0776097631036343,1
365,36,42,0.0760644248630669,1
365,38,42,0.0739260802944221,1
365,39,42,0.0810701401986054,1
365,40,42,0.0765308782243204,1
366,25,42,0.0793611837631936,1
366,26,42,0.099639129012231,1
366,27,42,0.112638599257652,1
366,28,42,0.112013621915642,1
366,29,42,0.116362998459316,1
366,30,42,0.116661908779462,1
366,31,42,0.114079782901273,1
366,32,42,0.111751608882392,1
366,33,42,0.101607081760706,1
366,34,42,0.0866766804545391,1
366,35,42,0.0838765483375701,1
366,36,42,0.089151846497011,1
366,37,42,0.0796438722147918,1
366,38,42,0.0773459338182315,1
366,39,42,0.0852762754037863,1
366,40,42,0.0851288168770736,1
367,24,42,0.0725479865329644,1
367,25,42,0.0900420339736639,1
367,26,42,0.105354743918033,1
367,27,42,0.113172602270911,1
367,28,42,0.121281110728662,1
367,29,42,0.134437182961979,1
367,30,42,0.132229603110049,1
367,31,42,0.134627802357501,1
367,32,42,0.136967197331466,1
367,33,42,0.114535363629773,1
367,34,42,0.0954497692593024,1
367,35,42,0.0930916892803071,1
367,36,42,0.100934135457713,1
367,37,42,0.0894509682985722,1
367,38,42,0.079882329950422,1
367,39,42,0.0825995115923312,1
367,40,42,0.086645225704061,1
368,24,42,0.0774905311257984,1
368,25,42,0.109484453471815,1
368,26,42,0.127206173095974,1
368,27,42,0.12224352532862,1
368,28,42,0.129042578184203,1
368,29,42,0.138851608700927,1
368,30,42,0.124390708576409,1
368,31,42,0.126789392987107,1
368,32,42,0.138505948547957,1
368,33,42,0.123112365622429,1
368,34,42,0.112157926881252,1
368,35,42,0.101896176855174,1
368,36,42,0.0993419851839053,1
368,37,42,0.0880275428737795,1
368,38,42,0.0753968962163264,1
368,39,42,0.0726427302069378,1
368,40,42,0.0772539580627795,1
369,24,42,0.0814059602457315,1
369,25,42,0.121686595241945,1
369,26,42,0.146042175856312,1
369,27,42,0.132012610738054,1
369,28,42,0.126835918898433,1
369,29,42,0.122343456517305,1
369,30,42,0.102777929955389,1
369,31,42,0.101824154993243,1
369,32,42,0.114500095993781,1
369,33,42,0.119094455096746,1
369,34,42,0.125213545442388,1
369,35,42,0.105833923484444,1
369,36,42,0.0904577753355802,1
369,37,42,0.0778832458936331,1
370,23,42,0.0722072153327079,1
370,24,42,0.0952497762610574,1
370,25,42,0.124256504958391,1
370,26,42,0.139203998938932,1
370,27,42,0.124660148339354,1
370,28,42,0.110100635674973,1
370,29,42,0.0972854901429532,1
370,30,42,0.0886786879308899,1
370,31,42,0.0977125146603702,1
370,32,42,0.10678466928632,1
370,33,42,0.109942385376048,1
370,34,42,0.113675853398395,1
370,35,42,0.0928276111932394,1
370,36,42,0.0754485661020734,1
371,22,42,0.0756830492311076,1
371,23,42,0.0973933767648721,1
371,24,42,0.118563935306795,1
371,25,42,0.127972494663783,1
371,26,42,0.123394780392196,1
371,27,42,0.104859852526488,1
371,28,42,0.0889598027119579,1
371,29,42,0.0813112725521326,1
371,30,42,0.0890105084912535,1
371,31,42,0.108003225200237,1
371,32,42,0.111166253205509,1
371,33,42,0.099055570927376,1
371,34,42,0.0886032139458588,1
371,35,42,0.0715193533699078,1
372,22,42,0.0887674790250319,1
372,23,42,0.111768552275768,1
372,24,42,0.114014248542753,1
372,25,42,0.119723686947225,1
372,26,42,0.125483258887164,1
372,27,42,0.106451847299255,1
372,28,42,0.0851924354627748,1
372,29,42,0.0811066518429216,1
372,30,42,0.0935755774182247,1
372,31,42,0.104284735038113,1
372,32,42,0.100686932343564,1
372,33,42,0.0863371968028982,1
372,34,42,0.0714800986872367,1
373,22,42,0.085759964500372,1
373,23,42,0.101833646776756,1
373,24,42,0.0981382640692549,1
373,25,42,0.1154700368441,1
373,26,42,0.136953102717153,1
373,27,42,0.11728856553271,1
373,28,42,0.0871380644818714,1
373,29,42,0.0849442993423821,1
373,30,42,0.102640902438475,1
373,31,42,0.098122813485868,1
373,32,42,0.0895626180456719,1
373,33,42,0.0795042198403137,1
374,24,42,0.0761091345222398,1
374,25,42,0.0994869681340527,1
374,26,42,0.113703607224109,1
374,27,42,0.0969032685853334,1
374,28,42,0.0751730369183811,1
374,29,42,0.0839606308602049,1
374,30,42,0.110566690953563,1
374,31,42,0.0958872621067678,1
374,32,42,0.0822912836498366,1
374,33,42,0.0740023193445726,1
375,26,42,0.0733532766615302,1
375,29,42,0.0716562378258645,1
375,30,42,0.09379510134716,1
375,31,42,0.0826324093924655,1
375,32,42,0.0731513430102994,1
350,34,43,0.0803273117279992,1
351,34,43,0.0744293811822394,1
352,21,43,0.0762966812172008,1
352,22,43,0.0723305525380137,1
353,23,43,0.07369973919987,1
353,24,43,0.0713995367081596,1
354,28,43,0.072418796268493,1
354,29,43,0.0732303375388881,1
355,27,43,0.0751620087845868,1
355,28,43,0.0772966151082173,1
355,29,43,0.0747432818026924,1
356,26,43,0.0722054053005961,1
356,27,43,0.078109114265022,1
356,28,43,0.0784077011430039,1
356,29,43,0.0728990892223536,1
357,27,43,0.0725381713072862,1
357,28,43,0.0726277896669638,1
360,25,43,0.074225618838772,1
360,26,43,0.0786910613590971,1
360,27,43,0.0750562929571937,1
360,40,43,0.0831292165568303,1
360,41,43,0.0736588237660861,1
361,24,43,0.0728766410921428,1
361,25,43,0.0914084527169988,1
361,26,43,0.102402432262761,1
361,27,43,0.0954639322940737,1
361,28,43,0.0810490418174265,1
361,36,43,0.0739786023258712,1
361,39,43,0.0947856989557032,1
361,40,43,0.122870082561202,1
361,41,43,0.0920909965442128,1
362,24,43,0.0779594538435755,1
362,25,43,0.104767864330953,1
362,26,43,0.118548497163491,1
362,27,43,0.11409392727592,1
362,28,43,0.0957057053118879,1
362,29,43,0.072105928174949,1
362,34,43,0.07468575885778,1
362,35,43,0.0750482069030862,1
362,36,43,0.0750984897195516,1
362,38,43,0.074234320677,1
362,39,43,0.0990537795553892,1
362,40,43,0.118404428559462,1
362,41,43,0.0822533165157811,1
363,24,43,0.073557014124831,1
363,25,43,0.0974647766226413,1
363,26,43,0.115085277509499,1
363,27,43,0.117594442299472,1
363,28,43,0.102569913103452,1
363,29,43,0.0792669936729245,1
363,30,43,0.0728763052098953,1
363,31,43,0.0726036683455569,1
363,32,43,0.0716292179650622,1
363,33,43,0.0722570689663014,1
363,34,43,0.0770951604001914,1
363,35,43,0.0755858610807771,1
363,36,43,0.0725533979691748,1
363,38,43,0.0724536285015715,1
363,39,43,0.0812625323059893,1
363,40,43,0.0815444370323432,1
364,25,43,0.0884273360489791,1
364,26,43,0.117605837415722,1
364,27,43,0.123401075074317,1
364,28,43,0.107116943909722,1
364,29,43,0.0876442265888343,1
364,30,43,0.0829895890625186,1
364,31,43,0.0819212160535445,1
364,32,43,0.0786126888346706,1
364,33,43,0.0755937605336359,1
364,34,43,0.0765742008142118,1
364,35,43,0.076298024746191,1
364,36,43,0.0744664526303014,1
364,37,43,0.0722722894081484,1
364,38,43,0.072878575525087,1
364,39,43,0.0743648669105448,1
365,25,43,0.0814492268552482,1
365,26,43,0.109882225133488,1
365,27,43,0.116124994786724,1
365,28,43,0.106997817672594,1
365,29,43,0.100669211444985,1
365,30,43,0.100904472079222,1
365,31,43,0.100385030183398,1
365,32,43,0.0954592734828995,1
365,33,43,0.086483143859497,1
365,34,43,0.0808472761073195,1
365,35,43,0.0820878696287001,1
365,36,43,0.0855420640022998,1
365,37,43,0.0812880282565944,1
365,38,43,0.0769742676712427,1
365,39,43,0.0779095628897322,1
365,40,43,0.0776182348003223,1
366,25,43,0.0796701767708077,1
366,26,43,0.0984620421158024,1
366,27,43,0.107848582525452,1
366,28,43,0.112040529815695,1
366,29,43,0.121784274775564,1
366,30,43,0.126077011620236,1
366,31,43,0.126385911327226,1
366,32,43,0.118282515743687,1
366,33,43,0.100450440141086,1
366,34,43,0.0888376970748931,1
366,35,43,0.091012783429394,1
366,36,43,0.10056851519118,1
366,37,43,0.0905052529132744,1
366,38,43,0.0777853051182665,1
366,39,43,0.0794316879349694,1
366,40,43,0.0869076119398077,1
367,24,43,0.0735839282449258,1
367,25,43,0.0897096971498457,1
367,26,43,0.10789166253372,1
367,27,43,0.116525204704713,1
367,28,43,0.125267983246656,1
367,29,43,0.138836419359289,1
367,30,43,0.138707515216732,1
367,31,43,0.139614857568176,1
367,32,43,0.13467069576452,1
367,33,43,0.113380202380059,1
367,34,43,0.103230114541163,1
367,35,43,0.103423452094873,1
367,36,43,0.11136055486567,1
367,37,43,0.0968132023826591,1
367,38,43,0.0781515349488783,1
367,39,43,0.0760978700268639,1
367,40,43,0.0850732967855632,1
368,24,43,0.0747508764735119,1
368,25,43,0.101918208242596,1
368,26,43,0.131243925554428,1
368,27,43,0.137780778775513,1
368,28,43,0.139983084032148,1
368,29,43,0.138850949376516,1
368,30,43,0.123353330034833,1
368,31,43,0.122453787615581,1
368,32,43,0.127133958412752,1
368,33,43,0.11953255750829,1
368,34,43,0.121144916697326,1
368,35,43,0.113240438044831,1
368,36,43,0.106875730695654,1
368,37,43,0.0915534667673543,1
368,38,43,0.0733578546121633,1
369,24,43,0.0798154956032027,1
369,25,43,0.112616431029314,1
369,26,43,0.142928709142677,1
369,27,43,0.139596881647891,1
369,28,43,0.131929971265075,1
369,29,43,0.119082836058998,1
369,30,43,0.101458970129623,1
369,31,43,0.104037874026252,1
369,32,43,0.115736105344487,1
369,33,43,0.12041901295997,1
369,34,43,0.130187028522245,1
369,35,43,0.113476986227684,1
369,36,43,0.094326678544187,1
369,37,43,0.0789663106409164,1
370,23,43,0.077346139079605,1
370,24,43,0.0947511404044561,1
370,25,43,0.119236819409371,1
370,26,43,0.131773562098469,1
370,27,43,0.117810949508221,1
370,28,43,0.107203402488256,1
370,29,43,0.0975664307628558,1
370,30,43,0.0908704191167691,1
370,31,43,0.106262347511225,1
370,32,43,0.120908617316138,1
370,33,43,0.117311766287957,1
370,34,43,0.114601246310624,1
370,35,43,0.0943284388159658,1
370,36,43,0.0743666085221987,1
371,22,43,0.0784046719827344,1
371,23,43,0.100996653096048,1
371,24,43,0.110903978930511,1
371,25,43,0.121574248850184,1
371,26,43,0.121657672048407,1
371,27,43,0.100526492589988,1
371,28,43,0.0886182602265404,1
371,29,43,0.0877564547998048,1
371,30,43,0.0906655433858515,1
371,31,43,0.1111242430444,1
371,32,43,0.119943105135453,1
371,33,43,0.102320010491239,1
371,34,43,0.0851461023727388,1
372,22,43,0.0808652022672717,1
372,23,43,0.10085190028744,1
372,24,43,0.104899897154445,1
372,25,43,0.119579829824611,1
372,26,43,0.131530880954579,1
372,27,43,0.10638748230856,1
372,28,43,0.0876407060452768,1
372,29,43,0.0927700136078275,1
372,30,43,0.0939293422854277,1
372,31,43,0.0990353744522322,1
372,32,43,0.0980437443167799,1
372,33,43,0.0832552346000748,1
373,23,43,0.0816240162448442,1
373,24,43,0.0932094906485701,1
373,25,43,0.11833179091341,1
373,26,43,0.134847369826728,1
373,27,43,0.107751624516661,1
373,28,43,0.0858589004823981,1
373,29,43,0.0965473640238126,1
373,30,43,0.103234369049632,1
373,31,43,0.0904446697078844,1
373,32,43,0.0814872375295951,1
373,33,43,0.0733461422737907,1
374,24,43,0.0723469734478936,1
374,25,43,0.0926052944656162,1
374,26,43,0.0962922241365546,1
374,27,43,0.0782539230540041,1
374,29,43,0.0837895486154151,1
374,30,43,0.10492742705866,1
374,31,43,0.0864872864072167,1
375,30,43,0.0801415937252748,1
350,34,44,0.0746697298105223,1
352,21,44,0.0741840814008259,1
352,22,44,0.0736092686944903,1
353,22,44,0.0715063348227948,1
353,23,44,0.072651855007996,1
354,28,44,0.0739615220915795,1
354,29,44,0.0742791982772966,1
354,32,44,0.0714642189209779,1
355,27,44,0.0767798727104568,1
355,28,44,0.079205253539793,1
355,29,44,0.0766063211091434,1
355,30,44,0.0718782248912819,1
355,32,44,0.0720005171295953,1
356,27,44,0.0766801592232281,1
356,28,44,0.0786573176333024,1
356,29,44,0.0739110651139487,1
360,22,44,0.0772427246676117,1
360,23,44,0.0746106269750381,1
360,24,44,0.07427667916044,1
360,25,44,0.0838453112885487,1
360,26,44,0.0870740415934649,1
360,27,44,0.07964252246576,1
360,36,44,0.0718288253207267,1
360,39,44,0.07751217687064,1
360,40,44,0.0890605549461373,1
361,23,44,0.0734427768404169,1
361,24,44,0.0832808425114291,1
361,25,44,0.107075680153607,1
361,26,44,0.115868654431433,1
361,27,44,0.102670628017382,1
361,28,44,0.0811206220564027,1
361,34,44,0.0733315189559394,1
361,35,44,0.0744545599107218,1
361,36,44,0.0764170825628614,1
361,37,44,0.0723134660836804,1
361,38,44,0.0776115793557877,1
361,39,44,0.111457973157541,1
361,40,44,0.134431696885269,1
361,41,44,0.0860548006932563,1
362,24,44,0.0864788458107368,1
362,25,44,0.119720514725998,1
362,26,44,0.13420839739107,1
362,27,44,0.124260821667276,1
362,28,44,0.097644038222163,1
362,29,44,0.073268839596523,1
362,33,44,0.0717999207873132,1
362,34,44,0.0762579241378594,1
362,35,44,0.0759449192033997,1
362,36,44,0.0758110079273379,1
362,37,44,0.073717373017866,1
362,38,44,0.0781326633425997,1
362,39,44,0.104876161475619,1
362,40,44,0.118085701186711,1
362,41,44,0.0716402834191063,1
363,24,44,0.0778971414666148,1
363,25,44,0.10711133343218,1
363,26,44,0.131845241858112,1
363,27,44,0.132919579887,1
363,28,44,0.109429841506381,1
363,29,44,0.0816305908288378,1
363,30,44,0.074143165967042,1
363,31,44,0.0743443532132782,1
363,32,44,0.0724496476749339,1
363,33,44,0.072879757332995,1
363,34,44,0.0759223528923982,1
363,35,44,0.0751024581061059,1
363,36,44,0.0731946967003989,1
363,37,44,0.0725429731794177,1
363,38,44,0.0728150129197605,1
363,39,44,0.0786365489143293,1
363,40,44,0.0755535293044303,1
364,25,44,0.0931179502960316,1
364,26,44,0.132748939265166,1
364,27,44,0.141635773971055,1
364,28,44,0.118906311277789,1
364,29,44,0.0916388865989376,1
364,30,44,0.0843613383815228,1
364,31,44,0.0861131944439957,1
364,32,44,0.0822907922665486,1
364,33,44,0.075572792773331,1
364,34,44,0.0742942321178949,1
364,35,44,0.0764042257368305,1
364,36,44,0.0787247553245589,1
364,37,44,0.079762475968424,1
364,38,44,0.07372912889653,1
365,25,44,0.0824185457014054,1
365,26,44,0.113542035422958,1
365,27,44,0.12077214960297,1
365,28,44,0.113725576411115,1
365,29,44,0.106715900506157,1
365,30,44,0.106534698253649,1
365,31,44,0.111782049766086,1
365,32,44,0.104955417245955,1
365,33,44,0.087072710504558,1
365,34,44,0.0796427401672168,1
365,35,44,0.0844848310878692,1
365,36,44,0.0953662030001222,1
365,37,44,0.0962982948971768,1
365,38,44,0.0790902636303427,1
365,40,44,0.073171806947233,1
366,25,44,0.0807678088555677,1
366,26,44,0.0956622396610393,1
366,27,44,0.104226322627249,1
366,28,44,0.116909578396733,1
366,29,44,0.129778471308401,1
366,30,44,0.133865063533665,1
366,31,44,0.138246572812355,1
366,32,44,0.125915041736421,1
366,33,44,0.101116668799128,1
366,34,44,0.0933132844831023,1
366,35,44,0.0976327612867038,1
366,36,44,0.111263895418878,1
366,37,44,0.105691136208988,1
366,38,44,0.0791403909457676,1
366,39,44,0.072066113688532,1
366,40,44,0.083229881710427,1
367,24,44,0.0720838159269858,1
367,25,44,0.089173846784225,1
367,26,44,0.108980978422832,1
367,27,44,0.122995739842033,1
367,28,44,0.133682331150919,1
367,29,44,0.14023152493458,1
367,30,44,0.138135980472331,1
367,31,44,0.138332894549973,1
367,32,44,0.127231563305871,1
367,33,44,0.110335616407337,1
367,34,44,0.112383017747439,1
367,35,44,0.113462642811706,1
367,36,44,0.11842886088295,1
367,37,44,0.103773416516646,1
367,38,44,0.0768817321120448,1
367,40,44,0.0788549407956896,1
368,24,44,0.0716305241738027,1
368,25,44,0.0974761966190578,1
368,26,44,0.135856932342174,1
368,27,44,0.158700420838438,1
368,28,44,0.155063015138887,1
368,29,44,0.136584266689102,1
368,30,44,0.120240746567108,1
368,31,44,0.118400534813407,1
368,32,44,0.11576431945328,1
368,33,44,0.113343715615909,1
368,34,44,0.125657457372806,1
368,35,44,0.121857758347276,1
368,36,44,0.111964632867834,1
368,37,44,0.0931368965428096,1
369,24,44,0.0782151535345795,1
369,25,44,0.104483639529074,1
369,26,44,0.139521283262027,1
369,27,44,0.152059891963612,1
369,28,44,0.140300442995743,1
369,29,44,0.115742138784859,1
369,30,44,0.0998491922578606,1
369,31,44,0.10620753650446,1
369,32,44,0.116613691016815,1
369,33,44,0.118758709690119,1
369,34,44,0.126504042357695,1
369,35,44,0.116121287641918,1
369,36,44,0.0964338109439768,1
369,37,44,0.0776853428293729,1
370,23,44,0.0822903693037183,1
370,24,44,0.0923650080377494,1
370,25,44,0.108742365186162,1
370,26,44,0.120474134968817,1
370,27,44,0.113350532781526,1
370,28,44,0.105712794393913,1
370,29,44,0.0974292664050262,1
370,30,44,0.0904600580908551,1
370,31,44,0.108736568107371,1
370,32,44,0.129697063403664,1
370,33,44,0.121761223301316,1
370,34,44,0.108258371307537,1
370,35,44,0.09156522886606,1
370,36,44,0.0723780923161242,1
371,22,44,0.0784587676847135,1
371,23,44,0.0990467633484405,1
371,24,44,0.102892714603465,1
371,25,44,0.111278450316271,1
371,26,44,0.112885360748846,1
371,27,44,0.0948168240439755,1
371,28,44,0.0883417855965218,1
371,29,44,0.0928812341720554,1
371,30,44,0.0886149636044812,1
371,31,44,0.104040498883817,1
371,32,44,0.117461669291027,1
371,33,44,0.100047300583494,1
371,34,44,0.0771378609859207,1
372,23,44,0.0878677500045321,1
372,24,44,0.0998620179836834,1
372,25,44,0.116686179381868,1
372,26,44,0.122734498093944,1
372,27,44,0.0981847899805811,1
372,28,44,0.0878264178279595,1
372,29,44,0.101576472935888,1
372,30,44,0.0917379469817961,1
372,31,44,0.0889476736307967,1
372,32,44,0.0883262043922608,1
372,33,44,0.0753191145958539,1
373,24,44,0.0891820696792482,1
373,25,44,0.110964002332155,1
373,26,44,0.11454628602286,1
373,27,44,0.0896877839432144,1
373,28,44,0.0812824799794683,1
373,29,44,0.102941031886778,1
373,30,44,0.0980498523976518,1
373,31,44,0.0807896349816163,1
374,25,44,0.0772968701299238,1
374,26,44,0.0745867668953794,1
374,29,44,0.0784298631513,1
374,30,44,0.088541971416057,1
374,31,44,0.0736443248490672,1
352,21,45,0.0732893221935815,1
352,22,45,0.076098771932899,1
352,23,45,0.0714052156061597,1
353,22,45,0.0718722287711591,1
354,27,45,0.0732552052652894,1
354,28,45,0.0756164761256364,1
354,29,45,0.0751126962946143,1
354,30,45,0.0729816353947079,1
354,31,45,0.0728020876732717,1
354,32,45,0.0767086594539362,1
354,33,45,0.0768965793513945,1
354,34,45,0.0746840483463342,1
355,27,45,0.0769664304188,1
355,28,45,0.0809092526020327,1
355,29,45,0.0791234537724332,1
355,30,45,0.0755807668666893,1
355,31,45,0.0754878581049942,1
355,32,45,0.0791239389356796,1
355,33,45,0.0795078772247869,1
355,34,45,0.0777636966936746,1
356,27,45,0.073896267634932,1
356,28,45,0.0776261218130979,1
356,29,45,0.0748936015485508,1
356,32,45,0.0729387606478133,1
356,33,45,0.0735856760766213,1
356,34,45,0.071518644285163,1
358,26,45,0.0725557678050324,1
358,27,45,0.0714562012873283,1
359,21,45,0.0742640835761572,1
359,22,45,0.080597839998228,1
359,23,45,0.0754601851398217,1
359,24,45,0.0733807257052043,1
359,25,45,0.0769065500781132,1
359,26,45,0.081349258346313,1
359,27,45,0.0768213541680283,1
360,21,45,0.0719795431492488,1
360,22,45,0.0829315249739851,1
360,23,45,0.082495867038798,1
360,24,45,0.0853780850450413,1
360,25,45,0.0938924014582397,1
360,26,45,0.0987357737074661,1
360,27,45,0.0876427151187204,1
360,28,45,0.0717008728445379,1
360,33,45,0.074532888894857,1
360,34,45,0.0760729960804209,1
360,35,45,0.0744533594426889,1
360,36,45,0.0747705131449099,1
360,38,45,0.0778772124532606,1
360,39,45,0.0930793487177307,1
360,40,45,0.0916737810324323,1
361,23,45,0.0792641200136956,1
361,24,45,0.0936603939057707,1
361,25,45,0.11674419993011,1
361,26,45,0.129253387834827,1
361,27,45,0.108755477033899,1
361,28,45,0.0806800689484597,1
361,33,45,0.0755873538907661,1
361,34,45,0.0797540104917776,1
361,35,45,0.0781869518658692,1
361,36,45,0.0781313198136096,1
361,37,45,0.0749865538505374,1
361,38,45,0.0860699402745622,1
361,39,45,0.120337082571737,1
361,40,45,0.127933756244566,1
361,41,45,0.0768633021287213,1
362,24,45,0.089970497274979,1
362,25,45,0.126018866671161,1
362,26,45,0.152753140482456,1
362,27,45,0.133752231978658,1
362,28,45,0.0966715720349454,1
362,29,45,0.0740112077840492,1
362,33,45,0.0742572850706653,1
362,34,45,0.0782049588863624,1
362,35,45,0.0777945792003236,1
362,36,45,0.0785727934877125,1
362,37,45,0.0766000948474806,1
362,38,45,0.0806992204566112,1
362,39,45,0.10263559052293,1
362,40,45,0.105444113476046,1
363,24,45,0.0779260397799867,1
363,25,45,0.109689018200652,1
363,26,45,0.145693132000699,1
363,27,45,0.144041126266371,1
363,28,45,0.11291668487845,1
363,29,45,0.0837148334754618,1
363,30,45,0.0743788993244421,1
363,31,45,0.0739656148789662,1
363,32,45,0.0740067604542901,1
363,33,45,0.0739448088397434,1
363,34,45,0.0752737704924357,1
363,35,45,0.0756206497735642,1
363,36,45,0.0775553501795324,1
363,37,45,0.0785226039718714,1
363,38,45,0.0749923633694115,1
363,39,45,0.076738528093801,1
363,40,45,0.0716080511634255,1
364,25,45,0.0925783927856047,1
364,26,45,0.132408603467823,1
364,27,45,0.145636728663279,1
364,28,45,0.126394793546661,1
364,29,45,0.0976515333723164,1
364,30,45,0.088677027179777,1
364,31,45,0.0908238061248601,1
364,32,45,0.0878823982025499,1
364,33,45,0.077727831933687,1
364,34,45,0.0737815576273547,1
364,35,45,0.0763643490499973,1
364,36,45,0.0845835182682304,1
364,37,45,0.0901867059217303,1
364,38,45,0.0764031310095052,1
365,25,45,0.0818752126257145,1
365,26,45,0.107038757986544,1
365,27,45,0.118252659543906,1
365,28,45,0.122100364850668,1
365,29,45,0.116853336780395,1
365,30,45,0.115803157393163,1
365,31,45,0.123759871955191,1
365,32,45,0.116234243597758,1
365,33,45,0.0916543807226159,1
365,34,45,0.0832632335735996,1
365,35,45,0.0880129195559282,1
365,36,45,0.103741862245502,1
365,37,45,0.111303206081923,1
365,38,45,0.0822381022939758,1
366,25,45,0.0810928682306891,1
366,26,45,0.092138934404987,1
366,27,45,0.104045188795199,1
366,28,45,0.126912935453786,1
366,29,45,0.138633832603688,1
366,30,45,0.137763014336643,1
366,31,45,0.143256517776195,1
366,32,45,0.130599728283809,1
366,33,45,0.103911756462342,1
366,34,45,0.102204578958834,1
366,35,45,0.10685165913458,1
366,36,45,0.118940994229869,1
366,37,45,0.118625625679593,1
366,38,45,0.082045791047133,1
366,40,45,0.0762243981135214,1
367,25,45,0.0889036606162854,1
367,26,45,0.108935534798748,1
367,27,45,0.131840738547978,1
367,28,45,0.142866434085967,1
367,29,45,0.139456134546087,1
367,30,45,0.132544710418577,1
367,31,45,0.130665772685742,1
367,32,45,0.117876098224161,1
367,33,45,0.106854408392976,1
367,34,45,0.12046693216062,1
367,35,45,0.124358376800062,1
367,36,45,0.123563368400296,1
367,37,45,0.109628534515927,1
367,38,45,0.0781490220520634,1
368,24,45,0.0713696929484613,1
368,25,45,0.096826239589897,1
368,26,45,0.138220485957796,1
368,27,45,0.178894830928503,1
368,28,45,0.164921557186916,1
368,29,45,0.131381189432924,1
368,30,45,0.117194045780235,1
368,31,45,0.116761056242903,1
368,32,45,0.109962239748902,1
368,33,45,0.108866815778918,1
368,34,45,0.125288783065837,1
368,35,45,0.128296608592578,1
368,36,45,0.118023712251914,1
368,37,45,0.0963343835786627,1
368,38,45,0.0721082171502656,1
369,24,45,0.0801602351900134,1
369,25,45,0.1007116259088,1
369,26,45,0.133944443704835,1
369,27,45,0.161564874405812,1
369,28,45,0.14186235764723,1
369,29,45,0.111137815175217,1
369,30,45,0.101009646762994,1
369,31,45,0.11125534908169,1
369,32,45,0.121334627966771,1
369,33,45,0.119742334632005,1
369,34,45,0.11975578236199,1
369,35,45,0.115920280776889,1
369,36,45,0.100182113765591,1
369,37,45,0.0777711918438281,1
370,23,45,0.082851143376115,1
370,24,45,0.0896102013640738,1
370,25,45,0.0993177767819158,1
370,26,45,0.109048179752507,1
370,27,45,0.110888379066125,1
370,28,45,0.102917034966204,1
370,29,45,0.0952875692339476,1
370,30,45,0.0890016822521931,1
370,31,45,0.106192508883903,1
370,32,45,0.131228363010292,1
370,33,45,0.123082895065228,1
370,34,45,0.100430249885984,1
370,35,45,0.087273736029712,1
370,36,45,0.072273066913351,1
371,22,45,0.0719275560413792,1
371,23,45,0.0884910728154711,1
371,24,45,0.0951499445930379,1
371,25,45,0.102198166095922,1
371,26,45,0.1014506725941,1
371,27,45,0.0912495182134951,1
371,28,45,0.0897501460805081,1
371,29,45,0.0951863629367298,1
371,30,45,0.0861179900960856,1
371,31,45,0.0928875412942592,1
371,32,45,0.105772568993893,1
371,33,45,0.0927764824511135,1
372,23,45,0.0757244373880547,1
372,24,45,0.0969342817128564,1
372,25,45,0.110705161520133,1
372,26,45,0.10434542398421,1
372,27,45,0.0875795070557662,1
372,28,45,0.0868371513083233,1
372,29,45,0.10157053279614,1
372,30,45,0.0873102538940698,1
372,31,45,0.0792593616818554,1
372,32,45,0.0770313116729503,1
373,24,45,0.0835288355708645,1
373,25,45,0.0974253166785967,1
373,26,45,0.0895284886772967,1
373,27,45,0.0733902237087598,1
373,28,45,0.0754110032707232,1
373,29,45,0.0963403921388688,1
373,30,45,0.086852539691294,1
373,31,45,0.0723714679717977,1
374,30,45,0.0716996848165883,1
352,22,46,0.0735755685089869,1
353,33,46,0.072949272518153,1
354,27,46,0.0724435769143117,1
354,28,46,0.076438187164082,1
354,29,46,0.0747757068796635,1
354,30,46,0.0746017758558112,1
354,31,46,0.074374582615557,1
354,32,46,0.0796320043753787,1
354,33,46,0.0813871010795361,1
354,34,46,0.0796182954036456,1
355,27,46,0.0735181575248237,1
355,28,46,0.0805802372804402,1
355,29,46,0.0790363980699035,1
355,30,46,0.0774759078079471,1
355,31,46,0.0781486923898575,1
355,32,46,0.083558411868773,1
355,33,46,0.0853344514530689,1
355,34,46,0.0876353381493577,1
355,35,46,0.076789557315261,1
356,28,46,0.074957089513378,1
356,29,46,0.073967866534033,1
356,30,46,0.0720169504795584,1
356,31,46,0.0727126621348844,1
356,32,46,0.075959772662791,1
356,33,46,0.0759456904885608,1
356,34,46,0.0765346351294596,1
358,26,46,0.0776753721026542,1
358,27,46,0.0773713675684203,1
358,35,46,0.077611622896079,1
358,36,46,0.0770615783954788,1
359,21,46,0.079891622692604,1
359,22,46,0.0825914752985567,1
359,23,46,0.0778126857414828,1
359,24,46,0.0755909801750313,1
359,25,46,0.0795129527787498,1
359,26,46,0.0894486171228395,1
359,27,46,0.0850291158299282,1
359,33,46,0.0752585002902558,1
359,34,46,0.0765655487363168,1
359,35,46,0.083274162186728,1
359,36,46,0.0812200743018833,1
359,39,46,0.0720493631164463,1
360,21,46,0.0760951083283841,1
360,22,46,0.0812927057278935,1
360,23,46,0.085210542003934,1
360,24,46,0.0917827188413852,1
360,25,46,0.0979345950264119,1
360,26,46,0.106550571799866,1
360,27,46,0.0916223786084751,1
360,28,46,0.0717431940077283,1
360,33,46,0.0818360077033763,1
360,34,46,0.0839927013948036,1
360,35,46,0.0826286338272015,1
360,36,46,0.0778467591294835,1
360,37,46,0.0729431830974059,1
360,38,46,0.0870935725241553,1
360,39,46,0.103942937530989,1
360,40,46,0.0880999379382081,1
361,23,46,0.082099675267697,1
361,24,46,0.0988184567207361,1
361,25,46,0.118907878728278,1
361,26,46,0.142422435074965,1
361,27,46,0.11228541285432,1
361,28,46,0.0798861490559773,1
361,33,46,0.0804696014001247,1
361,34,46,0.0848901725401948,1
361,35,46,0.0828193278632228,1
361,36,46,0.0788751932512081,1
361,37,46,0.0758288718868739,1
361,38,46,0.0899777249633428,1
361,39,46,0.117128971704795,1
361,40,46,0.108048096580492,1
362,24,46,0.0896138774086719,1
362,25,46,0.128847990402127,1
362,26,46,0.179871688465106,1
362,27,46,0.147019879318575,1
362,28,46,0.0977560798318848,1
362,29,46,0.0769076759056466,1
362,33,46,0.075553666145346,1
362,34,46,0.07886810240376,1
362,35,46,0.0794101106105856,1
362,36,46,0.0801248431531891,1
362,37,46,0.0775369948367084,1
362,38,46,0.0804896983546027,1
362,39,46,0.0942424654006782,1
362,40,46,0.0884318269190296,1
363,24,46,0.0770980962598366,1
363,25,46,0.112655567531194,1
363,26,46,0.165110783293115,1
363,27,46,0.15547179627423,1
363,28,46,0.115840203961058,1
363,29,46,0.086535305128532,1
363,30,46,0.0749320040855199,1
363,31,46,0.0738071344385008,1
363,32,46,0.0756131048630777,1
363,33,46,0.0740292583448338,1
363,34,46,0.0724176766610012,1
363,35,46,0.0744271668474222,1
363,36,46,0.0813861245330016,1
363,37,46,0.0841111309872703,1
363,38,46,0.0752833120362826,1
363,39,46,0.0721364685793089,1
364,25,46,0.0933592070503912,1
364,26,46,0.128003619752055,1
364,27,46,0.140641201755916,1
364,28,46,0.128947498627982,1
364,29,46,0.103024610586042,1
364,30,46,0.0936837128418084,1
364,31,46,0.0972769997861403,1
364,32,46,0.0952313089574842,1
364,33,46,0.0803152572873374,1
364,34,46,0.0720889039210319,1
364,35,46,0.0756745402141698,1
364,36,46,0.0906270973085912,1
364,37,46,0.100558861686584,1
364,38,46,0.0785506003792082,1
365,25,46,0.0820939652694888,1
365,26,46,0.0985510446913595,1
365,27,46,0.113147025459765,1
365,28,46,0.129586458623556,1
365,29,46,0.125321201922766,1
365,30,46,0.122789246900294,1
365,31,46,0.131640689569358,1
365,32,46,0.123183535338658,1
365,33,46,0.0941048531998518,1
365,34,46,0.08433826824715,1
365,35,46,0.0909529652891234,1
365,36,46,0.108199504833634,1
365,37,46,0.118115047343079,1
365,38,46,0.0825704950981686,1
366,25,46,0.0806698805202842,1
366,26,46,0.0904325219665983,1
366,27,46,0.107221229127542,1
366,28,46,0.136435645014606,1
366,29,46,0.143125486379404,1
366,30,46,0.136282109507229,1
366,31,46,0.138813318124708,1
366,32,46,0.125836221368998,1
366,33,46,0.101208097190917,1
366,34,46,0.104289107727372,1
366,35,46,0.114124604521195,1
366,36,46,0.12022770935987,1
366,37,46,0.118272526356844,1
366,38,46,0.0801883000178081,1
367,25,46,0.0876013207417316,1
367,26,46,0.110450164693832,1
367,27,46,0.144453204023772,1
367,28,46,0.15271521066865,1
367,29,46,0.1389488030713,1
367,30,46,0.12661130075541,1
367,31,46,0.120735451357405,1
367,32,46,0.10635057258158,1
367,33,46,0.0984915499932531,1
367,34,46,0.117423764357388,1
367,35,46,0.129969762468418,1
367,36,46,0.122536514169143,1
367,37,46,0.105352454942717,1
367,38,46,0.0745215310988567,1
368,25,46,0.0948484716157439,1
368,26,46,0.137069740937633,1
368,27,46,0.191942811278528,1
368,28,46,0.168520746950747,1
368,29,46,0.126795911590726,1
368,30,46,0.116506233577768,1
368,31,46,0.11625216975771,1
368,32,46,0.106648972858313,1
368,33,46,0.101999553946917,1
368,34,46,0.11644124658291,1
368,35,46,0.126935651045786,1
368,36,46,0.116275109271209,1
368,37,46,0.0923966182892681,1
369,24,46,0.07886058237344,1
369,25,46,0.0941965490534308,1
369,26,46,0.122647529471997,1
369,27,46,0.158258126118841,1
369,28,46,0.134031574047864,1
369,29,46,0.105008312479902,1
369,30,46,0.102810983256563,1
369,31,46,0.115748495667396,1
369,32,46,0.1251298734425,1
369,33,46,0.116731112962539,1
369,34,46,0.108508603581956,1
369,35,46,0.107862950821597,1
369,36,46,0.0962340045469806,1
369,37,46,0.072675366765324,1
370,23,46,0.0763575007841724,1
370,24,46,0.0827881530146176,1
370,25,46,0.0885845973612867,1
370,26,46,0.0951132401274315,1
370,27,46,0.102151490903597,1
370,28,46,0.0951765477110516,1
370,29,46,0.0889895904912816,1
370,30,46,0.0868164510098081,1
370,31,46,0.101519671515804,1
370,32,46,0.124147529829188,1
370,33,46,0.114484632970311,1
370,34,46,0.0884127313912526,1
370,35,46,0.0766637942937229,1
371,23,46,0.0747389775338906,1
371,24,46,0.0858611707975898,1
371,25,46,0.0917244992518112,1
371,26,46,0.0868245059637075,1
371,27,46,0.0838379591993525,1
371,28,46,0.0866969515701825,1
371,29,46,0.0894846933642421,1
371,30,46,0.08217465786944,1
371,31,46,0.0829416698618693,1
371,32,46,0.0901161768697881,1
371,33,46,0.0799392246711306,1
372,24,46,0.0891108564227276,1
372,25,46,0.0991235000019207,1
372,26,46,0.0843159071975219,1
372,27,46,0.0749438781449746,1
372,28,46,0.0800050513716073,1
372,29,46,0.088488528818448,1
372,30,46,0.0782222568221108,1
373,24,46,0.0718003686303099,1
373,25,46,0.0797282532994244,1
373,29,46,0.0761749239024667,1
354,28,47,0.0716547139156674,1
354,32,47,0.0775189878162152,1
354,33,47,0.080311307560908,1
354,34,47,0.0789694082216437,1
355,28,47,0.0752029677586621,1
355,29,47,0.0737611123505459,1
355,30,47,0.0737712136981387,1
355,31,47,0.0751835114684712,1
355,32,47,0.0817705106651056,1
355,33,47,0.084329286507049,1
355,34,47,0.0899121906048223,1
355,35,47,0.0796385105389144,1
356,32,47,0.0750355739985537,1
356,33,47,0.0745173947711787,1
356,34,47,0.076333964146678,1
356,35,47,0.0725736317645684,1
357,35,47,0.0769441937700044,1
358,26,47,0.0809535579585001,1
358,27,47,0.0816083915002919,1
358,33,47,0.0732418632760121,1
358,34,47,0.0764247456541387,1
358,35,47,0.0924493269219658,1
358,36,47,0.0860001016472399,1
359,21,47,0.0781723596482259,1
359,22,47,0.077606665522907,1
359,23,47,0.0769034089570945,1
359,24,47,0.0765348341707915,1
359,25,47,0.0814674142569485,1
359,26,47,0.094504521974219,1
359,27,47,0.0897654411628545,1
359,32,47,0.0732475546140954,1
359,33,47,0.0819504440291223,1
359,34,47,0.0856839058314285,1
359,35,47,0.0967703836161391,1
359,36,47,0.0852871480365401,1
359,38,47,0.0739715363585895,1
359,39,47,0.0746486438694266,1
360,21,47,0.0737909001298696,1
360,22,47,0.0741935296440485,1
360,23,47,0.0832494499613671,1
360,24,47,0.0934788868712239,1
360,25,47,0.0999972230284024,1
360,26,47,0.111033293595815,1
360,27,47,0.0928805002071441,1
360,32,47,0.0739901405030784,1
360,33,47,0.0877253297115325,1
360,34,47,0.0926133120992658,1
360,35,47,0.0931819296441468,1
360,36,47,0.0790825134584828,1
360,37,47,0.072499837190775,1
360,38,47,0.0889821886417524,1
360,39,47,0.0999284915684886,1
360,40,47,0.0783660952846,1
361,23,47,0.0800592590343356,1
361,24,47,0.0979533795521078,1
361,25,47,0.117355368779721,1
361,26,47,0.147606790005863,1
361,27,47,0.113957944725998,1
361,28,47,0.0810116282670752,1
361,29,47,0.0720305972508753,1
361,32,47,0.0720735590783526,1
361,33,47,0.0855159273874077,1
361,34,47,0.0914228458933101,1
361,35,47,0.0891911820402232,1
361,36,47,0.0793824811857045,1
361,37,47,0.075339553652621,1
361,38,47,0.0867574787951979,1
361,39,47,0.0995587598544441,1
361,40,47,0.0841486253981626,1
362,24,47,0.0865655905111854,1
362,25,47,0.125399885449274,1
362,26,47,0.189191711749658,1
362,27,47,0.152749607498815,1
362,28,47,0.101420909694943,1
362,29,47,0.0821115244469853,1
362,32,47,0.0719020476506909,1
362,33,47,0.0786996139163262,1
362,34,47,0.0810789664376658,1
362,35,47,0.0810784750543778,1
362,36,47,0.0817920817694478,1
362,37,47,0.0794694809078595,1
362,38,47,0.0762162498589977,1
362,39,47,0.0787648870330986,1
363,24,47,0.0780315627860895,1
363,25,47,0.113251907801581,1
363,26,47,0.171033357643778,1
363,27,47,0.15560478076409,1
363,28,47,0.117211312615775,1
363,29,47,0.0927787776464717,1
363,30,47,0.0784141264459985,1
363,31,47,0.0760354519091956,1
363,32,47,0.0808201131855599,1
363,33,47,0.0776651401341874,1
363,34,47,0.072363089575734,1
363,35,47,0.0736997080996619,1
363,36,47,0.0862820125936354,1
363,37,47,0.0925487480672383,1
363,38,47,0.0749845323370105,1
364,24,47,0.0733931844485715,1
364,25,47,0.0956762534148118,1
364,26,47,0.121834818833777,1
364,27,47,0.127247474172338,1
364,28,47,0.125313936914153,1
364,29,47,0.109155873553136,1
364,30,47,0.0989717309863645,1
364,31,47,0.100820849839667,1
364,32,47,0.101445945362468,1
364,33,47,0.0852772146300711,1
364,34,47,0.0744010240124885,1
364,35,47,0.0773206120287917,1
364,36,47,0.0964566073965184,1
364,37,47,0.109310528668004,1
364,38,47,0.0811535260765786,1
365,25,47,0.0836563091038484,1
365,26,47,0.0946306768583792,1
365,27,47,0.106903496961451,1
365,28,47,0.130489670867364,1
365,29,47,0.128422129032493,1
365,30,47,0.12397829493676,1
365,31,47,0.126717700787381,1
365,32,47,0.118716077524848,1
365,33,47,0.0937430022785413,1
365,34,47,0.0871889568624157,1
365,35,47,0.096458666230295,1
365,36,47,0.110283131696138,1
365,37,47,0.114950364806736,1
365,38,47,0.0815738205089615,1
366,25,47,0.0798990805225077,1
366,26,47,0.091903232147795,1
366,27,47,0.11032649782632,1
366,28,47,0.138559727027813,1
366,29,47,0.13890049822807,1
366,30,47,0.129736374066709,1
366,31,47,0.123224736894357,1
366,32,47,0.110388449440867,1
366,33,47,0.0938830278555166,1
366,34,47,0.103053284977915,1
366,35,47,0.121638103797467,1
366,36,47,0.120914849797842,1
366,37,47,0.108978602366933,1
366,38,47,0.076390902407678,1
367,25,47,0.0831862978787876,1
367,26,47,0.107602144476422,1
367,27,47,0.145948775711329,1
367,28,47,0.153806765772746,1
367,29,47,0.134872212672962,1
367,30,47,0.12250097285132,1
367,31,47,0.111146212231405,1
367,32,47,0.0977806303361635,1
367,33,47,0.0910395669286147,1
367,34,47,0.109576572288224,1
367,35,47,0.13176021388915,1
367,36,47,0.120284610300621,1
367,37,47,0.0980303898874192,1
368,25,47,0.0865846113984628,1
368,26,47,0.121913502360285,1
368,27,47,0.17416043380848,1
368,28,47,0.152946434495875,1
368,29,47,0.117427832264608,1
368,30,47,0.114909013970039,1
368,31,47,0.11489839013895,1
368,32,47,0.107883464518863,1
368,33,47,0.0971156083661963,1
368,34,47,0.105296399927627,1
368,35,47,0.121488151034064,1
368,36,47,0.110560645073107,1
368,37,47,0.0870250898659064,1
369,24,47,0.072949502659693,1
369,25,47,0.0842095818060499,1
369,26,47,0.104408750227955,1
369,27,47,0.133843716350822,1
369,28,47,0.114047214763345,1
369,29,47,0.0949172590560322,1
369,30,47,0.101338425723005,1
369,31,47,0.114802924940148,1
369,32,47,0.124347317566059,1
369,33,47,0.108845518356407,1
369,34,47,0.0951560588939515,1
369,35,47,0.0961824093017331,1
369,36,47,0.0864628540837288,1
370,24,47,0.0736550668609469,1
370,25,47,0.0796214489647476,1
370,26,47,0.0836707644805759,1
370,27,47,0.0909320783893596,1
370,28,47,0.086959325365846,1
370,29,47,0.0820748075412956,1
370,30,47,0.0837289902901915,1
370,31,47,0.0933205681518406,1
370,32,47,0.107588385744356,1
370,33,47,0.0966212021378973,1
370,34,47,0.0749464594622474,1
371,24,47,0.0749418877316559,1
371,25,47,0.0819484349556787,1
371,26,47,0.07567657416778,1
371,27,47,0.0759221227508582,1
371,28,47,0.0800672828880269,1
371,29,47,0.0794281425112454,1
371,30,47,0.0758405780052049,1
371,31,47,0.0745708000485379,1
371,32,47,0.0749902672153852,1
372,24,47,0.0745228373075972,1
372,25,47,0.0839026103119628,1
354,32,48,0.073119465296991,1
354,33,48,0.0772002604434641,1
354,34,48,0.0754741304731363,1
355,32,48,0.0772385634597671,1
355,33,48,0.081287953616095,1
355,34,48,0.0865398270987905,1
355,35,48,0.0760734750236257,1
356,32,48,0.0744428475723491,1
356,33,48,0.0758234977709132,1
356,34,48,0.0760273036546719,1
356,35,48,0.0719696595031128,1
357,32,48,0.0746428778908438,1
357,33,48,0.0774122581220378,1
357,34,48,0.0755074139158511,1
357,35,48,0.0807271484434902,1
357,36,48,0.0726775251197665,1
358,26,48,0.0788131794362452,1
358,27,48,0.0806592691292785,1
358,32,48,0.0762992189941822,1
358,33,48,0.0821027044279665,1
358,34,48,0.0865064316953266,1
358,35,48,0.0999865307768556,1
358,36,48,0.0870402729875036,1
359,23,48,0.071941022431489,1
359,24,48,0.0737249987888935,1
359,25,48,0.0807910220508978,1
359,26,48,0.0926299631506857,1
359,27,48,0.0880554024402007,1
359,32,48,0.0769503764913759,1
359,33,48,0.0869930006711829,1
359,34,48,0.0955299393757574,1
359,35,48,0.105015229166184,1
359,36,48,0.0841897896336114,1
360,23,48,0.0776923154960302,1
360,24,48,0.0889761427612967,1
360,25,48,0.0983865681307713,1
360,26,48,0.107541648351614,1
360,27,48,0.090292888252245,1
360,32,48,0.076399143962826,1
360,33,48,0.0906971038770373,1
360,34,48,0.100333994741896,1
360,35,48,0.100638440899085,1
360,36,48,0.0780340445826964,1
360,38,48,0.0809523761505921,1
360,39,48,0.0823648605221732,1
361,23,48,0.0745235215121755,1
361,24,48,0.0915689235707829,1
361,25,48,0.11168265350098,1
361,26,48,0.138148072233242,1
361,27,48,0.110366243892279,1
361,28,48,0.0818948679572373,1
361,29,48,0.0720651433620391,1
361,32,48,0.0730079897110567,1
361,33,48,0.0870097574633103,1
361,34,48,0.0940890169738844,1
361,35,48,0.0910823172746769,1
361,36,48,0.0768664183695735,1
361,37,48,0.0715890116160231,1
361,38,48,0.0762207780492979,1
361,39,48,0.0747136433043677,1
362,24,48,0.0827225688957641,1
362,25,48,0.117670836850663,1
362,26,48,0.175278088207218,1
362,27,48,0.146767295868423,1
362,28,48,0.10232906687184,1
362,29,48,0.083679727560552,1
362,32,48,0.074076163678699,1
362,33,48,0.0809307615059586,1
362,34,48,0.0800560930331505,1
362,35,48,0.0782268098925775,1
362,36,48,0.0795555849440212,1
362,37,48,0.0792269303848427,1
363,24,48,0.0790649978212776,1
363,25,48,0.111373057149329,1
363,26,48,0.163699306568277,1
363,27,48,0.148695297289565,1
363,28,48,0.116553095371342,1
363,29,48,0.10017589372397,1
363,30,48,0.0832831003865376,1
363,31,48,0.0795287205842594,1
363,32,48,0.0878725332165388,1
363,33,48,0.084085112553169,1
363,34,48,0.0718543212713318,1
363,36,48,0.0869958307901205,1
363,37,48,0.0983218796979113,1
363,38,48,0.0752119308386382,1
364,24,48,0.0771015732631029,1
364,25,48,0.0957760602026648,1
364,26,48,0.114979822923854,1
364,27,48,0.116015969897189,1
364,28,48,0.121084420572518,1
364,29,48,0.120087459861397,1
364,30,48,0.106346778356191,1
364,31,48,0.103260362603567,1
364,32,48,0.10685622464513,1
364,33,48,0.0935432394218363,1
364,34,48,0.0768658772259525,1
364,35,48,0.0758191188616119,1
364,36,48,0.0953457950435632,1
364,37,48,0.108072404503147,1
364,38,48,0.0803123960681917,1
365,25,48,0.0820993767056992,1
365,26,48,0.0908298582253575,1
365,27,48,0.101891766845664,1
365,28,48,0.123665737845297,1
365,29,48,0.128107171004964,1
365,30,48,0.121292928807742,1
365,31,48,0.115696919082273,1
365,32,48,0.108016747570721,1
365,33,48,0.0917710749234704,1
365,34,48,0.086253089400097,1
365,35,48,0.0948715106499086,1
365,36,48,0.105314500248744,1
365,37,48,0.101271168412956,1
365,38,48,0.0746723857682945,1
366,25,48,0.0760898523932142,1
366,26,48,0.092417405668366,1
366,27,48,0.114829273036456,1
366,28,48,0.13451319187059,1
366,29,48,0.13124684897399,1
366,30,48,0.122319944759978,1
366,31,48,0.10793225452534,1
366,32,48,0.0935656377917141,1
366,33,48,0.0847486230530223,1
366,34,48,0.0949345072314477,1
366,35,48,0.116044806010144,1
366,36,48,0.113687136553896,1
366,37,48,0.0928083041840474,1
367,25,48,0.0758276527587161,1
367,26,48,0.101359567644475,1
367,27,48,0.140516203799497,1
367,28,48,0.148897050559589,1
367,29,48,0.129972014123485,1
367,30,48,0.118566697005274,1
367,31,48,0.102596752583048,1
367,32,48,0.0897915093572887,1
367,33,48,0.082908181157781,1
367,34,48,0.0961509669913382,1
367,35,48,0.118997633928871,1
367,36,48,0.108805125406119,1
367,37,48,0.0848551537058678,1
368,25,48,0.0737748088821957,1
368,26,48,0.0993323254592676,1
368,27,48,0.137044748810399,1
368,28,48,0.127941257614761,1
368,29,48,0.106221357436942,1
368,30,48,0.107802019293876,1
368,31,48,0.107321073235645,1
368,32,48,0.10434998949476,1
368,33,48,0.089308411164657,1
368,34,48,0.0906624271449993,1
368,35,48,0.105109437916578,1
368,36,48,0.0949856670737817,1
368,37,48,0.0751078135619417,1
369,26,48,0.0814069243521827,1
369,27,48,0.0984068392464147,1
369,28,48,0.0904352898851197,1
369,29,48,0.0831836294809321,1
369,30,48,0.0938315383509767,1
369,31,48,0.105255322772761,1
369,32,48,0.113032962336516,1
369,33,48,0.0931304339195652,1
369,34,48,0.0791089859556224,1
369,35,48,0.0791812939394683,1
370,27,48,0.0720792068761446,1
370,28,48,0.073632817772068,1
370,29,48,0.0728976897129888,1
370,30,48,0.0775877192761289,1
370,31,48,0.0817109724267079,1
370,32,48,0.0856633237137042,1
370,33,48,0.0736076266035024,1
355,33,49,0.0755475829446405,1
355,34,49,0.0766125038305148,1
356,32,49,0.0732226122471946,1
356,33,49,0.07738667509085,1
356,34,49,0.0744588144191906,1
357,32,49,0.0789574781818143,1
357,33,49,0.0864819433914641,1
357,34,49,0.0819844054563738,1
357,35,49,0.0785497109132564,1
358,26,49,0.0730375162486323,1
358,27,49,0.0739849529883664,1
358,31,49,0.0740274794129302,1
358,32,49,0.0799016431796556,1
358,33,49,0.0887644747449288,1
358,34,49,0.0938649772947321,1
358,35,49,0.0945943207151036,1
358,36,49,0.0780509693159475,1
359,25,49,0.0786908809778901,1
359,26,49,0.0855209718411624,1
359,27,49,0.0804651851705737,1
359,31,49,0.0757417664240113,1
359,32,49,0.0794874692682279,1
359,33,49,0.0900157853980227,1
359,34,49,0.102813222471547,1
359,35,49,0.101897308902749,1
359,36,49,0.0774849330883394,1
360,24,49,0.0815293223312038,1
360,25,49,0.0935293562889379,1
360,26,49,0.0979776066142221,1
360,27,49,0.0843521824802565,1
360,31,49,0.0716658166899611,1
360,32,49,0.0783295089997844,1
360,33,49,0.0920857468290845,1
360,34,49,0.105041316020743,1
360,35,49,0.100167844990112,1
360,36,49,0.0751693857539495,1
361,24,49,0.0844933401048069,1
361,25,49,0.103201937752619,1
361,26,49,0.118065548251858,1
361,27,49,0.100055741179974,1
361,28,49,0.0798886557327507,1
361,32,49,0.0736903655971469,1
361,33,49,0.0862494568957902,1
361,34,49,0.0918729405451,1
361,35,49,0.0862274877087843,1
361,36,49,0.0724875028482403,1
362,24,49,0.0791404469261422,1
362,25,49,0.105722472778676,1
362,26,49,0.142254705432609,1
362,27,49,0.127134393815666,1
362,28,49,0.0966021563704534,1
362,29,49,0.0801685887059106,1
362,32,49,0.0750036651850371,1
362,33,49,0.0809839055415697,1
362,34,49,0.0759260227169547,1
362,35,49,0.0720271824480252,1
362,36,49,0.074509607279069,1
362,37,49,0.0772904510469708,1
363,24,49,0.078725476849387,1
363,25,49,0.103927897470349,1
363,26,49,0.141590317906888,1
363,27,49,0.132868040622128,1
363,28,49,0.108223651035207,1
363,29,49,0.098239974189844,1
363,30,49,0.0816262305796613,1
363,31,49,0.0778819459049343,1
363,32,49,0.0893016872996646,1
363,33,49,0.0884962478900999,1
363,34,49,0.0720209064260295,1
363,36,49,0.084275122384612,1
363,37,49,0.0970757689996128,1
363,38,49,0.076787685082733,1
364,24,49,0.0774891938168498,1
364,25,49,0.091365155007274,1
364,26,49,0.105117710571934,1
364,27,49,0.106947646816878,1
364,28,49,0.10955119451841,1
364,29,49,0.116994606365695,1
364,30,49,0.1012161645849,1
364,31,49,0.093752643343054,1
364,32,49,0.101276511428708,1
364,33,49,0.0962871299224668,1
364,34,49,0.0786621754858085,1
364,35,49,0.0759361427246723,1
364,36,49,0.0908705994979761,1
364,37,49,0.097636648812717,1
364,38,49,0.0748652630389249,1
365,25,49,0.0805540322450903,1
365,26,49,0.0892578608864019,1
365,27,49,0.101184423712507,1
365,28,49,0.11091824770599,1
365,29,49,0.116903420555528,1
365,30,49,0.109214827107621,1
365,31,49,0.0988887183108886,1
365,32,49,0.0940231840533661,1
365,33,49,0.087838559349204,1
365,34,49,0.0843468954448785,1
365,35,49,0.0909532078707466,1
365,36,49,0.0971317307140783,1
365,37,49,0.0864169190763566,1
366,25,49,0.0746209584641709,1
366,26,49,0.0906398048536232,1
366,27,49,0.11439450456722,1
366,28,49,0.123641728484639,1
366,29,49,0.118776921971986,1
366,30,49,0.112936078968225,1
366,31,49,0.0968266936529354,1
366,32,49,0.0844155895845425,1
366,33,49,0.0800774526560775,1
366,34,49,0.0878506511101155,1
366,35,49,0.104947604873679,1
366,36,49,0.103193049313143,1
366,37,49,0.0801597686868919,1
367,26,49,0.0901301470832692,1
367,27,49,0.121474354981748,1
367,28,49,0.130670761159122,1
367,29,49,0.11805070723255,1
367,30,49,0.110861371645406,1
367,31,49,0.0961527708034083,1
367,32,49,0.0870026479557373,1
367,33,49,0.0814082927613394,1
367,34,49,0.0871745636861043,1
367,35,49,0.103566625012909,1
367,36,49,0.0961769729853562,1
367,37,49,0.0742983995457811,1
368,26,49,0.0787850648481176,1
368,27,49,0.0987601376104962,1
368,28,49,0.0997537892594753,1
368,29,49,0.0916220800464773,1
368,30,49,0.0942720416985868,1
368,31,49,0.0947978155967812,1
368,32,49,0.094934600532072,1
368,33,49,0.082774798585257,1
368,34,49,0.0800575174226817,1
368,35,49,0.0896291227306853,1
368,36,49,0.0806195541635275,1
369,27,49,0.0731913689781316,1
369,28,49,0.0728439423333404,1
369,29,49,0.0725959306137802,1
369,30,49,0.0816541336863738,1
369,31,49,0.0893502471646009,1
369,32,49,0.0921391707665686,1
369,33,49,0.076540146086336,1
356,33,50,0.074849992836745,1
356,34,50,0.0714877928787221,1
357,32,50,0.0770079491966213,1
357,33,50,0.0879549238878525,1
357,34,50,0.0853477810022631,1
357,35,50,0.0717536187974853,1
358,31,50,0.0739282448689063,1
358,32,50,0.0788082345031564,1
358,33,50,0.0895896565665991,1
358,34,50,0.0965161394148744,1
358,35,50,0.0828699963222687,1
359,26,50,0.0728048555917931,1
359,31,50,0.0773087877296699,1
359,32,50,0.0785824221121421,1
359,33,50,0.0887819841620924,1
359,34,50,0.103171826531131,1
359,35,50,0.0904369319761077,1
360,25,50,0.0808336106758778,1
360,26,50,0.0815306285399442,1
360,27,50,0.0743446642153592,1
360,31,50,0.0723143804297987,1
360,32,50,0.0773631260132723,1
360,33,50,0.0896566401948173,1
360,34,50,0.102755407184678,1
360,35,50,0.0907531837722936,1
361,24,50,0.0738356782095003,1
361,25,50,0.0876562437092464,1
361,26,50,0.0926310205577613,1
361,27,50,0.0842060363823259,1
361,28,50,0.0735785852291732,1
361,32,50,0.0721241964371904,1
361,33,50,0.0826278438819156,1
361,34,50,0.0861019112884949,1
361,35,50,0.0769463583444886,1
362,24,50,0.0719020849709406,1
362,25,50,0.0898086206917885,1
362,26,50,0.107581133175825,1
362,27,50,0.102655637717075,1
362,28,50,0.0865670833211744,1
362,29,50,0.0751157441150087,1
362,32,50,0.0745992131986633,1
362,33,50,0.0800057106960191,1
362,34,50,0.071865137923711,1
363,24,50,0.0718775904470365,1
363,25,50,0.088374372394575,1
363,26,50,0.110776194395446,1
363,27,50,0.109668342782303,1
363,28,50,0.095521654280318,1
363,29,50,0.0912119118418536,1
363,30,50,0.0784327990109452,1
363,31,50,0.0747046118039337,1
363,32,50,0.0860689512879444,1
363,33,50,0.0885248041011826,1
363,36,50,0.0752811288016735,1
363,37,50,0.0827036350890693,1
364,25,50,0.0801184365103193,1
364,26,50,0.0914286554121843,1
364,27,50,0.0972139721043932,1
364,28,50,0.0981568993139519,1
364,29,50,0.106638286826808,1
364,30,50,0.0915828253638062,1
364,31,50,0.081551565200041,1
364,32,50,0.0893701388577054,1
364,33,50,0.0917668515152096,1
364,34,50,0.0769167136261222,1
364,35,50,0.0735108614160021,1
364,36,50,0.0803831303815074,1
364,37,50,0.0789047384489086,1
365,25,50,0.0736883378635784,1
365,26,50,0.0841502052887344,1
365,27,50,0.0983517296776513,1
365,28,50,0.1006318974153,1
365,29,50,0.103452704950618,1
365,30,50,0.0938421435219408,1
365,31,50,0.0806325478304741,1
365,32,50,0.0773619877456557,1
365,33,50,0.0791544357997482,1
365,34,50,0.0785374636513044,1
365,35,50,0.0824037295622638,1
365,36,50,0.0830777705925817,1
366,26,50,0.0837797769300282,1
366,27,50,0.106608032544363,1
366,28,50,0.110645511320986,1
366,29,50,0.104814869185484,1
366,30,50,0.0985185325338057,1
366,31,50,0.0827159694316041,1
366,32,50,0.0728998729475979,1
366,33,50,0.0726089989212263,1
366,34,50,0.0783406677544527,1
366,35,50,0.0882168560605609,1
366,36,50,0.0860612322162925,1
367,26,50,0.0745121823763001,1
367,27,50,0.0960751695641428,1
367,28,50,0.104884919294221,1
367,29,50,0.0984668128877258,1
367,30,50,0.0935694009168949,1
367,31,50,0.0827234956819657,1
367,32,50,0.0772278649881787,1
367,33,50,0.0741031399992099,1
367,34,50,0.0754780677594825,1
367,35,50,0.0834639294365477,1
367,36,50,0.0793837811744033,1
368,28,50,0.0746042452123348,1
368,29,50,0.07492356348904,1
368,30,50,0.0768957769660254,1
368,31,50,0.0766267290657024,1
368,32,50,0.0762941061199696,1
357,33,51,0.0797294475474156,1
357,34,51,0.0808079405641073,1
358,32,51,0.0725087816106262,1
358,33,51,0.0824976584107849,1
358,34,51,0.0902552507803954,1
358,35,51,0.0718732986183179,1
359,31,51,0.0723067608788128,1
359,32,51,0.0741577768448101,1
359,33,51,0.082060370824693,1
359,34,51,0.091993335670719,1
359,35,51,0.0762609657382121,1
360,32,51,0.0745390467360619,1
360,33,51,0.0832897371709473,1
360,34,51,0.0900421210542466,1
360,35,51,0.0762256981022202,1
361,25,51,0.0765554847089737,1
361,26,51,0.0756306453804494,1
361,27,51,0.0714148939909222,1
361,33,51,0.0781851791540071,1
361,34,51,0.0768999195137451,1
362,25,51,0.0759494225135335,1
362,26,51,0.0828369368010523,1
362,27,51,0.0824014592470721,1
362,28,51,0.0752293469551774,1
362,32,51,0.0732805083946043,1
362,33,51,0.0772491437505647,1
363,25,51,0.0726192868700676,1
363,26,51,0.0845443257859755,1
363,27,51,0.0871453792508179,1
363,28,51,0.0806426242979003,1
363,29,51,0.0787725874446256,1
363,30,51,0.0725338110581098,1
363,32,51,0.0799957275292172,1
363,33,51,0.0834721896518206,1
364,26,51,0.0771776132719214,1
364,27,51,0.0836685936860501,1
364,28,51,0.0839876320608823,1
364,29,51,0.0884315718973231,1
364,30,51,0.0799411591040748,1
364,31,51,0.0733676760578831,1
364,32,51,0.0791302087376338,1
364,33,51,0.0827404390753417,1
364,34,51,0.0740930759718669,1
365,26,51,0.0759729342708614,1
365,27,51,0.088739712759235,1
365,28,51,0.0903661043621676,1
365,29,51,0.0912214969259918,1
365,30,51,0.0836765366792004,1
365,31,51,0.0740205316264393,1
365,32,51,0.0717580039268282,1
365,33,51,0.0736745107110546,1
365,34,51,0.0730046868689559,1
365,35,51,0.0732856274888585,1
366,26,51,0.0732155587199962,1
366,27,51,0.0900659624737805,1
366,28,51,0.0937864741494315,1
366,29,51,0.0909283836846366,1
366,30,51,0.0858606731942601,1
366,31,51,0.076329037873714,1
366,35,51,0.0733649952199444,1
367,27,51,0.074511429751264,1
367,28,51,0.0812237938867728,1
367,29,51,0.0799617101215911,1
367,30,51,0.0778155905009199,1
367,31,51,0.0736586185047126,1
358,33,52,0.0725282130206507,1
358,34,52,0.0778692632400688,1
359,33,52,0.0723151019546268,1
359,34,52,0.0755288854995273,1
360,33,52,0.0725242321940132,1
360,34,52,0.0721658520559272,1
363,33,52,0.0730699662057699,1
365,28,52,0.0737634573062371,1
365,29,52,0.0746544409482175,1
366,28,52,0.0726523526113257,1
366,29,52,0.0735619279577117,1
