x,y,z,signal,mito.p
564,117,3,0.0725982942295963,1
565,117,3,0.0760767965258514,1
562,117,4,0.0732489230232521,1
562,118,4,0.0722217453499349,1
563,117,4,0.0729785937943552,1
563,118,4,0.0714718633521303,1
564,116,4,0.0734706799471294,1
564,117,4,0.0821184100330599,1
564,118,4,0.0771242515348536,1
565,116,4,0.0722226970163029,1
565,117,4,0.0837819912648454,1
565,118,4,0.0753748772689876,1
561,117,5,0.0763229297928421,1
561,118,5,0.0769726940007126,1
562,116,5,0.0732523627062686,1
562,117,5,0.0790310674942342,1
562,118,5,0.0788365978929489,1
563,115,5,0.0727088057090793,1
563,116,5,0.0775336297941914,1
563,117,5,0.0816510050054384,1
563,118,5,0.0810596780885986,1
564,116,5,0.0800645833899633,1
564,117,5,0.0936822449119858,1
564,118,5,0.0915071523374432,1
564,119,5,0.0772469853961222,1
565,116,5,0.0753391120296659,1
565,117,5,0.0906027271855195,1
565,118,5,0.0842149434819273,1
581,103,5,0.0719019854502747,1
560,117,6,0.0739646569925565,1
560,118,6,0.0722122846666291,1
561,116,6,0.0720737145793931,1
561,117,6,0.0840624653816264,1
561,118,6,0.0852850207823056,1
562,116,6,0.0799072163369482,1
562,117,6,0.08664671851405,1
562,118,6,0.0843724038355668,1
563,115,6,0.0733270280858889,1
563,116,6,0.0882632762311796,1
563,117,6,0.0973405250712172,1
563,118,6,0.0942344788672366,1
563,119,6,0.0769689619757399,1
564,116,6,0.0861172250309662,1
564,117,6,0.107491477495898,1
564,118,6,0.10844289506227,1
564,119,6,0.0883719403583011,1
565,116,6,0.0767441945517179,1
565,117,6,0.0984447192998875,1
565,118,6,0.0973640243884619,1
565,119,6,0.0792236897431581,1
566,117,6,0.0763007740045875,1
566,118,6,0.0742120280478298,1
581,103,6,0.0884950163218589,1
558,111,7,0.0724485591676502,1
558,112,7,0.0715833202779398,1
559,117,7,0.0754758409845821,1
559,118,7,0.0718146311857472,1
560,116,7,0.0729057757670963,1
560,117,7,0.0919888261405437,1
560,118,7,0.0931602838993052,1
561,116,7,0.0775865623483874,1
561,117,7,0.0914754052450089,1
561,118,7,0.0921389592851535,1
562,115,7,0.0721549296628405,1
562,116,7,0.0869195544197203,1
562,117,7,0.0970880224816065,1
562,118,7,0.0902752046739161,1
563,115,7,0.072766832477363,1
563,116,7,0.0989627679063884,1
563,117,7,0.117883549834023,1
563,118,7,0.110079437773128,1
563,119,7,0.0817631461358262,1
564,116,7,0.0930767238601666,1
564,117,7,0.122482200765707,1
564,118,7,0.127434212261888,1
564,119,7,0.100220796204433,1
565,116,7,0.0828419377145157,1
565,117,7,0.11315679092511,1
565,118,7,0.123700881080456,1
565,119,7,0.100469118926074,1
565,120,7,0.0720238733858828,1
566,117,7,0.088242451531832,1
566,118,7,0.098649825172345,1
566,119,7,0.0849653044229367,1
567,118,7,0.0725904942974033,1
580,102,7,0.0732969230844425,1
580,103,7,0.0780369617822167,1
581,102,7,0.0796212312632908,1
581,103,7,0.0948566696306006,1
556,116,8,0.0827068384105042,1
556,117,8,0.0762411300254823,1
557,115,8,0.078841916028535,1
557,116,8,0.0852828499877799,1
558,112,8,0.0725312732811283,1
558,116,8,0.0727916131231817,1
559,117,8,0.0905565620366073,1
559,118,8,0.0953111680718582,1
560,116,8,0.0743079286495447,1
560,117,8,0.0990908945437426,1
560,118,8,0.107976640742348,1
561,115,8,0.0728036551237602,1
561,116,8,0.0806566193915479,1
561,117,8,0.0942949438918359,1
561,118,8,0.0949777676209228,1
562,115,8,0.0739193750895545,1
562,116,8,0.0946012187412614,1
562,117,8,0.112769804815609,1
562,118,8,0.0997736374122884,1
562,119,8,0.0713903434866435,1
563,115,8,0.0733463164349561,1
563,116,8,0.108652560225236,1
563,117,8,0.139122080990782,1
563,118,8,0.123013939683816,1
563,119,8,0.0859998341854502,1
564,116,8,0.0995124267644081,1
564,117,8,0.130190524185636,1
564,118,8,0.13354693328491,1
564,119,8,0.105951693752499,1
564,120,8,0.0770135596741635,1
565,116,8,0.0855768215948788,1
565,117,8,0.11555064858351,1
565,118,8,0.135186212814081,1
565,119,8,0.113380339220974,1
565,120,8,0.079825373029297,1
566,117,8,0.0901685993805711,1
566,118,8,0.109556941836868,1
566,119,8,0.0943081677003224,1
567,118,8,0.0763763164100764,1
580,102,8,0.0776050794122936,1
580,103,8,0.0799512355715011,1
581,102,8,0.0770673443740616,1
581,103,8,0.0881516389241631,1
555,116,9,0.0740914401009205,1
555,117,9,0.0739734272512424,1
556,115,9,0.0758246733587796,1
556,116,9,0.103497302649041,1
556,117,9,0.0923909269511848,1
557,115,9,0.078589170857301,1
557,116,9,0.0928807427887673,1
557,117,9,0.0752846617853144,1
558,116,9,0.0719027442953525,1
559,117,9,0.0922284905642484,1
559,118,9,0.109857879890583,1
560,116,9,0.0720520128541769,1
560,117,9,0.0932184475085046,1
560,118,9,0.111214520728489,1
560,119,9,0.0729026097659112,1
561,115,9,0.0722337251500972,1
561,116,9,0.0815400830032084,1
561,117,9,0.0920270793965138,1
561,118,9,0.0939638261961754,1
562,115,9,0.0728271233407968,1
562,116,9,0.0982993631472428,1
562,117,9,0.118909321777934,1
562,118,9,0.103306403351647,1
562,119,9,0.0723270382144978,1
563,115,9,0.0746044815739164,1
563,116,9,0.112336877478693,1
563,117,9,0.144209851115386,1
563,118,9,0.124571711787584,1
563,119,9,0.0873072869342165,1
564,115,9,0.076341484176998,1
564,116,9,0.102862522521436,1
564,117,9,0.130552331566656,1
564,118,9,0.13640174578777,1
564,119,9,0.113635808770438,1
564,120,9,0.0845102834981829,1
565,111,9,0.0732167591880291,1
565,116,9,0.0863980412500364,1
565,117,9,0.117033295024578,1
565,118,9,0.150217863957757,1
565,119,9,0.129359240503136,1
565,120,9,0.0850542696782441,1
566,117,9,0.0900553510827748,1
566,118,9,0.118285924326496,1
566,119,9,0.0999690462398586,1
567,118,9,0.0766594216044632,1
580,103,9,0.0749009847379552,1
581,103,9,0.0715931790439093,1
555,116,10,0.0794645421948123,1
555,117,10,0.0755025187430952,1
556,115,10,0.0741822402685061,1
556,116,10,0.106558346851893,1
556,117,10,0.094654437417372,1
557,115,10,0.072678091143554,1
557,116,10,0.088365620796014,1
557,117,10,0.0748139912358417,1
558,118,10,0.0726162203895484,1
559,117,10,0.090845184407912,1
559,118,10,0.112994298557799,1
559,119,10,0.074294132597229,1
560,116,10,0.0768130130922143,1
560,117,10,0.094035269594236,1
560,118,10,0.110481202701522,1
560,119,10,0.0762212445524195,1
561,115,10,0.0732037841812074,1
561,116,10,0.0886840433867257,1
561,117,10,0.0998163379980176,1
561,118,10,0.0985691387924354,1
561,119,10,0.0727278825767314,1
562,115,10,0.0752641169878397,1
562,116,10,0.104346723972909,1
562,117,10,0.123780833495454,1
562,118,10,0.107525774805397,1
562,119,10,0.0754092740991525,1
563,115,10,0.0793483766974957,1
563,116,10,0.115643725286329,1
563,117,10,0.142451557309836,1
563,118,10,0.123447227783146,1
563,119,10,0.0896730051243225,1
564,115,10,0.0809924891990069,1
564,116,10,0.105027532408511,1
564,117,10,0.130148364743528,1
564,118,10,0.137041489508589,1
564,119,10,0.116568185192315,1
564,120,10,0.0856318751832676,1
565,110,10,0.0726783150650524,1
565,111,10,0.0803346949174035,1
565,115,10,0.0715296039984995,1
565,116,10,0.0840668629510526,1
565,117,10,0.114784563377283,1
565,118,10,0.15114860610578,1
565,119,10,0.130724825760893,1
565,120,10,0.0819316906036345,1
566,117,10,0.0852431785623201,1
566,118,10,0.11119345966756,1
566,119,10,0.0929338432840871,1
567,130,10,0.0721047277069161,1
555,116,11,0.0773167867031947,1
555,117,11,0.0727563019468984,1
556,116,11,0.0939254049990816,1
556,117,11,0.0871498514607435,1
557,116,11,0.0789682077536108,1
557,117,11,0.0731530721818701,1
559,117,11,0.0837425748610921,1
559,118,11,0.0951113803349868,1
560,116,11,0.082499592843729,1
560,117,11,0.0963579948566566,1
560,118,11,0.0980230502383063,1
561,115,11,0.0723065618374809,1
561,116,11,0.0942264052532124,1
561,117,11,0.107463064345773,1
561,118,11,0.0977237169553299,1
562,115,11,0.0766171439815642,1
562,116,11,0.105805410813652,1
562,117,11,0.122654794480611,1
562,118,11,0.108982769794819,1
562,119,11,0.0772392476643455,1
563,115,11,0.0823816421944671,1
563,116,11,0.112927793872786,1
563,117,11,0.134800197031073,1
563,118,11,0.122388539378976,1
563,119,11,0.0909594963328256,1
564,111,11,0.0740353104453312,1
564,115,11,0.0796587692144745,1
564,116,11,0.098145454437369,1
564,117,11,0.122653625112786,1
564,118,11,0.130013875003596,1
564,119,11,0.107623255297684,1
564,120,11,0.077086794444211,1
565,111,11,0.0785668471279227,1
565,116,11,0.075143305119432,1
565,117,11,0.101365924527012,1
565,118,11,0.129954909009027,1
565,119,11,0.110919640995313,1
566,117,11,0.0737953723397952,1
566,118,11,0.0904007997543304,1
566,119,11,0.0762841229531677,1
580,104,11,0.0717442203145957,1
555,116,12,0.0754968833853865,1
555,117,12,0.0725557864651573,1
556,116,12,0.0792286844365798,1
556,117,12,0.0761279066078524,1
557,116,12,0.0720972201166794,1
559,116,12,0.0741655581168782,1
559,117,12,0.0820009445470445,1
559,118,12,0.0777433260573653,1
560,116,12,0.0896445484339058,1
560,117,12,0.107605938701811,1
560,118,12,0.0897102569535916,1
561,115,12,0.0746766340567218,1
561,116,12,0.102267463579624,1
561,117,12,0.12515581101606,1
561,118,12,0.101284752983856,1
562,108,12,0.0733921146014127,1
562,109,12,0.0727214075134037,1
562,115,12,0.0806977711869135,1
562,116,12,0.107097450299281,1
562,117,12,0.127841562787658,1
562,118,12,0.11315222541456,1
562,119,12,0.0812587132004339,1
563,108,12,0.0713479352428705,1
563,109,12,0.0733625134233376,1
563,114,12,0.0757705465565923,1
563,115,12,0.0841847638399815,1
563,116,12,0.109089518149122,1
563,117,12,0.133653445277631,1
563,118,12,0.127881445694532,1
563,119,12,0.0950789925782654,1
564,111,12,0.0747322661089814,1
564,112,12,0.0732037033206663,1
564,113,12,0.0713821516918284,1
564,114,12,0.0727069396965929,1
564,115,12,0.0759169974365624,1
564,116,12,0.0917183165304398,1
564,117,12,0.118856911707234,1
564,118,12,0.12625816411241,1
564,119,12,0.0981395205176624,1
565,111,12,0.071915968103839,1
565,117,12,0.0912527837353462,1
565,118,12,0.107577550431852,1
565,119,12,0.0886056770823408,1
566,118,12,0.0735598193636022,1
567,126,12,0.0821018149620147,1
568,126,12,0.0798833375971646,1
572,121,12,0.0722132301129555,1
553,117,13,0.0722888595990271,1
554,116,13,0.0742382393032213,1
554,117,13,0.0780200557090904,1
555,116,13,0.0743150257170345,1
555,117,13,0.0725869924139706,1
556,116,13,0.0730459568451123,1
559,116,13,0.0785039687271745,1
559,117,13,0.0855243368836795,1
560,106,13,0.0725968014196072,1
560,107,13,0.0741718279188323,1
560,108,13,0.0740384951066412,1
560,115,13,0.0739775822390453,1
560,116,13,0.0949710872962217,1
560,117,13,0.118553162194707,1
560,118,13,0.0846191404465947,1
561,106,13,0.0759889757582024,1
561,107,13,0.0796958033422868,1
561,108,13,0.0826363902191031,1
561,109,13,0.0791371378639997,1
561,114,13,0.0762798124643242,1
561,115,13,0.0817012753818206,1
561,116,13,0.105946332076621,1
561,117,13,0.137627417429302,1
561,118,13,0.102460421710795,1
562,106,13,0.0762772809073844,1
562,107,13,0.0802990416388311,1
562,108,13,0.0840349416974528,1
562,109,13,0.0822977151728729,1
562,110,13,0.0756751497782487,1
562,113,13,0.0767633771600775,1
562,114,13,0.0848703803677563,1
562,115,13,0.0869029531286334,1
562,116,13,0.103073929296056,1
562,117,13,0.129966565367025,1
562,118,13,0.1134725202378,1
562,119,13,0.0817894693519669,1
563,106,13,0.0734430816224564,1
563,107,13,0.0770144989004483,1
563,108,13,0.0814824854177965,1
563,109,13,0.084082879558227,1
563,110,13,0.0804616397468496,1
563,111,13,0.0758958119748007,1
563,112,13,0.0757807909651424,1
563,113,13,0.0791248284016315,1
563,114,13,0.082256470076883,1
563,115,13,0.0818755422879204,1
563,116,13,0.0997045140897525,1
563,117,13,0.129904551552062,1
563,118,13,0.127047499834218,1
563,119,13,0.0926199364435924,1
564,107,13,0.0714078653438903,1
564,108,13,0.0752367550247482,1
564,109,13,0.0784148044305352,1
564,110,13,0.0756218689017219,1
564,111,13,0.0747323780697306,1
564,112,13,0.0761089417009495,1
564,113,13,0.0744249462925635,1
564,116,13,0.0838960543880941,1
564,117,13,0.10992570322442,1
564,118,13,0.113818951675932,1
564,119,13,0.0859098364032337,1
565,117,13,0.0835666783040876,1
565,118,13,0.0879097352854749,1
565,119,13,0.0724327167216412,1
567,125,13,0.0827661340672787,1
567,126,13,0.0930651608027929,1
567,127,13,0.071840444358475,1
568,125,13,0.0793049297067719,1
568,126,13,0.0871712732840867,1
568,127,13,0.0722289730382987,1
570,123,13,0.0743173271324343,1
571,123,13,0.072172849602751,1
572,121,13,0.0780992430589693,1
573,121,13,0.0724174651795861,1
553,117,14,0.0816556451564878,1
554,116,14,0.0748773983401277,1
554,117,14,0.0837966021426135,1
555,116,14,0.0733045799556782,1
555,117,14,0.0720200294001609,1
556,116,14,0.0730532218537258,1
559,105,14,0.0715031315013599,1
559,106,14,0.0763802350362977,1
559,107,14,0.0749406623834565,1
559,108,14,0.071730523782946,1
559,116,14,0.0781511057660065,1
559,117,14,0.0830994349975482,1
560,105,14,0.0760434882029701,1
560,106,14,0.0835452440406611,1
560,107,14,0.0841589879875035,1
560,108,14,0.083133670106631,1
560,109,14,0.0773342899003167,1
560,115,14,0.0739774516181712,1
560,116,14,0.0911371096213176,1
560,117,14,0.110700421848417,1
560,118,14,0.0760590196468982,1
561,105,14,0.0787089626388828,1
561,106,14,0.0865599613735182,1
561,107,14,0.0896273002584903,1
561,108,14,0.0907695487017988,1
561,109,14,0.0846163974082398,1
561,110,14,0.0744123631483639,1
561,113,14,0.0718942041782066,1
561,114,14,0.0796665504865425,1
561,115,14,0.0822581432680791,1
561,116,14,0.098755870661944,1
561,117,14,0.127185124475128,1
561,118,14,0.093289729185483,1
562,105,14,0.0795057686306773,1
562,106,14,0.0857244542827568,1
562,107,14,0.0886781032469775,1
562,108,14,0.0902869418924552,1
562,109,14,0.0861303244386203,1
562,110,14,0.078857677614003,1
562,111,14,0.0734799975694779,1
562,112,14,0.0731117959856721,1
562,113,14,0.0810741148052013,1
562,114,14,0.0910064514270237,1
562,115,14,0.0855292631566434,1
562,116,14,0.0921942865553736,1
562,117,14,0.118539614944056,1
562,118,14,0.102306133578382,1
562,119,14,0.0720643658568365,1
563,105,14,0.0782120497338105,1
563,106,14,0.0819029726714697,1
563,107,14,0.0840929373655284,1
563,108,14,0.0866615408732333,1
563,109,14,0.0873625084637291,1
563,110,14,0.0827768947392833,1
563,111,14,0.0768952171622795,1
563,112,14,0.0777854481792237,1
563,113,14,0.0817749828750312,1
563,114,14,0.0822639216867452,1
563,115,14,0.0754513837809277,1
563,116,14,0.0882617212207743,1
563,117,14,0.118247733270942,1
563,118,14,0.11193875749469,1
563,119,14,0.0778488366233849,1
564,105,14,0.0762635097352352,1
564,106,14,0.0781124855275807,1
564,107,14,0.078923398573772,1
564,108,14,0.0823483525317107,1
564,109,14,0.0829153031054372,1
564,110,14,0.0756898041963081,1
564,112,14,0.0736305723370428,1
564,113,14,0.0733793013156731,1
564,116,14,0.0782005550968946,1
564,117,14,0.0975425147028225,1
564,118,14,0.0932383018813593,1
565,105,14,0.0718434735187445,1
565,106,14,0.0729401414970532,1
565,107,14,0.0721615229069589,1
565,108,14,0.0735430812315997,1
565,116,14,0.0715691696832516,1
565,117,14,0.0733373160347303,1
567,114,14,0.0713515615271356,1
567,125,14,0.0766959456888626,1
567,126,14,0.083861265695307,1
568,114,14,0.0825493282965318,1
568,115,14,0.0740876458755316,1
568,125,14,0.0721107673673303,1
568,126,14,0.0765194271276959,1
569,114,14,0.0810189616961466,1
570,123,14,0.071584564286264,1
572,121,14,0.0732139601692996,1
553,117,15,0.0811642929686248,1
554,116,15,0.0719595394953952,1
554,117,15,0.0829077146546594,1
555,116,15,0.0752071911669229,1
555,117,15,0.0750672340104053,1
556,116,15,0.0776639396661545,1
556,117,15,0.0720093371486141,1
558,105,15,0.0722705975568274,1
558,106,15,0.0739866572797706,1
559,105,15,0.0815505326731319,1
559,106,15,0.0849087953448086,1
559,107,15,0.0818544501267831,1
559,108,15,0.0771279151393684,1
559,109,15,0.0726322867570559,1
559,116,15,0.0736107304042713,1
559,117,15,0.0749114033076706,1
560,105,15,0.0845950191251879,1
560,106,15,0.0928764696201736,1
560,107,15,0.0935797883864022,1
560,108,15,0.0900545860176554,1
560,109,15,0.0822457840453779,1
560,110,15,0.073342360488485,1
560,115,15,0.0740015978197446,1
560,116,15,0.0843933529357469,1
560,117,15,0.0955365450599591,1
560,118,15,0.071704318747596,1
561,105,15,0.0867381842260891,1
561,106,15,0.0963008513342831,1
561,107,15,0.0994107539640687,1
561,108,15,0.097377633839529,1
561,109,15,0.0881186353833213,1
561,110,15,0.0771687994729443,1
561,111,15,0.0715598956011945,1
561,112,15,0.0715225877915508,1
561,113,15,0.0744728032927966,1
561,114,15,0.0804600660763195,1
561,115,15,0.0803260055192588,1
561,116,15,0.0879257518926493,1
561,117,15,0.105981102109283,1
561,118,15,0.0822798823135451,1
562,105,15,0.0878159246177447,1
562,106,15,0.0952273281308467,1
562,107,15,0.0982302771449566,1
562,108,15,0.0966366465012427,1
562,109,15,0.0880851404591914,1
562,110,15,0.0796305177854312,1
562,111,15,0.0740284497394231,1
562,112,15,0.0756193684449902,1
562,113,15,0.0822453673025893,1
562,114,15,0.0889318000845795,1
562,115,15,0.0800815267833394,1
562,116,15,0.0818337249481014,1
562,117,15,0.101657924380917,1
562,118,15,0.0860729196744987,1
563,104,15,0.0727258921634126,1
563,105,15,0.0866653786389135,1
563,106,15,0.0910568399841966,1
563,107,15,0.0939121749705534,1
563,108,15,0.0937116035084377,1
563,109,15,0.0876757808599784,1
563,110,15,0.079468504361325,1
563,111,15,0.0731138921396985,1
563,112,15,0.0757412688206816,1
563,113,15,0.0791568989362301,1
563,114,15,0.0778577934833194,1
563,116,15,0.082794335735989,1
563,117,15,0.106464971587076,1
563,118,15,0.0923778524236971,1
564,104,15,0.0741677040312374,1
564,105,15,0.0851164825345389,1
564,106,15,0.0878302369335149,1
564,107,15,0.0900768848668672,1
564,108,15,0.0909188794610395,1
564,109,15,0.0836967455944275,1
564,116,15,0.0823771015640837,1
564,117,15,0.0920329822160123,1
564,118,15,0.0764585080400583,1
565,104,15,0.07306060504313,1
565,105,15,0.0812371669762582,1
565,106,15,0.0830311327205063,1
565,107,15,0.0840564879216285,1
565,108,15,0.0833450146808345,1
565,109,15,0.0727302772927555,1
565,114,15,0.0744195161962282,1
565,115,15,0.0779533333226203,1
565,116,15,0.0782703688440504,1
566,105,15,0.0736799843476812,1
566,106,15,0.0746108571165781,1
566,107,15,0.0737212978641289,1
566,114,15,0.0758986109935302,1
566,115,15,0.0765733300083848,1
567,113,15,0.0722996886914896,1
567,114,15,0.0846054190347785,1
567,115,15,0.0756252588244054,1
568,113,15,0.0797918159047509,1
568,114,15,0.102885642416142,1
568,115,15,0.0817749331146982,1
569,114,15,0.093533262475076,1
569,115,15,0.0724032523844818,1
578,112,15,0.0780154279981242,1
579,112,15,0.074448744171806,1
553,117,16,0.0718870075900509,1
554,117,16,0.074186805779056,1
555,116,16,0.074962146407216,1
555,117,16,0.074430929972603,1
556,116,16,0.0817464204439069,1
556,117,16,0.077436833506483,1
558,105,16,0.0726916383942049,1
558,106,16,0.0731739342014675,1
559,105,16,0.0827944414766966,1
559,106,16,0.0862826532579224,1
559,107,16,0.0810582536990674,1
559,108,16,0.0747458382397987,1
560,105,16,0.0858048669808351,1
560,106,16,0.0953559088312392,1
560,107,16,0.0949307814265166,1
560,108,16,0.0880781988927422,1
560,109,16,0.080341138880523,1
560,110,16,0.0725224843623176,1
560,115,16,0.0732930106782628,1
560,116,16,0.0790002347479181,1
560,117,16,0.0808893360287617,1
561,104,16,0.0717819013267367,1
561,105,16,0.0885132659239753,1
561,106,16,0.0984673789115133,1
561,107,16,0.100207043692409,1
561,108,16,0.0948985491708358,1
561,109,16,0.0860447802062046,1
561,110,16,0.0769731480637509,1
561,111,16,0.0717728262860114,1
561,112,16,0.0716706994226337,1
561,113,16,0.0745239382549641,1
561,114,16,0.0772731344510975,1
561,115,16,0.0771873289769337,1
561,116,16,0.0805704531549701,1
561,117,16,0.0867828690050955,1
561,118,16,0.0729298162279621,1
562,104,16,0.0746226254353253,1
562,105,16,0.0906185571914453,1
562,106,16,0.0975166766499282,1
562,107,16,0.0989658468269909,1
562,108,16,0.0948009940380496,1
562,109,16,0.085782966214287,1
562,110,16,0.0779772867029033,1
562,111,16,0.0742855489397918,1
562,112,16,0.0762502112862492,1
562,113,16,0.0804191693026604,1
562,114,16,0.0811624269561385,1
562,115,16,0.0748746179815231,1
562,116,16,0.0766594713647962,1
562,117,16,0.0863587430270739,1
562,118,16,0.0724160034698051,1
563,104,16,0.0778801918531972,1
563,105,16,0.0914840324427374,1
563,106,16,0.0954387162453416,1
563,107,16,0.0973641985496273,1
563,108,16,0.0942555088279578,1
563,109,16,0.0843835066098606,1
563,110,16,0.0747211508946044,1
563,112,16,0.0722314050745725,1
563,113,16,0.0751003308518715,1
563,114,16,0.072897851434071,1
563,116,16,0.0804915705871306,1
563,117,16,0.0928346585003962,1
563,118,16,0.0746278129500374,1
564,104,16,0.0800474720554636,1
564,105,16,0.0904965759552129,1
564,106,16,0.093410534833849,1
564,107,16,0.096013056228514,1
564,108,16,0.0927754748043709,1
564,109,16,0.0793491293225319,1
564,114,16,0.0720976555195929,1
564,115,16,0.0770574607279256,1
564,116,16,0.085495612731473,1
564,117,16,0.0843459562185937,1
565,104,16,0.0799474102459041,1
565,105,16,0.0879065257439984,1
565,106,16,0.0906291126020764,1
565,107,16,0.0945006095680393,1
565,108,16,0.0891755261954627,1
565,114,16,0.0825312590756223,1
565,115,16,0.0879078754930301,1
565,116,16,0.0810971165191164,1
566,104,16,0.0742288781405815,1
566,105,16,0.0801719910686774,1
566,106,16,0.0822657752591483,1
566,107,16,0.0854053537075085,1
566,108,16,0.0776401293468287,1
566,114,16,0.0852526019253762,1
566,115,16,0.0855017767927196,1
567,113,16,0.075094707934246,1
567,114,16,0.0939316188206611,1
567,115,16,0.0827812238882516,1
568,113,16,0.0826669928238791,1
568,114,16,0.111287991860118,1
568,115,16,0.0853968198104042,1
569,114,16,0.0902207233293564,1
577,111,16,0.0731240867879155,1
577,112,16,0.0834379545427378,1
578,111,16,0.0916159470854388,1
578,112,16,0.108594278435245,1
578,113,16,0.0854002657134623,1
579,111,16,0.083211787609351,1
579,112,16,0.0977996201232329,1
579,113,16,0.0820427059064889,1
580,111,16,0.0755635186912739,1
580,112,16,0.080616245101385,1
580,113,16,0.0730832024543397,1
581,111,16,0.0793430461218264,1
581,112,16,0.0786963608345583,1
582,111,16,0.0757644322556787,1
582,112,16,0.072508408408129,1
555,116,17,0.0739193128891383,1
555,117,17,0.076567924792216,1
556,116,17,0.0796486616468401,1
556,117,17,0.0811829219932802,1
556,118,17,0.0738308141369526,1
558,105,17,0.0749002569930855,1
558,106,17,0.0750880400496281,1
559,104,17,0.0717234702557476,1
559,105,17,0.0845661892322739,1
559,106,17,0.089453319474305,1
559,107,17,0.0820796218535104,1
559,108,17,0.0740914214407956,1
559,109,17,0.0727127492154671,1
560,104,17,0.072050632004937,1
560,105,17,0.0879864532788302,1
560,106,17,0.0992804876323969,1
560,107,17,0.0960808733423094,1
560,108,17,0.0862635701702286,1
560,109,17,0.0800954969968205,1
560,110,17,0.0746266187020461,1
560,113,17,0.0720629539073885,1
560,115,17,0.0722413322609999,1
560,116,17,0.0737393857451632,1
561,104,17,0.073306110085917,1
561,105,17,0.0900160466397707,1
561,106,17,0.101082091587756,1
561,107,17,0.0999431459865481,1
561,108,17,0.0917135146583082,1
561,109,17,0.0833848291672515,1
561,110,17,0.0767763521668993,1
561,111,17,0.0751477835493993,1
561,112,17,0.0763413722162488,1
561,113,17,0.0766694047712651,1
561,114,17,0.0741117360967303,1
561,115,17,0.074300060296894,1
561,116,17,0.0755607880930022,1
561,117,17,0.0731321915021479,1
562,104,17,0.0775349235628486,1
562,105,17,0.0924584455029824,1
562,106,17,0.100534727925094,1
562,107,17,0.0999337661637834,1
562,108,17,0.0931401931648688,1
562,109,17,0.0822667518056828,1
562,110,17,0.0749102028396377,1
562,111,17,0.0752992851031657,1
562,112,17,0.0779199503592396,1
562,113,17,0.0779923951840011,1
562,114,17,0.0745764913866212,1
562,115,17,0.073662879233223,1
562,116,17,0.076133249623605,1
562,117,17,0.0740673934200131,1
563,104,17,0.0833667039659675,1
563,105,17,0.0957261194884886,1
563,106,17,0.101976216350755,1
563,107,17,0.103748001426582,1
563,108,17,0.096945552428274,1
563,109,17,0.0816039628306576,1
563,113,17,0.0715228614733822,1
563,114,17,0.071751933166206,1
563,115,17,0.0758017773855721,1
563,116,17,0.0819614099625004,1
563,117,17,0.079070539878362,1
564,103,17,0.0769424023980175,1
564,104,17,0.0899192503520624,1
564,105,17,0.100468484481829,1
564,106,17,0.105110495323654,1
564,107,17,0.107633381525443,1
564,108,17,0.0977009391629133,1
564,109,17,0.0771224663829083,1
564,114,17,0.0773198345235891,1
564,115,17,0.0852876331997865,1
564,116,17,0.0854491739007295,1
564,117,17,0.0730358928177692,1
565,103,17,0.0762914937024888,1
565,104,17,0.0904478543691944,1
565,105,17,0.099554853668306,1
565,106,17,0.102571393473358,1
565,107,17,0.10772222859996,1
565,108,17,0.0938955736794665,1
565,113,17,0.0737816198277709,1
565,114,17,0.0913493001211816,1
565,115,17,0.0964516438033047,1
565,116,17,0.0805192062320534,1
566,104,17,0.082357838095183,1
566,105,17,0.0892579355269014,1
566,106,17,0.0901685060799468,1
566,107,17,0.0962766304922103,1
566,108,17,0.0823913267992713,1
566,113,17,0.0769816073203557,1
566,114,17,0.0963084024648112,1
566,115,17,0.0950772136463618,1
567,105,17,0.0728445705575442,1
567,106,17,0.0725507482314442,1
567,107,17,0.0724549595904784,1
567,113,17,0.0762134135200184,1
567,114,17,0.096721606049746,1
567,115,17,0.0855418898411344,1
568,105,17,0.0713433386321124,1
568,106,17,0.0780440028693318,1
568,107,17,0.0718500667628629,1
568,113,17,0.075240437289388,1
568,114,17,0.0994751624950558,1
568,115,17,0.0775181729907628,1
569,105,17,0.0798841151023672,1
569,106,17,0.0936702464516986,1
569,107,17,0.0873369440926661,1
570,106,17,0.0807487319879156,1
570,107,17,0.0831354179383265,1
570,108,17,0.0727141487248318,1
577,111,17,0.0786531128851665,1
577,112,17,0.0959145058890684,1
577,113,17,0.0782138535458806,1
578,111,17,0.102815380825989,1
578,112,17,0.12993305178277,1
578,113,17,0.0990235812533185,1
579,111,17,0.0924763094625183,1
579,112,17,0.11365795211861,1
579,113,17,0.0915552643593829,1
580,111,17,0.0878598194514651,1
580,112,17,0.0924372413810959,1
580,113,17,0.0794421749251427,1
555,117,18,0.0731142902223622,1
555,118,18,0.0766393184299436,1
556,116,18,0.072770608042627,1
556,117,18,0.0772948361763137,1
556,118,18,0.081097203599699,1
556,119,18,0.0716798739840249,1
558,105,18,0.0795274205955606,1
558,106,18,0.079025307735693,1
558,111,18,0.0714042701598332,1
558,112,18,0.0726415297389049,1
558,113,18,0.0722170927588023,1
559,104,18,0.0754136219082457,1
559,105,18,0.0893658283688619,1
559,106,18,0.0935609727604982,1
559,107,18,0.083324270842028,1
559,108,18,0.0743572411395172,1
559,109,18,0.0745204052713233,1
559,110,18,0.0735457869497049,1
559,111,18,0.0721776452548409,1
559,112,18,0.0726214576645934,1
559,113,18,0.0724148154418555,1
560,104,18,0.0769961995379989,1
560,105,18,0.0941979112425459,1
560,106,18,0.1044094593127,1
560,107,18,0.095911426968466,1
560,108,18,0.0856937397172316,1
560,109,18,0.0821061254508582,1
560,110,18,0.0762044442200007,1
560,111,18,0.0742188949737795,1
560,112,18,0.0753061582491571,1
560,113,18,0.0754989981995377,1
561,106,18,0.105106240815185,1
561,107,18,0.0984586086528275,1
561,108,18,0.0897661253674328,1
561,109,18,0.0835456421233248,1
561,110,18,0.0771730415413299,1
561,111,18,0.0792082951401457,1
561,112,18,0.0802009515824655,1
561,113,18,0.0775890254848694,1
562,107,18,0.098598435188471,1
562,108,18,0.0912846676686962,1
562,109,18,0.0799188851350295,1
562,110,18,0.0728238142786544,1
562,111,18,0.076832376081781,1
562,112,18,0.0774253388695671,1
562,113,18,0.0743360681178388,1
563,109,18,0.0782884816052512,1
563,115,18,0.078701324427772,1
563,116,18,0.0758554750048876,1
564,114,18,0.0782147554519157,1
564,115,18,0.0874205414520544,1
564,116,18,0.0766261319417068,1
565,113,18,0.072955430359358,1
565,114,18,0.0906405574786594,1
565,115,18,0.0963726803749242,1
565,116,18,0.073610537582981,1
566,113,18,0.0779820885750349,1
566,114,18,0.0972972273614923,1
566,115,18,0.097464863703224,1
567,113,18,0.0732850179247796,1
567,114,18,0.0898732282641075,1
567,115,18,0.0819386757103751,1
568,114,18,0.0772709201162804,1
555,118,19,0.0773056466086512,1
556,118,19,0.0777232477630122,1
557,105,19,0.073306421087998,1
558,97,19,0.0762900071125413,1
558,98,19,0.0722888844791936,1
558,104,19,0.0768114705218923,1
558,105,19,0.0861247512813278,1
558,106,19,0.0819326795902523,1
558,110,19,0.0718924065861781,1
558,111,19,0.0720683529035156,1
558,112,19,0.0721192328439767,1
558,113,19,0.0716672037592426,1
559,97,19,0.0760995369980184,1
559,98,19,0.073276490247717,1
559,104,19,0.0825349848805534,1
559,105,19,0.0966820652451603,1
559,106,19,0.0954697542530311,1
559,107,19,0.0829534008603667,1
559,108,19,0.0776154731018425,1
559,109,19,0.0780995478410087,1
559,110,19,0.0760924212704038,1
559,111,19,0.0749588062448654,1
559,112,19,0.0748697476889337,1
559,113,19,0.073799135464976,1
560,98,19,0.0719068868430721,1
560,104,19,0.0819970383609064,1
560,105,19,0.0979396146000001,1
560,106,19,0.102895507402153,1
560,107,19,0.0924895208309216,1
560,108,19,0.0869557364018305,1
560,109,19,0.0849888721606393,1
560,110,19,0.0776851748882491,1
560,111,19,0.0774873153642803,1
560,112,19,0.0785818187681048,1
560,113,19,0.0759057391612281,1
561,104,19,0.0818437765353612,1
561,105,19,0.0954819455346086,1
561,106,19,0.1034402835275,1
561,107,19,0.0947637048885308,1
561,108,19,0.0879260504546472,1
561,109,19,0.0830786476184503,1
561,110,19,0.0759399120698947,1
561,111,19,0.0806471711483254,1
561,112,19,0.0813414459740369,1
561,113,19,0.0745679637095586,1
562,104,19,0.0846528033118484,1
562,105,19,0.0922462176828686,1
562,106,19,0.100210302994218,1
562,107,19,0.0953997539046267,1
562,108,19,0.0872898894778021,1
562,109,19,0.0751928477509445,1
562,111,19,0.0737645644736457,1
562,112,19,0.0731086859648616,1
563,107,19,0.10308345839982,1
563,108,19,0.0951260969534624,1
563,109,19,0.0741943506895425,1
563,115,19,0.0794674842744992,1
564,108,19,0.0929278533840059,1
564,114,19,0.0763303440824545,1
564,115,19,0.0834501769245234,1
565,108,19,0.0801502582432531,1
565,113,19,0.0726094343241397,1
565,114,19,0.0849841698091737,1
565,115,19,0.0886421016460743,1
566,113,19,0.0775802427861003,1
566,114,19,0.091448609305705,1
566,115,19,0.0917115802253641,1
567,114,19,0.0791186394602184,1
567,115,19,0.0741746953580196,1
557,97,20,0.0785340612885376,1
557,98,20,0.0753711452440149,1
557,104,20,0.0714169528246988,1
557,105,20,0.0769480564158512,1
557,106,20,0.071751423122793,1
558,96,20,0.0754880633663677,1
558,97,20,0.0866886478146182,1
558,98,20,0.0821516188352753,1
558,104,20,0.08613082204195,1
558,105,20,0.0957971337036773,1
558,106,20,0.0851491004328002,1
558,107,20,0.0736372215615358,1
558,108,20,0.0739502638162452,1
558,109,20,0.0767641173450304,1
558,110,20,0.0757578141313938,1
558,111,20,0.0745662220979047,1
558,112,20,0.0734498987880732,1
558,113,20,0.0715628252407981,1
559,96,20,0.0738559555451853,1
559,97,20,0.0842295481396538,1
559,98,20,0.0813250064040321,1
559,99,20,0.0718775842269949,1
559,104,20,0.0914690856827218,1
559,105,20,0.104828914039464,1
559,106,20,0.0957875548395807,1
559,107,20,0.0828461300225683,1
559,108,20,0.0817934004182714,1
559,109,20,0.0833930209620666,1
559,110,20,0.0797081936651962,1
559,111,20,0.0791007630605992,1
559,112,20,0.0782064579163931,1
559,113,20,0.0745036671393208,1
560,97,20,0.0755121473675248,1
560,98,20,0.0780977440289386,1
560,99,20,0.0740051743436767,1
560,104,20,0.0841695807183843,1
560,105,20,0.0976110720015708,1
560,106,20,0.0979973428062861,1
560,107,20,0.0891789720985209,1
560,108,20,0.0874881035441434,1
560,109,20,0.0874908652426232,1
560,110,20,0.0807623041187329,1
560,111,20,0.0822670752478471,1
560,112,20,0.0819723385756288,1
560,113,20,0.0753777136079668,1
561,98,20,0.0751051078438365,1
561,99,20,0.0742715476261026,1
561,104,20,0.0803406785974431,1
561,105,20,0.0903811382027659,1
561,106,20,0.0962629961609767,1
561,107,20,0.0893939118567814,1
561,108,20,0.0844145197373837,1
561,109,20,0.0815950308508896,1
561,110,20,0.0757866378042663,1
561,111,20,0.0811492466879432,1
561,112,20,0.0806307502384456,1
562,98,20,0.0718638006147624,1
562,99,20,0.0718467701408037,1
562,102,20,0.0733151602464757,1
562,103,20,0.0809340208077681,1
562,104,20,0.0833897678802987,1
562,105,20,0.0874239935751542,1
562,106,20,0.0942742684734872,1
562,107,20,0.090530412981632,1
562,108,20,0.0818165451931438,1
563,102,20,0.0805375802350023,1
563,103,20,0.0896059219754384,1
563,104,20,0.0894150599982933,1
563,105,20,0.0903234410966881,1
563,106,20,0.0970435616240985,1
563,107,20,0.0986635963444942,1
563,108,20,0.0886496216763943,1
563,115,20,0.0726683816585834,1
564,102,20,0.0793757884209201,1
564,103,20,0.0901595678801372,1
564,104,20,0.093000683851348,1
564,105,20,0.0950484024135726,1
564,106,20,0.100338068869158,1
564,107,20,0.0991540901666135,1
564,108,20,0.0856845153955074,1
564,114,20,0.0773454548750266,1
564,115,20,0.0759125501068033,1
565,103,20,0.0811885635710305,1
565,104,20,0.089113033437295,1
565,105,20,0.0932903325295202,1
565,106,20,0.0958667670696261,1
565,107,20,0.0877664815068981,1
565,108,20,0.0718329056680301,1
565,113,20,0.0765660587797297,1
565,114,20,0.0847172616031684,1
565,115,20,0.0804145975720689,1
566,104,20,0.0791640084438031,1
566,105,20,0.0849920008415747,1
566,106,20,0.0912008152876015,1
566,107,20,0.0800840272400711,1
566,113,20,0.0778725847422945,1
566,114,20,0.0877015380523316,1
566,115,20,0.0841731821224829,1
567,104,20,0.0714979066663981,1
567,105,20,0.0814545076705846,1
567,106,20,0.0973128521060447,1
567,107,20,0.0836925097460835,1
568,104,20,0.0726758394884872,1
568,105,20,0.0866543940454105,1
568,106,20,0.108103629112086,1
568,107,20,0.0900588467461659,1
569,104,20,0.078790886807075,1
569,105,20,0.101731414172671,1
569,106,20,0.128577754473854,1
569,107,20,0.105008747882815,1
569,108,20,0.0725504683295712,1
570,104,20,0.0851090744649681,1
570,105,20,0.112869586723295,1
570,106,20,0.138235252336604,1
570,107,20,0.110130516754921,1
570,108,20,0.072057691752177,1
571,104,20,0.0879873800650317,1
571,105,20,0.108077268575695,1
571,106,20,0.116373659610655,1
571,107,20,0.0896770294912514,1
572,104,20,0.0834460405968453,1
572,105,20,0.095011306085344,1
572,106,20,0.0892340941073675,1
573,104,20,0.0748510502438205,1
573,105,20,0.0808134701811085,1
573,106,20,0.0718073599570921,1
574,104,20,0.0725631385543535,1
574,105,20,0.0757908798726519,1
575,104,20,0.0748293111983546,1
575,105,20,0.0798684094972738,1
575,106,20,0.0755384643636239,1
576,104,20,0.0728261467942623,1
576,105,20,0.0808122386128676,1
576,106,20,0.0815779070763066,1
576,107,20,0.0740080355628225,1
577,105,20,0.0725823584829629,1
577,106,20,0.0753091811893849,1
557,96,21,0.0727103607194846,1
557,97,21,0.0837572603793597,1
557,98,21,0.081550893435546,1
557,104,21,0.072975788555584,1
557,105,21,0.078133988211465,1
557,109,21,0.0748120381427727,1
557,110,21,0.0716237194482691,1
558,96,21,0.0784205144287435,1
558,97,21,0.0925225741320965,1
558,98,21,0.0892310587270564,1
558,99,21,0.0723073580028085,1
558,104,21,0.0926879401586364,1
558,105,21,0.0994243758552191,1
558,106,21,0.0842475489401054,1
558,107,21,0.0749721357940595,1
558,108,21,0.0798133496888434,1
558,109,21,0.0835682084343264,1
558,110,21,0.0780817647420139,1
558,111,21,0.0742618257010487,1
558,112,21,0.0728364907234783,1
559,96,21,0.0749838730125987,1
559,97,21,0.0890372111299332,1
559,98,21,0.087044502615806,1
559,99,21,0.0754581076459202,1
559,104,21,0.0962819050875051,1
559,105,21,0.104759417514431,1
559,106,21,0.0917318015806744,1
559,107,21,0.0818894192007772,1
559,108,21,0.0838502748817624,1
559,109,21,0.086312360176705,1
559,110,21,0.0811727024648966,1
559,111,21,0.0803787950124975,1
559,112,21,0.0793410805886741,1
559,113,21,0.0737535301198097,1
560,97,21,0.0800292597735968,1
560,98,21,0.0846712332951719,1
560,99,21,0.0793749549353429,1
560,104,21,0.0835749447394021,1
560,105,21,0.0915728919573372,1
560,106,21,0.0905835632372847,1
560,107,21,0.0851234489811546,1
560,108,21,0.0835494923290883,1
560,109,21,0.0839279507615274,1
560,110,21,0.0797362522729492,1
560,111,21,0.0815294840522859,1
560,112,21,0.0801081423414363,1
560,113,21,0.0717388586387183,1
561,97,21,0.0758972736845817,1
561,98,21,0.08841264431067,1
561,99,21,0.0863487723003552,1
561,103,21,0.0748022913375523,1
561,104,21,0.0800294401548038,1
561,105,21,0.0844910324693655,1
561,106,21,0.0887995993199635,1
561,107,21,0.0840661227660996,1
561,108,21,0.0772682268382584,1
561,109,21,0.0742325604052212,1
561,111,21,0.0731842283703505,1
561,112,21,0.0724449453234683,1
562,97,21,0.0766869204084703,1
562,98,21,0.0888661102250185,1
562,99,21,0.0882501768235254,1
562,100,21,0.072323505230857,1
562,102,21,0.0785943832521795,1
562,103,21,0.0853631693852338,1
562,104,21,0.0829190600105764,1
562,105,21,0.0826868098764841,1
562,106,21,0.0887459141407313,1
562,107,21,0.0850399573624738,1
562,108,21,0.0730056571954488,1
563,97,21,0.0736494439433214,1
563,98,21,0.0801860670228661,1
563,99,21,0.0802914469680117,1
563,102,21,0.0841210208534479,1
563,103,21,0.0910553782744157,1
563,104,21,0.0862842331484941,1
563,105,21,0.085062480133184,1
563,106,21,0.0924150233924251,1
563,107,21,0.092529920001251,1
563,108,21,0.0778611336456699,1
564,99,21,0.0717078268510704,1
564,102,21,0.0800688814387236,1
564,103,21,0.0869270682299987,1
564,104,21,0.0862492516344168,1
564,105,21,0.0866743852591809,1
564,106,21,0.0906784686323403,1
564,107,21,0.0885691156776917,1
564,108,21,0.0750396978861485,1
564,113,21,0.0735678494373351,1
564,114,21,0.0804357021732894,1
565,103,21,0.0761707129342892,1
565,104,21,0.0810931108123123,1
565,105,21,0.0856193977797756,1
565,106,21,0.0874559770291701,1
565,107,21,0.0772210416025203,1
565,113,21,0.0782051143874029,1
565,114,21,0.0861634897005443,1
565,115,21,0.0730223642272432,1
566,103,21,0.072613402710694,1
566,104,21,0.0784840148336538,1
566,105,21,0.0853709755374683,1
566,106,21,0.096177321307687,1
566,107,21,0.0805622302599469,1
566,113,21,0.0729101422363144,1
566,114,21,0.0824889130322655,1
566,115,21,0.0741573725421047,1
567,103,21,0.0770146170812391,1
567,104,21,0.0819343838816565,1
567,105,21,0.0914501456559854,1
567,106,21,0.114064469158802,1
567,107,21,0.0973850730093079,1
568,103,21,0.0797277059357617,1
568,104,21,0.0860212186885437,1
568,105,21,0.0927776829191464,1
568,106,21,0.111956148731062,1
568,107,21,0.0989710530018278,1
569,103,21,0.0749090707920627,1
569,104,21,0.0895833805446034,1
569,105,21,0.105866802624453,1
569,106,21,0.126285146652963,1
569,107,21,0.111501886651386,1
569,108,21,0.0748125979465186,1
570,103,21,0.0746278378302039,1
570,104,21,0.101090339362945,1
570,105,21,0.129898493231523,1
570,106,21,0.148408279688999,1
570,107,21,0.119913995340666,1
570,108,21,0.0738221185187662,1
571,101,21,0.0742018085194462,1
571,102,21,0.0749626813307954,1
571,103,21,0.0807017706736759,1
571,104,21,0.107746001599036,1
571,105,21,0.127468198569306,1
571,106,21,0.124264889574496,1
571,107,21,0.0928266719669546,1
572,101,21,0.0755800266817364,1
572,102,21,0.0765807380779556,1
572,103,21,0.0790163881960083,1
572,104,21,0.0965162886958733,1
572,105,21,0.10258747850099,1
572,106,21,0.0890584650121526,1
573,103,21,0.0732168213884453,1
573,104,21,0.0840725418490527,1
573,105,21,0.0866152762036551,1
573,106,21,0.075246396089261,1
574,103,21,0.0713970486915111,1
574,104,21,0.0816965916904798,1
574,105,21,0.0861048782483482,1
574,106,21,0.0785639796887354,1
575,104,21,0.0808456340163315,1
575,105,21,0.088990585697941,1
575,106,21,0.0874858518890765,1
575,107,21,0.0801347889997413,1
576,104,21,0.076344718598641,1
576,105,21,0.0871849760357781,1
576,106,21,0.0911289364866274,1
576,107,21,0.0849482055285202,1
577,105,21,0.0783705737145672,1
577,106,21,0.0825267682055719,1
577,107,21,0.0778473438133958,1
578,106,21,0.0730884832696761,1
556,97,22,0.0719378564303039,1
557,96,22,0.0744763673766455,1
557,97,22,0.0842822878725596,1
557,98,22,0.0834833235263225,1
557,105,22,0.073750899042204,1
557,108,22,0.0726234729580787,1
557,109,22,0.0767190096031938,1
558,96,22,0.0762494711012962,1
558,97,22,0.0904583226992428,1
558,98,22,0.0902150693115228,1
558,99,22,0.0748264002188759,1
558,104,22,0.0879757361471169,1
558,105,22,0.0926682848271136,1
558,106,22,0.0791344508060194,1
558,107,22,0.0741093102804981,1
558,108,22,0.0813184007198305,1
558,109,22,0.0858346298799923,1
558,110,22,0.0764651386044265,1
559,97,22,0.0855552878107863,1
559,98,22,0.0863036272382689,1
559,99,22,0.0757137948968409,1
559,104,22,0.0911241905948705,1
559,105,22,0.0954636834924089,1
559,106,22,0.0842760491708136,1
559,107,22,0.0783452083848362,1
559,108,22,0.0821442667460791,1
559,109,22,0.08576912662168,1
559,110,22,0.0796429703087567,1
559,111,22,0.0777660229892409,1
559,112,22,0.0765337332234246,1
560,97,22,0.0777217176327734,1
560,98,22,0.083931011022005,1
560,99,22,0.0792523952352397,1
560,104,22,0.0788267080267712,1
560,105,22,0.0835819982666005,1
560,106,22,0.0837674612476184,1
560,107,22,0.0800139149309174,1
560,108,22,0.0778422744794746,1
560,109,22,0.07868132699396,1
560,110,22,0.0767312755252707,1
560,111,22,0.0772622991385934,1
560,112,22,0.0747665385383139,1
561,97,22,0.0784950305273649,1
561,98,22,0.0936500313164299,1
561,99,22,0.0907847069432296,1
561,103,22,0.0737889843570503,1
561,104,22,0.0755293706627738,1
561,105,22,0.0776073248473188,1
561,106,22,0.08188402020465,1
561,107,22,0.0779368564323659,1
562,96,22,0.072405137057093,1
562,97,22,0.0839199642280858,1
562,98,22,0.0997050738934984,1
562,99,22,0.0976660136292105,1
562,100,22,0.0738864710693786,1
562,102,22,0.0781586382364097,1
562,103,22,0.0837182358382286,1
562,104,22,0.0789693522412691,1
562,105,22,0.0770150898044023,1
562,106,22,0.0818177954215096,1
562,107,22,0.0775023305447537,1
563,96,22,0.0727546163156191,1
563,97,22,0.0818658079227833,1
563,98,22,0.0916711312947017,1
563,99,22,0.0906687342672032,1
563,100,22,0.0726204748980173,1
563,102,22,0.0817485352580581,1
563,103,22,0.0867409086043192,1
563,104,22,0.0806223096419657,1
563,105,22,0.0784212919339461,1
563,106,22,0.084366227334237,1
563,107,22,0.0818685323010134,1
564,97,22,0.0744189812726488,1
564,98,22,0.0794635656482778,1
564,99,22,0.0795408994257536,1
564,102,22,0.0754925106961268,1
564,103,22,0.0791985980952583,1
564,104,22,0.0776971920086612,1
564,105,22,0.07784290892372,1
564,106,22,0.0797872130739513,1
564,107,22,0.0756683512727568,1
564,114,22,0.0741499520324507,1
565,104,22,0.073684568518356,1
565,105,22,0.0772610551302692,1
565,106,22,0.0776335485427936,1
565,114,22,0.0778800736724063,1
566,103,22,0.0757661489871662,1
566,104,22,0.0793719879754896,1
566,105,22,0.0826363653389366,1
566,106,22,0.0923152539248218,1
566,107,22,0.0745381697101933,1
567,102,22,0.0718681048835643,1
567,103,22,0.0879207447591443,1
567,104,22,0.0932168987181409,1
567,105,22,0.0935438303257903,1
567,106,22,0.111928805428096,1
567,107,22,0.0932459214323452,1
568,103,22,0.0891768946046194,1
568,104,22,0.0972165658617492,1
568,105,22,0.0919388543261594,1
568,106,22,0.103042039142664,1
568,107,22,0.0933260169083008,1
569,103,22,0.0776310916263532,1
569,104,22,0.0958713512403009,1
569,105,22,0.105428028448414,1
569,106,22,0.115518155086081,1
569,107,22,0.10615693024583,1
570,103,22,0.0775754222538439,1
570,104,22,0.112488945056247,1
570,105,22,0.141848026671335,1
570,106,22,0.145305038723789,1
570,107,22,0.116421429530305,1
571,101,22,0.0858964944139563,1
571,102,22,0.08548462813797,1
571,103,22,0.0860743440640299,1
571,104,22,0.119664584111741,1
571,105,22,0.139899922075673,1
571,106,22,0.12250684457061,1
571,107,22,0.088128195587293,1
572,101,22,0.0833513031429135,1
572,102,22,0.0858031191491396,1
572,103,22,0.0848043235257397,1
572,104,22,0.102489052562377,1
572,105,22,0.10626359151955,1
572,106,22,0.0888583787132834,1
573,102,22,0.0760394265157915,1
573,103,22,0.0794918606176125,1
573,104,22,0.0878915478837746,1
573,105,22,0.0894892091144591,1
573,106,22,0.080955678992693,1
574,103,22,0.0763117648181321,1
574,104,22,0.0845145753269015,1
574,105,22,0.0911487224390243,1
574,106,22,0.0885945680880054,1
574,107,22,0.0792873456491089,1
575,104,22,0.0809907600274363,1
575,105,22,0.0915942578003059,1
575,106,22,0.0943430683538587,1
575,107,22,0.0879361207020318,1
575,108,22,0.0732762787663019,1
576,104,22,0.0772641713711214,1
576,105,22,0.0884025429630772,1
576,106,22,0.0934531172387874,1
576,107,22,0.0881592460350658,1
576,108,22,0.072410784854885,1
577,105,22,0.0807213575847409,1
577,106,22,0.0846119562985223,1
577,107,22,0.0793506345726042,1
578,106,22,0.0763787671064751,1
557,108,23,0.0724383582993915,1
557,109,23,0.0764279489755736,1
558,104,23,0.0761153856640691,1
558,105,23,0.0793207099523648,1
558,108,23,0.0775015343794262,1
558,109,23,0.0821371199182564,1
558,110,23,0.0742436445193901,1
559,104,23,0.0787991345822647,1
559,105,23,0.0811380443929835,1
559,106,23,0.0752280096462289,1
559,107,23,0.0716388154892837,1
559,108,23,0.0755121162673167,1
559,109,23,0.0794874257279366,1
559,110,23,0.0751225177403341,1
559,111,23,0.0727514627545171,1
559,112,23,0.0729198268411185,1
560,104,23,0.0714597778112604,1
560,105,23,0.0742485085919378,1
560,106,23,0.0763409927937099,1
560,107,23,0.0728120583999904,1
561,104,23,0.0715914560923802,1
561,105,23,0.0723098335793737,1
561,106,23,0.0764937196956757,1
561,107,23,0.0724010007294149,1
562,106,23,0.0757547289907497,1
563,106,23,0.0778787239233746,1
563,107,23,0.0729036422928203,1
564,106,23,0.074052701681704,1
565,106,23,0.0742765174393579,1
566,106,23,0.0894321464526266,1
566,107,23,0.0714667380378345,1
567,106,23,0.106007537286173,1
567,107,23,0.0862209193448324,1
568,106,23,0.0990681851717837,1
568,107,23,0.0887538509138399,1
569,106,23,0.108839571996617,1
569,107,23,0.100503733457696,1
570,106,23,0.133674394377811,1
570,107,23,0.107545293296004,1
571,106,23,0.111282891425989,1
571,107,23,0.0817879765419778,1
557,109,24,0.0733896887851804,1
558,109,24,0.0760723305359674,1
558,110,24,0.0717415830169484,1
559,109,24,0.072136860441931,1
580,105,25,0.134240306204586,1
580,106,25,0.131438923859251,1
580,107,25,0.1275874989676,1
581,105,25,0.144324175480383,1
581,106,25,0.159704895359838,1
581,107,25,0.180034429634081,1
581,108,25,0.139861681259786,1
582,106,25,0.166674041473593,1
582,107,25,0.213492804799424,1
582,108,25,0.1770662755328,1
582,109,25,0.128940308259868,1
583,106,25,0.113962348515466,1
583,107,25,0.141702502577567,1
583,108,25,0.136300632791177,1
583,110,25,0.148812445553458,1
583,111,25,0.16174182214985,1
584,111,25,0.167753977539941,1
556,97,26,0.0717247142640718,1
557,97,26,0.0743769711115395,1
557,98,26,0.0729049174013526,1
558,97,26,0.0729109508417251,1
558,98,26,0.0788485217127366,1
558,99,26,0.0827270162255233,1
559,97,26,0.0762009112363599,1
559,98,26,0.0856731949197569,1
559,99,26,0.0930647067397545,1
560,97,26,0.0810412729854416,1
560,98,26,0.0834030601092431,1
560,99,26,0.0832686387897684,1
561,97,26,0.0826189927626887,1
561,98,26,0.0871741158431076,1
561,99,26,0.0822240698800785,1
562,97,26,0.0827373352745727,1
562,98,26,0.0950175261269652,1
562,99,26,0.0885898532964566,1
563,97,26,0.0755209425063771,1
563,98,26,0.0800618652317749,1
563,99,26,0.0719413769738614,1
564,97,26,0.0719944339288899,1
565,97,26,0.0754317533295714,1
565,98,26,0.0752090136391179,1
566,97,26,0.0747690203349208,1
566,98,26,0.0766416198453435,1
566,104,26,0.077971004460866,1
566,105,26,0.0752493941493224,1
567,99,26,0.075407065984377,1
567,100,26,0.0741406779503935,1
567,104,26,0.0804828003284448,1
567,105,26,0.0812656920871328,1
568,99,26,0.0816644527354233,1
568,100,26,0.0849197985984364,1
568,104,26,0.076955545345963,1
568,105,26,0.0810560580243751,1
568,106,26,0.0729498074417325,1
569,99,26,0.0731104275765155,1
569,100,26,0.0799917218224132,1
569,101,26,0.075507382815643,1
569,102,26,0.0735759790317339,1
569,103,26,0.0762035734141738,1
569,104,26,0.0764466091004371,1
569,105,26,0.0792428163711431,1
569,106,26,0.0782854586650234,1
570,100,26,0.0722585493362073,1
570,101,26,0.0766761037560911,1
570,102,26,0.0818498908362748,1
570,103,26,0.0868026487374507,1
570,104,26,0.082983704903145,1
570,105,26,0.0874472378706924,1
570,106,26,0.096045580826151,1
570,107,26,0.0772249477886584,1
571,100,26,0.0755811027489369,1
571,101,26,0.0842659478232208,1
571,102,26,0.0898402247232656,1
571,103,26,0.0920784196200548,1
571,104,26,0.0853203754988803,1
571,105,26,0.0940509627592461,1
571,106,26,0.113349127052119,1
571,107,26,0.0919753659704755,1
572,100,26,0.0867320388249674,1
572,101,26,0.100088968642314,1
572,102,26,0.100374151330603,1
572,103,26,0.0940955480175866,1
572,104,26,0.0837751554391037,1
572,105,26,0.0904652207254007,1
572,106,26,0.110984889231919,1
572,107,26,0.0965538328670986,1
573,100,26,0.0842670052302964,1
573,101,26,0.0992226599054451,1
573,102,26,0.0964447457771468,1
573,103,26,0.0883148030559692,1
573,104,26,0.0805058331425679,1
573,105,26,0.0849972878769527,1
573,106,26,0.100798544770414,1
573,107,26,0.0960398210676098,1
574,101,26,0.0787458972460292,1
574,102,26,0.0797149237502302,1
574,103,26,0.0787638482861479,1
574,104,26,0.0786706409624549,1
574,105,26,0.0824824815092293,1
574,106,26,0.0894138657503021,1
574,107,26,0.0826869778176079,1
575,103,26,0.0723574666581085,1
575,104,26,0.0772628402822145,1
575,105,26,0.082473866751584,1
575,106,26,0.0848281338450655,1
575,107,26,0.0733493829154753,1
576,104,26,0.0757029844645034,1
576,105,26,0.0824674725487974,1
576,106,26,0.0863895819934316,1
576,107,26,0.0733757310117825,1
577,100,26,0.0719559878516295,1
577,104,26,0.0720482683891209,1
577,105,26,0.0780342498440699,1
577,106,26,0.0806851134022144,1
578,99,26,0.0730418080773509,1
578,100,26,0.0836595248653665,1
578,101,26,0.0856612399997611,1
578,102,26,0.0756265401529794,1
578,103,26,0.0728201195739314,1
578,104,26,0.0779174996628408,1
578,105,26,0.0811322162139845,1
578,106,26,0.0778523509469009,1
579,100,26,0.090622519357958,1
579,101,26,0.102377073153072,1
579,102,26,0.0936507901615077,1
579,103,26,0.094227002377208,1
579,104,26,0.103614239431519,1
579,105,26,0.111396444505824,1
579,106,26,0.109508823594887,1
579,107,26,0.101144080522552,1
579,108,26,0.0775992387932113,1
580,100,26,0.0794950950392554,1
580,101,26,0.0935904868579906,1
580,102,26,0.0970246464775286,1
580,103,26,0.109753619552929,1
580,104,26,0.131964517376239,1
580,105,26,0.155673300742588,1
580,106,26,0.165520472554534,1
580,107,26,0.161859082374492,1
580,108,26,0.113931024385862,1
580,109,26,0.0844426529856361,1
580,110,26,0.0822614398901383,1
580,111,26,0.0797682108467987,1
581,101,26,0.0727371566587885,1
581,102,26,0.0816412208799683,1
581,103,26,0.0949906679872451,1
581,104,26,0.11903657138942,1
581,105,26,0.150460072378485,1
581,106,26,0.178846837087355,1
581,107,26,0.206381157532128,1
581,108,26,0.155960119301823,1
581,109,26,0.113109568369122,1
581,110,26,0.11249394596971,1
581,111,26,0.112640714071803,1
581,112,26,0.0934825566957803,1
582,102,26,0.0726556181331768,1
582,103,26,0.0763447745790155,1
582,104,26,0.0886655014426531,1
582,105,26,0.114113445766527,1
582,106,26,0.156755936307,1
582,107,26,0.212323934577977,1
582,108,26,0.181456107227179,1
582,109,26,0.137836846230686,1
582,110,26,0.140328756625202,1
582,111,26,0.142636640868315,1
582,112,26,0.113777787440483,1
582,113,26,0.0789129551238901,1
583,102,26,0.0732275260800753,1
583,105,26,0.0823838876294924,1
583,106,26,0.101022037085904,1
583,107,26,0.128688272173379,1
583,108,26,0.129283355995358,1
583,109,26,0.134445940780582,1
583,110,26,0.165392887060801,1
583,111,26,0.167228222301871,1
583,112,26,0.13006058751617,1
583,113,26,0.0896649874906729,1
584,106,26,0.0718686771273934,1
584,107,26,0.0761885271334922,1
584,108,26,0.0852725495988552,1
584,109,26,0.108241589635243,1
584,110,26,0.147400769787288,1
584,111,26,0.159498825380929,1
584,112,26,0.142776554484541,1
584,113,26,0.109521064636797,1
584,114,26,0.0773781598538707,1
585,107,26,0.0732578861032282,1
585,108,26,0.0786452258723909,1
585,109,26,0.0793827051072028,1
585,110,26,0.0883289909709071,1
585,111,26,0.10275268902649,1
585,112,26,0.115299495742931,1
585,113,26,0.0996871228533798,1
585,114,26,0.0767046226469241,1
586,107,26,0.0875773673614486,1
586,108,26,0.0931425816608514,1
557,109,27,0.0713850875514736,1
558,98,27,0.0730901191406224,1
558,99,27,0.0759063860455567,1
559,97,27,0.078884405132849,1
559,98,27,0.0829970095721726,1
559,99,27,0.0857861695357219,1
560,97,27,0.0848923993150952,1
560,98,27,0.0825617310595244,1
560,99,27,0.0774102303884693,1
561,97,27,0.0795999960411962,1
561,98,27,0.0793853610649751,1
561,99,27,0.0738950547268158,1
562,97,27,0.0753410402425685,1
562,98,27,0.0786763012003301,1
562,99,27,0.0743722065596577,1
563,97,27,0.0714710734068444,1
565,97,27,0.0726459210882894,1
565,98,27,0.0745720191766956,1
566,98,27,0.0748894963210809,1
568,99,27,0.0719421482590225,1
568,100,27,0.0739228707529456,1
569,100,27,0.0715924015387066,1
569,101,27,0.0740681709252158,1
569,102,27,0.075610193883599,1
569,103,27,0.0762219287569978,1
569,104,27,0.0723507490131576,1
570,101,27,0.0746475615821845,1
570,102,27,0.0813375584480236,1
570,103,27,0.0852667587401059,1
570,104,27,0.0764151170297092,1
570,105,27,0.0749865662906206,1
570,106,27,0.0860891104428386,1
570,107,27,0.0726165687118792,1
571,100,27,0.0754271691588966,1
571,101,27,0.0847137410596108,1
571,102,27,0.088082503161544,1
571,103,27,0.0889511506340629,1
571,104,27,0.078114811823147,1
571,105,27,0.0868354656770439,1
571,106,27,0.118504247787398,1
571,107,27,0.0989461044148854,1
572,100,27,0.087930124581909,1
572,101,27,0.102192580498547,1
572,102,27,0.0988656170763077,1
572,103,27,0.0913644459225291,1
572,104,27,0.0787617334719967,1
572,105,27,0.086538359168968,1
572,106,27,0.114284297869777,1
572,107,27,0.0986186067834484,1
573,100,27,0.0789456165624428,1
573,101,27,0.0929880696069403,1
573,102,27,0.0911274934369713,1
573,103,27,0.0845745987285457,1
573,104,27,0.0771196549240955,1
573,105,27,0.0808775241697232,1
573,106,27,0.0938469142938642,1
573,107,27,0.0872667136027217,1
574,101,27,0.0716012588779752,1
574,102,27,0.0748592544787188,1
574,103,27,0.0755244692699763,1
574,104,27,0.0758299603941576,1
574,105,27,0.0780470444696846,1
574,106,27,0.0809076664914193,1
574,107,27,0.0737845308072496,1
575,103,27,0.0732599698171713,1
575,104,27,0.0753753375520675,1
575,105,27,0.0767407299885349,1
575,106,27,0.0763854412111346,1
576,103,27,0.0720402445354296,1
576,104,27,0.0749143827076071,1
576,105,27,0.0771112827480735,1
576,106,27,0.0769713940120137,1
577,100,27,0.0736192643013755,1
577,101,27,0.0739718100404209,1
577,104,27,0.0736102017007335,1
577,105,27,0.0762705446023087,1
577,106,27,0.074479216155708,1
578,100,27,0.0832718607713281,1
578,101,27,0.0877435855336906,1
578,102,27,0.0802446473748541,1
578,103,27,0.0780988387562639,1
578,104,27,0.0822021691135304,1
578,105,27,0.0842046493130443,1
578,106,27,0.0798400958678143,1
579,100,27,0.0846988565000114,1
579,101,27,0.0964447208969804,1
579,102,27,0.0924739271865774,1
579,103,27,0.0954556907389257,1
579,104,27,0.10542214428904,1
579,105,27,0.116929532290254,1
579,106,27,0.12505110283541,1
579,107,27,0.112447221017052,1
579,108,27,0.0831467570742019,1
580,101,27,0.0805012240917267,1
580,102,27,0.0861894894745207,1
580,103,27,0.0999723864022091,1
580,104,27,0.123078901798507,1
580,105,27,0.159149843725733,1
580,106,27,0.196635471919274,1
580,107,27,0.187098257221393,1
580,108,27,0.125237094519965,1
580,109,27,0.093357913281734,1
580,110,27,0.0877080068956176,1
580,111,27,0.0778988208778525,1
581,102,27,0.0736482621354133,1
581,103,27,0.0833693039433651,1
581,104,27,0.104157920829541,1
581,105,27,0.141641732770928,1
581,106,27,0.191897604016025,1
581,107,27,0.211792942064862,1
581,108,27,0.160691481041536,1
581,109,27,0.128384684381933,1
581,110,27,0.123649615497415,1
581,111,27,0.110812332837265,1
581,112,27,0.0886223654540104,1
582,102,27,0.0717469135926177,1
582,103,27,0.0730412918138964,1
582,104,27,0.082461519968966,1
582,105,27,0.102073242780003,1
582,106,27,0.13930593298102,1
582,107,27,0.180553255745785,1
582,108,27,0.166390992259581,1
582,109,27,0.150233314541144,1
582,110,27,0.153896209971259,1
582,111,27,0.14285363324031,1
582,112,27,0.114065626086543,1
582,113,27,0.0776711611344767,1
583,101,27,0.0765418130574904,1
583,102,27,0.0743183596593434,1
583,105,27,0.0768680293603534,1
583,106,27,0.0884068596719623,1
583,107,27,0.107737567222597,1
583,108,27,0.11685270233615,1
583,109,27,0.139511579997098,1
583,110,27,0.17468112593267,1
583,111,27,0.167244083408005,1
583,112,27,0.133102511311079,1
583,113,27,0.0970927559332802,1
584,102,27,0.0761522642908409,1
584,108,27,0.0780893283126252,1
584,109,27,0.103886571513818,1
584,110,27,0.140488188732035,1
584,111,27,0.140850953999464,1
584,112,27,0.127377734283968,1
584,113,27,0.114183359034349,1
584,114,27,0.0867287795231579,1
585,107,27,0.0722656775039051,1
585,108,27,0.0771726247985413,1
585,109,27,0.0746632298670282,1
585,110,27,0.0779503228224756,1
585,111,27,0.0802569941574721,1
585,112,27,0.0867896488504625,1
585,113,27,0.0887305879581768,1
585,114,27,0.0757587533576786,1
586,106,27,0.0779881344554906,1
586,107,27,0.0908635584108609,1
586,108,27,0.100691852396486,1
586,109,27,0.076154609246532,1
587,107,27,0.0917382828640437,1
587,108,27,0.0942892525537525,1
556,109,28,0.0716837552899965,1
559,97,28,0.0794197205748903,1
559,98,28,0.0809375662314922,1
559,99,28,0.0738089258104877,1
560,97,28,0.0821417973895555,1
560,98,28,0.0801462276562826,1
561,97,28,0.0729459447958857,1
569,101,28,0.071977111112975,1
569,102,28,0.0764211504700817,1
569,103,28,0.0740965654152163,1
570,97,28,0.0720662816296558,1
570,101,28,0.0740223416585511,1
570,102,28,0.0813128462226628,1
570,103,28,0.0804253271438654,1
570,106,28,0.0741707456315902,1
571,100,28,0.076391723453172,1
571,101,28,0.0875410174382145,1
571,102,28,0.0906861628238256,1
571,103,28,0.0853960671853681,1
571,104,28,0.0720889225811568,1
571,105,28,0.0780936201413438,1
571,106,28,0.10764706561701,1
571,107,28,0.094999108583725,1
572,100,28,0.08489061416315,1
572,101,28,0.0999753284818959,1
572,102,28,0.0989308031124973,1
572,103,28,0.0891680061651428,1
572,104,28,0.0758625036519195,1
572,105,28,0.0821209975703743,1
572,106,28,0.106314782462092,1
572,107,28,0.0936078594342385,1
573,100,28,0.0721194132251837,1
573,101,28,0.0831628607619591,1
573,102,28,0.0852048942061419,1
573,103,28,0.0815739138095858,1
573,104,28,0.0761649096354567,1
573,105,28,0.0793460379618461,1
573,106,28,0.0881055421957088,1
573,107,28,0.0806657877328975,1
574,102,28,0.0722570627462598,1
574,103,28,0.0738964044758476,1
574,104,28,0.0743378159495344,1
574,105,28,0.0755312180151352,1
574,106,28,0.0763202240747369,1
575,102,28,0.073386640964786,1
575,103,28,0.075818017914245,1
575,104,28,0.0756751248980822,1
575,105,28,0.0728492604689265,1
576,101,28,0.0747819082611598,1
576,102,28,0.0748149366821681,1
576,103,28,0.0782572632163547,1
576,104,28,0.0794134507729362,1
576,105,28,0.0753943708794283,1
577,100,28,0.0746994553894298,1
577,101,28,0.0785206135585527,1
577,102,28,0.0768917525990965,1
577,103,28,0.0796148806007956,1
577,104,28,0.082443935911303,1
577,105,28,0.0807055835591896,1
577,106,28,0.0719354119539467,1
578,100,28,0.081322661448341,1
578,101,28,0.0887615264452004,1
578,102,28,0.0879293346366231,1
578,103,28,0.0898347573066806,1
578,104,28,0.09234966319507,1
578,105,28,0.0919927509868066,1
578,106,28,0.0846826346314635,1
579,100,28,0.0772930759045349,1
579,101,28,0.0880826462225013,1
579,102,28,0.0907473182730448,1
579,103,28,0.0969149871437476,1
579,104,28,0.105392014407427,1
579,105,28,0.115989012236803,1
579,106,28,0.128975028532197,1
579,107,28,0.110262145275708,1
579,108,28,0.0819747270716113,1
580,101,28,0.0716467336022674,1
580,102,28,0.0775912771399362,1
580,103,28,0.0892004188020306,1
580,104,28,0.108095344016646,1
580,105,28,0.145065716402374,1
580,106,28,0.197883436189975,1
580,107,28,0.179009901698495,1
580,108,28,0.123572312820147,1
580,109,28,0.102904812584418,1
580,110,28,0.0907653501737045,1
580,111,28,0.0741922669755994,1
581,103,28,0.0760815113174002,1
581,104,28,0.0916192996878726,1
581,105,28,0.126859194294179,1
581,106,28,0.184101179926574,1
581,107,28,0.186686602426822,1
581,108,28,0.151736599080311,1
581,109,28,0.148153544104446,1
581,110,28,0.132399323165724,1
581,111,28,0.104534264447829,1
581,112,28,0.081730870339854,1
582,104,28,0.077554815255953,1
582,105,28,0.0914555757523206,1
582,106,28,0.118247894992024,1
582,107,28,0.137324289920937,1
582,108,28,0.144605308921576,1
582,109,28,0.169164110735789,1
582,110,28,0.167247342709815,1
582,111,28,0.141057670862702,1
582,112,28,0.11406695717545,1
582,113,28,0.076824756530795,1
583,101,28,0.0759775993020773,1
583,102,28,0.0733398040513788,1
583,105,28,0.0722445729026845,1
583,106,28,0.0775211710508242,1
583,107,28,0.0870892309351037,1
583,108,28,0.10285191113043,1
583,109,28,0.139837821180128,1
583,110,28,0.168242673770032,1
583,111,28,0.160356755721735,1
583,112,28,0.13646961888194,1
583,113,28,0.101691755187295,1
584,101,28,0.0808938020186457,1
584,102,28,0.0739459408873185,1
584,108,28,0.0721573616991143,1
584,109,28,0.0932243689881279,1
584,110,28,0.118782333408197,1
584,111,28,0.118806616450686,1
584,112,28,0.111930136517003,1
584,113,28,0.107331684626651,1
584,114,28,0.0850272684775667,1
585,104,28,0.0757341344329421,1
585,105,28,0.0731234523436702,1
585,108,28,0.0741585045896798,1
585,113,28,0.0745103847842716,1
586,105,28,0.0925754071656265,1
586,106,28,0.0825540057678309,1
586,107,28,0.0888596351616909,1
586,108,28,0.0970833387902657,1
587,106,28,0.0982343823724266,1
587,107,28,0.0930371643954561,1
587,108,28,0.0921991008675884,1
559,97,29,0.0740536346879471,1
559,98,29,0.0787266959775447,1
560,97,29,0.0717571269009596,1
560,98,29,0.074494747599636,1
564,110,29,0.0721533497722687,1
569,102,29,0.07431266832126,1
570,96,29,0.0715265810582716,1
570,97,29,0.0731676768395966,1
570,101,29,0.0770457172893449,1
570,102,29,0.0832025010872107,1
570,103,29,0.0765679185721744,1
571,100,29,0.0771730850816212,1
571,101,29,0.0911583510634539,1
571,102,29,0.0966785944619357,1
571,103,29,0.0858128348541518,1
571,106,29,0.0865650182673562,1
571,107,29,0.0809178486995531,1
572,100,29,0.0812911320573634,1
572,101,29,0.0944919512701026,1
572,102,29,0.0979900093772147,1
572,103,29,0.0884663916903183,1
572,104,29,0.0754869624190007,1
572,105,29,0.0766380930817443,1
572,106,29,0.0890145017579743,1
572,107,29,0.080911529137266,1
573,100,29,0.0741406903904768,1
573,101,29,0.0786128505557527,1
573,102,29,0.0804373691444439,1
573,103,29,0.0782398968601484,1
573,104,29,0.074374352474017,1
573,105,29,0.0750383419170751,1
573,106,29,0.0792925082836545,1
573,107,29,0.0728158339652545,1
574,101,29,0.0725500204865745,1
574,102,29,0.0733815280905734,1
574,103,29,0.0731012530151243,1
574,104,29,0.0725767044651292,1
575,101,29,0.0760944241238058,1
575,102,29,0.0772468858754562,1
575,103,29,0.0778704699281433,1
575,104,29,0.0766961322901112,1
576,101,29,0.0780474238922235,1
576,102,29,0.0790631131486664,1
576,103,29,0.083855928899596,1
576,104,29,0.0864099090894495,1
576,105,29,0.0776440728532166,1
577,100,29,0.0763153848823556,1
577,101,29,0.0841819586012104,1
577,102,29,0.0857203863755366,1
577,103,29,0.0926338195764908,1
577,104,29,0.0962219003459858,1
577,105,29,0.0901349365153175,1
577,106,29,0.075926066257246,1
578,100,29,0.080157106509078,1
578,101,29,0.0902496278627699,1
578,102,29,0.0948422018137898,1
578,103,29,0.101702957482254,1
578,104,29,0.102774577352955,1
578,105,29,0.101105945447373,1
578,106,29,0.0919780903487056,1
578,107,29,0.0754390369983098,1
579,100,29,0.072229526622003,1
579,101,29,0.0819946063246325,1
579,102,29,0.088431820698988,1
579,103,29,0.0954493214163056,1
579,104,29,0.100891242050694,1
579,105,29,0.112179199423597,1
579,106,29,0.125700064657911,1
579,107,29,0.106757064741605,1
579,108,29,0.0841762112827524,1
579,109,29,0.073775953369854,1
579,126,29,0.0732644544671801,1
579,127,29,0.0769652175106839,1
580,102,29,0.0732431072843363,1
580,103,29,0.0805796028361948,1
580,104,29,0.0939173189449741,1
580,105,29,0.126619834652514,1
580,106,29,0.175602724619509,1
580,107,29,0.154113077942422,1
580,108,29,0.118958049583994,1
580,109,29,0.113379381334565,1
580,110,29,0.0978936422723782,1
580,111,29,0.0776444709358803,1
580,126,29,0.0863591659899041,1
580,127,29,0.089685065785026,1
580,128,29,0.0875118827632611,1
581,103,29,0.0738363437539538,1
581,104,29,0.0851646878571028,1
581,105,29,0.114063784954223,1
581,106,29,0.161867417230264,1
581,107,29,0.151241869409848,1
581,108,29,0.13697764700139,1
581,109,29,0.158794442987584,1
581,110,29,0.14096999315601,1
581,111,29,0.107975794816688,1
581,112,29,0.0815773037322694,1
581,126,29,0.0768867143653834,1
582,103,29,0.0713828172362819,1
582,104,29,0.0762059681301979,1
582,105,29,0.0856422315525668,1
582,106,29,0.103210247728225,1
582,107,29,0.106390231566956,1
582,108,29,0.124682689770189,1
582,109,29,0.172350712698805,1
582,110,29,0.167622510740236,1
582,111,29,0.139039018554973,1
582,112,29,0.114014708825833,1
582,113,29,0.0755308634727628,1
583,101,29,0.0724581691319549,1
583,106,29,0.0718656666272488,1
583,107,29,0.075063676146598,1
583,108,29,0.0905855412105203,1
583,109,29,0.12700031459848,1
583,110,29,0.142967746123892,1
583,111,29,0.14288686070265,1
583,112,29,0.132476451681826,1
583,113,29,0.096479304328394,1
584,109,29,0.0803007459302353,1
584,110,29,0.0916812388623361,1
584,111,29,0.0967976895988559,1
584,112,29,0.0981512079758685,1
584,113,29,0.0899787761503768,1
584,114,29,0.0723812085569764,1
585,105,29,0.0752357162777975,1
586,106,29,0.0894948817924176,1
586,107,29,0.0838088494045655,1
586,108,29,0.0823145403854581,1
563,110,30,0.0754663243209018,1
564,109,30,0.0795965314780132,1
564,110,30,0.0829347220753784,1
569,102,30,0.0718459366552265,1
570,100,30,0.0718963438725243,1
570,101,30,0.0808479354317313,1
570,102,30,0.0853534288000551,1
570,103,30,0.0747915368855894,1
571,100,30,0.0771340729805734,1
571,101,30,0.0900255695234927,1
571,102,30,0.0979782223983426,1
571,103,30,0.0859969667462628,1
572,99,30,0.0718993916929186,1
572,100,30,0.0836120472876722,1
572,101,30,0.0891935456560392,1
572,102,30,0.0928734217997792,1
572,103,30,0.0848039192230343,1
572,104,30,0.074393889624749,1
573,99,30,0.0823326718067838,1
573,100,30,0.0881438825322615,1
573,101,30,0.0829724466278107,1
573,102,30,0.0785653045576006,1
573,103,30,0.0744819343138965,1
574,99,30,0.0795072552206248,1
574,100,30,0.0835549037652987,1
574,101,30,0.0816458796911426,1
574,102,30,0.0768457740514329,1
574,103,30,0.0729109384016419,1
575,100,30,0.071944126232258,1
575,101,30,0.0795978998871699,1
575,102,30,0.0800488342445786,1
575,103,30,0.0788450136092623,1
575,104,30,0.0767575676412034,1
576,101,30,0.0785690863429063,1
576,102,30,0.0816500284589039,1
576,103,30,0.0868804987783811,1
576,104,30,0.0897472164409045,1
576,105,30,0.0773331329725751,1
577,100,30,0.0721646764680608,1
577,101,30,0.0837084952530498,1
577,102,30,0.0883965655030793,1
577,103,30,0.0981293507496118,1
577,104,30,0.102499377831468,1
577,105,30,0.0915106293407095,1
577,106,30,0.0755414126633523,1
578,100,30,0.0718612441776561,1
578,101,30,0.0832291228653492,1
578,102,30,0.0902024053067821,1
578,103,30,0.0998779537303168,1
578,104,30,0.101664853507283,1
578,105,30,0.0985404519604786,1
578,106,30,0.09026988653833,1
578,107,30,0.076188956316364,1
578,127,30,0.0717209075985997,1
579,102,30,0.0771404734034015,1
579,103,30,0.0833027370579355,1
579,104,30,0.0879596697796095,1
579,105,30,0.0994507923719841,1
579,106,30,0.110244032514507,1
579,107,30,0.0973882638906595,1
579,108,30,0.0841796945060603,1
579,109,30,0.0779956171655609,1
579,125,30,0.0728875510451463,1
579,126,30,0.0936627948418365,1
579,127,30,0.0956806758644044,1
580,104,30,0.0783172866179988,1
580,105,30,0.103418021998538,1
580,106,30,0.134773376211602,1
580,107,30,0.12127999112117,1
580,108,30,0.107434439714232,1
580,109,30,0.113868886170066,1
580,110,30,0.102822620954437,1
580,111,30,0.0810378084222587,1
580,125,30,0.0878529338653905,1
580,126,30,0.103875008456444,1
581,104,30,0.074362366453813,1
581,105,30,0.0957559819083117,1
581,106,30,0.124665895657812,1
581,107,30,0.11486696648868,1
581,108,30,0.115817351528142,1
581,109,30,0.149719986946234,1
581,110,30,0.145032376979284,1
581,111,30,0.114319652586351,1
581,112,30,0.077600457921369,1
582,105,30,0.0766261008414987,1
582,106,30,0.0863991981777779,1
582,107,30,0.0845867962301647,1
582,108,30,0.102569334639582,1
582,109,30,0.150124874335521,1
582,110,30,0.15346638021507,1
582,111,30,0.132158868796733,1
582,112,30,0.103848044576017,1
583,108,30,0.0757470161391395,1
583,109,30,0.100736462534993,1
583,110,30,0.109893520729072,1
583,111,30,0.116433521291217,1
583,112,30,0.113552435332548,1
583,113,30,0.0813391818788868,1
584,111,30,0.0732947025295838,1
584,112,30,0.0796935205870118,1
563,109,31,0.0810696488153173,1
563,110,31,0.0792703338352751,1
564,109,31,0.0944205451922918,1
564,110,31,0.086468054038524,1
565,109,31,0.0780003692773594,1
570,100,31,0.0734536556932123,1
570,101,31,0.0815549178024748,1
570,102,31,0.0836159410337271,1
570,103,31,0.0733141152794834,1
571,100,31,0.075260926106488,1
571,101,31,0.0837335184804917,1
571,102,31,0.0896816074418846,1
571,103,31,0.0808073372200701,1
572,99,31,0.0788024249842822,1
572,100,31,0.0914295386580945,1
572,101,31,0.089314108722782,1
572,102,31,0.0860657541865511,1
572,103,31,0.0772938409696543,1
573,98,31,0.0728338534258309,1
573,99,31,0.0938181341612832,1
573,100,31,0.108449164864224,1
573,101,31,0.097997212185412,1
573,102,31,0.0842135439725626,1
573,103,31,0.0725493611621626,1
574,99,31,0.0812016443185598,1
574,100,31,0.0917305326921837,1
574,101,31,0.0896895006747018,1
574,102,31,0.0827244349082505,1
574,103,31,0.0744897529062143,1
574,114,31,0.0714518410381518,1
575,101,31,0.0788592637246163,1
575,102,31,0.0819941398215109,1
575,103,31,0.0806588399464067,1
575,104,31,0.0771863524303992,1
576,101,31,0.0771078617251818,1
576,102,31,0.0829209509032292,1
576,103,31,0.0884751370688377,1
576,104,31,0.0912227720345241,1
576,105,31,0.0775314652197072,1
577,101,31,0.0807836886218265,1
577,102,31,0.0868585606915833,1
577,103,31,0.0968894600929344,1
577,104,31,0.102928884145492,1
577,105,31,0.0900774944309461,1
577,106,31,0.0751954539483838,1
578,101,31,0.075470162086582,1
578,102,31,0.081428526556733,1
578,103,31,0.0904486878547717,1
578,104,31,0.0951007627239395,1
578,105,31,0.0911384718104327,1
578,106,31,0.084496294624577,1
578,107,31,0.0755525962981871,1
578,126,31,0.0755786022922052,1
578,127,31,0.0828848560017016,1
578,128,31,0.0718512361306877,1
579,103,31,0.0726802494979966,1
579,104,31,0.0782387523724901,1
579,105,31,0.0860387778660402,1
579,106,31,0.0914695273056769,1
579,107,31,0.085044485552774,1
579,108,31,0.0809697549468816,1
579,109,31,0.0789671814467433,1
579,125,31,0.0777762300775412,1
579,126,31,0.106739101261404,1
579,127,31,0.106493123495453,1
580,105,31,0.08308163945847,1
580,106,31,0.0972879532794352,1
580,107,31,0.0927583696899127,1
580,108,31,0.09304278109304,1
580,125,31,0.0939091458102839,1
581,105,31,0.0775693701533465,1
581,106,31,0.0912122601641844,1
581,107,31,0.0889818278793384,1
581,109,31,0.126198426832681,1
581,110,31,0.143847931773618,1
582,109,31,0.115665594952669,1
582,110,31,0.133394442744526,1
559,109,32,0.0721149721154662,1
562,109,32,0.0792448565447949,1
563,109,32,0.0993306895883213,1
563,110,32,0.0804224037243034,1
564,108,32,0.0750959021822372,1
564,109,32,0.102406294908608,1
564,110,32,0.0805845539893252,1
565,109,32,0.0786848537575592,1
571,102,32,0.0775039975159082,1
571,103,32,0.0714466535234398,1
572,101,32,0.0972289188644088,1
572,102,32,0.0818857991365537,1
573,100,32,0.115048330462269,1
573,101,32,0.109709793139666,1
573,102,32,0.0884701361553743,1
574,100,32,0.0877198311947395,1
574,101,32,0.0898428433607881,1
574,102,32,0.0839019945278423,1
574,103,32,0.0732255854270895,1
574,114,32,0.0803779677469619,1
575,101,32,0.0747081323474913,1
575,102,32,0.0807543611255827,1
575,103,32,0.0801166762385405,1
575,104,32,0.0747428899400703,1
576,101,32,0.0751114585063317,1
576,102,32,0.0835016664290633,1
576,103,32,0.088468071101556,1
576,104,32,0.0878299134913506,1
576,105,32,0.0749246893165734,1
577,101,32,0.0748398044085695,1
577,102,32,0.0825057382448507,1
577,103,32,0.0903470648147653,1
577,104,32,0.093908026202792,1
577,105,32,0.0828640250823124,1
577,106,32,0.0721250610229757,1
578,103,32,0.0774355210777009,1
578,104,32,0.0819132668403527,1
578,105,32,0.0783323080185139,1
578,106,32,0.074019667040654,1
578,126,32,0.0769398148607031,1
578,127,32,0.0856113055056265,1
579,125,32,0.0735077824953996,1
559,109,33,0.0776409814925308,1
560,109,33,0.0721121357764869,1
561,109,33,0.0770768548177004,1
562,108,33,0.0731755451922474,1
562,109,33,0.100827362223245,1
562,110,33,0.073721559105877,1
563,108,33,0.081605057557983,1
563,109,33,0.113349338533535,1
563,110,33,0.0784078255438363,1
564,108,33,0.0760906920988331,1
564,109,33,0.0985594728477561,1
565,109,33,0.0724640906115783,1
572,114,33,0.0776031387593078,1
573,114,33,0.0781196821157364,1
574,111,33,0.0731808508877502,1
574,112,33,0.0766452523496502,1
574,113,33,0.0727161702383587,1
574,114,33,0.0773845229564491,1
575,102,33,0.0842912198523276,1
575,103,33,0.08272312869951,1
575,104,33,0.074225338936899,1
575,112,33,0.0772384203988098,1
575,113,33,0.0757115245816492,1
576,101,33,0.0758849020217972,1
576,102,33,0.0864894572017424,1
576,103,33,0.0885730902842876,1
576,104,33,0.0836138013394094,1
576,105,33,0.0733854404967531,1
577,102,33,0.0806460266606671,1
577,103,33,0.0842128286677762,1
577,104,33,0.0833721091821363,1
577,105,33,0.0758518114003727,1
558,108,34,0.0729949773839853,1
559,108,34,0.0720982713037134,1
559,109,34,0.0762995237762217,1
560,109,34,0.0737569324825765,1
561,109,34,0.0871001471081489,1
562,108,34,0.0842557282948373,1
562,109,34,0.114336533779311,1
562,110,34,0.0760039660585093,1
563,108,34,0.0870051048721776,1
563,109,34,0.115392472925084,1
563,110,34,0.0736802953497623,1
564,108,34,0.0724959061244704,1
564,109,34,0.0884092419479032,1
566,99,34,0.072704887082858,1
567,97,34,0.0721337566411621,1
567,98,34,0.0817248679996896,1
567,99,34,0.0860744187045294,1
567,100,34,0.0713446448408529,1
568,98,34,0.0770716984031965,1
568,99,34,0.0806074686226576,1
568,100,34,0.0726891068372651,1
569,98,34,0.0750881022500443,1
569,99,34,0.0753768054818901,1
570,98,34,0.075180065565413,1
570,99,34,0.0724967893703807,1
571,100,34,0.0753944330798445,1
571,101,34,0.0782517709196032,1
571,113,34,0.077295700762099,1
572,99,34,0.0734205650717878,1
572,100,34,0.0968546838402305,1
572,101,34,0.111070352603794,1
572,102,34,0.0843329190113558,1
572,113,34,0.0850357774945044,1
572,114,34,0.0930278840933573,1
573,100,34,0.0920448313953006,1
573,101,34,0.107300037054882,1
573,102,34,0.0891079578833321,1
573,103,34,0.0714810565736464,1
573,111,34,0.0795060920728416,1
573,112,34,0.0748885073344631,1
573,113,34,0.0749491340801445,1
573,114,34,0.0841547583592011,1
573,115,34,0.0724998309707334,1
574,100,34,0.072570123661094,1
574,101,34,0.0829142767985697,1
574,102,34,0.0828242914564365,1
574,103,34,0.0750469069143874,1
574,111,34,0.0889381569671163,1
574,112,34,0.0942498112698328,1
574,113,34,0.0826656306347641,1
574,114,34,0.0726264088177239,1
575,101,34,0.0749091516526037,1
575,102,34,0.0832382912066988,1
575,103,34,0.081100997825088,1
575,104,34,0.0721528335088141,1
575,111,34,0.073448605019416,1
575,112,34,0.0890883274319758,1
575,113,34,0.0851262666600089,1
576,101,34,0.0715314575709026,1
576,102,34,0.082428814990122,1
576,103,34,0.0831605593465592,1
576,104,34,0.0764727457153292,1
577,102,34,0.0717744186166664,1
577,103,34,0.0737788767894159,1
558,108,35,0.0736584070232974,1
559,109,35,0.0714120389918181,1
560,109,35,0.0767121426772441,1
561,108,35,0.0802152825583606,1
561,109,35,0.0942218210825376,1
562,108,35,0.0927112342145076,1
562,109,35,0.114823140075417,1
562,110,35,0.0755569938676133,1
563,108,35,0.087430711220105,1
563,109,35,0.106649370940977,1
564,109,35,0.0796490348493374,1
566,98,35,0.0755751439490638,1
566,99,35,0.0816413515008424,1
567,98,35,0.0884057027442207,1
567,99,35,0.0983514248956118,1
567,100,35,0.0793105215241894,1
568,98,35,0.0830343422619828,1
568,99,35,0.0880292222850172,1
568,100,35,0.0759514253669355,1
569,98,35,0.0817923305711126,1
569,99,35,0.0794751722459429,1
570,98,35,0.0771154999362926,1
570,99,35,0.0741772144748762,1
571,100,35,0.0714060055514456,1
571,101,35,0.0756891884121877,1
571,112,35,0.0737450459830385,1
571,113,35,0.0835223916077449,1
572,100,35,0.0829957344636403,1
572,101,35,0.097299547437017,1
572,102,35,0.0829972770339624,1
572,111,35,0.0777422002298319,1
572,112,35,0.0775522774789716,1
572,113,35,0.0925371974499478,1
572,114,35,0.0947524777134046,1
573,100,35,0.0798323145957463,1
573,101,35,0.0920189373620317,1
573,102,35,0.0845968415973829,1
573,103,35,0.0730975396502765,1
573,110,35,0.073294254686587,1
573,111,35,0.0981739733282019,1
573,112,35,0.0911931708564491,1
573,113,35,0.0889801049278093,1
573,114,35,0.087007841690491,1
573,115,35,0.0746756575101873,1
574,101,35,0.0787507799787018,1
574,102,35,0.0814396231109851,1
574,103,35,0.0775014348587603,1
574,110,35,0.0722641411536247,1
574,111,35,0.100521765358356,1
574,112,35,0.10665387425111,1
574,113,35,0.0979813510792781,1
574,114,35,0.0763024347557004,1
575,101,35,0.0746824560156792,1
575,102,35,0.0823216312329062,1
575,103,35,0.0813115711141305,1
575,104,35,0.0729827052418667,1
575,111,35,0.0788390050490562,1
575,112,35,0.0935644622038477,1
575,113,35,0.0913393418345462,1
576,102,35,0.0773935482368414,1
576,103,35,0.0785428750875148,1
576,104,35,0.0723651110892608,1
560,109,36,0.0769856876676591,1
561,107,36,0.0740570494907971,1
561,109,36,0.0947945811751382,1
562,107,36,0.0781798485783378,1
562,109,36,0.106703647024163,1
562,110,36,0.0737894633002551,1
563,108,36,0.087590429448853,1
563,109,36,0.0943335268100119,1
564,109,36,0.0736463650227189,1
566,98,36,0.0762578619374432,1
566,99,36,0.0867681834868279,1
566,100,36,0.0719787221037548,1
567,98,36,0.0895566592457989,1
567,99,36,0.10590918598806,1
567,100,36,0.0868882924905324,1
568,98,36,0.086561951786837,1
568,99,36,0.0945033961466856,1
568,100,36,0.0789058829365669,1
569,98,36,0.0836220428945574,1
569,99,36,0.0819701802211862,1
570,98,36,0.0732266925944981,1
570,99,36,0.071795703599094,1
570,112,36,0.0754443053735629,1
571,101,36,0.0737197988340982,1
571,102,36,0.0740686187682125,1
571,111,36,0.07830823645744,1
571,112,36,0.0853298237421028,1
571,113,36,0.0862493200548746,1
572,101,36,0.0831449532621318,1
572,102,36,0.0842133884715221,1
572,110,36,0.0764686093876511,1
572,111,36,0.096224015160137,1
572,112,36,0.0951901758222435,1
572,113,36,0.0974235750669428,1
572,114,36,0.0906934651526889,1
573,100,36,0.072054587951408,1
573,101,36,0.0818960000048124,1
573,102,36,0.0845267355082709,1
573,103,36,0.0773908736189443,1
573,110,36,0.0848783358009898,1
573,111,36,0.112147900174159,1
573,112,36,0.109205534365439,1
573,113,36,0.106121202326758,1
573,114,36,0.0934514378275497,1
573,115,36,0.0761837936818185,1
574,104,36,0.0754706348097452,1
574,110,36,0.079074875247372,1
574,111,36,0.102278566353917,1
574,112,36,0.111507783250843,1
574,113,36,0.110305100883143,1
574,114,36,0.0845625940482168,1
575,104,36,0.0764376584605442,1
575,107,36,0.0733243099277005,1
575,108,36,0.0783927730431131,1
575,109,36,0.0741680523535682,1
575,111,36,0.0814062774678541,1
575,112,36,0.0920371372038152,1
575,113,36,0.0896588669697177,1
576,108,36,0.0792414604020697,1
576,109,36,0.0747808943943756,1
576,111,36,0.073106036227131,1
576,112,36,0.0745852118849741,1
577,111,36,0.0747810934357074,1
