x,y,z,signal,mito.p
555,101,37,0.0757229507981073,1
555,102,37,0.0769184552377761,1
556,101,37,0.0808725170362181,1
556,102,37,0.0864200850775417,1
556,103,37,0.0726704467124016,1
557,101,37,0.0787005718027359,1
557,102,37,0.0901335618861192,1
557,103,37,0.0745852865254735,1
557,107,37,0.073258234425559,1
558,102,37,0.0738146171485711,1
559,108,37,0.0728911337891201,1
560,107,37,0.0767671340652167,1
560,108,37,0.0854922414689143,1
560,109,37,0.0790912339568356,1
561,107,37,0.0845181767310002,1
561,108,37,0.0989393121294351,1
561,109,37,0.0917939273563865,1
562,107,37,0.085121701149459,1
562,108,37,0.102351104479303,1
562,109,37,0.0979626971744562,1
562,110,37,0.0747918478876704,1
563,108,37,0.085064893509333,1
563,109,37,0.0860016939778949,1
564,109,37,0.0735042992720918,1
566,98,37,0.0733480456065268,1
566,99,37,0.0879619338747596,1
566,100,37,0.0771177702514843,1
567,98,37,0.088990455077067,1
567,99,37,0.108872077934129,1
567,100,37,0.0903807525601854,1
568,98,37,0.0900820039611215,1
568,99,37,0.101927351703779,1
568,100,37,0.0810270726304206,1
568,111,37,0.0713742211387615,1
569,98,37,0.082229232514624,1
569,99,37,0.0853283620323218,1
569,111,37,0.0753568702484943,1
569,112,37,0.0730505285757038,1
570,111,37,0.0832359649111325,1
570,112,37,0.0840422004860247,1
571,101,37,0.0735022342182735,1
571,102,37,0.0792887575985569,1
571,110,37,0.0788000986887159,1
571,111,37,0.0994627908322713,1
571,112,37,0.100305326570065,1
571,113,37,0.0852848030808489,1
572,101,37,0.0786770040650333,1
572,102,37,0.0885651721713039,1
572,103,37,0.0760139119050616,1
572,110,37,0.0908847127724145,1
572,111,37,0.117714439342427,1
572,112,37,0.119091432156518,1
572,113,37,0.105633401782661,1
572,114,37,0.0857846767257329,1
573,101,37,0.0827204292014465,1
573,102,37,0.0905486314835403,1
573,103,37,0.0853031522036313,1
573,104,37,0.0755850213751582,1
573,109,37,0.0744181166868634,1
573,110,37,0.0970766335853981,1
573,111,37,0.121703874517569,1
573,112,37,0.129852029520613,1
573,113,37,0.127194118655312,1
573,114,37,0.10088907747621,1
573,115,37,0.0743072879852577,1
574,100,37,0.0725080041054236,1
574,104,37,0.0846167457305706,1
574,105,37,0.0747138547857828,1
574,106,37,0.075403159798239,1
574,107,37,0.0845866718293323,1
574,108,37,0.0849566025847088,1
574,109,37,0.0821051551243653,1
574,110,37,0.0874436675668019,1
574,111,37,0.100147859996383,1
574,112,37,0.112444036355742,1
574,113,37,0.115922047268709,1
574,114,37,0.0885057583337386,1
575,104,37,0.0811627255181363,1
575,105,37,0.0738350562053382,1
575,106,37,0.0751983089474879,1
575,107,37,0.0898155498181545,1
575,108,37,0.0995370643492695,1
575,109,37,0.0901491430903802,1
575,110,37,0.079835586337639,1
575,111,37,0.083940023862314,1
575,112,37,0.0878493449013751,1
575,113,37,0.0819613291019593,1
576,107,37,0.0795882090623241,1
576,108,37,0.0940244902621065,1
576,109,37,0.088634127552716,1
576,110,37,0.0816367362299595,1
576,111,37,0.0905801733146012,1
576,112,37,0.0839238206538909,1
577,108,37,0.0745641881442946,1
577,109,37,0.0764544401328381,1
577,110,37,0.0805245368077227,1
577,111,37,0.0934479110639505,1
577,112,37,0.0811471567539585,1
555,101,38,0.0793716085529507,1
555,102,38,0.0813018802892847,1
556,101,38,0.0844530839954348,1
556,102,38,0.0909343051642599,1
556,103,38,0.0722604899891931,1
557,101,38,0.0817436400853022,1
557,102,38,0.0925524489920029,1
557,103,38,0.0729408381417148,1
558,101,38,0.0725676045442375,1
558,102,38,0.0752598749194541,1
559,107,38,0.0734918840690159,1
559,108,38,0.0753068611138603,1
560,107,38,0.0829318173159413,1
560,108,38,0.0895337383924249,1
560,109,38,0.0790983932247416,1
561,106,38,0.0731938321146135,1
561,107,38,0.0891629181710967,1
561,108,38,0.0992604031180022,1
561,109,38,0.0873260341396626,1
562,107,38,0.0841400790609752,1
562,108,38,0.0962484972439578,1
562,109,38,0.0890451976633747,1
562,110,38,0.075204168226695,1
563,108,38,0.0784171431661848,1
563,109,38,0.078995787418159,1
563,110,38,0.0726096582456381,1
564,109,38,0.0722478446445773,1
564,110,38,0.0718232521634341,1
565,109,38,0.0729675781006441,1
565,110,38,0.0756516318008791,1
565,111,38,0.0741914148298973,1
566,99,38,0.0841094142557829,1
566,100,38,0.0767495500075537,1
566,110,38,0.0763055509965526,1
566,111,38,0.0793473690507531,1
567,98,38,0.0868528258132086,1
567,99,38,0.106005969835685,1
567,100,38,0.0877385597400607,1
567,110,38,0.0731137117584915,1
567,111,38,0.0781679558587582,1
567,112,38,0.0734895266732415,1
568,98,38,0.08776940492646,1
568,99,38,0.101376647878767,1
568,100,38,0.0794106704143315,1
568,110,38,0.0733402207941674,1
568,111,38,0.0782526044051804,1
568,112,38,0.0766630105684786,1
569,98,38,0.0766558575206143,1
569,99,38,0.0826958538170013,1
569,110,38,0.0765460115855847,1
569,111,38,0.0833458481664118,1
569,112,38,0.081371358154193,1
570,110,38,0.082161900564075,1
570,111,38,0.0979576900409512,1
570,112,38,0.0952864931667471,1
570,113,38,0.0744221845940837,1
571,101,38,0.0717168832316708,1
571,102,38,0.0803154687687525,1
571,110,38,0.0931497036085076,1
571,111,38,0.121561597285527,1
571,112,38,0.119809137879016,1
571,113,38,0.0911868948344533,1
572,101,38,0.0791862513126403,1
572,102,38,0.0931385697340057,1
572,103,38,0.0821778052105003,1
572,109,38,0.0770995393094927,1
572,110,38,0.104031722405089,1
572,111,38,0.13644145453348,1
572,112,38,0.146296973641281,1
572,113,38,0.123202046182523,1
572,114,38,0.089386317185962,1
573,101,38,0.0862046539359931,1
573,102,38,0.0963683201257477,1
573,103,38,0.091252901916137,1
573,104,38,0.0835472531141047,1
573,105,38,0.0756910793048405,1
573,106,38,0.0802949737316108,1
573,107,38,0.0844302875428933,1
573,108,38,0.0836375805585271,1
573,109,38,0.0901010932688568,1
573,110,38,0.106165924426014,1
573,111,38,0.127767544292366,1
573,112,38,0.150595333403579,1
573,113,38,0.146563788546662,1
573,114,38,0.10687306851784,1
573,115,38,0.0724422396053631,1
574,101,38,0.0861922884932502,1
574,102,38,0.0916658380392821,1
574,103,38,0.0909115895722595,1
574,104,38,0.0885913336663624,1
574,105,38,0.0817569509743715,1
574,106,38,0.0897547178110996,1
574,107,38,0.101707896195302,1
574,108,38,0.103057054323138,1
574,109,38,0.0972269097909652,1
574,110,38,0.0945239844844516,1
574,111,38,0.0992154011168732,1
574,112,38,0.112660556004575,1
574,113,38,0.113454519437348,1
574,114,38,0.086350302430594,1
575,101,38,0.074811851541524,1
575,102,38,0.0812148681270464,1
575,103,38,0.0823880674974618,1
575,104,38,0.0798237371583507,1
575,105,38,0.074071958930563,1
575,106,38,0.0816114704208944,1
575,107,38,0.101976794814626,1
575,108,38,0.114490417609018,1
575,109,38,0.103178500635791,1
575,110,38,0.0909592039908694,1
575,111,38,0.0908472121414805,1
575,112,38,0.0872111935112113,1
575,113,38,0.0752684585768913,1
576,103,38,0.071618861595763,1
576,107,38,0.0863248438002386,1
576,108,38,0.101639656118676,1
576,109,38,0.0978933437103804,1
576,110,38,0.096633175718018,1
576,111,38,0.106625548181568,1
576,112,38,0.090159555440054,1
577,108,38,0.0740489945368977,1
577,109,38,0.0767887673699751,1
577,110,38,0.0865494495031785,1
577,111,38,0.101618134774667,1
577,112,38,0.0830859997076465,1
555,101,39,0.0853317395149221,1
555,102,39,0.0855358626208035,1
556,101,39,0.0879835111991434,1
556,102,39,0.0898988797157531,1
557,101,39,0.0835534420555177,1
557,102,39,0.0859324773547347,1
558,100,39,0.0737578219485283,1
558,101,39,0.0794826487359715,1
558,102,39,0.074542001255832,1
559,100,39,0.0767073097049045,1
559,101,39,0.078266518638287,1
559,106,39,0.073534192792123,1
559,107,39,0.0808897216713423,1
559,108,39,0.0810205104865102,1
559,109,39,0.0727252701592505,1
560,100,39,0.0723477882733459,1
560,101,39,0.0745713785124087,1
560,106,39,0.078540704292989,1
560,107,39,0.0915060638301595,1
560,108,39,0.0954916985598706,1
560,109,39,0.0839295555322656,1
561,106,39,0.0785134605106883,1
561,107,39,0.0929500091722605,1
561,108,39,0.0989285825576386,1
561,109,39,0.0876844702581232,1
561,110,39,0.0735938678714364,1
562,107,39,0.0812663203113366,1
562,108,39,0.0887665646789135,1
562,109,39,0.084444954401036,1
562,110,39,0.0775014410788019,1
563,108,39,0.0726545669461428,1
563,109,39,0.0762975333629029,1
563,110,39,0.0788429858756938,1
563,111,39,0.0732656487151714,1
564,109,39,0.0742628582279578,1
564,110,39,0.0833071221872785,1
564,111,39,0.0860986395466022,1
565,109,39,0.0782874490783421,1
565,110,39,0.0886644315954942,1
565,111,39,0.101900941407056,1
565,112,39,0.0797482942735277,1
566,99,39,0.0790393401495903,1
566,100,39,0.0745558781686887,1
566,109,39,0.0796908708492812,1
566,110,39,0.0879026133378187,1
566,111,39,0.104174136478047,1
566,112,39,0.0952567924680061,1
567,98,39,0.0865768301263948,1
567,99,39,0.0983308925382204,1
567,100,39,0.0838284549757554,1
567,109,39,0.0849821358555636,1
567,110,39,0.0870693143618328,1
567,111,39,0.093117583313576,1
567,112,39,0.0945700190124897,1
567,113,39,0.0768443745420682,1
568,98,39,0.0846373651685447,1
568,99,39,0.0948260359256164,1
568,100,39,0.0804919997700025,1
568,109,39,0.0901293260377752,1
568,110,39,0.0922751657565735,1
568,111,39,0.0916164322486853,1
568,112,39,0.092142069305964,1
568,113,39,0.0787586296712277,1
569,98,39,0.0723364055971792,1
569,99,39,0.0779869153273329,1
569,109,39,0.0839330449756151,1
569,110,39,0.0937772809279154,1
569,111,39,0.0992164460838655,1
569,112,39,0.0965871349699383,1
569,113,39,0.0784719479529088,1
570,109,39,0.077993054508413,1
570,110,39,0.102148897146241,1
570,111,39,0.119329336308444,1
570,112,39,0.112718103829654,1
570,113,39,0.0863346092655838,1
571,101,39,0.0751955845692578,1
571,102,39,0.0862360651461799,1
571,103,39,0.0808954752098418,1
571,104,39,0.0720271078075258,1
571,109,39,0.0829527166557884,1
571,110,39,0.116166171462256,1
571,111,39,0.147951280791009,1
571,112,39,0.148038908737368,1
571,113,39,0.117775893353644,1
571,114,39,0.0835243882411053,1
572,101,39,0.0859073172863771,1
572,102,39,0.101483296712403,1
572,103,39,0.0960647385543441,1
572,104,39,0.0870435571694796,1
572,105,39,0.0851127505095662,1
572,106,39,0.0850959128568977,1
572,107,39,0.0853312108113843,1
572,108,39,0.0942376573085051,1
572,109,39,0.100840355890191,1
572,110,39,0.120835905029587,1
572,111,39,0.15492052642543,1
572,112,39,0.1778271110239,1
572,113,39,0.155715995108276,1
572,114,39,0.105168503431813,1
573,100,39,0.0718533447247972,1
573,101,39,0.092162987305936,1
573,102,39,0.102011409346247,1
573,103,39,0.0988700706261084,1
573,104,39,0.0966372685054048,1
573,105,39,0.100541209208464,1
573,106,39,0.111300830026024,1
573,107,39,0.115062636557998,1
573,108,39,0.124512882633931,1
573,109,39,0.120458709265597,1
573,110,39,0.117238543957993,1
573,111,39,0.133911502364409,1
573,112,39,0.163687749730945,1
573,113,39,0.154003020525977,1
573,114,39,0.10564678731223,1
574,101,39,0.0891807572504661,1
574,102,39,0.0929828509920202,1
574,103,39,0.0917978770828159,1
574,104,39,0.092198796085549,1
574,105,39,0.0960177212597298,1
574,106,39,0.116145023320744,1
574,107,39,0.130883660743731,1
574,108,39,0.138161457762811,1
574,109,39,0.1248155622993,1
574,110,39,0.109416020573899,1
574,111,39,0.104761084485586,1
574,112,39,0.111700654301432,1
574,113,39,0.103004669132604,1
574,114,39,0.0786075386402083,1
575,101,39,0.0730350531121504,1
575,102,39,0.0787311122070957,1
575,103,39,0.0804328969345183,1
575,104,39,0.0793577316400939,1
575,105,39,0.0797412842866207,1
575,106,39,0.0989154769299428,1
575,107,39,0.124784661132526,1
575,108,39,0.137155415790922,1
575,109,39,0.125021420796793,1
575,110,39,0.114181928424776,1
575,111,39,0.104835955126579,1
575,112,39,0.092030606160113,1
575,113,39,0.0729891554250279,1
576,106,39,0.0811543782222807,1
576,107,39,0.104388995375767,1
576,108,39,0.114058709400261,1
576,109,39,0.111368441878446,1
576,110,39,0.117255574431952,1
576,111,39,0.118655021596295,1
576,112,39,0.0950563765069309,1
577,107,39,0.0754506498160164,1
577,108,39,0.0778775110152584,1
577,109,39,0.0795259837659461,1
577,110,39,0.091949876239912,1
577,111,39,0.101119175475901,1
577,112,39,0.081728456963705,1
555,101,40,0.0840201628785609,1
555,102,40,0.0804740984902168,1
556,101,40,0.084092452202282,1
556,102,40,0.0790164379563413,1
557,101,40,0.0797836987504353,1
557,102,40,0.0726268628807622,1
558,100,40,0.0834850029375602,1
558,101,40,0.0850664298596135,1
558,107,40,0.0721838093160875,1
559,100,40,0.0907521325852596,1
559,101,40,0.0913840888139687,1
559,106,40,0.0781354437012044,1
559,107,40,0.0860038461122958,1
559,108,40,0.0851756226902728,1
559,109,40,0.0761060431615541,1
560,100,40,0.0837066914409797,1
560,101,40,0.0856020625237774,1
560,106,40,0.0845636141350427,1
560,107,40,0.0977114199330449,1
560,108,40,0.100277174661687,1
560,109,40,0.0892327941186687,1
560,110,40,0.0723419165540556,1
561,106,40,0.0813641491259541,1
561,107,40,0.0953360606784261,1
561,108,40,0.0991357223837062,1
561,109,40,0.0896002181972718,1
561,110,40,0.0760178305312829,1
562,107,40,0.0791504052127776,1
562,108,40,0.0831335021655072,1
562,109,40,0.0809859457152215,1
562,110,40,0.0803470105998134,1
562,111,40,0.0803897609458756,1
563,109,40,0.0750725023856584,1
563,110,40,0.0875751716867563,1
563,111,40,0.0948923913296308,1
563,112,40,0.0789478868776345,1
564,108,40,0.0721406608873615,1
564,109,40,0.0777294491445085,1
564,110,40,0.0973812103634611,1
564,111,40,0.117085456293613,1
564,112,40,0.0961152079720582,1
564,113,40,0.071693352814218,1
565,108,40,0.0821550771784166,1
565,109,40,0.0863755557995759,1
565,110,40,0.104028220521656,1
565,111,40,0.137044052165737,1
565,112,40,0.121840640792735,1
565,113,40,0.0900760265011235,1
566,99,40,0.0726566631001691,1
566,107,40,0.0720854828981403,1
566,108,40,0.0891766769031626,1
566,109,40,0.0995604765859315,1
566,110,40,0.104882854240403,1
566,111,40,0.131880882696601,1
566,112,40,0.133567098659846,1
566,113,40,0.104859728125655,1
566,114,40,0.0752422286613749,1
567,98,40,0.0849493935564698,1
567,99,40,0.0874682367312054,1
567,100,40,0.0796309531883447,1
567,107,40,0.0718522064571806,1
567,108,40,0.0964202574732844,1
567,109,40,0.118670036776768,1
567,110,40,0.110799482231276,1
567,111,40,0.112181612799746,1
567,112,40,0.117977609303418,1
567,113,40,0.101929671779304,1
567,114,40,0.0789309248241336,1
568,98,40,0.083242819396999,1
568,99,40,0.0849937237931038,1
568,100,40,0.0804698502017896,1
568,108,40,0.0928251107365077,1
568,109,40,0.120090084718961,1
568,110,40,0.116863388367655,1
568,111,40,0.107967260919583,1
568,112,40,0.107824697565627,1
568,113,40,0.0939916422223052,1
568,114,40,0.0777229181008063,1
568,118,40,0.0741211345796199,1
569,99,40,0.0719775029755971,1
569,100,40,0.072852109247989,1
569,108,40,0.0790785077516787,1
569,109,40,0.10165294834762,1
569,110,40,0.117785658818989,1
569,111,40,0.118257374335454,1
569,112,40,0.11295643094441,1
569,113,40,0.0905854354698127,1
569,114,40,0.0728869228209426,1
569,117,40,0.0720842326697744,1
569,118,40,0.0788545551531091,1
570,102,40,0.0741769345730032,1
570,103,40,0.0762317066624262,1
570,104,40,0.075575386530687,1
570,108,40,0.0713626954016375,1
570,109,40,0.0919744889446069,1
570,110,40,0.128490810732074,1
570,111,40,0.142081153831296,1
570,112,40,0.136685516526611,1
570,113,40,0.111764919771462,1
570,114,40,0.080794449293831,1
571,101,40,0.0805662608469174,1
571,102,40,0.0953962333610691,1
571,103,40,0.10167765435294,1
571,104,40,0.101693403498324,1
571,105,40,0.0940536871374762,1
571,106,40,0.0817240593942788,1
571,107,40,0.078334572113664,1
571,108,40,0.088270279998045,1
571,109,40,0.102096723437123,1
571,110,40,0.140912644372263,1
571,111,40,0.171901538613175,1
571,112,40,0.189610793273925,1
571,113,40,0.172284543896039,1
571,114,40,0.111516628150028,1
572,100,40,0.0728240941805273,1
572,101,40,0.0911001376939215,1
572,102,40,0.108839609316867,1
572,103,40,0.112803181558948,1
572,104,40,0.11563133496342,1
572,105,40,0.121477489882725,1
572,106,40,0.114502994533176,1
572,107,40,0.113951463442629,1
572,108,40,0.134876392540932,1
572,109,40,0.128745708037708,1
572,110,40,0.134963000400465,1
572,111,40,0.165852212254357,1
572,112,40,0.207806206387784,1
572,113,40,0.195840687441006,1
572,114,40,0.122078084661581,1
572,115,40,0.0735010959506569,1
573,100,40,0.0746454778682414,1
573,101,40,0.0966067218810033,1
573,102,40,0.109466091908949,1
573,103,40,0.108819294660932,1
573,104,40,0.112420213596333,1
573,105,40,0.129685208004334,1
573,106,40,0.143204530668326,1
573,107,40,0.150901259930673,1
573,108,40,0.175245793751121,1
573,109,40,0.156207913319927,1
573,110,40,0.133390126035641,1
573,111,40,0.140394490025054,1
573,112,40,0.165625417096766,1
573,113,40,0.148538602001045,1
573,114,40,0.0979109526482099,1
574,101,40,0.091074368061485,1
574,102,40,0.0979077679868998,1
574,103,40,0.0957144133701576,1
574,104,40,0.0954380009405551,1
574,105,40,0.108826621869962,1
574,106,40,0.138886416053839,1
574,107,40,0.160464461962447,1
574,108,40,0.172689232243995,1
574,109,40,0.155959323136496,1
574,110,40,0.134730992847996,1
574,111,40,0.120547183137616,1
574,112,40,0.113425496723144,1
574,113,40,0.0922350340480338,1
575,102,40,0.0774578261469544,1
575,103,40,0.0789103178262428,1
575,104,40,0.0782580904818903,1
575,105,40,0.0851552582740051,1
575,106,40,0.115851897639306,1
575,107,40,0.149360418780198,1
575,108,40,0.154210720155791,1
575,109,40,0.146360903229063,1
575,110,40,0.141281555040814,1
575,111,40,0.123122417209689,1
575,112,40,0.098944879066686,1
575,113,40,0.0726358446208632,1
576,106,40,0.093062268483439,1
576,107,40,0.122254559682456,1
576,108,40,0.119806052738372,1
576,109,40,0.118300317502807,1
576,110,40,0.128102804535746,1
576,111,40,0.120290419819495,1
576,112,40,0.094182591280033,1
577,107,40,0.081273324078202,1
577,108,40,0.0778304564003944,1
577,109,40,0.0782783926977417,1
577,110,40,0.0889311967405422,1
577,111,40,0.0915327167085062,1
577,112,40,0.0764044247781624,1
555,101,41,0.076522823270421,1
555,102,41,0.0716479900506749,1
556,101,41,0.0781307973301134,1
557,100,41,0.0763804216375464,1
557,101,41,0.078654369333574,1
558,99,41,0.0747797125864675,1
558,100,41,0.09423970992224,1
558,101,41,0.0913716051904351,1
558,107,41,0.0721918767100701,1
559,99,41,0.0783674885739231,1
559,100,41,0.10341499905831,1
559,101,41,0.100800783985398,1
559,106,41,0.079135278071555,1
559,107,41,0.0869975848418577,1
559,108,41,0.0862108926377391,1
559,109,41,0.0763442769756859,1
560,100,41,0.090052950146709,1
560,101,41,0.0887784947187429,1
560,106,41,0.0853913150735695,1
560,107,41,0.0973528718538352,1
560,108,41,0.10020137101445,1
560,109,41,0.0899652164596427,1
560,110,41,0.0742193365967346,1
561,106,41,0.0788427619541954,1
561,107,41,0.0918646803298271,1
561,108,41,0.0963095780526776,1
561,109,41,0.0888103226717184,1
561,110,41,0.0792759194326509,1
561,111,41,0.0815274625387591,1
561,112,41,0.0842728769495868,1
562,107,41,0.0752014625085898,1
562,108,41,0.0791033070576223,1
562,109,41,0.0788235980059606,1
562,110,41,0.0854494227023943,1
562,111,41,0.0953533897143826,1
562,112,41,0.0923560760579814,1
562,113,41,0.0722336318494729,1
563,109,41,0.0754401503857599,1
563,110,41,0.0956980795408604,1
563,111,41,0.115558199714038,1
563,112,41,0.108859923972802,1
563,113,41,0.0827818521124553,1
564,108,41,0.0768104753152329,1
564,109,41,0.0811998467265313,1
564,110,41,0.107920212524761,1
564,111,41,0.144761096084019,1
564,112,41,0.14508718798605,1
564,113,41,0.112870146527041,1
564,114,41,0.0842608536091331,1
565,107,41,0.0842487805083464,1
565,108,41,0.0980161522121484,1
565,109,41,0.100547541210834,1
565,110,41,0.12011939355508,1
565,111,41,0.162512435546378,1
565,112,41,0.170003256550899,1
565,113,41,0.14155671724205,1
565,114,41,0.110939047525171,1
565,115,41,0.0754690611392151,1
566,106,41,0.0752928224799213,1
566,107,41,0.0970895090715539,1
566,108,41,0.126038907645265,1
566,109,41,0.132323438657946,1
566,110,41,0.132235114066925,1
566,111,41,0.154910076755507,1
566,112,41,0.163679402435089,1
566,113,41,0.143273635330737,1
566,114,41,0.114494112313741,1
566,115,41,0.078351465746707,1
567,98,41,0.0773034882542087,1
567,99,41,0.0757968822128163,1
567,100,41,0.0749708233652775,1
567,106,41,0.0718876109340882,1
567,107,41,0.095471464764477,1
567,108,41,0.134642680697059,1
567,109,41,0.153588715993675,1
567,110,41,0.14261218366466,1
567,111,41,0.137029422627844,1
567,112,41,0.136713469393656,1
567,113,41,0.123620406181962,1
567,114,41,0.102409467129835,1
567,115,41,0.072772940558235,1
567,118,41,0.0790040911737233,1
567,119,41,0.0731555166582272,1
568,98,41,0.0818620758978106,1
568,99,41,0.0772991217849907,1
568,100,41,0.0792002837265377,1
568,101,41,0.0735500974385483,1
568,107,41,0.0795701460614563,1
568,108,41,0.109979867346857,1
568,109,41,0.13733427930778,1
568,110,41,0.139490245254338,1
568,111,41,0.126974986588999,1
568,112,41,0.12050108018912,1
568,113,41,0.106558048289895,1
568,114,41,0.0902532479269934,1
568,117,41,0.0898747770544711,1
568,118,41,0.112692850460672,1
568,119,41,0.0899020954772712,1
569,100,41,0.0744404093160337,1
569,101,41,0.0740784028936826,1
569,102,41,0.0726574903657048,1
569,103,41,0.0745057757334304,1
569,104,41,0.0732953867341621,1
569,108,41,0.0848271946187807,1
569,109,41,0.112463766327765,1
569,110,41,0.140094596938332,1
569,111,41,0.137374249295238,1
569,112,41,0.126257529668165,1
569,113,41,0.102932765451464,1
569,114,41,0.082083372538608,1
569,117,41,0.0919266257243322,1
569,118,41,0.105275637428695,1
569,119,41,0.0839305693990499,1
570,101,41,0.0770019717366233,1
570,102,41,0.0861202417511524,1
570,103,41,0.103429112332749,1
570,104,41,0.112681840987002,1
570,105,41,0.0923986335827534,1
570,106,41,0.0737714562797619,1
570,108,41,0.0804460212223389,1
570,109,41,0.106710775191861,1
570,110,41,0.152881273339852,1
570,111,41,0.168782635583164,1
570,112,41,0.172259141246059,1
570,113,41,0.149729466289664,1
570,114,41,0.0984708434746963,1
570,118,41,0.0734991552976711,1
571,100,41,0.0734409730283468,1
571,101,41,0.0854001475326716,1
571,102,41,0.103716092613065,1
571,103,41,0.13032624549381,1
571,104,41,0.153066481299163,1
571,105,41,0.136038420716596,1
571,106,41,0.108378704232739,1
571,107,41,0.101014355334501,1
571,108,41,0.111269518336503,1
571,109,41,0.120445709378608,1
571,110,41,0.154712055510455,1
571,111,41,0.193186185158513,1
571,112,41,0.246963719568675,1
571,113,41,0.237949734771966,1
571,114,41,0.135997978005975,1
571,115,41,0.0758826317066055,1
572,100,41,0.0756096589600196,1
572,101,41,0.0927202159546086,1
572,102,41,0.112412015581477,1
572,103,41,0.126767635281516,1
572,104,41,0.148658934926248,1
572,105,41,0.159495056035707,1
572,106,41,0.148560061144638,1
572,107,41,0.151238746948954,1
572,108,41,0.17287944111677,1
572,109,41,0.152975270608831,1
572,110,41,0.143255584769952,1
572,111,41,0.168962320145516,1
572,112,41,0.226368689037874,1
572,113,41,0.219209396251761,1
572,114,41,0.125656686087645,1
572,115,41,0.0722783104084377,1
573,100,41,0.0742031644885196,1
573,101,41,0.0985162933188221,1
573,102,41,0.119195841775171,1
573,103,41,0.119233423266646,1
573,104,41,0.125606042508766,1
573,105,41,0.148590663749414,1
573,106,41,0.164477657696581,1
573,107,41,0.183858560983099,1
573,108,41,0.212883265600717,1
573,109,41,0.187879146126679,1
573,110,41,0.156502345210105,1
573,111,41,0.149262888527579,1
573,112,41,0.155947405536749,1
573,113,41,0.132863188989663,1
573,114,41,0.0874314451850163,1
574,101,41,0.089470132246807,1
574,102,41,0.104654920815196,1
574,103,41,0.102907611603148,1
574,104,41,0.10154705213902,1
574,105,41,0.119262620142015,1
574,106,41,0.151755607527505,1
574,107,41,0.182708388206765,1
574,108,41,0.196554064014536,1
574,109,41,0.186488257739607,1
574,110,41,0.169671081448163,1
574,111,41,0.146022383683874,1
574,112,41,0.116951936880173,1
574,113,41,0.0850262110704911,1
575,102,41,0.0757452931876105,1
575,103,41,0.0782220826609454,1
575,104,41,0.0799979232039095,1
575,105,41,0.0936662531849778,1
575,106,41,0.128007874260524,1
575,107,41,0.162207939628856,1
575,108,41,0.158609272348522,1
575,109,41,0.157553830806078,1
575,110,41,0.159784997055835,1
575,111,41,0.139183472801582,1
575,112,41,0.103214533336902,1
575,113,41,0.0725875895379662,1
576,106,41,0.0981107590452062,1
576,107,41,0.12431482406863,1
576,108,41,0.113749946534187,1
576,109,41,0.11222015217763,1
576,110,41,0.120763677906282,1
576,111,41,0.112065521942929,1
576,112,41,0.0886269807248933,1
577,107,41,0.0776023550340635,1
577,108,41,0.0727755405356326,1
577,109,41,0.0724079360758225,1
577,110,41,0.0782754941583463,1
577,111,41,0.0785860608364904,1
557,100,42,0.0764859197634827,1
557,101,42,0.0725643141422199,1
558,99,42,0.081439231248363,1
558,100,42,0.101031964272331,1
558,101,42,0.0913486718969779,1
558,114,42,0.0762635346154017,1
559,99,42,0.0828624700719071,1
559,100,42,0.10895530209102,1
559,101,42,0.0993905699290081,1
559,106,42,0.0737306030463942,1
559,107,42,0.0821539637909664,1
559,108,42,0.0818821479721221,1
559,109,42,0.0718303056906325,1
560,100,42,0.0873151739469921,1
560,101,42,0.0814249375927176,1
560,106,42,0.0803239404654406,1
560,107,42,0.0920048240875933,1
560,108,42,0.0946217510986529,1
560,109,42,0.0847079875211113,1
560,110,42,0.0724674369939704,1
560,112,42,0.0749110052250068,1
561,106,42,0.0723944261454213,1
561,107,42,0.0844868215011879,1
561,108,42,0.0887443529102844,1
561,109,42,0.0831474163986137,1
561,110,42,0.0802791001853937,1
561,111,42,0.0891587072029191,1
561,112,42,0.0982966387690127,1
561,113,42,0.0776955934579646,1
562,108,42,0.0743328336961958,1
562,109,42,0.075140120458122,1
562,110,42,0.0888451549047968,1
562,111,42,0.107708183745979,1
562,112,42,0.109772379198458,1
562,113,42,0.0817142192884342,1
563,109,42,0.0736644902240029,1
563,110,42,0.0996925280695486,1
563,111,42,0.135856932342174,1
563,112,42,0.147306461516228,1
563,113,42,0.107692845123341,1
563,114,42,0.0730871273006027,1
564,107,42,0.075139709935375,1
564,108,42,0.0789865319962268,1
564,109,42,0.0832395103348565,1
564,110,42,0.111841314322653,1
564,111,42,0.168038519563942,1
564,112,42,0.209285344725378,1
564,113,42,0.166152217301828,1
564,114,42,0.116924295015209,1
564,115,42,0.074934809324291,1
565,106,42,0.0812400033152375,1
565,107,42,0.102400982993063,1
565,108,42,0.117642722262535,1
565,109,42,0.116642017086358,1
565,110,42,0.134410013820178,1
565,111,42,0.176233275118812,1
565,112,42,0.216508952741854,1
565,113,42,0.195848549573615,1
565,114,42,0.16330113682394,1
565,115,42,0.108130860454303,1
566,106,42,0.0928884618604192,1
566,107,42,0.138150386088725,1
566,108,42,0.17612928846299,1
566,109,42,0.169089694157834,1
566,110,42,0.170079053978094,1
566,111,42,0.175705056744261,1
566,112,42,0.184576179625015,1
566,113,42,0.175571773692403,1
566,114,42,0.154974080983788,1
566,115,42,0.107447128599139,1
566,118,42,0.081983976273502,1
566,119,42,0.0986486869047283,1
566,120,42,0.0911791384425518,1
567,106,42,0.0837630076978176,1
567,107,42,0.127929041453018,1
567,108,42,0.174548390244474,1
567,109,42,0.18122271882547,1
567,110,42,0.182306312276291,1
567,111,42,0.167437315221008,1
567,112,42,0.154506284093545,1
567,113,42,0.144303412981452,1
567,114,42,0.123083728550805,1
567,115,42,0.0872535022343184,1
567,117,42,0.0892064771225696,1
567,118,42,0.121890513086453,1
567,119,42,0.114130015957406,1
567,120,42,0.084940212775037,1
568,98,42,0.0718910630571879,1
568,107,42,0.0895472296627012,1
568,108,42,0.119412635105834,1
568,109,42,0.142533935541066,1
568,110,42,0.156584288038423,1
568,111,42,0.141689166808331,1
568,112,42,0.127157072087416,1
568,113,42,0.115534003752132,1
568,114,42,0.096784241868871,1
568,115,42,0.0743649602111691,1
568,116,42,0.0774064050628723,1
568,117,42,0.119036272827422,1
568,118,42,0.152390735977441,1
568,119,42,0.118716114845098,1
568,120,42,0.0775634362336399,1
569,101,42,0.0746637274703579,1
569,102,42,0.0782076024040514,1
569,103,42,0.0880277045948617,1
569,104,42,0.0894014443271846,1
569,105,42,0.0719200982114755,1
569,108,42,0.0849830502016819,1
569,109,42,0.115678557519408,1
569,110,42,0.149234550017953,1
569,111,42,0.146281087654981,1
569,112,42,0.132065705013332,1
569,113,42,0.113399397428502,1
569,114,42,0.0885223534047838,1
569,116,42,0.0743845222420676,1
569,117,42,0.103230867166199,1
569,118,42,0.121336257617675,1
569,119,42,0.0984227687730064,1
569,120,42,0.074062404946633,1
570,100,42,0.071523209795713,1
570,101,42,0.0793072124620469,1
570,102,42,0.0940748601591546,1
570,103,42,0.132594358790797,1
570,104,42,0.157703733809148,1
570,105,42,0.116629241120868,1
570,106,42,0.0852835466324414,1
570,107,42,0.0791307312211299,1
570,108,42,0.087403703799386,1
570,109,42,0.11361145108745,1
570,110,42,0.157383414105742,1
570,111,42,0.183714430178654,1
570,112,42,0.205747857774429,1
570,113,42,0.185698511495052,1
570,114,42,0.113688094440306,1
570,115,42,0.0750466332325561,1
570,117,42,0.0716778400304148,1
570,118,42,0.0767180579368258,1
570,119,42,0.0736896938326519,1
571,100,42,0.0729710302237438,1
571,101,42,0.0837302031983077,1
571,102,42,0.104170889616321,1
571,103,42,0.152500034548808,1
571,104,42,0.202311682861406,1
571,105,42,0.171736782150714,1
571,106,42,0.137177646219676,1
571,107,42,0.12999459287457,1
571,108,42,0.130172486064935,1
571,109,42,0.131818495679141,1
571,110,42,0.151095735752,1
571,111,42,0.200605239322809,1
571,112,42,0.289423689207817,1
571,113,42,0.278362713593753,1
571,114,42,0.145059197798755,1
571,115,42,0.0763725906051454,1
572,100,42,0.0720416129445863,1
572,101,42,0.088010114317157,1
572,102,42,0.109358000025657,1
572,103,42,0.129635907954445,1
572,104,42,0.165763900103419,1
572,105,42,0.177226988968208,1
572,106,42,0.176136727632769,1
572,107,42,0.186903109635571,1
572,108,42,0.190502174998569,1
572,109,42,0.168554459576333,1
572,110,42,0.150438774955974,1
572,111,42,0.166871453154565,1
572,112,42,0.224265643205429,1
572,113,42,0.212531659087957,1
572,114,42,0.116071465108533,1
573,101,42,0.092124124485887,1
573,102,42,0.119360834599213,1
573,103,42,0.118072352977392,1
573,104,42,0.124219333989663,1
573,105,42,0.145828318385294,1
573,106,42,0.168458260412621,1
573,107,42,0.20317939110764,1
573,108,42,0.224270668999059,1
573,109,42,0.210496511229849,1
573,110,42,0.18445618258206,1
573,111,42,0.160879338738578,1
573,112,42,0.143142566613696,1
573,113,42,0.115381363930749,1
573,114,42,0.0777103225165235,1
574,101,42,0.078578746067544,1
574,102,42,0.0993892201799763,1
574,103,42,0.0987072050563001,1
574,104,42,0.0991340554125518,1
574,105,42,0.117397826783827,1
574,106,42,0.147327982860237,1
574,107,42,0.187419198928962,1
574,108,42,0.202438683671227,1
574,109,42,0.203997450981654,1
574,110,42,0.197328508956702,1
574,111,42,0.166142588677398,1
574,112,42,0.115695239671036,1
574,113,42,0.0780612572647889,1
575,104,42,0.0761938763692864,1
575,105,42,0.0947484720066006,1
575,106,42,0.125441111885139,1
575,107,42,0.155284846703264,1
575,108,42,0.151126400557193,1
575,109,42,0.15443306176358,1
575,110,42,0.161433867889187,1
575,111,42,0.142213416796328,1
575,112,42,0.0994203514882902,1
576,106,42,0.0914766243731666,1
576,107,42,0.110167936525314,1
576,108,42,0.100993686136194,1
576,109,42,0.0998220417761842,1
576,110,42,0.105244288418925,1
576,111,42,0.0987004127708498,1
576,112,42,0.0802082787914952,1
557,100,43,0.0749276687165099,1
558,99,43,0.0883373133865962,1
558,100,43,0.105013288513198,1
558,101,43,0.0847087401461474,1
559,99,43,0.0853484341066333,1
559,100,43,0.106587232725181,1
559,101,43,0.08762659899088,1
559,107,43,0.074154150560545,1
559,108,43,0.0740983692272865,1
560,100,43,0.0795873880168301,1
560,106,43,0.0716596526287146,1
560,107,43,0.0816426141692915,1
560,108,43,0.0829100347301841,1
560,109,43,0.0755374567168813,1
560,112,43,0.075188636782767,1
561,107,43,0.0744286223371616,1
561,108,43,0.0766790022954866,1
561,109,43,0.0737912360121172,1
561,110,43,0.078792989181143,1
561,111,43,0.0936293372379563,1
561,112,43,0.101384118148754,1
561,113,43,0.0794548762501331,1
562,110,43,0.090192901083185,1
562,111,43,0.12199666431676,1
562,112,43,0.128387558041162,1
562,113,43,0.0911414823105773,1
563,109,43,0.0725531180673018,1
563,110,43,0.102527498639638,1
563,111,43,0.161166866382557,1
563,112,43,0.203660113244372,1
563,113,43,0.147614502857474,1
563,114,43,0.0886846342906797,1
564,106,43,0.0755571369285706,1
564,107,43,0.0819275169557068,1
564,108,43,0.0833537289591458,1
564,109,43,0.0876846319792054,1
564,110,43,0.115022256047793,1
564,111,43,0.190825131999623,1
564,112,43,0.287502890594872,1
564,113,43,0.23753871442164,1
564,114,43,0.156207291315764,1
564,115,43,0.0887934539188418,1
565,105,43,0.0713710053772433,1
565,106,43,0.1007651120467,1
565,107,43,0.137812252186116,1
565,108,43,0.144803442127376,1
565,109,43,0.13610435315778,1
565,110,43,0.15330062854595,1
565,111,43,0.18850408614844,1
565,112,43,0.261317709617809,1
565,113,43,0.252928963404859,1
565,114,43,0.217525506584082,1
565,115,43,0.140142254897233,1
565,118,43,0.0714339148781997,1
565,119,43,0.0975212794807279,1
565,120,43,0.0946358954732994,1
565,121,43,0.0785886670339297,1
566,105,43,0.0761010671282572,1
566,106,43,0.125184721769515,1
566,107,43,0.208842763883866,1
566,108,43,0.230843262579299,1
566,109,43,0.202907848970627,1
566,110,43,0.21453237279565,1
566,111,43,0.199793038728002,1
566,112,43,0.205746999408685,1
566,113,43,0.207219644022826,1
566,114,43,0.195149752777645,1
566,115,43,0.140591354342364,1
566,116,43,0.083698773327996,1
566,117,43,0.0806529060267001,1
566,118,43,0.123127915726482,1
566,119,43,0.151322543349674,1
566,120,43,0.121518318235927,1
566,121,43,0.0774724805650138,1
567,106,43,0.103313500419136,1
567,107,43,0.171828751686125,1
567,108,43,0.203119380146079,1
567,109,43,0.195228784626483,1
567,110,43,0.21572960640689,1
567,111,43,0.192727469529036,1
567,112,43,0.174707610869893,1
567,113,43,0.16828893843961,1
567,114,43,0.140375618418776,1
567,115,43,0.102460502571336,1
567,116,43,0.0884469229600441,1
567,117,43,0.121690053585087,1
567,118,43,0.16781064211911,1
567,119,43,0.159831199524997,1
567,120,43,0.109276343319254,1
567,121,43,0.0723213904167058,1
568,106,43,0.0730785001028741,1
568,107,43,0.097519307727534,1
568,108,43,0.120656170706902,1
568,109,43,0.139456532628751,1
568,110,43,0.16249433522526,1
568,111,43,0.14667750334758,1
568,112,43,0.130337814771225,1
568,113,43,0.122385018835418,1
568,114,43,0.0980252334729153,1
568,115,43,0.0764433560186692,1
568,116,43,0.0861516343012144,1
568,117,43,0.136348129028996,1
568,118,43,0.172018562476236,1
568,119,43,0.138130021672457,1
568,120,43,0.0931821908858949,1
568,121,43,0.0763624768174694,1
569,101,43,0.0737771289577204,1
569,102,43,0.0829411038380817,1
569,103,43,0.0985714153276687,1
569,104,43,0.100995278466849,1
569,105,43,0.0780004003775675,1
569,108,43,0.0854801434879612,1
569,109,43,0.114395636614795,1
569,110,43,0.145898468014697,1
569,111,43,0.146873894941726,1
569,112,43,0.13485888934381,1
569,113,43,0.120602392227045,1
569,114,43,0.0929366423028166,1
569,115,43,0.0730374416081329,1
569,116,43,0.0743059506763092,1
569,117,43,0.102253474706018,1
569,118,43,0.122718500146895,1
569,119,43,0.105905478843253,1
569,120,43,0.0821859659051073,1
570,101,43,0.076478592554453,1
570,102,43,0.0938581850092818,1
570,103,43,0.144777628954648,1
570,104,43,0.179111275936836,1
570,105,43,0.129246558229127,1
570,106,43,0.0958229655365299,1
570,107,43,0.0900737997262231,1
570,108,43,0.0952269673684327,1
570,109,43,0.11428745765092,1
570,110,43,0.146231601003843,1
570,111,43,0.184298840409211,1
570,112,43,0.219541695755329,1
570,113,43,0.197502894043593,1
570,114,43,0.11917266590009,1
570,115,43,0.076957237197284,1
570,117,43,0.0722611741937714,1
570,118,43,0.0791745576343926,1
570,119,43,0.0772595561002385,1
571,101,43,0.0783056489201256,1
571,102,43,0.0964973051288456,1
571,103,43,0.152522886981724,1
571,104,43,0.209814122903675,1
571,105,43,0.176491730288254,1
571,106,43,0.152869654302104,1
571,107,43,0.149264020575154,1
571,108,43,0.139496975339372,1
571,109,43,0.137803643648512,1
571,110,43,0.143329217622664,1
571,111,43,0.192052408411892,1
571,112,43,0.279407879627438,1
571,113,43,0.255292181138233,1
571,114,43,0.129863685878611,1
571,115,43,0.0714077285029746,1
572,101,43,0.0829612194526845,1
572,102,43,0.102975397616735,1
572,103,43,0.123323934118131,1
572,104,43,0.154953418005523,1
572,105,43,0.163344142191709,1
572,106,43,0.180853671316003,1
572,107,43,0.19893002039315,1
572,108,43,0.191941032346624,1
572,109,43,0.185776249575234,1
572,110,43,0.171574862027232,1
572,111,43,0.168260823851482,1
572,112,43,0.198857021984685,1
572,113,43,0.173713461617584,1
572,114,43,0.0957400275015535,1
573,101,43,0.0839591878105488,1
573,102,43,0.110738028220059,1
573,103,43,0.110403613902339,1
573,104,43,0.11347754603143,1
573,105,43,0.128825797293622,1
573,106,43,0.156854635927444,1
573,107,43,0.198672062827038,1
573,108,43,0.220483708618769,1
573,109,43,0.231454941472323,1
573,110,43,0.223043703588871,1
573,111,43,0.180490682127076,1
573,112,43,0.134735657879212,1
573,113,43,0.0985819582982166,1
574,102,43,0.0872911645863345,1
574,103,43,0.0897414815625298,1
574,104,43,0.0941346409791755,1
574,105,43,0.111249887885147,1
574,106,43,0.134954366982695,1
574,107,43,0.174382962017518,1
574,108,43,0.196537643104656,1
574,109,43,0.207772630603113,1
574,110,43,0.213838539592894,1
574,111,43,0.176884874238961,1
574,112,43,0.112835003291881,1
574,113,43,0.0727044143596947,1
575,104,43,0.0720640921750052,1
575,105,43,0.0911046347840136,1
575,106,43,0.112615199461073,1
575,107,43,0.133674344617478,1
575,108,43,0.137110942493331,1
575,109,43,0.142303769120917,1
575,110,43,0.152873548048158,1
575,111,43,0.135356529993752,1
575,112,43,0.0926699704583929,1
576,106,43,0.0787533986162243,1
576,107,43,0.0895725949924323,1
576,108,43,0.0881365677633151,1
576,109,43,0.0898798837086421,1
576,110,43,0.094425894428086,1
576,111,43,0.088257211690599,1
576,112,43,0.073677278629576,1
558,99,44,0.0834118676881787,1
558,100,44,0.0954550189744306,1
559,99,44,0.077682139507938,1
559,100,44,0.0914641718498411,1
561,110,44,0.0724110336565498,1
561,111,44,0.0883607753835911,1
561,112,44,0.0887878621014244,1
562,110,44,0.0852797337469277,1
562,111,44,0.123920647591015,1
562,112,44,0.133217345719488,1
562,113,44,0.0949812632843139,1
563,110,44,0.0982370818704902,1
563,111,44,0.16877678874404,1
563,112,44,0.235276833606357,1
563,113,44,0.182194152485778,1
563,114,44,0.104402057463171,1
564,106,44,0.0780855465273195,1
564,107,44,0.0871666020328292,1
564,108,44,0.0864346213148104,1
564,109,44,0.0898154378574053,1
564,110,44,0.112728541059494,1
564,111,44,0.192011841300439,1
564,112,44,0.31747003103876,1
564,113,44,0.288055429332162,1
564,114,44,0.185741778104569,1
564,115,44,0.0980071766920891,1
564,120,44,0.0732158759421189,1
564,121,44,0.0837984370548917,1
564,122,44,0.0774997741076474,1
565,105,44,0.0713890683781112,1
565,106,44,0.109970499964175,1
565,107,44,0.16396263825035,1
565,108,44,0.15714863241471,1
565,109,44,0.144333057699818,1
565,110,44,0.164430198779012,1
565,111,44,0.190444577413157,1
565,112,44,0.270986515516226,1
565,113,44,0.280905591009313,1
565,114,44,0.24096167796626,1
565,115,44,0.15696953253627,1
565,116,44,0.0809718884211577,1
565,118,44,0.0916614777901057,1
565,119,44,0.127435020867299,1
565,120,44,0.113132794004536,1
565,121,44,0.0954633102899116,1
565,122,44,0.0733194209749862,1
566,105,44,0.0758884039052299,1
566,106,44,0.144314758337369,1
566,107,44,0.253234765531121,1
566,108,44,0.245915617675344,1
566,109,44,0.213838066869731,1
566,110,44,0.241149722264551,1
566,111,44,0.214082191063278,1
566,112,44,0.218816264741137,1
566,113,44,0.224547261809869,1
566,114,44,0.211173077597065,1
566,115,44,0.164447664655884,1
566,116,44,0.108174798828315,1
566,117,44,0.107990772676911,1
566,118,44,0.165213028337284,1
566,119,44,0.199717067139641,1
566,120,44,0.140534204599949,1
566,121,44,0.081290317231911,1
567,106,44,0.112533492994338,1
567,107,44,0.189282312875912,1
567,108,44,0.199241905720118,1
567,109,44,0.19531402407686,1
567,110,44,0.229285689516863,1
567,111,44,0.200122402371925,1
567,112,44,0.187836314920076,1
567,113,44,0.179738865696327,1
567,114,44,0.143040794292691,1
567,115,44,0.11388478459645,1
567,116,44,0.107709527274969,1
567,117,44,0.145630433981158,1
567,118,44,0.198000298331953,1
567,119,44,0.194288339213532,1
567,120,44,0.126593175554126,1
567,121,44,0.0760751108945721,1
568,106,44,0.0749182826737036,1
568,107,44,0.098201391271668,1
568,108,44,0.115276294987685,1
568,109,44,0.1340880395857,1
568,110,44,0.157985626095419,1
568,111,44,0.142960605516111,1
568,112,44,0.130467888281607,1
568,113,44,0.120893913137746,1
568,114,44,0.0930027862254159,1
568,115,44,0.0761152363830701,1
568,116,44,0.0879266475786428,1
568,117,44,0.133339892979508,1
568,118,44,0.166950285962072,1
568,119,44,0.142882568873932,1
568,120,44,0.101635942753828,1
568,121,44,0.0791208164747858,1
569,102,44,0.0798306165243837,1
569,103,44,0.0973569397610554,1
569,104,44,0.101373201975709,1
569,105,44,0.0807134705719653,1
569,107,44,0.0739288482129436,1
569,108,44,0.0874206409727204,1
569,109,44,0.109338506415216,1
569,110,44,0.134786089976676,1
569,111,44,0.142811448918036,1
569,112,44,0.139004198761978,1
569,113,44,0.123003290972561,1
569,114,44,0.0936294678588303,1
569,115,44,0.071857568133058,1
569,117,44,0.09346847452155,1
569,118,44,0.115336368149662,1
569,119,44,0.10502488267078,1
569,120,44,0.0837152191180423,1
570,102,44,0.0863771543502725,1
570,103,44,0.135954350634044,1
570,104,44,0.168545913239146,1
570,105,44,0.128348695221114,1
570,106,44,0.102184960947561,1
570,107,44,0.0980686991237639,1
570,108,44,0.10040122717178,1
570,109,44,0.109253988489668,1
570,110,44,0.130739131856622,1
570,111,44,0.172341718518621,1
570,112,44,0.211402622013052,1
570,113,44,0.185582545039068,1
570,114,44,0.115631471804336,1
570,115,44,0.0744592373820209,1
570,118,44,0.0786494244004851,1
570,119,44,0.0757923415824329,1
571,102,44,0.0866903707661473,1
571,103,44,0.136705308699049,1
571,104,44,0.180855201446242,1
571,105,44,0.159372247533939,1
571,106,44,0.153898312345327,1
571,107,44,0.152113011119057,1
571,108,44,0.139509564703613,1
571,109,44,0.139207046759327,1
571,110,44,0.142256683405845,1
571,111,44,0.174585598533452,1
571,112,44,0.233186352257987,1
571,113,44,0.202251647019679,1
571,114,44,0.110165908791745,1
572,101,44,0.0729562638449352,1
572,102,44,0.0903800994558152,1
572,103,44,0.110788348356774,1
572,104,44,0.131090427367301,1
572,105,44,0.139331882994663,1
572,106,44,0.168993955277201,1
572,107,44,0.187197106122837,1
572,108,44,0.185017690619367,1
572,109,44,0.203408960403793,1
572,110,44,0.201934686138748,1
572,111,44,0.172761098604886,1
572,112,44,0.167069038996703,1
572,113,44,0.134081608062664,1
572,114,44,0.079339127495605,1
573,102,44,0.0898056848321434,1
573,103,44,0.0941327438664811,1
573,104,44,0.0990164655257039,1
573,105,44,0.111539567663527,1
573,106,44,0.141244296991503,1
573,107,44,0.178527400629859,1
573,108,44,0.207501698030179,1
573,109,44,0.245033765054463,1
573,110,44,0.255553696568153,1
573,111,44,0.19536770303605,1
573,112,44,0.128680546881685,1
573,113,44,0.0862878407726344,1
574,103,44,0.0738312868601158,1
574,104,44,0.083045389055902,1
574,105,44,0.0987248948546707,1
574,106,44,0.118721401880476,1
574,107,44,0.151231345099425,1
574,108,44,0.17780658488655,1
574,109,44,0.196499850131766,1
574,110,44,0.210893847488608,1
574,111,44,0.172066531437218,1
574,112,44,0.107485630656774,1
575,105,44,0.0782067937986406,1
575,106,44,0.093426526560857,1
575,107,44,0.108689009669136,1
575,108,44,0.118644410205289,1
575,109,44,0.125617711306847,1
575,110,44,0.136244913658335,1
575,111,44,0.120224051975397,1
575,112,44,0.0848410093312213,1
576,108,44,0.0748781634052472,1
576,109,44,0.0788881558179466,1
576,110,44,0.0823343449979799,1
576,111,44,0.0756348998889182,1
558,99,45,0.0720554400971101,1
558,100,45,0.0780250877227619,1
559,100,45,0.071457190273946,1
561,111,45,0.0768515835703071,1
561,112,45,0.0730538189777214,1
562,110,45,0.0773501758866171,1
562,111,45,0.110809770180117,1
562,112,45,0.124623922816952,1
562,113,45,0.0980825013961213,1
563,110,45,0.0919953820644124,1
563,111,45,0.156503850460178,1
563,112,45,0.231799531778135,1
563,113,45,0.206578046729604,1
563,114,45,0.122664410664957,1
564,106,45,0.0784674819630248,1
564,107,45,0.0933982253714807,1
564,108,45,0.0910544141679644,1
564,109,45,0.0922207092921803,1
564,110,45,0.111263186334133,1
564,111,45,0.177740951007363,1
564,112,45,0.298609720355766,1
564,113,45,0.308269096671086,1
564,114,45,0.202819835381688,1
564,115,45,0.102860059384954,1
564,119,45,0.0755775013448382,1
564,120,45,0.0872887014498525,1
564,121,45,0.0983857844055271,1
564,122,45,0.0873576568312646,1
565,106,45,0.116635175040575,1
565,107,45,0.179640240716382,1
565,108,45,0.160480559430162,1
565,109,45,0.144691755060027,1
565,110,45,0.164132669308106,1
565,111,45,0.183455564486465,1
565,112,45,0.253608664673052,1
565,113,45,0.278969565734479,1
565,114,45,0.232578504910602,1
565,115,45,0.156189489556645,1
565,116,45,0.101546423914816,1
565,117,45,0.089249519810588,1
565,118,45,0.117312363411953,1
565,119,45,0.152211175815922,1
565,120,45,0.12364434090212,1
565,121,45,0.097762330973714,1
566,105,45,0.0762274023936244,1
566,106,45,0.151607035613342,1
566,107,45,0.259028958222723,1
566,108,45,0.230978959007306,1
566,109,45,0.205341925418149,1
566,110,45,0.234361218599557,1
566,111,45,0.210256442503439,1
566,112,45,0.219181107502468,1
566,113,45,0.217860667306796,1
566,114,45,0.198482438638176,1
566,115,45,0.172076172501731,1
566,116,45,0.141925615470517,1
566,117,45,0.145019787615043,1
566,118,45,0.203791679564743,1
566,119,45,0.237060119539142,1
566,120,45,0.149364598648168,1
566,121,45,0.0780523750453539,1
567,106,45,0.115990019883545,1
567,107,45,0.184536060356558,1
567,108,45,0.181503889586912,1
567,109,45,0.186241558448829,1
567,110,45,0.216398634083661,1
567,111,45,0.191919598083198,1
567,112,45,0.188689107506503,1
567,113,45,0.168581267955721,1
567,114,45,0.132054396977665,1
567,115,45,0.12020457080504,1
567,116,45,0.12429625102435,1
567,117,45,0.154924967535148,1
567,118,45,0.208525641281853,1
567,119,45,0.218924294424013,1
567,120,45,0.138486367856933,1
567,121,45,0.0759446268614435,1
568,106,45,0.0803790438141624,1
568,107,45,0.100322276183482,1
568,108,45,0.112850180193437,1
568,109,45,0.129710610654315,1
568,110,45,0.149129170072807,1
568,111,45,0.141403990340084,1
568,112,45,0.13390176177923,1
568,113,45,0.115168116023809,1
568,114,45,0.0887073312225553,1
568,115,45,0.0776200759326422,1
568,116,45,0.0851353541408175,1
568,117,45,0.115272177320131,1
568,118,45,0.146808074461291,1
568,119,45,0.142201001593252,1
568,120,45,0.105186529112431,1
568,121,45,0.0753847235948738,1
569,102,45,0.073108629984487,1
569,103,45,0.089216404308997,1
569,104,45,0.0954035108097658,1
569,105,45,0.0852853380044283,1
569,106,45,0.0798596267985047,1
569,107,45,0.0844926994405199,1
569,108,45,0.0945474962417795,1
569,109,45,0.105829034531729,1
569,110,45,0.124411558155923,1
569,111,45,0.139383596420701,1
569,112,45,0.141011592794372,1
569,113,45,0.118849186415541,1
569,114,45,0.090298716431244,1
569,117,45,0.0838405716168334,1
569,118,45,0.104516904311664,1
569,119,45,0.0997987104000633,1
569,120,45,0.081055075257799,1
570,102,45,0.0760417403712746,1
570,103,45,0.110910099451467,1
570,104,45,0.133921043908256,1
570,105,45,0.117418153879845,1
570,106,45,0.10626393984188,1
570,107,45,0.105551794836591,1
570,108,45,0.105985891541332,1
570,109,45,0.107212371788274,1
570,110,45,0.120257515799319,1
570,111,45,0.152286662241036,1
570,112,45,0.178588182876581,1
570,113,45,0.15148022140477,1
570,114,45,0.101279391307979,1
570,118,45,0.0776805347371998,1
570,119,45,0.0723548293604611,1
571,102,45,0.0764394000721982,1
571,103,45,0.10900767484147,1
571,104,45,0.13211929689194,1
571,105,45,0.128060284331224,1
571,106,45,0.136651978062189,1
571,107,45,0.140799588895757,1
571,108,45,0.135205880585688,1
571,109,45,0.141128629097516,1
571,110,45,0.146265226548847,1
571,111,45,0.154808690077082,1
571,112,45,0.17318960971225,1
571,113,45,0.143906325524357,1
571,114,45,0.0904848200765489,1
572,102,45,0.0761001092418475,1
572,103,45,0.0930476327255045,1
572,104,45,0.103449775311014,1
572,105,45,0.111734541088184,1
572,106,45,0.140312310835156,1
572,107,45,0.160670370220274,1
572,108,45,0.172826769804322,1
572,109,45,0.211349154535276,1
572,110,45,0.221756727217121,1
572,111,45,0.176161806840585,1
572,112,45,0.142129707476191,1
572,113,45,0.106795529478991,1
573,103,45,0.0779348100386725,1
573,104,45,0.0860029442062607,1
573,105,45,0.0984680009156755,1
573,106,45,0.124175706617732,1
573,107,45,0.154534075239508,1
573,108,45,0.186923088409258,1
573,109,45,0.237450240549621,1
573,110,45,0.25628241176432,1
573,111,45,0.193832260881702,1
573,112,45,0.126909278069313,1
573,113,45,0.0838904687907183,1
574,104,45,0.0728771013752228,1
574,105,45,0.0877220766297647,1
574,106,45,0.105039126566093,1
574,107,45,0.129590912173357,1
574,108,45,0.154481777129557,1
574,109,45,0.176711509238896,1
574,110,45,0.189357724660527,1
574,111,45,0.15512368542486,1
574,112,45,0.104984352879577,1
575,106,45,0.0778728646441674,1
575,107,45,0.0901347188138607,1
575,108,45,0.102680859985849,1
575,109,45,0.111597115488606,1
575,110,45,0.118489481408589,1
575,111,45,0.104111295397549,1
575,112,45,0.0794425232474735,1
576,109,45,0.0725250594595488,1
576,110,45,0.074536384558248,1
562,111,46,0.0873978507402205,1
562,112,46,0.103182189120472,1
562,113,46,0.0938359421404445,1
563,110,46,0.0804211534959376,1
563,111,46,0.128223236981615,1
563,112,46,0.192901195291515,1
563,113,46,0.20045119377202,1
563,114,46,0.124758686238716,1
564,106,46,0.0734407180066403,1
564,107,46,0.0914662555637842,1
564,108,46,0.0883287546093255,1
564,109,46,0.0866380228958637,1
564,110,46,0.102362288114138,1
564,111,46,0.153989896238156,1
564,112,46,0.250264720537187,1
564,113,46,0.290958297876587,1
564,114,46,0.194433415464303,1
564,115,46,0.0945623870214206,1
564,119,46,0.0790729594745527,1
564,120,46,0.0946230013270187,1
564,121,46,0.100601189069816,1
564,122,46,0.0823826311810849,1
565,106,46,0.110638706595452,1
565,107,46,0.164386496766582,1
565,108,46,0.14442115836934,1
565,109,46,0.12919462088159,1
565,110,46,0.142475156147746,1
565,111,46,0.165128037688572,1
565,112,46,0.224020200363059,1
565,113,46,0.256950892077429,1
565,114,46,0.202051125317896,1
565,115,46,0.13614391262249,1
565,116,46,0.115751916690288,1
565,117,46,0.117536906914476,1
565,118,46,0.133060364309054,1
565,119,46,0.153397213352243,1
565,120,46,0.118200299233539,1
565,121,46,0.0863589047481561,1
566,105,46,0.0718428826147905,1
566,106,46,0.134699905079973,1
566,107,46,0.212168259376283,1
566,108,46,0.187867999812094,1
566,109,46,0.172284419495207,1
566,110,46,0.188401455461691,1
566,111,46,0.182283994766954,1
566,112,46,0.19815836202963,1
566,113,46,0.190155979922019,1
566,114,46,0.163384982984993,1
566,115,46,0.154075770132778,1
566,116,46,0.159424757125305,1
566,117,46,0.168880066315118,1
566,118,46,0.211770972877856,1
566,119,46,0.237778335305053,1
566,120,46,0.141161060394529,1
567,106,46,0.104391495832498,1
567,107,46,0.152355567862115,1
567,108,46,0.150457609242003,1
567,109,46,0.158460949236024,1
567,110,46,0.174600800315174,1
567,111,46,0.164952197111942,1
567,112,46,0.166005673121234,1
567,113,46,0.137461242797351,1
567,114,46,0.109343333167514,1
567,115,46,0.110467381769039,1
567,116,46,0.121151733862942,1
567,117,46,0.140829059452958,1
567,118,46,0.188380991524757,1
567,119,46,0.215023955125053,1
567,120,46,0.132576283349846,1
568,106,46,0.0781606659699782,1
568,107,46,0.0937816598372167,1
568,108,46,0.102870776516667,1
568,109,46,0.114849824053972,1
568,110,46,0.127133523009839,1
568,111,46,0.129034492130095,1
568,112,46,0.123166479984533,1
568,113,46,0.0988577984839899,1
568,114,46,0.0775607553957012,1
568,115,46,0.0713909468306807,1
568,116,46,0.0735674015943384,1
568,117,46,0.0905924205765533,1
568,118,46,0.118161846936237,1
568,119,46,0.130375047940369,1
568,120,46,0.0960634821059367,1
569,104,46,0.0775618687831514,1
569,105,46,0.078559289777353,1
569,106,46,0.0804017096458298,1
569,107,46,0.0856567740098771,1
569,108,46,0.0908354438227333,1
569,109,46,0.0948656824709096,1
569,110,46,0.106132050079345,1
569,111,46,0.122144290784596,1
569,112,46,0.122664671906705,1
569,113,46,0.0996381835659046,1
569,114,46,0.0759192988519622,1
569,118,46,0.0863833121914775,1
569,119,46,0.0856658925908937,1
570,103,46,0.0787395652436589,1
570,104,46,0.0923650764582072,1
570,105,46,0.0936513375251703,1
570,106,46,0.0958224430530337,1
570,107,46,0.0993635562882474,1
570,108,46,0.0999772069344655,1
570,109,46,0.0990068120211078,1
570,110,46,0.104837982860148,1
570,111,46,0.120480081328607,1
570,112,46,0.128481517989892,1
570,113,46,0.106950595116606,1
570,114,46,0.0770010822706715,1
571,103,46,0.0771293270888164,1
571,104,46,0.0877525921539581,1
571,105,46,0.0924128525978993,1
571,106,46,0.105270723595815,1
571,107,46,0.11615248737069,1
571,108,46,0.121967255959975,1
571,109,46,0.132967673248815,1
571,110,46,0.138165873992362,1
571,111,46,0.127562146077952,1
571,112,46,0.117489447996907,1
571,113,46,0.0954680997219599,1
572,104,46,0.0773142302660884,1
572,105,46,0.0843065833551318,1
572,106,46,0.104747947757682,1
572,107,46,0.126083380942856,1
572,108,46,0.148694849446568,1
572,109,46,0.191130921685802,1
572,110,46,0.205942856079252,1
572,111,46,0.156530422477983,1
572,112,46,0.112018485988189,1
572,113,46,0.0821055905272787,1
573,105,46,0.0805851946536122,1
573,106,46,0.0995769099358946,1
573,107,46,0.122986173418019,1
573,108,46,0.152687232921438,1
573,109,46,0.199949273733442,1
573,110,46,0.216779524552374,1
573,111,46,0.161729170585193,1
573,112,46,0.108116504598241,1
573,113,46,0.0743116731146007,1
574,106,46,0.0856204489668096,1
574,107,46,0.103296656546426,1
574,108,46,0.122755770636288,1
574,109,46,0.143147318725495,1
574,110,46,0.148389855925717,1
574,111,46,0.120207991827931,1
574,112,46,0.0890604678655546,1
575,107,46,0.0722505814628906,1
575,108,46,0.0827987830657481,1
575,109,46,0.0905410554728458,1
575,110,46,0.0912574301064372,1
575,111,46,0.0795906473186396,1
563,112,47,0.142294936661815,1
563,113,47,0.165682181196601,1
564,111,47,0.126524618255377,1
564,112,47,0.195160165127319,1
564,113,47,0.241085058711857,1
564,114,47,0.163659859064315,1
565,107,47,0.124655545508554,1
565,110,47,0.114820826219934,1
565,111,47,0.138063765789109,1
565,112,47,0.187483028996078,1
565,113,47,0.217124836383014,1
565,114,47,0.161320053567603,1
565,119,47,0.13112303282548,1
566,107,47,0.145559164744263,1
566,108,47,0.138631120665541,1
566,109,47,0.132430746815994,1
566,110,47,0.136118323371261,1
566,111,47,0.143609293656781,1
566,112,47,0.15993058335002,1
566,113,47,0.149281785014024,1
566,114,47,0.122347698585691,1
566,115,47,0.121457946511952,1
566,116,47,0.152132989892744,1
566,117,47,0.165003189013152,1
566,118,47,0.183826303847252,1
566,119,47,0.197473199564894,1
567,107,47,0.11347984744683,1
567,108,47,0.118464924684269,1
567,109,47,0.123755343764891,1
567,110,47,0.131131641363083,1
567,111,47,0.136050400516758,1
567,112,47,0.134082603269324,1
567,118,47,0.144478793275002,1
567,119,47,0.178416012124507,1
571,109,47,0.118794362968692,1
571,110,47,0.126120178709087,1
572,108,47,0.120863385173469,1
572,109,47,0.153538532697876,1
572,110,47,0.169069043619651,1
572,111,47,0.132766119020123,1
573,108,47,0.12025640863191,1
573,109,47,0.154136353338168,1
573,110,47,0.166715118628459,1
573,111,47,0.128097629461117,1
574,109,47,0.114415142665319,1
574,110,47,0.115283385835133,1
