x,y,z,signal,mito.p
78,635,15,0.0725177322505191,1
66,625,32,0.0755262233217135,1
66,626,32,0.0811785119837708,1
67,626,32,0.0756994017205296,1
65,626,33,0.0730574825822362,1
66,625,33,0.0763211944012298,1
66,626,33,0.0900838450934413,1
67,625,33,0.0734996777811672,1
67,626,33,0.0769281709427884,1
68,624,33,0.0739408902135221,1
68,625,33,0.0789165005476142,1
68,626,33,0.072887096982108,1
69,624,33,0.0743750366785953,1
69,625,33,0.0807387674812385,1
69,626,33,0.0805301908255564,1
66,626,34,0.0842531531976061,1
67,625,34,0.0732798988305254,1
67,626,34,0.0725289034452707,1
68,624,34,0.0868827255532815,1
68,625,34,0.0927180762602909,1
68,626,34,0.0751386711884243,1
69,623,34,0.0715549755482722,1
69,624,34,0.088569980263477,1
69,625,34,0.0911754375177872,1
69,626,34,0.0795278622185157,1
66,626,35,0.0719687140567864,1
67,625,35,0.0775143849854155,1
68,624,35,0.0925590608962461,1
68,625,35,0.104644328084315,1
68,626,35,0.0771980150084388,1
69,623,35,0.0765665750431842,1
69,624,35,0.0974451275111601,1
69,625,35,0.098287209185915,1
69,626,35,0.0734868147350947,1
70,623,35,0.0716212127714958,1
70,624,35,0.0766584326178454,1
67,625,36,0.0766040818941598,1
68,624,36,0.091660519903696,1
68,625,36,0.106311660001198,1
68,626,36,0.0771244194759773,1
69,623,36,0.0791342331045626,1
69,624,36,0.101692109729667,1
69,625,36,0.100652535513399,1
70,623,36,0.078917029251152,1
70,624,36,0.0868322499155258,1
70,625,36,0.0737346522934895,1
100,627,36,0.0824487502235177,1
100,628,36,0.0774855675325847,1
67,625,37,0.0715574511248374,1
68,624,37,0.0866062758034293,1
68,625,37,0.0966668448033133,1
68,626,37,0.0737218079075419,1
69,623,37,0.0793680195889353,1
69,624,37,0.101876372242652,1
69,625,37,0.097175818369089,1
70,623,37,0.0823757144948022,1
70,624,37,0.091845702982841,1
70,625,37,0.0755811276291034,1
72,619,37,0.0713456649276788,1
80,616,37,0.0714208341306704,1
81,615,37,0.0737145802191781,1
81,616,37,0.0740171479237974,1
98,630,37,0.0738921499673788,1
99,627,37,0.0729575949338421,1
99,628,37,0.072976709121744,1
100,627,37,0.0854783023556413,1
100,628,37,0.0814095429897052,1
68,624,38,0.0788213276907689,1
68,625,38,0.0818092739644886,1
69,623,38,0.0755544747507567,1
69,624,38,0.0955879972442492,1
69,625,38,0.0873268676252399,1
70,623,38,0.0781704998557812,1
70,624,38,0.0865252908615219,1
71,619,38,0.0754413197535847,1
71,620,38,0.0769214159775878,1
72,619,38,0.0770819987921211,1
72,620,38,0.080544826583491,1
73,619,38,0.0726121960226195,1
73,620,38,0.0789009442235197,1
73,621,38,0.0758238398732024,1
77,618,38,0.0748305427665956,1
80,615,38,0.0752974937311788,1
80,616,38,0.0775642634991755,1
81,615,38,0.0746618427977467,1
81,616,38,0.0750514910850622,1
82,615,38,0.0724520361709165,1
98,629,38,0.0740169924227569,1
98,630,38,0.0733849055731737,1
99,628,38,0.0736374952433671,1
100,627,38,0.0754892762744838,1
100,628,38,0.0739480246012616,1
68,624,39,0.0745793712658918,1
68,625,39,0.0718956410078211,1
69,623,39,0.0738469613650011,1
69,624,39,0.088797621346728,1
69,625,39,0.0791993693804194,1
70,620,39,0.074141754017594,1
70,623,39,0.0732184074990587,1
70,624,39,0.0783837166625127,1
71,619,39,0.0807062055633518,1
71,620,39,0.0881675871108798,1
71,621,39,0.0764770624242142,1
72,619,39,0.0789098077828298,1
72,620,39,0.0899873971280637,1
72,621,39,0.0860079699998906,1
73,619,39,0.072848514063932,1
73,620,39,0.0879160486277203,1
73,621,39,0.0970958161937578,1
74,620,39,0.0730637212839823,1
74,621,39,0.0807538697422946,1
76,619,39,0.0734584948855936,1
77,619,39,0.077999933874446,1
79,615,39,0.073708982181719,1
79,616,39,0.0785665858861746,1
80,615,39,0.0731386043650593,1
80,616,39,0.0776391092600029,1
83,615,39,0.0719014940669866,1
86,616,39,0.0757350985393934,1
87,616,39,0.077019972537075,1
97,628,39,0.0765511368998805,1
97,629,39,0.0754910925266372,1
98,627,39,0.0723227588258624,1
98,628,39,0.0832105125008187,1
98,629,39,0.0801854512387456,1
98,630,39,0.0714663337351291,1
99,627,39,0.0730507898174519,1
99,628,39,0.0768522055744692,1
99,635,39,0.0785635940461548,1
100,635,39,0.0779723728700226,1
102,632,39,0.0715084620770292,1
102,633,39,0.0718830765237464,1
103,641,39,0.0750402514698528,1
69,623,40,0.0716063157718132,1
69,624,40,0.080098476396757,1
69,625,40,0.0725081222862144,1
70,619,40,0.0719876976238142,1
70,620,40,0.0798096674242036,1
70,621,40,0.0725537773917137,1
71,619,40,0.0808643252414031,1
71,620,40,0.0937906540174009,1
71,621,40,0.0835698878455641,1
72,619,40,0.0777671114965246,1
72,620,40,0.0959435597034808,1
72,621,40,0.0990968346834908,1
72,622,40,0.0718714823661645,1
73,620,40,0.0913113765274175,1
73,621,40,0.110107228919091,1
73,622,40,0.0793185080576309,1
74,620,40,0.0753049204608744,1
74,621,40,0.0853414054596014,1
76,619,40,0.0761229305745555,1
76,620,40,0.0768113585611431,1
77,619,40,0.0794002145243664,1
77,620,40,0.0747431698419433,1
79,616,40,0.0726605257460159,1
82,616,40,0.0723504069108684,1
83,616,40,0.0735943716948077,1
85,616,40,0.0726615147326336,1
86,616,40,0.0827629556260103,1
87,616,40,0.0769839273958804,1
88,616,40,0.0721464206459027,1
95,648,40,0.0746247713496846,1
95,649,40,0.0729554552395245,1
96,628,40,0.0730396746030749,1
96,647,40,0.0750547503868717,1
96,648,40,0.0752209561190305,1
97,627,40,0.0801183058894453,1
97,628,40,0.0889303383747985,1
97,629,40,0.0807872402655921,1
97,647,40,0.0730089102772167,1
98,627,40,0.0824545784025168,1
98,628,40,0.0920782889991807,1
98,629,40,0.0826916490688654,1
98,646,40,0.0734663570182027,1
98,647,40,0.071355921776312,1
99,627,40,0.0764068070541033,1
99,628,40,0.0784159986785265,1
99,629,40,0.0727862949875956,1
99,635,40,0.0787709515736792,1
100,635,40,0.0741969257867736,1
101,632,40,0.0747598768737377,1
101,642,40,0.0748575066470233,1
101,643,40,0.0728107708513748,1
102,630,40,0.0715978938354581,1
102,631,40,0.0754313863471157,1
102,632,40,0.077329917211057,1
102,633,40,0.0713703460528315,1
102,641,40,0.0794579427306523,1
102,642,40,0.0761719134023221,1
103,630,40,0.071502932460028,1
103,640,40,0.0832774277085791,1
103,641,40,0.0941790334162257,1
103,642,40,0.0722274802283096,1
104,641,40,0.0735928042443191,1
69,623,41,0.0718289932618504,1
69,624,41,0.0749983097292013,1
70,620,41,0.0822292014144159,1
70,621,41,0.0766689133879771,1
71,619,41,0.0777120268079277,1
71,620,41,0.0962472594556752,1
71,621,41,0.089392786029248,1
72,619,41,0.0753598620885141,1
72,620,41,0.099174523003339,1
72,621,41,0.103428726690168,1
72,622,41,0.0747453717366772,1
73,620,41,0.0909361898368711,1
73,621,41,0.105972269650181,1
73,622,41,0.0798822553099225,1
74,620,41,0.0800756799442155,1
74,621,41,0.084058235753324,1
75,620,41,0.0816400328520187,1
75,621,41,0.0718906463143993,1
76,619,41,0.0744817974729808,1
76,620,41,0.0862279666519892,1
77,619,41,0.0730534395551825,1
77,620,41,0.0751614614209242,1
85,616,41,0.0772779798635204,1
86,616,41,0.0801191766952722,1
88,616,41,0.0723194124434702,1
89,616,41,0.0720572003688889,1
94,648,41,0.0776013971476538,1
94,649,41,0.0877486548676119,1
94,650,41,0.0777508709678518,1
95,646,41,0.0716831830461674,1
95,647,41,0.0818865828617979,1
95,648,41,0.091652228588215,1
95,649,41,0.0903856912732326,1
95,650,41,0.0726743404584565,1
96,627,41,0.079061427517387,1
96,628,41,0.080581898031553,1
96,629,41,0.0747839359947283,1
96,630,41,0.0730549385852132,1
96,646,41,0.0753377933808422,1
96,647,41,0.0852561784493083,1
96,648,41,0.0877539605631147,1
96,649,41,0.0765137171294877,1
97,626,41,0.0741684815364401,1
97,627,41,0.0889308297580866,1
97,628,41,0.0947356338406946,1
97,629,41,0.0817935123790206,1
97,630,41,0.0728204989964703,1
97,645,41,0.0735697092297798,1
97,646,41,0.0796970100303613,1
97,647,41,0.0820912657714252,1
97,648,41,0.0761979131762985,1
98,626,41,0.0744724052101329,1
98,627,41,0.0837201018507149,1
98,628,41,0.0882615719397754,1
98,629,41,0.0781216476488887,1
98,643,41,0.0758139437869831,1
98,644,41,0.0731749791684598,1
98,645,41,0.0779766584786996,1
98,646,41,0.0865242023542382,1
98,647,41,0.080718434165179,1
99,626,41,0.072404316011599,1
99,627,41,0.0739281204680739,1
99,628,41,0.0725965401778591,1
99,642,41,0.0744602761289716,1
99,643,41,0.0849502208220055,1
99,644,41,0.0729077288601654,1
99,646,41,0.0742114869042087,1
100,642,41,0.0774133404092799,1
100,643,41,0.0828979927296055,1
101,631,41,0.075129876049572,1
101,632,41,0.0767094556192637,1
101,641,41,0.0728096761240495,1
101,642,41,0.0849513964098719,1
101,643,41,0.0810296041873604,1
102,629,41,0.0723125268573956,1
102,630,41,0.075360602273467,1
102,631,41,0.0789058767165253,1
102,632,41,0.0755347198985679,1
102,640,41,0.0830471493276808,1
102,641,41,0.0896877093027149,1
102,642,41,0.0796699404092261,1
103,629,41,0.0786158361757309,1
103,630,41,0.0745788612224789,1
103,640,41,0.0924417695713961,1
103,641,41,0.100403988870259,1
104,641,41,0.072419026410033,1
70,620,42,0.0764623644658634,1
70,621,42,0.073414668472331,1
71,620,42,0.0889577500982229,1
71,621,42,0.0862740260601938,1
71,641,42,0.0774153370426403,1
72,620,42,0.0918950901133129,1
72,621,42,0.0946144487697896,1
72,622,42,0.0732069937226839,1
73,620,42,0.0842756946284412,1
73,621,42,0.0914803004177647,1
73,622,42,0.0763161188472669,1
74,620,42,0.0813465153079581,1
74,621,42,0.0828056624317811,1
74,646,42,0.0901060382019456,1
74,647,42,0.072981075590962,1
75,620,42,0.0860923946248145,1
75,621,42,0.0797639874385379,1
75,645,42,0.0726019640541527,1
75,646,42,0.0964547787042818,1
75,647,42,0.0743072071247167,1
76,620,42,0.0865151708538043,1
76,621,42,0.0748819576306361,1
85,616,42,0.0762290071643626,1
86,616,42,0.072300864279356,1
89,616,42,0.0762050662241628,1
89,617,42,0.0719370416048515,1
93,649,42,0.0868411259149192,1
93,650,42,0.0803990288078911,1
94,647,42,0.0773354406080166,1
94,648,42,0.097607899780344,1
94,649,42,0.121209754411184,1
94,650,42,0.0995362495238171,1
95,628,42,0.0718767818416258,1
95,629,42,0.0715666070261037,1
95,646,42,0.0796015883718512,1
95,647,42,0.0925776215004437,1
95,648,42,0.107238010799836,1
95,649,42,0.108329093180769,1
95,650,42,0.0807344196721453,1
96,626,42,0.0728159334859204,1
96,627,42,0.082664728728729,1
96,628,42,0.0833472352356933,1
96,629,42,0.0783382792584702,1
96,630,42,0.0771600727545498,1
96,631,42,0.0727677530435229,1
96,645,42,0.0738707343640771,1
96,646,42,0.0798050832535288,1
96,647,42,0.0906084807240191,1
96,648,42,0.0954800484219141,1
96,649,42,0.0808064290939934,1
97,626,42,0.0797254729408197,1
97,627,42,0.0913068669972421,1
97,628,42,0.0908663387694656,1
97,629,42,0.079529827751668,1
97,630,42,0.0743273165192778,1
97,631,42,0.0717643919095731,1
97,643,42,0.0731650644221157,1
97,644,42,0.0789096460617477,1
97,645,42,0.0811408247515882,1
97,646,42,0.0833366487248541,1
97,647,42,0.0861198561085719,1
97,648,42,0.0812959712497446,1
98,626,42,0.0752709030532484,1
98,627,42,0.0802945756489471,1
98,628,42,0.0795689642535483,1
98,629,42,0.0735416692821517,1
98,642,42,0.0742294877046604,1
98,643,42,0.0967218486313692,1
98,644,42,0.0888935343885261,1
98,645,42,0.0874002205760781,1
98,646,42,0.0912288241350215,1
98,647,42,0.0843095627550683,1
99,642,42,0.0827882338751586,1
99,643,42,0.105314786370659,1
99,644,42,0.0846574807831475,1
99,645,42,0.0748775973814596,1
99,646,42,0.0738375815422364,1
100,632,42,0.0738174161673006,1
100,642,42,0.0820409580747933,1
100,643,42,0.0909408984083784,1
101,631,42,0.0764263193246689,1
101,632,42,0.0777486939532843,1
101,641,42,0.0771617086254962,1
101,642,42,0.085449609303643,1
101,643,42,0.0795811990754171,1
102,631,42,0.0737516952075315,1
102,639,42,0.0768919703005532,1
102,640,42,0.0929208807173486,1
102,641,42,0.0922614256846323,1
102,642,42,0.0773543930748362,1
103,629,42,0.0763578491065032,1
103,639,42,0.0748367876883832,1
103,640,42,0.0945243514669072,1
103,641,42,0.0949841556036677,1
70,641,43,0.0764718811295438,1
71,620,43,0.0812570648894043,1
71,621,43,0.08272358898259,1
71,640,43,0.0742529932419467,1
71,641,43,0.0839516180198958,1
72,620,43,0.0836397202528447,1
72,621,43,0.086248673170546,1
72,622,43,0.072611629998832,1
73,620,43,0.08141071235753,1
73,621,43,0.0838161517334288,1
73,622,43,0.075059620679461,1
73,637,43,0.078592094276863,1
73,638,43,0.0736350383269268,1
73,646,43,0.072123250990864,1
74,620,43,0.0849285688571222,1
74,621,43,0.0870374615286909,1
74,622,43,0.0758716097928528,1
74,645,43,0.0831682597580862,1
74,646,43,0.111210154259271,1
74,647,43,0.079503442335111,1
75,620,43,0.0862845441505752,1
75,621,43,0.0869769405237171,1
75,645,43,0.0869458154354448,1
75,646,43,0.119086170001307,1
75,647,43,0.0804045024445177,1
76,620,43,0.0798962441835285,1
76,621,43,0.0764658476891713,1
89,616,43,0.0745938266426194,1
89,617,43,0.0724173656589202,1
91,648,43,0.0713982180593359,1
91,649,43,0.0748504157995752,1
92,648,43,0.0753628103882425,1
92,649,43,0.0829601869257754,1
92,650,43,0.0769772097509295,1
93,647,43,0.0746776603635893,1
93,648,43,0.0920416591740738,1
93,649,43,0.115183840289028,1
93,650,43,0.0988500109918802,1
94,634,43,0.071616267838407,1
94,646,43,0.0760839682338406,1
94,647,43,0.0943372837151511,1
94,648,43,0.123284685655502,1
94,649,43,0.150925132450415,1
94,650,43,0.111804068713425,1
95,628,43,0.0776414790958605,1
95,629,43,0.077489175156725,1
95,630,43,0.07364598560018,1
95,645,43,0.0735948630780957,1
95,646,43,0.0899234675402815,1
95,647,43,0.106195295462549,1
95,648,43,0.120710123347924,1
95,649,43,0.119249421213695,1
95,650,43,0.0826678947299142,1
96,626,43,0.0771445910709547,1
96,627,43,0.0840103414328412,1
96,628,43,0.0845179776896683,1
96,629,43,0.0816456930898939,1
96,630,43,0.0792675659167537,1
96,631,43,0.0742926584473648,1
96,644,43,0.0743157348017793,1
96,645,43,0.082506621490761,1
96,646,43,0.088107146966447,1
96,647,43,0.0967524201359372,1
96,648,43,0.099870545660746,1
96,649,43,0.0825827299200374,1
97,625,43,0.0724038806086855,1
97,626,43,0.0869907054758247,1
97,627,43,0.0927080308930728,1
97,628,43,0.0853345074334435,1
97,629,43,0.0776365030625636,1
97,630,43,0.0750155268044087,1
97,631,43,0.0720884871782433,1
97,634,43,0.071961019865301,1
97,635,43,0.0717704937704035,1
97,643,43,0.0821975662827307,1
97,644,43,0.0899794665749967,1
97,645,43,0.0908024900422245,1
97,646,43,0.0879996148869005,1
97,647,43,0.0892653995768468,1
97,648,43,0.0846322647344154,1
98,626,43,0.0779249699328278,1
98,627,43,0.079142207197921,1
98,628,43,0.0742615768993839,1
98,629,43,0.0715276198052223,1
98,642,43,0.0818158423284406,1
98,643,43,0.114719775423757,1
98,644,43,0.106470519864202,1
98,645,43,0.0952327706672652,1
98,646,43,0.0888304818266125,1
98,647,43,0.0822313162285671,1
99,633,43,0.0715939503290703,1
99,642,43,0.0880066870742238,1
99,643,43,0.119483804822064,1
99,644,43,0.0959657341518602,1
99,645,43,0.0769920258900711,1
100,632,43,0.0748897202425793,1
100,633,43,0.0719730432057547,1
100,642,43,0.0820435145118996,1
100,643,43,0.0915087446680983,1
100,644,43,0.0725533979691748,1
101,632,43,0.0726615022925504,1
101,639,43,0.0713506907213086,1
101,640,43,0.0786464947608816,1
101,641,43,0.0807551883911183,1
101,642,43,0.0798499546337838,1
101,643,43,0.07231829905602,1
102,638,43,0.07367150021091,1
102,639,43,0.0873981119819686,1
102,640,43,0.0981626839526595,1
102,641,43,0.0893907893958876,1
102,642,43,0.0726041783889699,1
103,639,43,0.0772985433211199,1
103,640,43,0.0901932431854741,1
103,641,43,0.0843123244535481,1
70,641,44,0.0748459000493582,1
71,621,44,0.07221489708411,1
71,640,44,0.0742692773109109,1
71,641,44,0.080997807334593,1
72,620,44,0.071362309759057,1
72,621,44,0.0748575564073563,1
72,637,44,0.0777929557694605,1
73,620,44,0.0755714616844241,1
73,621,44,0.0772357520009544,1
73,624,44,0.0723045216638292,1
73,637,44,0.0803970881549053,1
73,638,44,0.0729597470682431,1
73,646,44,0.0719972764879107,1
74,620,44,0.0829037462681051,1
74,621,44,0.0871847956545711,1
74,622,44,0.0753494559588819,1
74,623,44,0.073094000446594,1
74,624,44,0.0739970571893611,1
74,645,44,0.0879535430386126,1
74,646,44,0.113671238127513,1
74,647,44,0.0781391135257609,1
75,620,44,0.0799220822364227,1
75,621,44,0.0867118547899068,1
75,645,44,0.0909067565999198,1
75,646,44,0.120204894247204,1
75,647,44,0.0788221238560964,1
76,621,44,0.0734050522879846,1
76,646,44,0.0722075512149554,1
77,624,44,0.0746823564950133,1
84,623,44,0.0717925375979089,1
88,650,44,0.074822786374694,1
88,651,44,0.0804027546128222,1
88,652,44,0.076271558469093,1
89,649,44,0.0737901910451248,1
89,650,44,0.0787949547142952,1
89,651,44,0.0842915992748664,1
89,652,44,0.0808728404783824,1
90,648,44,0.0800213167804466,1
90,649,44,0.0852748261340886,1
90,650,44,0.0773004093336062,1
90,651,44,0.0719646461495662,1
91,647,44,0.073374213321627,1
91,648,44,0.0893459304557158,1
91,649,44,0.0945603841680186,1
91,650,44,0.0795628250724682,1
92,620,44,0.0758133031226961,1
92,621,44,0.0720473291628362,1
92,647,44,0.0774273479430107,1
92,648,44,0.0943387205447655,1
92,649,44,0.10697466667768,1
92,650,44,0.0948953458494009,1
93,633,44,0.0721316542670941,1
93,634,44,0.0762611585595024,1
93,635,44,0.0726863078185356,1
93,647,44,0.0886276649294716,1
93,648,44,0.114373269345126,1
93,649,44,0.137034460861557,1
93,650,44,0.111053210169086,1
94,628,44,0.0729890932246117,1
94,629,44,0.0719324512141351,1
94,633,44,0.0726741040968749,1
94,634,44,0.0745044819647731,1
94,646,44,0.0848937739442935,1
94,647,44,0.113245924121541,1
94,648,44,0.141493957022093,1
94,649,44,0.158195664460882,1
94,650,44,0.11037986578343,1
95,627,44,0.0739584245108521,1
95,628,44,0.0854988720332825,1
95,629,44,0.0845807379096257,1
95,630,44,0.0747222456219297,1
95,645,44,0.080046315127722,1
95,646,44,0.101311474282661,1
95,647,44,0.122722306812367,1
95,648,44,0.128465694204007,1
95,649,44,0.117238568838159,1
95,650,44,0.0798821309090901,1
96,626,44,0.0801576352126158,1
96,627,44,0.084148438796914,1
96,628,44,0.0853362366050142,1
96,629,44,0.0837670445048297,1
96,630,44,0.0779863244233789,1
96,631,44,0.0723355969917685,1
96,644,44,0.0810339893167033,1
96,645,44,0.0915260612639715,1
96,646,44,0.099476537124254,1
96,647,44,0.106568709441234,1
96,648,44,0.102365951718653,1
96,649,44,0.0816037326891176,1
97,625,44,0.0734186119787188,1
97,626,44,0.0894166398888651,1
97,627,44,0.0904928688104067,1
97,628,44,0.0799468939824495,1
97,629,44,0.0755694463909388,1
97,630,44,0.0733941236748563,1
97,642,44,0.0717962758429232,1
97,643,44,0.0889526185638855,1
97,644,44,0.102849678135489,1
97,645,44,0.100670243971894,1
97,646,44,0.0940447551577082,1
97,647,44,0.0914986930808385,1
97,648,44,0.0845962133731792,1
98,626,44,0.0779758560933305,1
98,627,44,0.0773828124450033,1
98,628,44,0.0715442584165589,1
98,642,44,0.0843619852658514,1
98,643,44,0.124895614234964,1
98,644,44,0.128284566591999,1
98,645,44,0.102371070812907,1
98,646,44,0.0827608283717758,1
98,647,44,0.0754065186207144,1
99,642,44,0.086457168965687,1
99,643,44,0.119746278138393,1
99,644,44,0.104768871977695,1
99,645,44,0.0780005620986497,1
100,642,44,0.0777745506663035,1
100,643,44,0.0843728267983971,1
101,639,44,0.0778484634208877,1
101,640,44,0.0815490585232677,1
101,641,44,0.079525181380577,1
101,642,44,0.0722777381646085,1
102,638,44,0.0775640831179685,1
102,639,44,0.0923621654787285,1
102,640,44,0.0945109534972553,1
102,641,44,0.0814769495807537,1
103,639,44,0.074119473828507,1
103,640,44,0.080211811775136,1
103,641,44,0.0734193894839214,1
71,628,45,0.0719561744528781,1
72,637,45,0.0819991718351824,1
72,638,45,0.072004348675234,1
73,620,45,0.071542156042491,1
73,621,45,0.0742900957902169,1
73,623,45,0.0713630561640515,1
73,624,45,0.0808663778551381,1
73,625,45,0.0719776584766376,1
73,636,45,0.0714286216227801,1
73,637,45,0.0801968090347458,1
73,646,45,0.0716343246192332,1
74,620,45,0.0796705126530552,1
74,621,45,0.0856908162976697,1
74,622,45,0.0742473827644044,1
74,623,45,0.0743710869521659,1
74,624,45,0.0790503434032182,1
74,645,45,0.0876971218227806,1
74,646,45,0.103965304800659,1
74,647,45,0.0751139900632715,1
75,620,45,0.0736616663251069,1
75,621,45,0.0830222691611961,1
75,622,45,0.0728902443231683,1
75,624,45,0.0735164034730865,1
75,645,45,0.0898972687249732,1
75,646,45,0.107067357737918,1
75,647,45,0.0759786504891112,1
76,621,45,0.0741962913425283,1
76,624,45,0.0803496230172943,1
76,625,45,0.0773177570296876,1
76,646,45,0.0746286588756978,1
77,621,45,0.0742090299877684,1
77,622,45,0.0747109749065122,1
77,623,45,0.0744561709015017,1
77,624,45,0.0864229960570204,1
77,625,45,0.0802451449781838,1
78,622,45,0.0749747171113323,1
78,624,45,0.0721747840356952,1
83,623,45,0.0742964651128369,1
83,624,45,0.0716252309183831,1
84,623,45,0.0722410399190437,1
87,650,45,0.0714272718737483,1
87,651,45,0.0734592350705465,1
88,649,45,0.0748900188045771,1
88,650,45,0.0829578606302091,1
88,651,45,0.0935877127194275,1
88,652,45,0.092290031656048,1
88,653,45,0.0746272718064163,1
89,648,45,0.0801095605109259,1
89,649,45,0.0861138164481578,1
89,650,45,0.0874759682429405,1
89,651,45,0.0930105052970678,1
89,652,45,0.0907173936528055,1
89,653,45,0.0746642001935211,1
90,647,45,0.0829526482353306,1
90,648,45,0.1023891524739,1
90,649,45,0.105511974130133,1
90,650,45,0.0902270242315186,1
90,651,45,0.0770943517947807,1
91,619,45,0.0794043010917115,1
91,620,45,0.0835838269588371,1
91,647,45,0.0862568276451113,1
91,648,45,0.107732976831881,1
91,649,45,0.114215031486283,1
91,650,45,0.094334920099335,1
92,619,45,0.079928383138585,1
92,620,45,0.090251941718253,1
92,621,45,0.0797599444114841,1
92,634,45,0.0754895437362735,1
92,635,45,0.0731830652225673,1
92,647,45,0.0869513699326125,1
92,648,45,0.111433242272055,1
92,649,45,0.125673343359106,1
92,650,45,0.108745462766889,1
93,633,45,0.0741437693110792,1
93,634,45,0.0801255273577674,1
93,635,45,0.0771937169596786,1
93,636,45,0.0716862806268947,1
93,646,45,0.0749237998506215,1
93,647,45,0.10368107999878,1
93,648,45,0.13446304589504,1
93,649,45,0.144606055326571,1
93,650,45,0.114261470317027,1
94,626,45,0.0715373106300681,1
94,628,45,0.0771210357733354,1
94,629,45,0.0755177516250254,1
94,633,45,0.0734350702088483,1
94,634,45,0.0764832949059186,1
94,635,45,0.0732306485409691,1
94,636,45,0.0715860695363363,1
94,637,45,0.0727034067129521,1
94,638,45,0.0730836440772948,1
94,646,45,0.0926436161420441,1
94,647,45,0.130555578428382,1
94,648,45,0.152258112249995,1
94,649,45,0.145755071175163,1
94,650,45,0.102922888025369,1
95,626,45,0.0731092084483577,1
95,627,45,0.0771095473564612,1
95,628,45,0.0911499851074734,1
95,629,45,0.089059740120685,1
95,630,45,0.0754154008401494,1
95,633,45,0.0721544382795524,1
95,634,45,0.0730835818768786,1
95,644,45,0.0728522585289879,1
95,645,45,0.0854006140357931,1
95,646,45,0.109607373934332,1
95,647,45,0.13470353758428,1
95,648,45,0.129418368218786,1
95,649,45,0.107737405501515,1
95,650,45,0.0786735892621833,1
96,625,45,0.0716213931527028,1
96,626,45,0.0804034574775254,1
96,627,45,0.0821390419111173,1
96,628,45,0.085439035232887,1
96,629,45,0.0846696036442671,1
96,630,45,0.0766754195515128,1
96,642,45,0.0721681907915768,1
96,643,45,0.0746941621340102,1
96,644,45,0.0874090032748472,1
96,645,45,0.101646759406207,1
96,646,45,0.110769153308331,1
96,647,45,0.112785218078746,1
96,648,45,0.099492217849181,1
96,649,45,0.07922001369856,1
97,625,45,0.0738163712003082,1
97,626,45,0.0869305638933897,1
97,627,45,0.0859531838732915,1
97,628,45,0.0779820761349516,1
97,629,45,0.0760834768505525,1
97,630,45,0.0719091509382222,1
97,640,45,0.0716054885062776,1
97,641,45,0.0753945201604272,1
97,642,45,0.0784837909121554,1
97,643,45,0.0908574441099473,1
97,644,45,0.114258546897465,1
97,645,45,0.108501861056838,1
97,646,45,0.0978276973911107,1
97,647,45,0.0902498953245596,1
97,648,45,0.0822746388184584,1
98,625,45,0.0720604099103654,1
98,626,45,0.0760328643718812,1
98,627,45,0.0746507462434946,1
98,628,45,0.0715621783564695,1
98,629,45,0.0713987156626656,1
98,642,45,0.0845031366703602,1
98,643,45,0.122247767397006,1
98,644,45,0.148480743173885,1
98,645,45,0.108546284594097,1
98,646,45,0.0779075973565799,1
99,631,45,0.0735113963395815,1
99,642,45,0.0822014289285775,1
99,643,45,0.107906528433194,1
99,644,45,0.111029063967513,1
99,645,45,0.0792698113517789,1
100,641,45,0.0717805142574552,1
100,642,45,0.0741286794901063,1
100,643,45,0.0771844055573717,1
100,644,45,0.0723581508626868,1
101,625,45,0.071670481721177,1
101,638,45,0.0751761718193582,1
101,639,45,0.0827695861903784,1
101,640,45,0.0819849217198284,1
101,641,45,0.077565880709997,1
102,637,45,0.0715330312414327,1
102,638,45,0.0797476100689494,1
102,639,45,0.0912960503448629,1
102,640,45,0.0880169190426906,1
102,641,45,0.0759575147876826,1
103,640,45,0.0718197751601679,1
72,635,46,0.0721915221676977,1
72,636,46,0.0755304467299742,1
72,637,46,0.0796145758187562,1
73,624,46,0.0807705145736729,1
73,625,46,0.0778458323432819,1
73,636,46,0.0713989084839558,1
73,637,46,0.0752972262693891,1
74,621,46,0.0744694444703212,1
74,624,46,0.0763117710381737,1
74,625,46,0.072450729962176,1
74,645,46,0.0835339919853684,1
74,646,46,0.0910500787989545,1
74,647,46,0.0722604899891931,1
75,621,46,0.0736665552778211,1
75,624,46,0.0744633799297406,1
75,625,46,0.0778937702040561,1
75,640,46,0.0747466655053344,1
75,645,46,0.0867032897925944,1
75,646,46,0.095078687796226,1
75,647,46,0.0769912670449933,1
76,621,46,0.0742223470968793,1
76,622,46,0.078726017993008,1
76,623,46,0.0757997372119204,1
76,624,46,0.0890468148741962,1
76,625,46,0.0988534693350216,1
76,626,46,0.0752515773839314,1
76,645,46,0.0718771239439149,1
76,646,46,0.0802354852535462,1
76,647,46,0.0766530833820512,1
77,621,46,0.0828208082331286,1
77,622,46,0.0914952969381133,1
77,623,46,0.0810877677965598,1
77,624,46,0.0909130761622069,1
77,625,46,0.0938557094327165,1
78,621,46,0.0733113038206706,1
78,622,46,0.0809089415999516,1
78,623,46,0.0717185004424923,1
78,624,46,0.0714396932968657,1
83,623,46,0.0727722625736983,1
85,650,46,0.0767681168317928,1
85,651,46,0.0713809947640869,1
86,650,46,0.0750728507079892,1
87,649,46,0.075009922546908,1
87,650,46,0.0798897317999511,1
87,651,46,0.0847626243667115,1
87,652,46,0.081447653184718,1
88,648,46,0.0766222070954438,1
88,649,46,0.0836541009890729,1
88,650,46,0.0929112147726693,1
88,651,46,0.108391716559811,1
88,652,46,0.107788459603142,1
88,653,46,0.0807197528140026,1
89,647,46,0.0841312092816234,1
89,648,46,0.0976526778599747,1
89,649,46,0.103011834620552,1
89,650,46,0.0973538795005778,1
89,651,46,0.0981866248928594,1
89,652,46,0.0937778718318694,1
89,653,46,0.0742728787150095,1
90,619,46,0.0732428025022969,1
90,620,46,0.0751804885282433,1
90,646,46,0.0773197163427983,1
90,647,46,0.104570465090064,1
90,648,46,0.128075473672863,1
90,649,46,0.131267213390258,1
90,650,46,0.105079482196131,1
90,651,46,0.0814982781034726,1
91,619,46,0.0895358967468675,1
91,620,46,0.10707852893267,1
91,621,46,0.0817244388168177,1
91,634,46,0.0782663569172048,1
91,635,46,0.0781749347454571,1
91,646,46,0.07923367290996,1
91,647,46,0.102554313239066,1
91,648,46,0.128726674710348,1
91,649,46,0.13791697280685,1
91,650,46,0.109562291072662,1
91,651,46,0.073806064591342,1
92,619,46,0.0813718122172313,1
92,620,46,0.10048199441223,1
92,621,46,0.0815648076686525,1
92,633,46,0.0732838112367051,1
92,634,46,0.0804627282541334,1
92,635,46,0.0801125772311122,1
92,636,46,0.0736791135418543,1
92,646,46,0.0787653473161786,1
92,647,46,0.102365845977946,1
92,648,46,0.131529624506171,1
92,649,46,0.141907826151481,1
92,650,46,0.117525972081306,1
92,651,46,0.07448509409504,1
93,626,46,0.0790445027841359,1
93,627,46,0.0715684543784652,1
93,633,46,0.0723745593324834,1
93,634,46,0.0786142189649094,1
93,635,46,0.0766744243448534,1
93,636,46,0.0747178604925868,1
93,637,46,0.071768105274421,1
93,646,46,0.0868016659708746,1
93,647,46,0.123904699404298,1
93,648,46,0.154907700699607,1
93,649,46,0.145966664551031,1
93,650,46,0.115132151743156,1
93,651,46,0.0776763984095217,1
94,626,46,0.0782713640507098,1
94,627,46,0.0764312331575496,1
94,628,46,0.0803604894300065,1
94,629,46,0.0779380880006068,1
94,633,46,0.0713736426748907,1
94,634,46,0.0748038650080825,1
94,635,46,0.0721400575433243,1
94,636,46,0.0724230383368786,1
94,637,46,0.0756377797681888,1
94,638,46,0.078927914323989,1
94,639,46,0.0768572624683072,1
94,645,46,0.0770686816830102,1
94,646,46,0.10376871416518,1
94,647,46,0.146340750294211,1
94,648,46,0.162413225882521,1
94,649,46,0.134072738283312,1
94,650,46,0.101090295822654,1
94,651,46,0.0772000551820906,1
95,621,46,0.0738134975410793,1
95,625,46,0.0718733732588174,1
95,626,46,0.0770684639815535,1
95,627,46,0.0823894856669514,1
95,628,46,0.0937183335934718,1
95,629,46,0.0900892440895685,1
95,630,46,0.0740277655348447,1
95,634,46,0.0720699576742539,1
95,639,46,0.0713840861247726,1
95,642,46,0.0742415670254886,1
95,643,46,0.0775227633814792,1
95,644,46,0.0809025225169986,1
95,645,46,0.0957807625541304,1
95,646,46,0.1250455421182,1
95,647,46,0.143934576953401,1
95,648,46,0.129752073451761,1
95,649,46,0.101147476665277,1
95,650,46,0.0806257866452319,1
96,625,46,0.0726358508409048,1
96,626,46,0.0800111594524793,1
96,627,46,0.082922611654342,1
96,628,46,0.0859621469532676,1
96,629,46,0.0836096836718562,1
96,630,46,0.0736960569352303,1
96,641,46,0.0767648886301915,1
96,642,46,0.0842836811618827,1
96,643,46,0.0865886917457663,1
96,644,46,0.0963073885980269,1
96,645,46,0.116427761532676,1
96,646,46,0.133266484048295,1
96,647,46,0.122689962595937,1
96,648,46,0.0985505222078633,1
96,649,46,0.0796691380238569,1
97,625,46,0.0742562649838394,1
97,626,46,0.0829636763691249,1
97,627,46,0.0820494546516478,1
97,628,46,0.0771966465992822,1
97,629,46,0.0753182313499437,1
97,641,46,0.0768497424379872,1
97,642,46,0.085789484817906,1
97,643,46,0.0982799814975513,1
97,644,46,0.123880379041559,1
97,645,46,0.114973428721067,1
97,646,46,0.104335708279198,1
97,647,46,0.0900679653271825,1
97,648,46,0.0801908564549144,1
98,626,46,0.0745996423815352,1
98,627,46,0.0730858397519871,1
98,631,46,0.0715083625563633,1
98,642,46,0.0837159157627039,1
98,643,46,0.117824857521286,1
98,644,46,0.156981524776516,1
98,645,46,0.110959971745185,1
98,646,46,0.0758300972350733,1
99,631,46,0.0777208343868632,1
99,632,46,0.0729381013234014,1
99,642,46,0.0773421084926345,1
99,643,46,0.0966041903240635,1
99,644,46,0.112635277755426,1
99,645,46,0.081185944933508,1
100,643,46,0.0718271521295306,1
100,644,46,0.0729878865365372,1
101,637,46,0.0721378183283407,1
101,638,46,0.0741407650309762,1
101,639,46,0.0810819333975191,1
101,640,46,0.0783585192739054,1
101,641,46,0.0720650003010818,1
102,638,46,0.0732653190529654,1
102,639,46,0.0800661570604935,1
102,640,46,0.0767784296608007,1
72,635,47,0.075075942068675,1
72,636,47,0.0758177317923304,1
72,637,47,0.0737746098408638,1
73,624,47,0.0783944586743924,1
73,625,47,0.0820369026076564,1
73,637,47,0.0722354916419176,1
74,624,47,0.075688410906985,1
74,625,47,0.0787560483539549,1
74,626,47,0.0714046993427051,1
74,640,47,0.0761952074581933,1
74,641,47,0.0719550859455945,1
74,645,47,0.0735939487319774,1
74,646,47,0.0774025735172337,1
75,624,47,0.07627104842568,1
75,625,47,0.0899383209996728,1
75,626,47,0.0790320813610185,1
75,639,47,0.0736669471404433,1
75,640,47,0.0801301986090249,1
75,641,47,0.0726895111399705,1
75,645,47,0.0786160911974374,1
75,646,47,0.086764899304852,1
75,647,47,0.0776070449454458,1
76,622,47,0.085380635262106,1
76,623,47,0.0801138398995613,1
76,624,47,0.0918749185183355,1
76,625,47,0.116739584659227,1
76,626,47,0.0875201367584923,1
76,645,47,0.0726105290514651,1
76,646,47,0.0856855790226246,1
76,647,47,0.0847080124012778,1
77,621,47,0.0796962698454084,1
77,622,47,0.0973020292336239,1
77,623,47,0.0820299548211655,1
77,624,47,0.0848104378266533,1
77,625,47,0.0957434796246532,1
77,646,47,0.0726455976461251,1
77,647,47,0.0759140677969588,1
78,622,47,0.0763058930988417,1
84,650,47,0.0825267930857383,1
84,651,47,0.0822097264641001,1
85,649,47,0.0731580171149589,1
85,650,47,0.0875698846513783,1
85,651,47,0.0794718134234675,1
86,648,47,0.073185024535678,1
86,649,47,0.0794518657499884,1
86,650,47,0.0828213182765416,1
86,651,47,0.0780564678327406,1
87,647,47,0.0729565064265584,1
87,648,47,0.0803486215905933,1
87,649,47,0.084226375918427,1
87,650,47,0.0909649761894938,1
87,651,47,0.0999634793026076,1
87,652,47,0.0935300529335995,1
88,647,47,0.0813378943302712,1
88,648,47,0.0892555345908356,1
88,649,47,0.0951901260619106,1
88,650,47,0.102731994948016,1
88,651,47,0.11553115497307,1
88,652,47,0.112833473161643,1
88,653,47,0.0805633560874804,1
89,646,47,0.0796659409224637,1
89,647,47,0.105085229514589,1
89,648,47,0.118852047634686,1
89,649,47,0.121361374145742,1
89,650,47,0.109353608676272,1
89,651,47,0.0994245997767174,1
89,652,47,0.0895433172565215,1
90,619,47,0.0802576223816758,1
90,620,47,0.0903575580249801,1
90,634,47,0.0820672066504346,1
90,635,47,0.0785355416584434,1
90,646,47,0.0926657594902154,1
90,647,47,0.12999639668664,1
90,648,47,0.152093940471446,1
90,649,47,0.152054293926153,1
90,650,47,0.122023074613483,1
90,651,47,0.0901570860835304,1
91,619,47,0.0938969731888313,1
91,620,47,0.126070928419531,1
91,621,47,0.0893659900899441,1
91,633,47,0.0787837461992939,1
91,634,47,0.0929843438020092,1
91,635,47,0.0931536968752284,1
91,636,47,0.0790797704201278,1
91,645,47,0.0722109349175973,1
91,646,47,0.0917342958173645,1
91,647,47,0.12353368636168,1
91,648,47,0.148586210199613,1
91,649,47,0.15492731871088,1
91,650,47,0.122450167551358,1
91,651,47,0.0835179567180691,1
92,619,47,0.0748247767880128,1
92,620,47,0.100176752089714,1
92,621,47,0.0789799760723581,1
92,626,47,0.0733282161138385,1
92,633,47,0.0716559828041581,1
92,634,47,0.0808219916381295,1
92,635,47,0.0826674531069591,1
92,636,47,0.0791373058051235,1
92,645,47,0.0748252930514673,1
92,646,47,0.0950209347097736,1
92,647,47,0.12697748704573,1
92,648,47,0.153241712311714,1
92,649,47,0.152151985899855,1
92,650,47,0.11879692562584,1
92,651,47,0.0785196432320598,1
93,625,47,0.0721840394576275,1
93,626,47,0.0881997385060195,1
93,627,47,0.076777440674183,1
93,634,47,0.0731838551678532,1
93,635,47,0.0741637418647248,1
93,636,47,0.0763975205319629,1
93,637,47,0.0760258668250574,1
93,638,47,0.0762180163508181,1
93,639,47,0.0737710830772646,1
93,645,47,0.080265254372745,1
93,646,47,0.107049655499464,1
93,647,47,0.14950545771072,1
93,648,47,0.173137970926711,1
93,649,47,0.14702005347974,1
93,650,47,0.114648182744697,1
93,651,47,0.0876849118810783,1
94,625,47,0.0742249657344018,1
94,626,47,0.085829299304323,1
94,627,47,0.0831162477700501,1
94,628,47,0.0788028106268628,1
94,629,47,0.074764156262373,1
94,636,47,0.0731414469240802,1
94,637,47,0.0765856145905866,1
94,638,47,0.0799934447739422,1
94,639,47,0.0782611196421598,1
94,640,47,0.0722393169675146,1
94,642,47,0.0738944327226537,1
94,643,47,0.0758872034371971,1
94,644,47,0.079093871254483,1
94,645,47,0.0898997132013303,1
94,646,47,0.120750939261042,1
94,647,47,0.158576256367597,1
94,648,47,0.166822103344343,1
94,649,47,0.125711882736991,1
94,650,47,0.100088782041066,1
94,651,47,0.0882546428134094,1
95,625,47,0.0721615415670838,1
95,626,47,0.0807568615823144,1
95,627,47,0.0866075633520449,1
95,628,47,0.0886355768224137,1
95,629,47,0.0828759426820585,1
95,640,47,0.0751028002083951,1
95,641,47,0.0823737116414002,1
95,642,47,0.0896056482936071,1
95,643,47,0.090017290648095,1
95,644,47,0.0891080511839565,1
95,645,47,0.106472149515107,1
95,646,47,0.142445163107049,1
95,647,47,0.147964380198663,1
95,648,47,0.128836284283796,1
95,649,47,0.0973004369029688,1
95,650,47,0.0798512857226908,1
96,625,47,0.0720226355976002,1
96,626,47,0.0780426344601752,1
96,627,47,0.0821179559700216,1
96,628,47,0.0830538296523819,1
96,629,47,0.0785793991719142,1
96,640,47,0.0728072316476924,1
96,641,47,0.0825190429138784,1
96,642,47,0.093807958173191,1
96,643,47,0.100827163181913,1
96,644,47,0.10485870803883,1
96,645,47,0.124558425778681,1
96,646,47,0.151627449789943,1
96,647,47,0.128328355685012,1
96,648,47,0.0989914049780122,1
96,649,47,0.0799129760954894,1
97,625,47,0.0737836724415058,1
97,626,47,0.0792469962391125,1
97,627,47,0.079059343803444,1
97,628,47,0.0766097670122015,1
97,629,47,0.0729013906377534,1
97,641,47,0.0745919419700082,1
97,642,47,0.0884049003588516,1
97,643,47,0.107363518799668,1
97,644,47,0.125287924700093,1
97,645,47,0.114054268290543,1
97,646,47,0.107051409551202,1
97,647,47,0.0900288723655936,1
97,648,47,0.0800900358002771,1
98,626,47,0.0714124868348148,1
98,642,47,0.0791005826793922,1
98,643,47,0.107814446937035,1
98,644,47,0.142337058783673,1
98,645,47,0.106579233751657,1
98,646,47,0.0753261494629274,1
99,643,47,0.0851496166962548,1
99,644,47,0.104400185230643,1
99,645,47,0.0815240415158674,1
100,644,47,0.0738289232442997,1
101,637,47,0.0740677044220942,1
101,638,47,0.0720602295291584,1
101,639,47,0.0772903888465546,1
101,640,47,0.0743040100233234,1
73,625,48,0.0766278113529445,1
74,625,48,0.0786728366371472,1
74,640,48,0.0730448247975372,1
75,624,48,0.0754155812213564,1
75,625,48,0.0942444371538721,1
75,626,48,0.0824397995836249,1
75,639,48,0.0720304293097515,1
75,640,48,0.0762662278934236,1
75,646,48,0.0790319942804358,1
75,647,48,0.0771794357441164,1
76,622,48,0.0798984211980959,1
76,623,48,0.0764206653068352,1
76,624,48,0.0873854977375609,1
76,625,48,0.117693166800083,1
76,626,48,0.0906927996082354,1
76,646,48,0.0860286889585307,1
76,647,48,0.0854167923640498,1
77,622,48,0.0866301918634626,1
77,623,48,0.0749854093628791,1
77,624,48,0.075040674432683,1
77,625,48,0.0884718466668201,1
77,646,48,0.0777510451290171,1
77,647,48,0.0758734260450062,1
78,646,48,0.0738777194708177,1
83,650,48,0.0780498372683725,1
83,651,48,0.087416541965292,1
84,650,48,0.0975936061246986,1
84,651,48,0.102987458277439,1
85,649,48,0.0824702840076102,1
85,650,48,0.0920531662510729,1
85,651,48,0.0850850651043104,1
86,647,48,0.073681974761,1
86,648,48,0.0837560101509938,1
86,649,48,0.0869274849727873,1
86,650,48,0.0886340218120084,1
86,651,48,0.0869958867704951,1
86,652,48,0.0717515537436671,1
87,647,48,0.0799060594092066,1
87,648,48,0.0871204742041668,1
87,649,48,0.0901101558694988,1
87,650,48,0.0984293993373746,1
87,651,48,0.112188118963282,1
87,652,48,0.101765052157758,1
88,646,48,0.0750027632790021,1
88,647,48,0.0931370271636837,1
88,648,48,0.105884268501325,1
88,649,48,0.111885003895,1
88,650,48,0.110828629346313,1
88,651,48,0.114374239671618,1
88,652,48,0.105362282608478,1
88,653,48,0.0720992727304144,1
89,619,48,0.0735703996543998,1
89,646,48,0.0890700467296512,1
89,647,48,0.125802844625659,1
89,648,48,0.145153941472728,1
89,649,48,0.145650188833347,1
89,650,48,0.124179699884453,1
89,651,48,0.099147776824368,1
89,652,48,0.078545891807701,1
90,619,48,0.0839639710225555,1
90,620,48,0.10202699677055,1
90,633,48,0.0771028919119265,1
90,634,48,0.0902709190652391,1
90,635,48,0.084095587103259,1
90,645,48,0.0731555788586434,1
90,646,48,0.0995806419608673,1
90,647,48,0.146132764542483,1
90,648,48,0.16794581606362,1
90,649,48,0.163931861484408,1
90,650,48,0.135977252827293,1
90,651,48,0.0979052177698352,1
91,619,48,0.0880197740417947,1
91,620,48,0.128155251926696,1
91,621,48,0.0907893968546119,1
91,633,48,0.0791725174607408,1
91,634,48,0.0955558396290679,1
91,635,48,0.0953558030905316,1
91,636,48,0.0829510621247172,1
91,645,48,0.0775220791769009,1
91,646,48,0.0994216141567393,1
91,647,48,0.138432775978325,1
91,648,48,0.157828831286233,1
91,649,48,0.154827399962278,1
91,650,48,0.124045732628016,1
91,651,48,0.0868343398495105,1
92,620,48,0.0901194361715976,1
92,621,48,0.0738297442897937,1
92,626,48,0.075242160240917,1
92,634,48,0.0762921654669838,1
92,635,48,0.080692689412909,1
92,636,48,0.0804104674644324,1
92,637,48,0.072640969935159,1
92,638,48,0.0732553545462884,1
92,639,48,0.0754086707551153,1
92,644,48,0.0717685033570847,1
92,645,48,0.0827790157734761,1
92,646,48,0.112231895616211,1
92,647,48,0.151180253677549,1
92,648,48,0.168286301141962,1
92,649,48,0.152377798290869,1
92,650,48,0.111337466071173,1
92,651,48,0.0759014348924263,1
93,625,48,0.0740136771405728,1
93,626,48,0.0903300219007233,1
93,627,48,0.0796706059536795,1
93,636,48,0.0766869515086784,1
93,637,48,0.079073513058257,1
93,638,48,0.0838793473562997,1
93,639,48,0.0835545367828431,1
93,644,48,0.0771003416948619,1
93,645,48,0.0954798307204574,1
93,646,48,0.128158399267756,1
93,647,48,0.165511702295848,1
93,648,48,0.176707652813091,1
93,649,48,0.142667143952425,1
93,650,48,0.106571147697549,1
93,651,48,0.086673334072147,1
94,625,48,0.0725196666834633,1
94,626,48,0.0876167588850353,1
94,627,48,0.0865238664719907,1
94,628,48,0.0754440627919396,1
94,637,48,0.0745157900004404,1
94,638,48,0.0766994662324202,1
94,639,48,0.0751359654703191,1
94,640,48,0.0746894846627111,1
94,641,48,0.0780525056662279,1
94,642,48,0.081440873339351,1
94,643,48,0.0800929841000055,1
94,644,48,0.0880876906762561,1
94,645,48,0.107912872875648,1
94,646,48,0.137999052476082,1
94,647,48,0.156712109893737,1
94,648,48,0.153953048711593,1
94,649,48,0.115078398143466,1
94,650,48,0.0922350713682835,1
94,651,48,0.0854597541915271,1
95,626,48,0.0773344578414404,1
95,627,48,0.0843893596690261,1
95,628,48,0.0803705969976408,1
95,629,48,0.0736216279171916,1
95,640,48,0.0782878160607978,1
95,641,48,0.0927635945248745,1
95,642,48,0.0988244217406508,1
95,643,48,0.098684302863051,1
95,644,48,0.0966814121407901,1
95,645,48,0.114856479498506,1
95,646,48,0.150744290960322,1
95,647,48,0.140253991724916,1
95,648,48,0.117125339200488,1
95,649,48,0.0894808431584786,1
95,650,48,0.0725001233126896,1
96,627,48,0.0768151590065736,1
96,628,48,0.0777696430534644,1
96,629,48,0.0725396703373169,1
96,640,48,0.0737145366788867,1
96,641,48,0.0849854324776228,1
96,642,48,0.0997054159957876,1
96,643,48,0.117091153851738,1
96,644,48,0.11130372856542,1
96,645,48,0.119806152259038,1
96,646,48,0.148938463596702,1
96,647,48,0.12273555550102,1
96,648,48,0.09389213399645,1
96,649,48,0.0754974369690908,1
97,627,48,0.072693261825068,1
97,628,48,0.0739191947083475,1
97,642,48,0.0890315135718082,1
97,643,48,0.116671114441062,1
97,644,48,0.11893355506009,1
97,645,48,0.104643600339445,1
97,646,48,0.100587567178666,1
97,647,48,0.0848992538009617,1
97,648,48,0.0742308125735257,1
98,642,48,0.0737864528001105,1
98,643,48,0.0974855888819057,1
98,644,48,0.115446736568187,1
98,645,48,0.0952416093464089,1
98,646,48,0.0720282958354754,1
99,643,48,0.0766090330472902,1
99,644,48,0.0915363616528962,1
99,645,48,0.0785835417196339,1
100,644,48,0.0718053135633987,1
74,625,49,0.0740097149740602,1
75,625,49,0.0877134121117864,1
75,626,49,0.0783537796021901,1
75,637,49,0.0717222262474233,1
75,646,49,0.0758521410625786,1
75,647,49,0.0757550897531638,1
76,624,49,0.0757631820273129,1
76,625,49,0.0991553714951874,1
76,626,49,0.0821723688941234,1
76,646,49,0.0825304566902532,1
76,647,49,0.0801627854070781,1
77,625,49,0.0752277359643976,1
77,646,49,0.0780331924369943,1
78,646,49,0.0802458043025956,1
83,650,49,0.0912071348498886,1
83,651,49,0.100843863993666,1
84,649,49,0.0780125170186455,1
84,650,49,0.103786926447047,1
84,651,49,0.109543792668881,1
85,637,49,0.0757661800873743,1
85,648,49,0.0813738772710496,1
85,649,49,0.090882765899387,1
85,650,49,0.0942847305834939,1
85,651,49,0.0859084431139105,1
86,646,49,0.0735006232274937,1
86,647,49,0.0805352290592695,1
86,648,49,0.0892874931646851,1
86,649,49,0.0935709061669672,1
86,650,49,0.0966656132350724,1
86,651,49,0.0954662710297233,1
86,652,49,0.0760051665265422,1
87,646,49,0.0740075690597009,1
87,647,49,0.0847594832456928,1
87,648,49,0.0929614975891347,1
87,649,49,0.0969612207131176,1
87,650,49,0.104605577225015,1
87,651,49,0.116588748649914,1
87,652,49,0.100880910561561,1
88,646,49,0.0811961271416419,1
88,647,49,0.106120232000265,1
88,648,49,0.125897687820298,1
88,649,49,0.128351245438178,1
88,650,49,0.118899593632839,1
88,651,49,0.109701383643394,1
88,652,49,0.089901852895648,1
89,619,49,0.077263636447542,1
89,620,49,0.0722862658416711,1
89,646,49,0.0941986763076653,1
89,647,49,0.136446094684529,1
89,648,49,0.161369378497659,1
89,649,49,0.159437694811877,1
89,650,49,0.138284589706743,1
89,651,49,0.103776476777124,1
90,619,49,0.0822127680644528,1
90,620,49,0.100266805852305,1
90,621,49,0.0728015838499004,1
90,633,49,0.0778963204211208,1
90,634,49,0.0923903795875221,1
90,635,49,0.0855093092631228,1
90,636,49,0.0750362146628406,1
90,645,49,0.076206279132279,1
90,646,49,0.100202969565147,1
90,647,49,0.146081312358192,1
90,648,49,0.165048918759151,1
90,649,49,0.157356120563108,1
90,650,49,0.139151738149231,1
90,651,49,0.103031110529536,1
91,619,49,0.0739454681641553,1
91,620,49,0.107708644029059,1
91,621,49,0.0846951493552052,1
91,633,49,0.0733517092110416,1
91,634,49,0.0896595822745041,1
91,635,49,0.0890413661177361,1
91,636,49,0.0821676105622832,1
91,644,49,0.0732302691184303,1
91,645,49,0.0811689828800072,1
91,646,49,0.106481168575458,1
91,647,49,0.149172299841408,1
91,648,49,0.159193334256748,1
91,649,49,0.14344273338225,1
91,650,49,0.11595378192106,1
91,651,49,0.0850953095128605,1
92,620,49,0.0731931665701601,1
92,635,49,0.0740673374396385,1
92,636,49,0.0791869977176349,1
92,637,49,0.0774409076337448,1
92,638,49,0.0850615720071073,1
92,639,49,0.0874056817726215,1
92,644,49,0.0738656401499894,1
92,645,49,0.088542102036931,1
92,646,49,0.125767377948335,1
92,647,49,0.169397374736666,1
92,648,49,0.173409015460395,1
92,649,49,0.145759176402633,1
92,650,49,0.102177876320154,1
92,651,49,0.0715642309702045,1
93,625,49,0.073295075732081,1
93,626,49,0.0842189367486481,1
93,627,49,0.0781555530957656,1
93,636,49,0.0777596101263295,1
93,637,49,0.0801697829539019,1
93,638,49,0.0847285509787108,1
93,639,49,0.0835658261583855,1
93,640,49,0.0724589279770327,1
93,644,49,0.0800460414458907,1
93,645,49,0.10340180012999,1
93,646,49,0.139063625039626,1
93,647,49,0.167138268059946,1
93,648,49,0.163798565992467,1
93,649,49,0.13275248468889,1
93,650,49,0.0973255783112015,1
93,651,49,0.0790655140847322,1
94,626,49,0.0809095884842802,1
94,627,49,0.0822927142594095,1
94,640,49,0.0746789727923713,1
94,641,49,0.0844563432972443,1
94,642,49,0.0860171383412402,1
94,643,49,0.0833369659469768,1
94,644,49,0.0917817422948507,1
94,645,49,0.117627806602728,1
94,646,49,0.146812192128844,1
94,647,49,0.149411559962407,1
94,648,49,0.133993930355972,1
94,649,49,0.103832227010174,1
94,650,49,0.0818990416051651,1
94,651,49,0.0739783348640815,1
95,627,49,0.0751271143510922,1
95,640,49,0.0780250504025122,1
95,641,49,0.0950243370725404,1
95,642,49,0.0999647170908902,1
95,643,49,0.104156502660051,1
95,644,49,0.100572222335987,1
95,645,49,0.114610128530059,1
95,646,49,0.145531249197467,1
95,647,49,0.133075105807696,1
95,648,49,0.110006103482415,1
95,649,49,0.0856877373770672,1
96,640,49,0.071627973956738,1
96,641,49,0.0824669127450515,1
96,642,49,0.0986931913025277,1
96,643,49,0.124881295699152,1
96,644,49,0.113077895917187,1
96,645,49,0.109348744603725,1
96,646,49,0.131308141264125,1
96,647,49,0.113282547726607,1
96,648,49,0.0897165702958371,1
97,642,49,0.0854719019328132,1
97,643,49,0.114194766590682,1
97,644,49,0.107231840518548,1
97,645,49,0.0941674268185606,1
97,646,49,0.0925903974659335,1
97,647,49,0.0800968032055609,1
98,643,49,0.086697697975177,1
98,644,49,0.093316605985328,1
98,645,49,0.0846660831007096,1
99,644,49,0.0810308481956846,1
99,645,49,0.073589177960054,1
74,632,50,0.0719440018314256,1
75,625,50,0.0736591596483336,1
76,625,50,0.0755129062126026,1
76,646,50,0.0728920667953633,1
77,646,50,0.0733992054488608,1
78,646,50,0.0781089774241064,1
83,642,50,0.0714716021103822,1
83,650,50,0.0908749410870276,1
83,651,50,0.0959199981858199,1
84,637,50,0.0724655150011095,1
84,649,50,0.0766958710483631,1
84,650,50,0.0925571078031771,1
84,651,50,0.0931600537577652,1
85,637,50,0.0761421069628735,1
85,647,50,0.0765756065436182,1
85,648,50,0.0866929085431287,1
85,649,50,0.0895722342300182,1
85,650,50,0.0880676870224024,1
85,651,50,0.0747590682683269,1
86,646,50,0.0752040811461123,1
86,647,50,0.0812575313925259,1
86,648,50,0.0866358521013379,1
86,649,50,0.0906592238235644,1
86,650,50,0.095959122247617,1
86,651,50,0.0873521769745964,1
87,646,50,0.0745827985088251,1
87,647,50,0.0857342259681437,1
87,648,50,0.0967840241674142,1
87,649,50,0.096274895100598,1
87,650,50,0.0993533803001552,1
87,651,50,0.0988087907760568,1
87,652,50,0.0809272782826508,1
88,646,50,0.0829228293557988,1
88,647,50,0.113098123492539,1
88,648,50,0.142665190859356,1
88,649,50,0.132074350871185,1
88,650,50,0.116199187443181,1
88,651,50,0.0950757581566224,1
89,645,50,0.0714619299456613,1
89,646,50,0.091945690151901,1
89,647,50,0.130498354045467,1
89,648,50,0.161040997620312,1
89,649,50,0.15271973885895,1
89,650,50,0.139537380729743,1
89,651,50,0.101222042524232,1
90,620,50,0.0817844559984202,1
90,633,50,0.0771840447949577,1
90,634,50,0.0894019232703895,1
90,635,50,0.084786602627161,1
90,636,50,0.0791302025175921,1
90,645,50,0.074399867084747,1
90,646,50,0.0937288765640196,1
90,647,50,0.128051526512621,1
90,648,50,0.143159062164075,1
90,649,50,0.132518586243768,1
90,650,50,0.125098275631064,1
90,651,50,0.0926248938167644,1
91,620,50,0.075488287287866,1
91,634,50,0.0827678570188077,1
91,635,50,0.0832331596723613,1
91,636,50,0.0803420283464749,1
91,637,50,0.0742663352312241,1
91,638,50,0.0753192887570193,1
91,639,50,0.0738330782321027,1
91,644,50,0.071601457919307,1
91,645,50,0.078886737648457,1
91,646,50,0.104587850106395,1
91,647,50,0.14282274451362,1
91,648,50,0.144844108759495,1
91,649,50,0.119265755042993,1
91,650,50,0.0963332266509212,1
92,636,50,0.0782770056284602,1
92,637,50,0.0822820593281125,1
92,638,50,0.0907600444782017,1
92,639,50,0.0881616407510899,1
92,644,50,0.0717709105131921,1
92,645,50,0.0873658797262877,1
92,646,50,0.124620352513061,1
92,647,50,0.162003287819437,1
92,648,50,0.155579427874442,1
92,649,50,0.120945439962535,1
92,650,50,0.0845346411811714,1
93,626,50,0.0760137812841875,1
93,627,50,0.0737761648512691,1
93,636,50,0.0754787022037278,1
93,637,50,0.078873750201552,1
93,638,50,0.079799877078692,1
93,639,50,0.075968754402892,1
93,644,50,0.0800326621363636,1
93,645,50,0.1015464363549,1
93,646,50,0.133339009733598,1
93,647,50,0.145717178681607,1
93,648,50,0.132605218983467,1
93,649,50,0.10670497811307,1
93,650,50,0.0785319340343032,1
94,626,50,0.0715149433603984,1
94,627,50,0.0735517022092866,1
94,640,50,0.0723074699635576,1
94,641,50,0.0851791370137887,1
94,642,50,0.0852644324445396,1
94,643,50,0.0836226337985114,1
94,644,50,0.0907554043271523,1
94,645,50,0.113290198377801,1
94,646,50,0.137819554514979,1
94,647,50,0.129341861706846,1
94,648,50,0.10832437838922,1
94,649,50,0.085088716268742,1
95,640,50,0.0753422158304349,1
95,641,50,0.0927732231493041,1
95,642,50,0.0978582999958868,1
95,643,50,0.103632725395217,1
95,644,50,0.0994629525533535,1
95,645,50,0.105708353284196,1
95,646,50,0.124275712446917,1
95,647,50,0.11495440783379,1
95,648,50,0.0957322275693605,1
95,649,50,0.0738801017467586,1
96,641,50,0.0797641118393703,1
96,642,50,0.0948097083163609,1
96,643,50,0.115354966074109,1
96,644,50,0.10325036077664,1
96,645,50,0.0949624227782434,1
96,646,50,0.10479992864551,1
96,647,50,0.096253585238004,1
96,648,50,0.0786463641400075,1
97,642,50,0.0771258065452589,1
97,643,50,0.0959033346943168,1
97,644,50,0.088231877461076,1
97,645,50,0.0805662484068342,1
97,646,50,0.0796434679120864,1
98,643,50,0.0726115180380828,1
98,644,50,0.0745576944208421,1
98,645,50,0.0720487411122842,1
74,633,51,0.0725701983015935,1
80,644,51,0.0740888898838558,1
81,643,51,0.0766082555420876,1
81,644,51,0.0792365154689809,1
81,645,51,0.0736921445290506,1
82,642,51,0.0736557697256501,1
82,643,51,0.0790622236827146,1
82,644,51,0.0737041305492545,1
83,642,51,0.0730515673226545,1
83,643,51,0.0725342713411897,1
83,650,51,0.0850711633112872,1
83,651,51,0.0805808219643526,1
84,647,51,0.075402239232079,1
84,648,51,0.0786909680584728,1
84,649,51,0.0769397464402453,1
84,650,51,0.0844902114238715,1
84,651,51,0.0753665548532985,1
85,646,51,0.0737479631825588,1
85,647,51,0.0833925668990282,1
85,648,51,0.0882691977108029,1
85,649,51,0.088530526539474,1
85,650,51,0.0907191601446259,1
85,651,51,0.0713724733070659,1
86,634,51,0.0718186742128009,1
86,646,51,0.0756581130842484,1
86,647,51,0.0789050245708232,1
86,648,51,0.0824783078613015,1
86,649,51,0.0895264360635617,1
86,650,51,0.0986175991367058,1
86,651,51,0.080422329083804,1
87,646,51,0.0770519186708412,1
87,647,51,0.0860496193985859,1
87,648,51,0.102393002679663,1
87,649,51,0.0987315689593302,1
87,650,51,0.0986186752039063,1
87,651,51,0.0836718405477764,1
88,646,51,0.0852563463904321,1
88,647,51,0.116736785640498,1
88,648,51,0.155421923980511,1
88,649,51,0.13089382429174,1
88,650,51,0.112654298642704,1
88,651,51,0.0855028341997952,1
89,636,51,0.0759944245146625,1
89,645,51,0.0726521597900354,1
89,646,51,0.0886324916817696,1
89,647,51,0.118565863519697,1
89,648,51,0.150342252350097,1
89,649,51,0.133940462878197,1
89,650,51,0.128409116705421,1
89,651,51,0.0935415413504737,1
90,633,51,0.071505345836177,1
90,634,51,0.0811075039886237,1
90,635,51,0.0825260777809519,1
90,636,51,0.0833835540587192,1
90,637,51,0.0761111560357667,1
90,645,51,0.0745129909817109,1
90,646,51,0.0888915066549577,1
90,647,51,0.110025286090774,1
90,648,51,0.118651538372987,1
90,649,51,0.106676589843111,1
90,650,51,0.102183822679944,1
90,651,51,0.0747514238371745,1
91,634,51,0.0760751046745305,1
91,635,51,0.0811744378565089,1
91,636,51,0.0830336518373629,1
91,637,51,0.0838961103684687,1
91,638,51,0.0834188154746695,1
91,639,51,0.0752164714690217,1
91,644,51,0.0721786280214171,1
91,645,51,0.0798980168953905,1
91,646,51,0.101814482828522,1
91,647,51,0.131241972461359,1
91,648,51,0.126218915649781,1
91,649,51,0.097616750899571,1
91,650,51,0.0758673428443007,1
92,635,51,0.0721778878364641,1
92,636,51,0.0802733466468941,1
92,637,51,0.0879488717873552,1
92,638,51,0.0895894886254753,1
92,639,51,0.0786619391242269,1
92,644,51,0.074184523023781,1
92,645,51,0.0887280004208624,1
92,646,51,0.117628553007722,1
92,647,51,0.142307563346306,1
92,648,51,0.127026923936535,1
92,649,51,0.0938068199055743,1
93,636,51,0.0718192837768798,1
93,637,51,0.0757807287647262,1
93,638,51,0.0726134151507773,1
93,643,51,0.0726877322080668,1
93,644,51,0.0828528725476857,1
93,645,51,0.0992687068735665,1
93,646,51,0.121101351525811,1
93,647,51,0.122054697305085,1
93,648,51,0.10265956878338,1
93,649,51,0.0819700807005203,1
94,641,51,0.0765969661665452,1
94,642,51,0.0774744398781245,1
94,643,51,0.0822618504128853,1
94,644,51,0.0903300716610563,1
94,645,51,0.103825565345598,1
94,646,51,0.119797742762767,1
94,647,51,0.110695271653955,1
94,648,51,0.090261365081309,1
95,641,51,0.0825471015216314,1
95,642,51,0.0882710886034558,1
95,643,51,0.0956411412798604,1
95,644,51,0.0956997465120149,1
95,645,51,0.0972687768911172,1
95,646,51,0.105344903812189,1
95,647,51,0.0997318325125527,1
95,648,51,0.0856744700282893,1
96,641,51,0.0743869604983831,1
96,642,51,0.0850204637520331,1
96,643,51,0.0950467292223765,1
96,644,51,0.0901634554061505,1
96,645,51,0.0862570826668178,1
96,646,51,0.0893786914149344,1
96,647,51,0.084331749643531,1
97,643,51,0.0776945795911803,1
97,644,51,0.0750486112057916,1
97,645,51,0.0730901813410386,1
97,646,51,0.0727037799154494,1
80,643,52,0.0787360198199348,1
80,644,52,0.0840586835963208,1
80,645,52,0.0726515626660398,1
81,643,52,0.0904416778678646,1
81,644,52,0.0929077191092782,1
81,645,52,0.0789824454288817,1
82,642,52,0.0760238017712392,1
82,643,52,0.0860687584666541,1
82,644,52,0.0787793797300759,1
83,643,52,0.0715594788584059,1
83,650,52,0.0758859843090393,1
84,647,52,0.0854071761797035,1
84,648,52,0.0821957251504109,1
84,649,52,0.0738903710354751,1
84,650,52,0.0777035613312813,1
85,646,52,0.0728558910332947,1
85,647,52,0.0853300787638093,1
85,648,52,0.0838288406183359,1
85,649,52,0.0824556482496756,1
85,650,52,0.0883512898201189,1
86,647,52,0.0732159754627848,1
86,648,52,0.0766075402373012,1
86,649,52,0.0844964874458672,1
86,650,52,0.092939820744085,1
87,646,52,0.0729926759685855,1
87,647,52,0.0818663801666124,1
87,648,52,0.10112477351336,1
87,649,52,0.0961001305911685,1
87,650,52,0.091804787549057,1
88,646,52,0.0779082877811999,1
88,647,52,0.105366773478529,1
88,648,52,0.145056100218027,1
88,649,52,0.117855883088892,1
88,650,52,0.0985828850844181,1
88,651,52,0.0720794929980591,1
89,636,52,0.0757204690015004,1
89,646,52,0.0779678757799305,1
89,647,52,0.0979082966904376,1
89,648,52,0.124630777302819,1
89,649,52,0.107323884694458,1
89,650,52,0.101296421781937,1
89,651,52,0.0740039241153109,1
90,635,52,0.0739488580868388,1
90,636,52,0.0805817300904292,1
90,637,52,0.0788090555486504,1
90,638,52,0.0720596013049547,1
90,646,52,0.0790810144284521,1
90,647,52,0.0902320935654399,1
90,648,52,0.0937641815202613,1
90,649,52,0.0830825413645051,1
90,650,52,0.076567974552549,1
91,635,52,0.0742881986775224,1
91,636,52,0.0821241449114346,1
91,637,52,0.0911479138336136,1
91,638,52,0.0872199077895225,1
91,639,52,0.0717953490567216,1
91,645,52,0.0728172707948689,1
91,646,52,0.0889070878592186,1
91,647,52,0.106214478070909,1
91,648,52,0.0982658744431545,1
91,649,52,0.0751201790046846,1
92,636,52,0.0782951743700356,1
92,637,52,0.0896739630107322,1
92,638,52,0.0851146849425104,1
92,645,52,0.078931739649586,1
92,646,52,0.0972588808048979,1
92,647,52,0.10774858913635,1
92,648,52,0.0906496014191765,1
93,644,52,0.0748264250990424,1
93,645,52,0.0841512937960181,1
93,646,52,0.0948792919219767,1
93,647,52,0.0897172918206652,1
93,648,52,0.0716449360102389,1
94,643,52,0.0741099944850764,1
94,644,52,0.0805034446465854,1
94,645,52,0.0831767563349407,1
94,646,52,0.0877722412654393,1
94,647,52,0.0808418584510675,1
95,641,52,0.0721619956301221,1
95,642,52,0.0768038198706983,1
95,643,52,0.0805895175825389,1
95,644,52,0.0812878727555539,1
95,645,52,0.0771622622092004,1
95,646,52,0.0765229974315864,1
95,647,52,0.0733522503546627,1
96,642,52,0.0732491531647921,1
96,643,52,0.0731829097215268,1
80,643,53,0.0814467574987246,1
80,644,53,0.0869126501735208,1
80,645,53,0.0739159416265797,1
81,643,53,0.0967027966438836,1
81,644,53,0.0975609695663125,1
81,645,53,0.0787499775933327,1
82,642,53,0.0724203388388151,1
82,643,53,0.0855376228925823,1
82,644,53,0.0787931757823916,1
83,630,53,0.0716080138431757,1
84,646,53,0.0717365572233185,1
84,647,53,0.0890071745489446,1
84,648,53,0.0787914839310706,1
85,635,53,0.0743683252536861,1
85,647,53,0.0813584391277458,1
85,648,53,0.0758478305737352,1
85,649,53,0.0748100539494955,1
85,650,53,0.078117505101169,1
86,649,53,0.0787451881612844,1
86,650,53,0.0807922287389723,1
87,647,53,0.0769771475505133,1
87,648,53,0.0933801561505713,1
87,649,53,0.0898891329105327,1
87,650,53,0.082023230956173,1
88,647,53,0.0890699223288188,1
88,648,53,0.119493557847326,1
88,649,53,0.0997812756233992,1
88,650,53,0.0816165397548156,1
89,636,53,0.0751832626668063,1
89,647,53,0.0793626579130579,1
89,648,53,0.0980251837125823,1
89,649,53,0.0853401490111939,1
89,650,53,0.0751484428738111,1
90,636,53,0.078533003881462,1
90,637,53,0.080288896750947,1
90,638,53,0.0745756641210856,1
90,647,53,0.0745628632754293,1
90,648,53,0.0756071336231214,1
91,636,53,0.0819497660445856,1
91,637,53,0.0930488331935373,1
91,638,53,0.0857370498670397,1
91,646,53,0.0764638199556028,1
91,647,53,0.0819193998013912,1
91,648,53,0.0742573597111647,1
92,636,53,0.0733545020097295,1
92,637,53,0.0836081162213677,1
92,638,53,0.0769165892252898,1
92,646,53,0.0767572317589558,1
92,647,53,0.0771703420432663,1
80,643,54,0.0776385370161737,1
80,644,54,0.080437991148606,1
81,643,54,0.095920489569108,1
81,644,54,0.0938851862099592,1
82,643,54,0.0796509257419902,1
82,644,54,0.0743904810419407,1
84,647,54,0.0733726956314714,1
87,648,54,0.0793642564637545,1
87,649,54,0.0773576026163127,1
88,647,54,0.0735462721129513,1
88,648,54,0.0901925527608542,1
88,649,54,0.0805017838954726,1
89,648,54,0.074830256644681,1
90,637,54,0.0734789961427769,1
91,636,54,0.0728997485467654,1
91,637,54,0.0816454505082707,1
91,638,54,0.0745382505707344,1
80,644,55,0.0740097647343931,1
81,643,55,0.0895151777882274,1
81,644,55,0.091590774576998,1
82,643,55,0.0732106573271988,1
82,644,55,0.074705756291592,1
81,643,56,0.0745074116043767,1
81,644,56,0.0830415015298887,1
