x,y,z,signal,mito.p
583,697,8,0.144412462751154,1
585,698,8,0.136951473066248,1
586,698,8,0.153147802123318,1
587,697,8,0.143546496116574,1
587,698,8,0.202253624992914,1
588,697,8,0.160251736539003,1
588,698,8,0.222816099825869,1
589,697,8,0.149404245193461,1
589,698,8,0.184240459098555,1
590,697,8,0.16066943721403,1
591,696,8,0.149215728172007,1
591,697,8,0.206807616025758,1
592,696,8,0.146475675437057,1
592,697,8,0.208085996299987,1
593,695,8,0.111491859944293,1
593,696,8,0.138632489074697,1
594,696,8,0.139696912357242,1
576,690,9,0.109177481977728,1
577,690,9,0.0886147085827747,1
577,691,9,0.12859289405516,1
577,692,9,0.155461160003057,1
577,693,9,0.151605405962438,1
577,694,9,0.137682825560063,1
578,690,9,0.0741113691142747,1
578,691,9,0.105094310775356,1
578,692,9,0.131379223899772,1
578,693,9,0.139881510752475,1
578,694,9,0.136697148004442,1
578,695,9,0.121367880309277,1
579,691,9,0.0892090895400505,1
579,692,9,0.112679676412518,1
579,693,9,0.12375779446129,1
579,694,9,0.124574846688561,1
580,691,9,0.074544414631981,1
580,692,9,0.0927049146522206,1
580,693,9,0.102367034005895,1
580,694,9,0.106138966765628,1
580,695,9,0.102916748844289,1
580,697,9,0.115908823460223,1
581,692,9,0.078202321588715,1
581,693,9,0.086000493509862,1
581,694,9,0.0914796597534777,1
581,695,9,0.0970563935699629,1
581,696,9,0.113240910767995,1
581,697,9,0.136107251697175,1
581,698,9,0.146676222019006,1
582,693,9,0.0769599429153892,1
582,694,9,0.0810076474404377,1
582,695,9,0.0900875086979562,1
582,696,9,0.118949814248888,1
582,697,9,0.165209694394975,1
582,698,9,0.200840282255589,1
583,693,9,0.0744314897763489,1
583,694,9,0.0752264297556571,1
583,695,9,0.0781714017618163,1
583,696,9,0.106812622153366,1
583,697,9,0.166986225362559,1
583,698,9,0.231928211999194,1
583,699,9,0.249747810198303,1
584,694,9,0.0719664561816779,1
584,696,9,0.0869759639771825,1
584,697,9,0.13287994578179,1
584,698,9,0.192676577148492,1
584,699,9,0.230948107600865,1
585,696,9,0.0775687979095174,1
585,697,9,0.115057113161038,1
585,698,9,0.169435267230222,1
585,699,9,0.204110071055247,1
586,696,9,0.0815194697852759,1
586,697,9,0.134387895352173,1
586,698,9,0.209633492894997,1
586,699,9,0.229977308384802,1
587,696,9,0.0928111902833596,1
587,697,9,0.161732579168001,1
587,698,9,0.259445999573338,1
587,699,9,0.268170428992499,1
588,696,9,0.108266469801727,1
588,697,9,0.16887884718696,1
588,698,9,0.253898443972098,1
588,699,9,0.257353627332315,1
589,695,9,0.0808372742803927,1
589,696,9,0.117494113028123,1
589,697,9,0.151893008246917,1
589,698,9,0.195127945311721,1
589,699,9,0.192953480961382,1
590,695,9,0.0934601396657777,1
590,696,9,0.129096916467805,1
590,697,9,0.158624523890577,1
590,698,9,0.17307262316944,1
591,694,9,0.0733276625301343,1
591,695,9,0.1046259292012,1
591,696,9,0.141146853819466,1
591,697,9,0.185407537948015,1
591,698,9,0.198430376889806,1
592,695,9,0.110225596311142,1
592,696,9,0.140806107499376,1
592,697,9,0.191138920659327,1
592,698,9,0.219530549440744,1
593,696,9,0.143556361102585,1
593,697,9,0.183337545416745,1
594,697,9,0.171168145945708,1
575,688,10,0.100524943799624,1
575,689,10,0.130254951376748,1
576,682,10,0.095337932910954,1
576,688,10,0.0714656992908838,1
576,689,10,0.089934377493285,1
577,681,10,0.126482632974435,1
577,682,10,0.0911457368190462,1
577,690,10,0.0984169405940074,1
577,695,10,0.186261786024181,1
578,681,10,0.108342005987175,1
578,690,10,0.081510438284842,1
578,691,10,0.136706925909871,1
578,693,10,0.194690240982841,1
578,694,10,0.175396331198436,1
578,695,10,0.164932952303166,1
578,696,10,0.15373744962892,1
579,681,10,0.112755834602127,1
579,691,10,0.113900197859587,1
579,692,10,0.152988668578483,1
579,693,10,0.154603677505249,1
579,694,10,0.143908539859174,1
579,695,10,0.139884085849706,1
579,696,10,0.141732570258763,1
579,697,10,0.138435351075557,1
580,681,10,0.119929346403387,1
580,682,10,0.0736690059742199,1
580,691,10,0.0821726239158299,1
580,692,10,0.105693698866136,1
580,693,10,0.111477528968398,1
580,694,10,0.111755875830944,1
580,695,10,0.119290137606147,1
580,696,10,0.138936238587225,1
580,697,10,0.155839661975788,1
580,698,10,0.148799557627219,1
581,692,10,0.0801279531739996,1
581,693,10,0.0898185354381327,1
581,694,10,0.0936711670178585,1
581,695,10,0.105562431107764,1
581,696,10,0.140871243775233,1
581,697,10,0.185655182685119,1
581,698,10,0.197140054135665,1
581,699,10,0.167408939391132,1
582,692,10,0.0753697519546917,1
582,693,10,0.0853752238258956,1
582,694,10,0.0853373188922563,1
582,695,10,0.0916263967553624,1
582,696,10,0.129567263575114,1
582,697,10,0.198984532837918,1
582,698,10,0.246465743036485,1
582,699,10,0.229367769186096,1
583,678,10,0.072507717983509,1
583,693,10,0.0781115711814624,1
583,694,10,0.0765328313173895,1
583,695,10,0.0758100189407202,1
583,696,10,0.100766499115982,1
583,697,10,0.165971960495647,1
583,698,10,0.23847393499963,1
583,699,10,0.256036396678121,1
583,700,10,0.217986486308709,1
584,678,10,0.094606561757014,1
584,696,10,0.0782561995892375,1
584,697,10,0.126290197326759,1
584,698,10,0.195800617932882,1
584,699,10,0.229209805009085,1
584,700,10,0.20865508034799,1
585,678,10,0.0841032377544531,1
585,696,10,0.0719975066294507,1
585,697,10,0.124588605420627,1
585,698,10,0.212634936659034,1
585,699,10,0.244997962494892,1
585,700,10,0.198480933388103,1
586,696,10,0.0743277457021497,1
586,697,10,0.143612353917258,1
586,698,10,0.265519074051067,1
586,699,10,0.298148889912139,1
586,700,10,0.210677738362522,1
587,696,10,0.0813497621696843,1
587,697,10,0.152630170259606,1
587,698,10,0.276390636957683,1
587,699,10,0.300825149900222,1
587,700,10,0.20732885551361,1
588,696,10,0.0923343805528068,1
588,697,10,0.142387714802636,1
588,698,10,0.224012810953613,1
588,699,10,0.238760654038199,1
588,700,10,0.177821313945109,1
589,695,10,0.076318563323624,1
589,696,10,0.112532858550092,1
589,697,10,0.140446215891176,1
589,698,10,0.171791568277313,1
589,699,10,0.170088259639694,1
589,700,10,0.139941335112787,1
590,695,10,0.0985710545652547,1
590,696,10,0.14283360470629,1
590,697,10,0.17020941361039,1
590,698,10,0.180790911096046,1
590,699,10,0.15531502634521,1
591,695,10,0.109740856027522,1
591,696,10,0.148173684599215,1
591,697,10,0.17736608153894,1
591,698,10,0.192615633180688,1
591,699,10,0.161919640699716,1
592,694,10,0.081815425585652,1
592,695,10,0.108707620033666,1
592,696,10,0.135095151404748,1
592,697,10,0.168565991533499,1
592,698,10,0.200475352413676,1
592,699,10,0.177475703552471,1
593,697,10,0.169193568852907,1
593,698,10,0.208520242285726,1
594,698,10,0.20453193915816,1
573,687,11,0.160129550041398,1
574,683,11,0.0981767225865985,1
574,684,11,0.105466667346964,1
574,686,11,0.11648272182044,1
574,687,11,0.139236081913614,1
575,682,11,0.0942893334142936,1
575,683,11,0.0800876659644194,1
575,685,11,0.0794782387264621,1
575,686,11,0.0889111122261475,1
575,687,11,0.108688350344724,1
575,688,11,0.126934369717213,1
576,681,11,0.123990697699752,1
576,682,11,0.0897601168072268,1
576,687,11,0.0730756202236035,1
576,688,11,0.0837559790507857,1
576,689,11,0.100884586606159,1
577,680,11,0.116757025655933,1
577,681,11,0.115063109281161,1
577,682,11,0.0833896994598409,1
577,690,11,0.107837859173697,1
578,680,11,0.0951056205764456,1
578,681,11,0.0966667763828555,1
578,682,11,0.0736013381414234,1
578,690,11,0.0906440096017591,1
578,695,11,0.208323303327917,1
578,696,11,0.208999720414134,1
578,697,11,0.168315684618581,1
579,680,11,0.0851315599154285,1
579,681,11,0.0916840503211488,1
579,690,11,0.0725943507232084,1
579,691,11,0.129151304511741,1
579,693,11,0.168503044712293,1
579,694,11,0.150594089395254,1
579,695,11,0.162842421194463,1
579,696,11,0.182482376774419,1
579,697,11,0.172624319889637,1
579,698,11,0.142875664627732,1
580,680,11,0.0811136618298286,1
580,681,11,0.0891746305094693,1
580,691,11,0.081892722042878,1
580,692,11,0.106676453002195,1
580,693,11,0.109611839924216,1
580,694,11,0.107725774023684,1
580,695,11,0.12510896166257,1
580,696,11,0.165170060289765,1
580,697,11,0.192213569690297,1
580,698,11,0.178936119564785,1
580,699,11,0.15121927821868,1
581,692,11,0.0792475249426503,1
581,693,11,0.091117286348671,1
581,694,11,0.0901543057249257,1
581,695,11,0.0988318982306794,1
581,696,11,0.143840094521175,1
581,697,11,0.210893947009274,1
581,698,11,0.235051369537674,1
581,699,11,0.203490144387033,1
581,700,11,0.169695439131151,1
582,692,11,0.079003717971226,1
582,693,11,0.0936907725890484,1
582,694,11,0.0858166788398737,1
582,695,11,0.0811617738517682,1
582,696,11,0.112600843605012,1
582,697,11,0.18826585855435,1
582,698,11,0.24715569493327,1
582,699,11,0.239735981444562,1
582,700,11,0.209687457976102,1
583,693,11,0.0777961590908954,1
583,694,11,0.0727742343268922,1
583,696,11,0.0806994319380263,1
583,697,11,0.132127681508045,1
583,698,11,0.198365389894949,1
583,699,11,0.219867128332948,1
583,700,11,0.203287296389684,1
583,701,11,0.183625533343804,1
584,697,11,0.104703990723545,1
584,698,11,0.175362220490186,1
584,699,11,0.200774971818567,1
584,700,11,0.171443158865946,1
584,701,11,0.160609227211138,1
585,697,11,0.118465559128514,1
585,698,11,0.230636558156145,1
585,699,11,0.260131696961654,1
585,700,11,0.177112764123877,1
585,701,11,0.148027389220286,1
586,697,11,0.135485185334644,1
586,698,11,0.282283827831728,1
586,699,11,0.325449598033705,1
586,700,11,0.203841713579544,1
586,701,11,0.144173613152902,1
587,696,11,0.0731078835794924,1
587,697,11,0.130706849840608,1
587,698,11,0.250905683386163,1
587,699,11,0.290163401437571,1
587,700,11,0.194911786425303,1
587,701,11,0.135499690471704,1
588,696,11,0.0814909508944429,1
588,697,11,0.114298865207253,1
588,698,11,0.17179658163086,1
588,699,11,0.195340931976913,1
588,700,11,0.157621567059332,1
588,701,11,0.126107701305595,1
589,695,11,0.0757734264358629,1
589,696,11,0.111520385055168,1
589,697,11,0.131011159156881,1
589,698,11,0.145611288693048,1
589,699,11,0.146384925029804,1
589,700,11,0.129796696030351,1
590,695,11,0.105091922279373,1
590,696,11,0.156242596272006,1
590,697,11,0.175091822840831,1
590,698,11,0.177288865942255,1
590,699,11,0.155721555825485,1
590,700,11,0.12302895486429,1
591,695,11,0.11037437970672,1
591,696,11,0.1504307386622,1
591,697,11,0.165145976288608,1
591,698,11,0.176394672758798,1
591,699,11,0.160121899390204,1
591,700,11,0.123024103231825,1
592,695,11,0.105792199445249,1
592,696,11,0.126614970579966,1
592,697,11,0.144529897136961,1
592,698,11,0.174539868787453,1
592,699,11,0.172084843239751,1
593,698,11,0.182298375503182,1
573,683,12,0.107993521935308,1
573,687,12,0.164252591710561,1
574,682,12,0.096005306056654,1
574,683,12,0.085875893636107,1
574,684,12,0.0924669482998785,1
574,685,12,0.0951011110462703,1
574,686,12,0.108802425908056,1
574,687,12,0.145006277684642,1
575,681,12,0.10436011572252,1
575,682,12,0.0802943206272406,1
575,686,12,0.0813139844902795,1
575,687,12,0.11276958089411,1
575,688,12,0.132404647521352,1
576,680,12,0.0996573723943058,1
576,681,12,0.0932618074186456,1
576,688,12,0.0813121246978347,1
576,689,12,0.0947574039863686,1
577,679,12,0.0741134466081761,1
577,680,12,0.08493684773252,1
577,681,12,0.0834041672766517,1
578,680,12,0.0719700638058182,1
578,681,12,0.071423844630815,1
578,690,12,0.0836762567773274,1
578,697,12,0.210351385218744,1
578,698,12,0.155963192002384,1
579,691,12,0.115498848076889,1
579,694,12,0.137301823130601,1
579,695,12,0.167018830820737,1
579,696,12,0.210897504873081,1
579,697,12,0.204492093571535,1
579,698,12,0.168986926630169,1
579,699,12,0.15080559569054,1
580,692,12,0.0875858266180533,1
580,693,12,0.0922720495157213,1
580,694,12,0.0921023419001297,1
580,695,12,0.116096917518846,1
580,696,12,0.174135528761829,1
580,697,12,0.22031193594936,1
580,698,12,0.212189556798793,1
580,699,12,0.181427009872475,1
580,700,12,0.161774875451025,1
581,693,12,0.084554694595358,1
581,694,12,0.080936502604375,1
581,695,12,0.0858681185840806,1
581,696,12,0.131688894891922,1
581,697,12,0.211691157303774,1
581,698,12,0.252487663891921,1
581,699,12,0.228310511391499,1
581,700,12,0.204648204176142,1
582,692,12,0.0719725518224666,1
582,693,12,0.0892688330398217,1
582,694,12,0.0782608521803701,1
582,696,12,0.0908649765803506,1
582,697,12,0.156448529409999,1
582,698,12,0.21787295810904,1
582,699,12,0.229259217019723,1
582,700,12,0.229113245082958,1
582,701,12,0.215588859305086,1
583,697,12,0.0988301192987757,1
583,698,12,0.150443228505775,1
583,699,12,0.178660609041217,1
583,700,12,0.186222102158638,1
583,701,12,0.188318716468046,1
584,697,12,0.0855192488896334,1
584,698,12,0.146394839776148,1
584,699,12,0.167803339790246,1
584,700,12,0.144685957981236,1
584,701,12,0.161660003722365,1
585,697,12,0.102828934296682,1
585,698,12,0.20894882803359,1
585,699,12,0.234672743164111,1
585,700,12,0.153857210310294,1
585,701,12,0.15820137445909,1
586,697,12,0.117089449560334,1
586,698,12,0.253131214278212,1
586,699,12,0.297157713839725,1
586,700,12,0.180898592456591,1
586,701,12,0.150196429694331,1
587,697,12,0.104914277890673,1
587,698,12,0.204738929703228,1
587,699,12,0.2514382184696,1
587,700,12,0.173421940706883,1
587,701,12,0.137745996302768,1
588,697,12,0.0902745453495042,1
588,698,12,0.129300162547818,1
588,699,12,0.157114310225044,1
588,700,12,0.138592382246324,1
588,701,12,0.127124491509405,1
589,696,12,0.0945272064660113,1
589,697,12,0.110547645186119,1
589,698,12,0.121722211200268,1
589,699,12,0.129822285281581,1
589,700,12,0.123292473147611,1
590,695,12,0.0894184063806855,1
590,696,12,0.136092186756369,1
590,697,12,0.148097750331104,1
590,698,12,0.152882218786178,1
590,699,12,0.145833207338008,1
590,700,12,0.121410947877462,1
591,695,12,0.0908854031970344,1
591,696,12,0.127090505201987,1
591,697,12,0.136423963776441,1
591,698,12,0.152132119086917,1
591,699,12,0.152682990853053,1
591,700,12,0.125749837430963,1
592,698,12,0.1525763544595,1
592,699,12,0.171844874034007,1
573,682,13,0.0930508795872307,1
573,683,13,0.0960946756146667,1
573,687,13,0.154341316149668,1
574,681,13,0.107674757242307,1
574,682,13,0.0838325477631421,1
574,683,13,0.0764867345889351,1
574,684,13,0.0818023510581643,1
574,685,13,0.0856205858077252,1
574,686,13,0.0996833970484487,1
574,687,13,0.13653300110606,1
575,680,13,0.0932665284302361,1
575,681,13,0.0811582533082107,1
575,686,13,0.0738807859513369,1
575,687,13,0.10771302293836,1
575,688,13,0.129733002804151,1
576,688,13,0.07843738318162,1
576,689,13,0.0905782762019068,1
577,690,13,0.0939947771232823,1
578,698,13,0.164132059744027,1
578,699,13,0.14894739557647,1
579,678,13,0.0907272213185669,1
579,691,13,0.0846675199303241,1
579,694,13,0.104285493883191,1
579,695,13,0.137696783333461,1
579,697,13,0.207948097977246,1
579,698,13,0.177043124537886,1
579,699,13,0.157062186276259,1
579,700,13,0.142851381585243,1
580,695,13,0.0892003255014063,1
580,696,13,0.148648920659238,1
580,697,13,0.213128235719925,1
580,698,13,0.222287993412067,1
580,699,13,0.19187870752958,1
580,700,13,0.169356732984713,1
580,701,13,0.162327053425901,1
581,693,13,0.071462757211197,1
581,696,13,0.102889896924611,1
581,697,13,0.17787303981123,1
581,698,13,0.233173290170583,1
581,699,13,0.225162697608032,1
581,700,13,0.21082517822911,1
581,701,13,0.198185891933845,1
582,693,13,0.0740460586772526,1
582,697,13,0.114928047297399,1
582,698,13,0.171704686735949,1
582,699,13,0.201032294940434,1
582,700,13,0.216618599635552,1
582,701,13,0.206501913420161,1
583,697,13,0.0761431394897826,1
583,698,13,0.115190881376143,1
583,699,13,0.148026742335957,1
583,700,13,0.162869975978845,1
583,701,13,0.170374070552186,1
583,702,13,0.163295016302985,1
584,697,13,0.0744915753784093,1
584,698,13,0.120487371217387,1
584,699,13,0.140061058473911,1
584,700,13,0.126805565095322,1
584,701,13,0.158150034235549,1
584,702,13,0.231618727608291,1
585,697,13,0.0936486380271067,1
585,698,13,0.176161918801334,1
585,699,13,0.194129889873274,1
585,700,13,0.134641138126737,1
585,701,13,0.163806266403994,1
585,702,13,0.277019607566414,1
586,697,13,0.103136720616221,1
586,698,13,0.211547822664656,1
586,699,13,0.247259694029176,1
586,700,13,0.157396488633229,1
586,701,13,0.159178294196108,1
586,702,13,0.254349421869798,1
587,697,13,0.0862738643391117,1
587,698,13,0.16618245914419,1
587,699,13,0.211904504731379,1
587,700,13,0.15463951738507,1
587,701,13,0.147708350845454,1
587,702,13,0.213927809630241,1
588,697,13,0.076782988951309,1
588,698,13,0.110513758399367,1
588,699,13,0.140160666220432,1
588,700,13,0.130225331538548,1
588,701,13,0.135450266020983,1
589,696,13,0.0802379981503611,1
589,697,13,0.0975127331435404,1
589,698,13,0.112425936034625,1
589,699,13,0.123923197808079,1
589,700,13,0.11957767769021,1
589,701,13,0.129117119162991,1
590,695,13,0.071959296913772,1
590,696,13,0.111023789372218,1
590,697,13,0.123429948507522,1
590,698,13,0.132366045943051,1
590,699,13,0.132221902698522,1
590,700,13,0.115561720257596,1
590,701,13,0.127374076899495,1
591,695,13,0.0726457904674154,1
591,696,13,0.103555198796451,1
591,697,13,0.115140598559677,1
591,698,13,0.133723370985535,1
591,699,13,0.142065578847077,1
591,700,13,0.125806962293212,1
592,695,13,0.0767420175371505,1
592,696,13,0.0921985970442171,1
592,698,13,0.135809548065104,1
592,699,13,0.164190416174516,1
572,683,14,0.105900639650872,1
573,682,14,0.0796212312632908,1
573,683,14,0.0788030718686108,1
573,684,14,0.0923699529708382,1
573,687,14,0.151962088029161,1
574,681,14,0.0855893674188287,1
574,685,14,0.0740618264827622,1
574,686,14,0.093936003950004,1
574,687,14,0.127533658287327,1
574,688,14,0.164243622410544,1
575,680,14,0.0770350374778814,1
575,687,14,0.0974532446654757,1
575,688,14,0.126569688676964,1
575,689,14,0.150317844906776,1
576,688,14,0.0736465951642589,1
576,689,14,0.0860393314497445,1
577,690,14,0.0798520507878102,1
578,691,14,0.103099468786952,1
578,698,14,0.160404413680636,1
579,692,14,0.0782023651290064,1
579,693,14,0.0773142178260052,1
579,694,14,0.0757128121302648,1
579,695,14,0.0993356469614933,1
579,696,14,0.152288540693606,1
579,697,14,0.183859257627761,1
579,698,14,0.172445282211613,1
579,699,14,0.153249537124074,1
579,700,14,0.140538222746836,1
579,701,14,0.12916189102258,1
580,696,14,0.106740245749062,1
580,697,14,0.17300651656709,1
580,698,14,0.200579625191413,1
580,699,14,0.17719745621059,1
580,700,14,0.15492056374568,1
580,701,14,0.152466856846801,1
581,697,14,0.123478838034664,1
581,698,14,0.177338402353726,1
581,699,14,0.185685163285733,1
581,700,14,0.179636869453824,1
581,701,14,0.171592315464021,1
581,702,14,0.13356059249631,1
582,697,14,0.0746089786640085,1
582,698,14,0.117924303546725,1
582,699,14,0.154231855857219,1
582,700,14,0.171838815713468,1
582,701,14,0.161326721452221,1
582,702,14,0.113967436509512,1
583,698,14,0.0808899020525493,1
583,699,14,0.11231814271333,1
583,700,14,0.129311955746732,1
583,701,14,0.136222695669664,1
583,702,14,0.135361157704718,1
584,698,14,0.0854412495677041,1
584,699,14,0.10281261912751,1
584,700,14,0.106851211291583,1
584,701,14,0.144664013674396,1
584,702,14,0.21851665777633,1
584,703,14,0.212311867697232,1
585,697,14,0.0730834201557965,1
585,698,14,0.121479281254712,1
585,699,14,0.132611389264756,1
585,700,14,0.109399313542105,1
585,701,14,0.156991228041445,1
585,702,14,0.270365730482269,1
585,703,14,0.291610531440982,1
586,697,14,0.0769465449457372,1
586,698,14,0.144078359435515,1
586,699,14,0.167984255920839,1
586,700,14,0.122142785534524,1
586,701,14,0.158893080407612,1
586,702,14,0.269071240300241,1
586,703,14,0.3108137156983,1
587,698,14,0.114745824958066,1
587,699,14,0.149574114530135,1
587,700,14,0.120337256732902,1
587,701,14,0.150267885532475,1
587,702,14,0.247542730803104,1
587,703,14,0.31128606565901,1
588,698,14,0.0832113335463127,1
588,699,14,0.108659725713183,1
588,700,14,0.108332265401996,1
588,701,14,0.140202203658378,1
588,702,14,0.226743658026964,1
589,697,14,0.0737132055899798,1
589,698,14,0.0884573353097179,1
589,699,14,0.100728631502592,1
589,700,14,0.102723877793701,1
589,701,14,0.131781797433576,1
589,702,14,0.21363083996308,1
590,696,14,0.0739889089348374,1
590,697,14,0.0881775018572239,1
590,698,14,0.100131967790041,1
590,699,14,0.107940564500945,1
590,700,14,0.105459875061514,1
590,701,14,0.128608307318297,1
590,702,14,0.204300180407355,1
591,696,14,0.0715740088756329,1
591,697,14,0.0858369872757667,1
591,698,14,0.107021391630338,1
591,699,14,0.127847446947031,1
591,700,14,0.128437517415464,1
591,701,14,0.136869629758597,1
592,697,14,0.0840838623248032,1
592,699,14,0.146382499213572,1
592,700,14,0.155458535145493,1
592,701,14,0.153072091776706,1
572,683,15,0.0895995713129432,1
572,684,15,0.120003588820177,1
573,681,15,0.0755933437908473,1
573,684,15,0.0808136132420658,1
573,685,15,0.103609568180262,1
573,686,15,0.136071001294607,1
573,687,15,0.147649061408721,1
574,680,15,0.076177399479032,1
574,686,15,0.0872751355390767,1
574,687,15,0.110302077942916,1
574,688,15,0.142318411098893,1
575,679,15,0.0753470985631075,1
575,687,15,0.0790752671099941,1
575,688,15,0.105432345157299,1
575,689,15,0.131934511895458,1
576,689,15,0.0715308853270734,1
576,690,15,0.102051559714912,1
577,678,15,0.0893155890926878,1
577,679,15,0.0746218479301227,1
577,691,15,0.115253032032021,1
578,678,15,0.0957868457548359,1
578,679,15,0.0719725082821753,1
578,692,15,0.099808220843702,1
578,693,15,0.0996923974486745,1
578,694,15,0.104743767889712,1
578,698,15,0.145558754221516,1
579,678,15,0.0805186588683908,1
579,696,15,0.104741298533189,1
579,697,15,0.146459565529258,1
579,698,15,0.155706067921849,1
579,699,15,0.142333326758701,1
579,700,15,0.134898511008937,1
579,701,15,0.128262547644661,1
580,696,15,0.0726000731614999,1
580,697,15,0.122879723625715,1
580,698,15,0.158532293113418,1
580,699,15,0.150548446729838,1
580,700,15,0.134676517723478,1
580,701,15,0.136362522205307,1
580,702,15,0.125053702812807,1
581,697,15,0.0782532699496339,1
581,698,15,0.119569454795187,1
581,699,15,0.141541465699995,1
581,700,15,0.140425117509997,1
581,701,15,0.133111928454093,1
581,702,15,0.105685563051696,1
582,698,15,0.0782905342189862,1
582,699,15,0.112783488907175,1
582,700,15,0.125712367900238,1
582,701,15,0.112030826550766,1
582,702,15,0.0819451258935362,1
583,699,15,0.0820517063067147,1
583,700,15,0.0999876192841393,1
583,701,15,0.105454053102557,1
583,702,15,0.103198019126398,1
584,699,15,0.0713512318649297,1
584,700,15,0.0901129362281034,1
584,701,15,0.130437671319411,1
584,702,15,0.178200014959171,1
584,703,15,0.150423311932504,1
585,698,15,0.0764038836345414,1
585,699,15,0.0837630450180673,1
585,700,15,0.0899575409282822,1
585,701,15,0.146180658862965,1
585,702,15,0.229716539359877,1
585,703,15,0.213451230041228,1
586,698,15,0.0893758239757471,1
586,699,15,0.104632883207732,1
586,700,15,0.0945506062625901,1
586,701,15,0.148350072539508,1
586,702,15,0.247254394553714,1
586,703,15,0.253704254272686,1
587,698,15,0.0759336484879822,1
587,699,15,0.0991606834107319,1
587,700,15,0.0920580925240369,1
587,701,15,0.140387175256108,1
587,702,15,0.246455392887227,1
587,703,15,0.284507741512955,1
588,699,15,0.0825361604684198,1
588,700,15,0.0875272773662734,1
588,701,15,0.133844947919063,1
588,702,15,0.239831794965694,1
588,703,15,0.290597485702228,1
589,699,15,0.0797039453767689,1
589,700,15,0.084723145762542,1
589,701,15,0.124883572234385,1
589,702,15,0.22134687623462,1
590,698,15,0.077407493570156,1
590,699,15,0.0897556134970931,1
590,700,15,0.0958033910655481,1
590,701,15,0.119895397416219,1
590,702,15,0.188686470208855,1
591,698,15,0.0858907595355816,1
591,699,15,0.115365776506446,1
591,700,15,0.128276430777559,1
591,701,15,0.126507911223583,1
592,698,15,0.0900481420545359,1
592,699,15,0.126802703876176,1
592,700,15,0.14702826393468,1
592,701,15,0.141071715716682,1
593,700,15,0.149534405784425,1
571,683,16,0.0991735837770542,1
572,683,16,0.0764427402345487,1
572,684,16,0.0975061274593387,1
573,685,16,0.0897273060876752,1
573,686,16,0.122700399825777,1
573,687,16,0.134832205365255,1
573,688,16,0.147756456647352,1
574,686,16,0.0758214513772199,1
574,687,16,0.0897963050093787,1
574,688,16,0.11550644896775,1
575,688,16,0.079159921876458,1
575,689,16,0.103193211034225,1
576,690,16,0.0751599623908935,1
576,691,16,0.123286004304325,1
577,678,16,0.0924281725604122,1
577,679,16,0.0820766113533658,1
577,691,16,0.0763841039021861,1
577,692,16,0.115201418126649,1
577,693,16,0.126912947893869,1
577,694,16,0.147538966672026,1
577,698,16,0.142956338567559,1
578,678,16,0.0907453154196428,1
578,679,16,0.0730709365322628,1
578,694,16,0.0718723904922412,1
578,695,16,0.0911689562344179,1
578,696,16,0.115727297765551,1
578,697,16,0.127684444536307,1
578,698,16,0.121936877276697,1
578,699,16,0.131505702226096,1
578,701,16,0.138717815605656,1
579,678,16,0.0728254936898921,1
579,696,16,0.0749195204619862,1
579,697,16,0.113761702412851,1
579,698,16,0.129135779287854,1
579,699,16,0.121449823137594,1
579,700,16,0.118687328492475,1
579,701,16,0.12014256943016,1
580,697,16,0.0845953487873938,1
580,698,16,0.115220115571762,1
580,699,16,0.119166072655972,1
580,700,16,0.111467203699307,1
580,701,16,0.11547045980693,1
580,702,16,0.105814268152921,1
581,698,16,0.0808348671242853,1
581,699,16,0.105512944456626,1
581,700,16,0.106379980938365,1
581,701,16,0.0982718332430275,1
581,702,16,0.0819505933101212,1
582,699,16,0.0818827513161593,1
582,700,16,0.0917195480986808,1
582,701,16,0.0798354619368066,1
583,700,16,0.0762955056293344,1
583,701,16,0.0840694380482837,1
583,702,16,0.079721249532559,1
584,700,16,0.0719321526521373,1
584,701,16,0.112280760263187,1
584,702,16,0.135316572446378,1
584,703,16,0.0991714378626949,1
585,700,16,0.0713797009954297,1
585,701,16,0.128623285178521,1
585,702,16,0.182731962164509,1
585,703,16,0.146322251890429,1
585,704,16,0.0801887851810545,1
586,700,16,0.0722255644554903,1
586,701,16,0.129312714591809,1
586,702,16,0.208630660464585,1
586,703,16,0.192898956076531,1
586,704,16,0.110384829376643,1
587,701,16,0.12320333995118,1
587,702,16,0.221365884681814,1
587,703,16,0.235007431163662,1
588,701,16,0.118509086979779,1
588,702,16,0.223145164907795,1
588,703,16,0.2496206476674,1
589,701,16,0.11014981132403,1
589,702,16,0.197584214867748,1
589,703,16,0.212920063366948,1
590,682,16,0.0818184920661712,1
590,699,16,0.0750713081376672,1
590,700,16,0.0854929754338256,1
590,701,16,0.104218553795264,1
590,702,16,0.151690881774396,1
591,699,16,0.0985892295268717,1
591,700,16,0.116195156856211,1
591,701,16,0.108067167228102,1
592,699,16,0.103279408371011,1
592,700,16,0.125560001760686,1
593,699,16,0.0916879440672037,1
593,700,16,0.118150066177406,1
571,683,17,0.082672429140256,1
571,684,17,0.107212744990771,1
572,684,17,0.0805636173292285,1
572,685,17,0.111833489510293,1
572,688,17,0.183419450924812,1
573,685,17,0.0785693227044879,1
573,686,17,0.107867976615227,1
573,687,17,0.128665133618548,1
573,688,17,0.142651307726457,1
574,687,17,0.0756474954732011,1
574,688,17,0.0929874289426533,1
574,689,17,0.142987028252917,1
575,689,17,0.076109476624529,1
575,690,17,0.100922174317676,1
575,691,17,0.130897730477878,1
576,678,17,0.0876777401730891,1
576,679,17,0.0811338458648893,1
576,691,17,0.0837844792814938,1
576,692,17,0.118368526479224,1
576,693,17,0.134444771412757,1
576,698,17,0.167884697934651,1
577,678,17,0.102396317961848,1
577,679,17,0.0921175499018935,1
577,680,17,0.0732846447222824,1
577,693,17,0.0824100118043012,1
577,694,17,0.0994932006157571,1
577,695,17,0.123694001714423,1
577,696,17,0.135862530379633,1
577,697,17,0.126590115293648,1
577,698,17,0.118450805189789,1
577,699,17,0.142502113808132,1
578,678,17,0.0883027175150993,1
578,679,17,0.0718369362550006,1
578,696,17,0.078075507380143,1
578,697,17,0.0943484175896529,1
578,698,17,0.102273938642951,1
578,699,17,0.117839847821593,1
578,700,17,0.131389449648197,1
578,701,17,0.131437356408763,1
579,697,17,0.0851656768437206,1
579,698,17,0.100164909130467,1
579,699,17,0.10324733161637,1
579,700,17,0.104113714993739,1
579,701,17,0.10575249069954,1
579,702,17,0.0968013034430378,1
580,698,17,0.0810484384733892,1
580,699,17,0.093995946491107,1
580,700,17,0.0960339866685691,1
580,701,17,0.0947085890997258,1
580,702,17,0.0853576770884823,1
581,699,17,0.0787522727886909,1
581,700,17,0.0862885747375457,1
581,701,17,0.0771361193742667,1
584,701,17,0.0924987886929372,1
584,702,17,0.102560147638107,1
585,701,17,0.109445279649685,1
585,702,17,0.141962288835916,1
585,703,17,0.104160116504233,1
586,701,17,0.109947162368013,1
586,702,17,0.164095722260876,1
586,703,17,0.142210057973853,1
586,704,17,0.0889458138383519,1
587,701,17,0.10274037334408,1
587,702,17,0.174906652201769,1
587,703,17,0.173243176710692,1
587,704,17,0.105914361062688,1
588,701,17,0.0979148774944728,1
588,702,17,0.17617663541981,1
588,703,17,0.181643890283721,1
588,704,17,0.102564526547408,1
589,701,17,0.09137093342594,1
589,702,17,0.148402358209375,1
589,703,17,0.150016944173311,1
590,700,17,0.0758714853920204,1
590,701,17,0.0851711504803472,1
590,702,17,0.105636972086551,1
591,699,17,0.0758220049609241,1
591,700,17,0.0930200468409146,1
591,701,17,0.0847552162971407,1
591,702,17,0.0807465114330568,1
592,699,17,0.0752527094315065,1
592,700,17,0.0955050343291063,1
592,701,17,0.0921015954951352,1
593,700,17,0.0874056506724134,1
569,690,18,0.156495192162241,1
570,683,18,0.0954126169506992,1
570,684,18,0.10788429800444,1
570,690,18,0.139190625849447,1
571,681,18,0.079238369041384,1
571,683,18,0.0718890726438692,1
571,684,18,0.0855273349437409,1
571,685,18,0.130123944860123,1
571,689,18,0.174966327281083,1
572,685,18,0.0896013689049717,1
572,686,18,0.143962355659281,1
572,688,18,0.205697040034384,1
572,689,18,0.19983665365985,1
573,686,18,0.0882205507652839,1
573,687,18,0.114805189035298,1
573,688,18,0.138151717177632,1
573,689,18,0.177059918650263,1
574,688,18,0.0751419553704002,1
574,689,18,0.104193244445907,1
574,690,18,0.132651073130298,1
574,691,18,0.135189969719221,1
575,678,18,0.0725767355653373,1
575,691,18,0.0876712588897199,1
575,692,18,0.107455003171832,1
575,693,18,0.121005898767093,1
576,677,18,0.09926480690747,1
576,678,18,0.0911176533311266,1
576,679,18,0.0816455997892696,1
576,692,18,0.0722906385309308,1
576,693,18,0.086480450581475,1
576,694,18,0.111177088518013,1
576,695,18,0.148508223317767,1
576,697,18,0.148860041311943,1
576,698,18,0.143876979367989,1
577,677,18,0.117815801140686,1
577,678,18,0.102551203218256,1
577,679,18,0.086342782400274,1
577,695,18,0.0803402058742799,1
577,696,18,0.0884476133846641,1
577,697,18,0.0926949999058764,1
577,698,18,0.112781660214938,1
577,699,18,0.149910606341756,1
577,701,18,0.159387822518158,1
578,677,18,0.100141602634513,1
578,678,18,0.0790643571569906,1
578,697,18,0.0739521360487732,1
578,698,18,0.0964559294119817,1
578,699,18,0.124443952132686,1
578,700,18,0.137264726802372,1
578,701,18,0.134914583596486,1
579,698,18,0.0797060415307952,1
579,699,18,0.0965395703116613,1
579,700,18,0.106354466327635,1
579,701,18,0.102994947207551,1
579,702,18,0.0929472225936142,1
580,699,18,0.0761890185167803,1
580,700,18,0.0900392349549344,1
580,701,18,0.086524090393489,1
580,702,18,0.0762675216620808,1
581,700,18,0.0735980415193642,1
584,702,18,0.0775299724097181,1
585,701,18,0.0823431152566657,1
585,702,18,0.104013503903181,1
585,703,18,0.0802051812107679,1
586,701,18,0.0832907821379397,1
586,702,18,0.115786537441951,1
586,703,18,0.101997731474722,1
586,704,18,0.0719349019105338,1
587,701,18,0.0765825418900257,1
587,702,18,0.117818662359831,1
587,703,18,0.115282651870221,1
587,704,18,0.0789338295835707,1
588,701,18,0.0739522106892726,1
588,702,18,0.116484824194508,1
588,703,18,0.114805524917546,1
588,704,18,0.0730941621676762,1
589,702,18,0.0963454428126651,1
589,703,18,0.0935881419022994,1
593,701,18,0.0813009783832496,1
569,684,19,0.111972159118195,1
569,690,19,0.135631356312741,1
569,691,19,0.121749790864816,1
570,683,19,0.0804834783129815,1
570,684,19,0.084095406722052,1
570,685,19,0.128826568578783,1
570,690,19,0.125251798698358,1
571,680,19,0.0816847984915661,1
571,681,19,0.072023804965425,1
571,685,19,0.0986816095850291,1
571,686,19,0.165879207234992,1
571,690,19,0.137353150914059,1
572,685,19,0.0747237695321269,1
572,686,19,0.118744577755556,1
572,687,19,0.186889500184504,1
572,689,19,0.206435508255814,1
572,690,19,0.155224499859456,1
573,686,19,0.0750904098854858,1
573,687,19,0.102042155011981,1
573,688,19,0.129854629498011,1
573,689,19,0.147674003775622,1
573,690,19,0.144910066080846,1
573,691,19,0.131674700756943,1
574,689,19,0.0777854543992654,1
574,690,19,0.0927784853045155,1
574,691,19,0.0991039628511886,1
574,692,19,0.106168549283578,1
574,698,19,0.165272641216181,1
575,677,19,0.086508969472308,1
575,692,19,0.0775965579552726,1
575,693,19,0.0914995203463741,1
575,694,19,0.128317395971676,1
575,697,19,0.156035468886022,1
575,698,19,0.149337541467116,1
576,677,19,0.104862452503885,1
576,678,19,0.0908768941800967,1
576,679,19,0.0756391917176368,1
576,694,19,0.0814843265501164,1
576,695,19,0.102177988280903,1
576,696,19,0.105216410192379,1
576,697,19,0.103344071923704,1
576,698,19,0.125409476753454,1
577,677,19,0.107471560922627,1
577,678,19,0.0925510432625965,1
577,679,19,0.073492425212637,1
577,697,19,0.0810197703015573,1
577,698,19,0.118894294157377,1
577,699,19,0.154970187237733,1
577,701,19,0.154548518176152,1
578,677,19,0.0815736090275464,1
578,698,19,0.099886388106755,1
578,699,19,0.131507978761329,1
578,700,19,0.139124755608679,1
578,701,19,0.13109199481779,1
578,702,19,0.126640298589448,1
579,699,19,0.0932633624290509,1
579,700,19,0.10894214048295,1
579,701,19,0.0986904918044641,1
579,702,19,0.0878281843197799,1
579,703,19,0.0880258137022088,1
580,677,19,0.0734796990074801,1
580,700,19,0.0823280814160674,1
580,701,19,0.0796795317134059,1
581,677,19,0.07456482258854,1
582,677,19,0.0737398646883681,1
585,702,19,0.0761296979798393,1
586,702,19,0.0792416096830686,1
586,703,19,0.0752172614143075,1
587,702,19,0.0747392263355555,1
587,703,19,0.0750856639937288,1
588,702,19,0.0720684710843064,1
569,683,20,0.109314820496723,1
569,684,20,0.0989775280651554,1
569,689,20,0.162234959489658,1
569,690,20,0.120261036342876,1
569,691,20,0.123098196367616,1
570,682,20,0.0896942216862923,1
570,685,20,0.0974953605672925,1
570,689,20,0.165086139488212,1
570,690,20,0.117707883418559,1
571,679,20,0.0817716924730136,1
571,680,20,0.0727580124583442,1
571,685,20,0.0756559485097642,1
571,686,20,0.119751913496102,1
571,687,20,0.191727398797104,1
571,689,20,0.199180800031232,1
571,690,20,0.124370978604386,1
572,686,20,0.0907663640404888,1
572,687,20,0.147412575426284,1
572,688,20,0.20286557756777,1
572,689,20,0.184502733373552,1
572,690,20,0.124828985149118,1
572,691,20,0.109213346737715,1
573,678,20,0.0742996870943967,1
573,687,20,0.0800299253180503,1
573,688,20,0.103264760172993,1
573,689,20,0.111244078366273,1
573,690,20,0.102970054600983,1
573,691,20,0.0979751248176153,1
573,692,20,0.112360886839351,1
573,698,20,0.145647240533619,1
574,677,20,0.0810616685019174,1
574,691,20,0.0731917795008786,1
574,692,20,0.0814587186387621,1
574,693,20,0.100142604061214,1
574,697,20,0.154017388822122,1
574,698,20,0.153559332517057,1
575,677,20,0.0914948988554496,1
575,678,20,0.0717505398768828,1
575,694,20,0.0975782675020609,1
575,695,20,0.12285353725049,1
575,696,20,0.116095163467109,1
575,697,20,0.109263666874431,1
575,698,20,0.128464885598597,1
576,677,20,0.116247019563248,1
576,678,20,0.0873285034961862,1
576,695,20,0.0716962513536134,1
576,696,20,0.0750187674460933,1
576,697,20,0.0823575519732684,1
576,698,20,0.114732053785917,1
576,699,20,0.156527511498505,1
576,701,20,0.165549034985658,1
577,677,20,0.100582354783787,1
577,678,20,0.078924449760806,1
577,697,20,0.077961251435604,1
577,698,20,0.124174226247826,1
577,699,20,0.152917088339506,1
577,700,20,0.144185767114229,1
577,701,20,0.14090530472315,1
577,702,20,0.157266091680684,1
578,698,20,0.100805604517654,1
578,699,20,0.134166934593623,1
578,700,20,0.13702457099538,1
578,701,20,0.122616006301061,1
578,702,20,0.127510818294494,1
579,699,20,0.0899683078203284,1
579,700,20,0.110306830054714,1
579,701,20,0.0962198663923757,1
579,702,20,0.0851096404887556,1
579,703,20,0.0863369231210669,1
580,700,20,0.0723452567164061,1
580,701,20,0.0730308172638064,1
583,677,20,0.0765214486412228,1
584,677,20,0.0803847600324122,1
568,684,21,0.120501901234614,1
568,690,21,0.117139682616466,1
569,683,21,0.0970986089924457,1
569,684,21,0.093612611546037,1
569,685,21,0.133599393115943,1
569,689,21,0.171449801870397,1
569,690,21,0.112002264119642,1
570,679,21,0.117639052437979,1
570,680,21,0.110277297297097,1
570,682,21,0.0837292079916483,1
570,685,21,0.0850501395706077,1
570,686,21,0.113604571721417,1
570,687,21,0.158842959312229,1
570,688,21,0.212513421925924,1
570,689,21,0.183712116323171,1
570,690,21,0.1169824275242,1
571,678,21,0.0999115730552791,1
571,679,21,0.0787568507393241,1
571,686,21,0.0950705955220769,1
571,687,21,0.150965886163117,1
571,688,21,0.213172273614603,1
571,689,21,0.185800880940053,1
571,690,21,0.115095080295094,1
572,678,21,0.0827734923765165,1
572,686,21,0.0739946686933786,1
572,687,21,0.108082356569741,1
572,688,21,0.151906655018233,1
572,689,21,0.143833277355559,1
572,690,21,0.10027127806223,1
572,691,21,0.0919381514614562,1
573,677,21,0.095716441103726,1
573,688,21,0.0771867380729797,1
573,689,21,0.0803353729019402,1
573,690,21,0.0752711145346635,1
573,691,21,0.0772162957107634,1
573,692,21,0.0921559710989873,1
573,697,21,0.169113218355245,1
573,698,21,0.158864418455821,1
574,677,21,0.088221123009113,1
574,693,21,0.0837717344162121,1
574,696,21,0.12888448960636,1
574,697,21,0.123962931433955,1
574,698,21,0.142297399798297,1
575,677,21,0.103000284003261,1
575,678,21,0.074857823869146,1
575,694,21,0.0761620981766439,1
575,695,21,0.088532859055082,1
575,696,21,0.083676723280449,1
575,697,21,0.084304051798192,1
575,698,21,0.112273209132659,1
575,699,21,0.161293892072544,1
576,677,21,0.117921280606497,1
576,678,21,0.0787423331621803,1
576,697,21,0.0766298142063465,1
576,698,21,0.111565368396172,1
576,699,21,0.138003244784135,1
576,700,21,0.138580713448243,1
576,701,21,0.138038487539961,1
577,697,21,0.0784540964334561,1
577,698,21,0.128745322395128,1
577,699,21,0.145221229882986,1
577,700,21,0.121752527683129,1
577,701,21,0.117449129687119,1
577,702,21,0.147994211518278,1
578,698,21,0.0995952777188019,1
578,699,21,0.130425517358083,1
578,700,21,0.123980758073242,1
578,701,21,0.106319920216471,1
578,702,21,0.120993807006181,1
578,703,21,0.132628469499047,1
579,699,21,0.0830165716030712,1
579,700,21,0.100992765570034,1
579,701,21,0.0875812237872537,1
579,702,21,0.0787615655308729,1
579,703,21,0.0775230806036019,1
568,684,22,0.115370068335165,1
568,690,22,0.104228375240984,1
568,691,22,0.0955921397919689,1
569,683,22,0.0885916757686516,1
569,684,22,0.0881928404798616,1
569,685,22,0.115151943915594,1
569,689,22,0.176559752663423,1
569,690,22,0.104511119672956,1
569,691,22,0.109682959880113,1
570,679,22,0.101606621477626,1
570,680,22,0.096640745508671,1
570,681,22,0.0910855516963199,1
570,682,22,0.0771138454052214,1
570,685,22,0.076042636057268,1
570,686,22,0.0951633612228148,1
570,687,22,0.144637441656591,1
570,688,22,0.215550693129699,1
570,689,22,0.185994871598134,1
570,690,22,0.113330603768172,1
571,678,22,0.100060816733937,1
571,679,22,0.0771783285767079,1
571,686,22,0.0781077707360319,1
571,687,22,0.114431128172286,1
571,688,22,0.163202362562996,1
571,689,22,0.152870238986016,1
571,690,22,0.105965800806895,1
571,691,22,0.103038095636276,1
572,677,22,0.116827299686169,1
572,678,22,0.0830405560835623,1
572,687,22,0.0769580333626115,1
572,688,22,0.100465635702767,1
572,689,22,0.100443616755428,1
572,690,22,0.0813075840674513,1
572,691,22,0.081541861935112,1
572,692,22,0.107212682790355,1
573,677,22,0.109354454601933,1
573,678,22,0.0780119945351494,1
573,692,22,0.0772140316156133,1
573,693,22,0.101760579947833,1
574,678,22,0.0820614344518102,1
574,694,22,0.0906096189916357,1
574,695,22,0.102435298962687,1
574,696,22,0.0983279566785752,1
574,697,22,0.0989428140128678,1
574,698,22,0.129579616577773,1
575,678,22,0.0785373765707217,1
575,697,22,0.0738611368398557,1
575,698,22,0.103569560872554,1
575,699,22,0.147585007420106,1
575,701,22,0.158819037032154,1
576,697,22,0.0743826997698726,1
576,698,22,0.112018685029521,1
576,699,22,0.124019160610211,1
576,700,22,0.117451480862851,1
576,701,22,0.121076745041158,1
576,702,22,0.123273414940084,1
577,697,22,0.0718053944239398,1
577,698,22,0.122044794998824,1
577,699,22,0.131870893309757,1
577,700,22,0.102876088432212,1
577,701,22,0.0991360582659538,1
577,702,22,0.131505664905846,1
577,703,22,0.131279553952834,1
578,698,22,0.087017215293214,1
578,699,22,0.114475166066963,1
578,700,22,0.104251700397063,1
578,701,22,0.0911032228345656,1
578,702,22,0.109512605380192,1
578,703,22,0.113336164485381,1
578,704,22,0.0844389645009548,1
579,700,22,0.0829730872920977,1
579,701,22,0.0758838197345552,1
579,702,22,0.0729897463289819,1
567,683,23,0.118843725218997,1
567,684,23,0.144041785590783,1
567,690,23,0.130082830385008,1
568,683,23,0.103403305380062,1
568,684,23,0.110688566449088,1
568,685,23,0.144264662122152,1
568,689,23,0.145198427210403,1
568,690,23,0.100097359478461,1
568,691,23,0.0977088821560635,1
569,679,23,0.120463200135647,1
569,682,23,0.105831659389294,1
569,683,23,0.0784614982829852,1
569,684,23,0.0826499934501285,1
569,685,23,0.102171942400448,1
569,686,23,0.112984358931289,1
569,687,23,0.155770470232794,1
569,688,23,0.214410161417878,1
569,689,23,0.163669898211492,1
569,690,23,0.0965514754713242,1
569,691,23,0.0977305590011132,1
570,678,23,0.109124711144614,1
570,679,23,0.0943300249265792,1
570,680,23,0.0904951391255984,1
570,681,23,0.0855221101087791,1
570,682,23,0.0735578227302418,1
570,686,23,0.0834676925617285,1
570,687,23,0.12237658445898,1
570,688,23,0.183241881176612,1
570,689,23,0.159876431667666,1
570,690,23,0.105289035398347,1
570,691,23,0.10165298566787,1
571,677,23,0.127060499721206,1
571,678,23,0.0981940143023053,1
571,679,23,0.077026341859695,1
571,687,23,0.0843678072248088,1
571,688,23,0.112128978807548,1
571,689,23,0.113019987329695,1
571,690,23,0.0972224686812477,1
571,691,23,0.101860299655103,1
572,677,23,0.122177393846104,1
572,678,23,0.0874421747568128,1
572,691,23,0.0784877157584184,1
572,692,23,0.0967099372516647,1
573,678,23,0.0912812839660543,1
573,693,23,0.0858883088391829,1
573,694,23,0.10613283380459,1
574,695,23,0.0771097774980011,1
574,696,23,0.0784607456579491,1
574,697,23,0.0828134126036411,1
574,698,23,0.109189300056808,1
575,678,23,0.0825770510220373,1
575,697,23,0.0717273142414695,1
575,698,23,0.097207080298277,1
575,699,23,0.123572673582561,1
575,701,23,0.138759875527099,1
575,702,23,0.0983291011662335,1
576,697,23,0.0722552775943145,1
576,698,23,0.10897080243474,1
576,699,23,0.107054084169099,1
576,700,23,0.0943520749741262,1
576,701,23,0.100692206938859,1
576,702,23,0.10454228830152,1
576,703,23,0.0853530991378492,1
577,698,23,0.103857754060987,1
577,699,23,0.10886973919848,1
577,700,23,0.08282768137912,1
577,701,23,0.0828372726832998,1
577,702,23,0.111339978967988,1
577,703,23,0.105745225690926,1
577,704,23,0.0770449584442671,1
578,699,23,0.0901231992967783,1
578,700,23,0.0818001367233472,1
578,701,23,0.0775652773659598,1
578,702,23,0.0962003354616853,1
578,703,23,0.0920061365163754,1
584,705,23,0.0724751063052893,1
584,706,23,0.0765831327939798,1
585,705,23,0.0750027632790021,1
585,706,23,0.0839601705771249,1
588,680,23,0.0718334157114431,1
567,683,24,0.12096660054413,1
567,684,24,0.149435233440817,1
567,685,24,0.188687552496097,1
567,690,24,0.142646680015491,1
568,682,24,0.127315670708672,1
568,683,24,0.101368816846366,1
568,684,24,0.112097766638693,1
568,685,24,0.138832276811569,1
568,686,24,0.159043530774344,1
568,689,24,0.157577753086153,1
568,690,24,0.112626457736407,1
568,691,24,0.114635779981705,1
569,679,24,0.111946656947548,1
569,681,24,0.142212384269419,1
569,682,24,0.108759694222118,1
569,683,24,0.0862439210587474,1
569,684,24,0.0838982127425366,1
569,685,24,0.0953192354658408,1
569,686,24,0.111500356521147,1
569,687,24,0.147853551497058,1
569,688,24,0.186026867492233,1
569,689,24,0.148604994725309,1
569,690,24,0.100540991507007,1
569,691,24,0.100658096230608,1
570,678,24,0.107124295998918,1
570,679,24,0.0953423864607548,1
570,680,24,0.0961831432666444,1
570,681,24,0.101033904925317,1
570,682,24,0.087934360430253,1
570,683,24,0.0749370982996076,1
570,686,24,0.0727737802638538,1
570,687,24,0.0980506796631875,1
570,688,24,0.1369215173458,1
570,689,24,0.128639133844572,1
570,690,24,0.101359293962644,1
570,691,24,0.101474041290471,1
571,677,24,0.127030096157762,1
571,678,24,0.103352835962348,1
571,679,24,0.0825398489531012,1
571,688,24,0.0780489042621293,1
571,689,24,0.0849518566929518,1
571,690,24,0.0896812777796787,1
571,691,24,0.102368949778714,1
571,692,24,0.111449862223267,1
572,678,24,0.101366042707803,1
572,691,24,0.0734919027291408,1
572,692,24,0.0867463324806128,1
572,693,24,0.0975655101966959,1
573,694,24,0.0850869622170049,1
573,695,24,0.0961666974765981,1
573,696,24,0.107460949531622,1
573,697,24,0.112357714618124,1
574,697,24,0.0727177128086808,1
574,698,24,0.0917319011013404,1
574,701,24,0.141506658347083,1
574,702,24,0.0849678857402095,1
575,678,24,0.0810262018245936,1
575,698,24,0.0891703262406675,1
575,699,24,0.0995256505728947,1
575,700,24,0.118637418878507,1
575,701,24,0.114408350379869,1
575,702,24,0.0866271627031932,1
576,698,24,0.0936310104291524,1
576,699,24,0.0868134342896218,1
576,700,24,0.0765302686602416,1
576,701,24,0.0837636110418549,1
576,702,24,0.0880326370878672,1
576,703,24,0.0737571004237003,1
577,698,24,0.0782847247001121,1
577,699,24,0.0811649896132864,1
577,702,24,0.0909165531654732,1
577,703,24,0.0829290618375032,1
578,702,24,0.0793534833516667,1
578,703,24,0.0747421870753671,1
581,705,24,0.0777641383166297,1
583,706,24,0.0775215504733631,1
584,705,24,0.0880457800358127,1
584,706,24,0.108048270741657,1
584,707,24,0.0969154971871606,1
585,705,24,0.0794009795894858,1
585,706,24,0.104475702755965,1
585,707,24,0.0933854929462822,1
567,683,25,0.121941504987663,1
567,684,25,0.146912782641942,1
567,685,25,0.180902274721231,1
567,686,25,0.170721571837476,1
567,691,25,0.156922832463779,1
568,683,25,0.111714126911583,1
568,684,25,0.11574616937183,1
568,685,25,0.141460580278754,1
568,686,25,0.160020226589864,1
568,687,25,0.174181022146246,1
569,678,25,0.11071144376217,1
569,679,25,0.113240151922917,1
569,680,25,0.1290498556329,1
569,681,25,0.156469963673426,1
569,683,25,0.110503433130276,1
569,684,25,0.0889993248564187,1
569,685,25,0.0910791574935333,1
569,686,25,0.106927294840693,1
569,687,25,0.127267950549355,1
569,688,25,0.148946387929728,1
569,689,25,0.141223186170241,1
569,690,25,0.130397042007542,1
570,677,25,0.127065836516917,1
570,678,25,0.111097509305512,1
570,679,25,0.100343287484078,1
570,680,25,0.100013121454786,1
570,681,25,0.116147287415895,1
570,682,25,0.10666764542326,1
570,683,25,0.0860932218903501,1
570,687,25,0.0775926144488848,1
570,688,25,0.0966277394016412,1
570,689,25,0.103355037857082,1
570,690,25,0.108477627774682,1
570,691,25,0.127602203145992,1
570,692,25,0.143704323452669,1
571,677,25,0.139838244142958,1
571,678,25,0.119836132859652,1
571,679,25,0.0909552293842735,1
571,680,25,0.071997239167661,1
571,689,25,0.0717643048289904,1
571,690,25,0.0828590366089322,1
571,691,25,0.100777017206363,1
571,692,25,0.112736129510272,1
571,693,25,0.127060636562122,1
572,678,25,0.12207458899819,1
572,679,25,0.078587217764232,1
572,692,25,0.0744864687242383,1
572,693,25,0.0851558802781673,1
572,694,25,0.106557973649396,1
573,695,25,0.0794601881656775,1
573,696,25,0.0901780476237937,1
573,697,25,0.0942507753762841,1
573,698,25,0.117505147381959,1
573,701,25,0.12315599299436,1
574,698,25,0.080929293576136,1
574,699,25,0.116966665938732,1
574,700,25,0.149335289812049,1
574,701,25,0.112397423363833,1
574,702,25,0.0784330726927766,1
575,678,25,0.0764991311318861,1
575,698,25,0.0768499476993607,1
575,699,25,0.0791177873145163,1
575,700,25,0.088995132548366,1
575,701,25,0.0871774622254998,1
575,702,25,0.075524195588145,1
576,677,25,0.0764075969993892,1
576,698,25,0.0720111907210172,1
576,702,25,0.0730226938894491,1
580,705,25,0.0741074815882614,1
581,705,25,0.0867456980363675,1
581,706,25,0.0802152949984439,1
582,705,25,0.0775328025286558,1
583,705,25,0.08613788178919,1
583,706,25,0.108499248639357,1
584,705,25,0.0998054902454303,1
584,706,25,0.136553228681412,1
584,707,25,0.124809255177096,1
585,705,25,0.0766230343609794,1
585,706,25,0.107551637738458,1
585,707,25,0.0979207554338048,1
587,679,25,0.0733655674637736,1
594,704,25,0.0792669128123835,1
594,705,25,0.0913357093302394,1
595,705,25,0.126459643700603,1
567,683,26,0.12222622117283,1
567,684,26,0.134497256123956,1
567,685,26,0.165281150233119,1
567,686,26,0.15058969804587,1
568,684,26,0.11229443191467,1
568,685,26,0.132734757570269,1
568,686,26,0.143790334188206,1
568,687,26,0.14889183816471,1
569,678,26,0.119748616874043,1
569,679,26,0.124372695335874,1
569,680,26,0.127835255665454,1
569,684,26,0.090328106127904,1
569,685,26,0.082731239633784,1
569,686,26,0.0929756419637812,1
569,687,26,0.0985557283827002,1
569,688,26,0.116325466728174,1
570,677,26,0.139497261461286,1
570,678,26,0.122889352250144,1
570,679,26,0.108016996372386,1
570,680,26,0.0993181064441217,1
570,681,26,0.116356753537529,1
570,683,26,0.0904418333689051,1
570,688,26,0.073637333522285,1
570,689,26,0.0907399413036821,1
570,690,26,0.127502247077141,1
571,678,26,0.142849702174006,1
571,679,26,0.0983733878625761,1
571,680,26,0.0715628625610478,1
571,690,26,0.079273487396377,1
571,691,26,0.100606413904778,1
571,692,26,0.122432116990573,1
572,679,26,0.0847298323072848,1
572,693,26,0.076560784184435,1
572,694,26,0.0904520839974968,1
572,695,26,0.102725059601609,1
572,696,26,0.119071179701,1
572,697,26,0.118529675317545,1
572,698,26,0.138303672794437,1
573,696,26,0.075307389817398,1
573,697,26,0.0814574932905627,1
573,698,26,0.0994390613734866,1
573,699,26,0.139581605225669,1
573,700,26,0.148468191129894,1
573,701,26,0.103762811345682,1
574,698,26,0.0743712548932897,1
574,699,26,0.0907339762837674,1
574,700,26,0.104447905389961,1
574,701,26,0.0901106410327452,1
574,702,26,0.0781646778968238,1
580,705,26,0.0778534643343511,1
581,704,26,0.0828988946356406,1
581,705,26,0.097801063172889,1
581,706,26,0.084203604346052,1
582,704,26,0.0887218301395742,1
582,705,26,0.10554921973936,1
582,706,26,0.114767047740077,1
583,704,26,0.0801205015641375,1
583,705,26,0.121708091705788,1
583,707,26,0.16520898531023,1
584,705,26,0.110457093820198,1
584,706,26,0.163645739569835,1
584,707,26,0.149136659002919,1
585,706,26,0.0953929118588434,1
585,707,26,0.090402578686234,1
594,705,26,0.108241850876991,1
567,684,27,0.125247444669223,1
567,685,27,0.144436496991978,1
567,686,27,0.133183098170322,1
568,685,27,0.115380580205505,1
568,686,27,0.116049259559945,1
568,687,27,0.119004662575903,1
569,678,27,0.136880962674431,1
569,679,27,0.13062003049966,1
569,684,27,0.090679917902038,1
569,685,27,0.0765873064419075,1
569,686,27,0.0776204055948481,1
569,687,27,0.0769739753292865,1
569,688,27,0.0927517142453781,1
570,678,27,0.138452219828433,1
570,679,27,0.111109377144925,1
570,680,27,0.0968751415571225,1
570,683,27,0.0901169605950323,1
570,689,27,0.0914605704457424,1
571,678,27,0.156624917350292,1
571,679,27,0.100641159057274,1
571,680,27,0.0735206268813473,1
571,690,27,0.0768717116249931,1
571,691,27,0.0937775048494138,1
571,695,27,0.118723280333045,1
571,698,27,0.151049259601007,1
571,699,27,0.142847176837107,1
572,678,27,0.147586238988347,1
572,679,27,0.0862675509968662,1
572,693,27,0.0763401406480078,1
572,694,27,0.0813037525218127,1
572,695,27,0.0803845609910803,1
572,696,27,0.0895814896519505,1
572,697,27,0.0984724606855178,1
572,698,27,0.117234861693353,1
572,699,27,0.133536446294737,1
572,700,27,0.126542146332666,1
573,678,27,0.105563202392925,1
573,697,27,0.0739071340476441,1
573,698,27,0.0930033087089121,1
573,699,27,0.110424786924018,1
573,700,27,0.10679836581797,1
573,701,27,0.088954546776788,1
574,678,27,0.0840524759947828,1
574,698,27,0.0716759677978868,1
574,699,27,0.0787475455570588,1
574,700,27,0.0778648967708507,1
574,701,27,0.076254876317465,1
575,702,27,0.0772228080943407,1
580,704,27,0.0798383853563685,1
580,705,27,0.0811290688729242,1
581,703,27,0.0784756426576317,1
581,704,27,0.111456853550049,1
581,706,27,0.0969118398026873,1
582,703,27,0.0793314270840781,1
582,704,27,0.120157982693297,1
583,704,27,0.0904107580409659,1
584,678,27,0.0740182364310811,1
584,705,27,0.103303318211002,1
584,707,27,0.141362117019891,1
585,706,27,0.0761685794600132,1
585,707,27,0.0759229873366436,1
587,679,27,0.0773976472442697,1
588,680,27,0.0846257274706715,1
594,705,27,0.116537271585458,1
594,706,27,0.0728571101614524,1
567,684,28,0.118390682267479,1
567,685,28,0.115495028971334,1
567,686,28,0.11162076408685,1
567,687,28,0.136634126542737,1
568,679,28,0.12080084887501,1
568,685,28,0.0938923765780732,1
568,686,28,0.0891844395151058,1
568,687,28,0.0931497036085076,1
569,679,28,0.124296400305349,1
569,684,28,0.0858219907554181,1
569,688,28,0.0811288636115507,1
570,679,28,0.111007244061506,1
570,680,28,0.0968287338265871,1
570,683,28,0.0847230027015847,1
570,689,28,0.103087084684085,1
571,679,28,0.102650941585651,1
571,680,28,0.0798911997297737,1
571,689,28,0.0726603329247256,1
571,690,28,0.077719590378539,1
571,691,28,0.0876107503248293,1
571,694,28,0.121238640284473,1
571,695,28,0.0894888483520451,1
571,696,28,0.0999489990457136,1
571,698,28,0.133465450739673,1
571,699,28,0.11417361844917,1
572,679,28,0.0856153547527218,1
572,693,28,0.0756344333857966,1
572,694,28,0.0730992066214309,1
572,697,28,0.081930123153146,1
572,698,28,0.101693366178075,1
572,699,28,0.104431496920164,1
572,700,28,0.098076069873085,1
573,698,28,0.0879977924147055,1
573,699,28,0.0973923193577965,1
573,700,28,0.0860988199278092,1
573,701,28,0.0783995777686467,1
574,699,28,0.0765584765489935,1
574,701,28,0.0721252725043908,1
575,702,28,0.0897654473828961,1
576,703,28,0.0743524517074689,1
579,702,28,0.0761593675783722,1
579,703,28,0.0816283827140623,1
579,704,28,0.0766542589699176,1
580,702,28,0.0906745562261606,1
581,702,28,0.0818758595100431,1
581,703,28,0.118949764488555,1
582,703,28,0.0921716207237061,1
583,678,28,0.0912249055088002,1
583,704,28,0.0944456368401915,1
584,705,28,0.0886798386385898,1
588,680,28,0.106825485199438,1
594,704,28,0.0821693583939788,1
594,705,28,0.103456524056173,1
594,706,28,0.0718421299897543,1
595,706,28,0.10752214230109,1
567,685,29,0.100732531468689,1
567,686,29,0.0936856223945861,1
567,687,29,0.113563954849631,1
567,688,29,0.135617684661258,1
568,685,29,0.0840900450461746,1
568,686,29,0.0743105597271505,1
568,687,29,0.077384983239529,1
569,679,29,0.116373423249073,1
569,684,29,0.0825642626164642,1
569,688,29,0.0831476029998624,1
570,679,29,0.112704233136838,1
570,680,29,0.106112133506075,1
570,683,29,0.0833605647848874,1
570,688,29,0.0733525489166605,1
570,689,29,0.122053341336012,1
570,695,29,0.0986435615904325,1
570,698,29,0.150977243959117,1
571,679,29,0.103755110934155,1
571,680,29,0.0880571440518546,1
571,681,29,0.0781523497743307,1
571,682,29,0.072807057486527,1
571,689,29,0.0755779616279182,1
571,690,29,0.0785090131809292,1
571,691,29,0.0856528553836557,1
571,694,29,0.102159396576498,1
571,695,29,0.0731832580438576,1
571,696,29,0.0771701305618512,1
571,697,29,0.103475258821536,1
571,698,29,0.113918658943119,1
571,699,29,0.0925594278787018,1
572,679,29,0.0838339410524652,1
572,693,29,0.0739810157020202,1
572,697,29,0.0730492845673796,1
572,698,29,0.0906170395012898,1
572,699,29,0.0888013160514509,1
572,700,29,0.0799962375726301,1
573,698,29,0.082692606955275,1
573,699,29,0.0921880291935027,1
573,700,29,0.0788554010787696,1
573,701,29,0.0715746930802112,1
574,699,29,0.0776647420515237,1
574,700,29,0.075133110471215,1
574,701,29,0.0762741957667403,1
575,701,29,0.080713458131882,1
575,702,29,0.100108294311631,1
576,701,29,0.0781443134805562,1
576,702,29,0.0849119489059105,1
576,703,29,0.0810033182914694,1
577,701,29,0.0794642498528562,1
577,702,29,0.0813860623325854,1
577,703,29,0.0720029616059525,1
578,701,29,0.0797991057935309,1
578,702,29,0.0870547408043144,1
578,703,29,0.0827851673946394,1
578,704,29,0.0777727281941085,1
579,678,29,0.0717588996128217,1
579,701,29,0.0878471803268909,1
580,678,29,0.0799193765183175,1
580,701,29,0.0933994071793888,1
581,678,29,0.0906406507792837,1
581,702,29,0.113398128540011,1
584,707,29,0.096281873987297,1
587,680,29,0.0904390094700091,1
594,706,29,0.0759864068810128,1
567,685,30,0.100240886938869,1
567,686,30,0.0847382418035566,1
567,687,30,0.0964466491098829,1
567,688,30,0.106298523273294,1
568,684,30,0.131741404483288,1
568,685,30,0.0876755196182304,1
568,686,30,0.0745360548960421,1
568,687,30,0.0777103038563986,1
569,679,30,0.111179887536742,1
569,680,30,0.113090485281429,1
569,683,30,0.116676102914442,1
569,684,30,0.0868810399220021,1
570,679,30,0.11319423557567,1
570,680,30,0.115950522619251,1
570,681,30,0.122678219157356,1
570,682,30,0.122538143820048,1
570,683,30,0.0873530788806314,1
570,688,30,0.0763505529976816,1
570,694,30,0.110618342179185,1
570,695,30,0.0794543288864704,1
570,696,30,0.0911157126781409,1
570,697,30,0.121909160771233,1
571,679,30,0.10242422106856,1
571,680,30,0.0929627726976671,1
571,681,30,0.0849801703224113,1
571,682,30,0.0800309889451675,1
571,690,30,0.0790843297106361,1
571,691,30,0.0967785318706628,1
571,693,30,0.117750453383414,1
571,694,30,0.083739408859907,1
571,697,30,0.084006174004955,1
571,698,30,0.0884531741018734,1
572,678,30,0.101953656259795,1
572,679,30,0.0841507402123138,1
572,698,30,0.0754783165611473,1
572,699,30,0.072658504232489,1
573,698,30,0.0714833517690046,1
573,699,30,0.0799457805949993,1
573,700,30,0.0714997042584266,1
574,699,30,0.0738144554274889,1
574,700,30,0.0805693895278529,1
574,701,30,0.0832785721962374,1
575,700,30,0.0846279915658216,1
575,701,30,0.103001484471294,1
575,702,30,0.102279729501701,1
576,700,30,0.0762530227450619,1
576,701,30,0.102206724873193,1
576,702,30,0.0985803721876032,1
577,700,30,0.0731626634860499,1
577,701,30,0.102244611146708,1
577,703,30,0.0897414691224466,1
578,678,30,0.0730727279042497,1
578,700,30,0.0793823381247472,1
579,678,30,0.0781011215115389,1
579,700,30,0.0963040359955931,1
580,678,30,0.0832812530341761,1
580,700,30,0.091314306167021,1
581,701,30,0.0808395383755428,1
584,707,30,0.0937566055095667,1
585,707,30,0.074594933810028,1
586,680,30,0.0825923709845502,1
594,706,30,0.080727216863948,1
567,684,31,0.164094217010804,1
567,685,31,0.0983054961082812,1
567,686,31,0.0793012101218825,1
567,687,31,0.093631476932274,1
567,688,31,0.118982195785567,1
568,683,31,0.141913399308773,1
568,684,31,0.134354705210083,1
568,685,31,0.0889394445157319,1
568,686,31,0.0786507554893921,1
568,687,31,0.0977670893055542,1
569,679,31,0.111184440607209,1
569,680,31,0.116095835231604,1
569,681,31,0.140891446470418,1
569,682,31,0.141692936153553,1
569,683,31,0.108895850933205,1
569,684,31,0.0865055422293747,1
569,687,31,0.0854470653066199,1
569,695,31,0.0923410422173831,1
570,679,31,0.109508313551474,1
570,680,31,0.113931335387943,1
570,681,31,0.127092756857054,1
570,682,31,0.12385114484594,1
570,683,31,0.0855619619154458,1
570,688,31,0.0855879616894223,1
570,694,31,0.0826012532039852,1
570,696,31,0.0723946065266284,1
571,678,31,0.11639067764453,1
571,679,31,0.0974883816805936,1
571,680,31,0.0911327182719331,1
571,681,31,0.0836781165697721,1
571,682,31,0.0778324405936716,1
571,690,31,0.0753970268372005,1
571,691,31,0.0992426759993819,1
571,692,31,0.109762004169034,1
571,693,31,0.0929754367024077,1
572,679,31,0.0867757532774809,1
572,680,31,0.0780016754860999,1
573,679,31,0.0777023235429987,1
574,679,31,0.0735079379964401,1
574,700,31,0.0851342842936586,1
575,679,31,0.0755183798492292,1
575,699,31,0.0713954812410226,1
575,700,31,0.102892627522883,1
575,701,31,0.118371026935956,1
576,700,31,0.0907617425495643,1
576,701,31,0.117915048124793,1
578,699,31,0.0760656937515577,1
579,699,31,0.0852953149511886,1
580,699,31,0.0735485673083095,1
584,704,31,0.0733376270368113,1
584,707,31,0.098437504051607,1
585,680,31,0.0810910208783276,1
585,707,31,0.0775501875449869,1
586,680,31,0.121707108939212,1
594,706,31,0.0915181991313624,1
594,707,31,0.0835016975292714,1
568,684,32,0.119105974613828,1
568,685,32,0.0856329885707178,1
568,686,32,0.082002151235119,1
569,681,32,0.140711065263405,1
569,682,32,0.128878456165987,1
569,683,32,0.097806710970681,1
569,684,32,0.0806535653511119,1
569,686,32,0.0795353946889189,1
569,687,32,0.121250694725135,1
569,694,32,0.0812340880556558,1
570,679,32,0.107278179828626,1
570,680,32,0.110344025903609,1
570,681,32,0.122968695101064,1
570,682,32,0.115596440529925,1
570,683,32,0.0801846550734181,1
570,687,32,0.0932256565367435,1
570,688,32,0.102547433873033,1
570,693,32,0.103757648711136,1
571,678,32,0.108364858420091,1
571,679,32,0.0942535246346806,1
571,680,32,0.0929385020952613,1
571,681,32,0.0851191695925192,1
571,682,32,0.076031620363557,1
571,691,32,0.0919203808025445,1
571,692,32,0.0956075468350645,1
571,693,32,0.0753047089794593,1
572,679,32,0.0913819864399008,1
572,680,32,0.0910487103897978,1
572,681,32,0.0717477470781949,1
573,680,32,0.0835211538194623,1
574,680,32,0.0790098322721396,1
575,680,32,0.0879724333050161,1
575,699,32,0.0799814587537383,1
575,700,32,0.115976099430397,1
576,680,32,0.0804920619704187,1
576,698,32,0.0731860197423374,1
576,699,32,0.0863646209664059,1
577,679,32,0.0789345013480658,1
577,697,32,0.0735922942009062,1
577,698,32,0.0915744842879922,1
578,679,32,0.0727955068692365,1
578,697,32,0.0771755730982697,1
578,698,32,0.096578109689546,1
579,679,32,0.0734577733607655,1
579,698,32,0.0748041697901219,1
580,679,32,0.0776699917666519,1
580,680,32,0.0737257016535967,1
580,699,32,0.0783052197372538,1
581,679,32,0.0878196753028422,1
581,680,32,0.0794233966194884,1
582,679,32,0.105089558663557,1
582,680,32,0.0816730923732351,1
583,680,32,0.0902133774602018,1
584,680,32,0.0953517973837276,1
584,704,32,0.0894227604098203,1
584,706,32,0.110216316009043,1
584,707,32,0.102373832511387,1
585,680,32,0.114717138126109,1
585,705,32,0.0745777913753201,1
585,706,32,0.0782471680888035,1
585,707,32,0.0759897470433634,1
587,681,32,0.078479611044186,1
589,680,32,0.0815990676579018,1
594,706,32,0.0997608303465905,1
594,707,32,0.0971392445243567,1
569,684,33,0.072701783282089,1
569,686,33,0.0891923078677566,1
570,681,33,0.10988465094972,1
570,682,33,0.100073163516555,1
570,683,33,0.0743112439317288,1
570,686,33,0.075368252924661,1
570,687,33,0.114247450343213,1
570,689,33,0.0884636299918385,1
570,690,33,0.0928611496576607,1
570,693,33,0.0849107235577111,1
571,679,33,0.0911619649076357,1
571,680,33,0.0947804927808663,1
571,681,33,0.0863947384079355,1
571,682,33,0.0736381359076541,1
571,691,33,0.0788714176859441,1
571,692,33,0.080183802927716,1
572,680,33,0.0989807313865903,1
572,681,33,0.0802691978791328,1
573,681,33,0.075492031752922,1
574,681,33,0.074270440458694,1
575,681,33,0.0817389688340447,1
575,699,33,0.081515084655933,1
575,700,33,0.109502541352849,1
576,681,33,0.0778886697699268,1
576,697,33,0.0794274831868335,1
576,698,33,0.0915653221666843,1
577,680,33,0.0883113447128279,1
577,697,33,0.116550570034444,1
578,680,33,0.0823153925311602,1
578,697,33,0.121788044120786,1
579,680,33,0.105786340166042,1
579,681,33,0.0798989001413007,1
579,697,33,0.0742748131479537,1
579,698,33,0.0967793840163649,1
580,680,33,0.136570943359949,1
580,681,33,0.0932247795108749,1
580,699,33,0.0740130426963275,1
581,680,33,0.138795802487502,1
581,681,33,0.0849674565573377,1
582,679,33,0.14107427837383,1
582,680,33,0.132988659669245,1
582,681,33,0.074464816759355,1
583,679,33,0.169222915009276,1
583,680,33,0.149973403881963,1
583,681,33,0.0774484276640648,1
583,703,33,0.0809392829629796,1
584,680,33,0.151354215801609,1
584,681,33,0.0733680119401307,1
584,704,33,0.0965924282253579,1
584,706,33,0.11418946711522,1
585,680,33,0.159406507523188,1
585,681,33,0.0734001197949791,1
585,705,33,0.0806083021082348,1
585,706,33,0.0803459842929459,1
586,681,33,0.0846689754200634,1
587,681,33,0.0884912158764283,1
589,680,33,0.0803066674098586,1
593,706,33,0.0749008541170811,1
594,706,33,0.107014661545304,1
594,707,33,0.1085913425756,1
569,690,34,0.104524225300652,1
570,686,34,0.0715601941631923,1
570,687,34,0.110244915760417,1
570,689,34,0.0737375819330931,1
570,690,34,0.0715269169405191,1
570,691,34,0.0982911526923028,1
570,692,34,0.0953480840188798,1
571,681,34,0.0933485521190942,1
571,682,34,0.0786237169684649,1
572,679,34,0.0942273880197885,1
572,680,34,0.099196983573633,1
572,681,34,0.088546288124942,1
572,682,34,0.072083567125321,1
573,680,34,0.0969904486886955,1
573,681,34,0.0853425561673013,1
574,681,34,0.0923828657772437,1
575,681,34,0.110597355758755,1
575,700,34,0.0873114108218113,1
576,681,34,0.108332439563161,1
576,697,34,0.088967123700946,1
577,681,34,0.0920073432044499,1
577,696,34,0.0757419094849685,1
578,681,34,0.0918438618505211,1
579,681,34,0.112991300497738,1
579,697,34,0.0761329448415656,1
580,681,34,0.126512576254799,1
581,681,34,0.106568112317238,1
582,680,34,0.168667527492923,1
582,681,34,0.092378692129316,1
582,703,34,0.0856534338475265,1
583,680,34,0.188679827204404,1
583,681,34,0.0978495235171594,1
583,703,34,0.0810136311204772,1
583,704,34,0.119339039573373,1
583,706,34,0.122697202724384,1
584,681,34,0.0891325208276941,1
584,704,34,0.085899865676515,1
584,705,34,0.116258563960497,1
584,706,34,0.0976751446503103,1
585,681,34,0.0859570402990966,1
585,705,34,0.0727434762210756,1
585,706,34,0.0721653731127224,1
586,681,34,0.0913130621586968,1
587,681,34,0.0839138250470057,1
589,680,34,0.0819103807410405,1
590,680,34,0.0850606825411555,1
593,706,34,0.0782757989403857,1
593,707,34,0.0820710444161148,1
594,705,34,0.0718846377541933,1
594,706,34,0.106410359621642,1
594,707,34,0.110745566910504,1
570,687,35,0.0878007414961474,1
570,688,35,0.0865272563946742,1
570,691,35,0.0719046414080469,1
571,682,35,0.100124995123384,1
571,683,35,0.0893221636766814,1
571,684,35,0.0745080522686637,1
572,681,35,0.101983593320118,1
572,682,35,0.105290130125673,1
572,683,35,0.0955326824141123,1
572,684,35,0.0738439695249813,1
573,679,35,0.0962672257892791,1
573,680,35,0.0981197843255985,1
573,681,35,0.101534002491699,1
573,682,35,0.0969783631478256,1
573,683,35,0.0813354809541222,1
574,680,35,0.12819616736048,1
574,681,35,0.115752289892785,1
574,682,35,0.0904204302056868,1
575,681,35,0.133179627387098,1
575,682,35,0.0810634412137794,1
576,681,35,0.13466163938392,1
576,682,35,0.0737546310671767,1
576,697,35,0.0898144488707876,1
577,681,35,0.125351879168042,1
577,696,35,0.073174039942175,1
579,682,35,0.0716500613245347,1
581,703,35,0.0805760511924291,1
582,681,35,0.106881378493446,1
582,703,35,0.0722535111024941,1
583,681,35,0.110592989289537,1
583,704,35,0.0898947807083247,1
583,706,35,0.112718464592068,1
584,681,35,0.105215925029132,1
584,705,35,0.0801937674343931,1
584,706,35,0.0726009688474933,1
585,681,35,0.100185385507484,1
586,681,35,0.0906177610261178,1
587,681,35,0.0727960355727743,1
589,680,35,0.0868570243413029,1
589,681,35,0.0754476082156637,1
590,680,35,0.100925016876697,1
590,681,35,0.0924890107875087,1
591,681,35,0.0774780786024729,1
593,706,35,0.0821941328197558,1
593,707,35,0.0805753296676011,1
594,706,35,0.106324037884024,1
569,689,36,0.0768793747162704,1
571,684,36,0.104785834031196,1
572,682,36,0.140694184070445,1
572,684,36,0.0960470798561817,1
573,681,36,0.121350501512988,1
573,682,36,0.122908883180835,1
573,683,36,0.101730344325512,1
574,679,36,0.118757067599131,1
574,680,36,0.133578456455846,1
574,681,36,0.139287223095823,1
574,682,36,0.111804392155589,1
574,683,36,0.0741315469292937,1
575,681,36,0.140757155771817,1
575,682,36,0.0913003546136648,1
576,682,36,0.078808290483531,1
576,697,36,0.0798463470096436,1
577,682,36,0.0767634393604937,1
578,682,36,0.0765717749979795,1
578,697,36,0.0979726119208004,1
579,682,36,0.077078783030603,1
580,682,36,0.0771308572190552,1
581,682,36,0.0735961008663784,1
581,704,36,0.0759129108692173,1
581,705,36,0.104122205350552,1
582,681,36,0.111508815777752,1
582,704,36,0.0805749004847292,1
583,681,36,0.114028019714902,1
583,705,36,0.0928733471592798,1
584,681,36,0.117204557650575,1
585,681,36,0.107489424882163,1
586,681,36,0.0812706370202217,1
588,680,36,0.071703136939688,1
589,680,36,0.0837210348569581,1
589,681,36,0.0790606686723093,1
590,680,36,0.101161142096719,1
590,681,36,0.105237409052892,1
590,682,36,0.0761990514439152,1
591,680,36,0.0846258767516704,1
591,681,36,0.0902321930861058,1
592,705,36,0.0730803163550275,1
592,706,36,0.0754835538361923,1
593,705,36,0.0763112423346359,1
593,706,36,0.0808534463886077,1
594,705,36,0.08312537879115,1
594,706,36,0.100964725622406,1
595,706,36,0.138648437261414,1
560,685,37,0.0804409705485426,1
562,684,37,0.0949415234383963,1
563,683,37,0.122438648034276,1
564,681,37,0.136125003695962,1
564,682,37,0.1198251109459,1
564,683,37,0.103534965001057,1
565,682,37,0.101227796062731,1
566,682,37,0.102906081472909,1
568,683,37,0.0737247313271038,1
569,683,37,0.0843694057755054,1
569,688,37,0.0763204604363185,1
570,684,37,0.10151908061185,1
572,680,37,0.0940850485873301,1
572,681,37,0.124591678121188,1
573,680,37,0.108023875738419,1
573,681,37,0.141096745164166,1
573,682,37,0.143375270810827,1
573,684,37,0.0768095298689065,1
573,690,37,0.073007952390807,1
574,680,37,0.131666141979672,1
574,681,37,0.151526896597096,1
574,682,37,0.125984681322412,1
574,683,37,0.0816665053491583,1
574,689,37,0.0736036955371978,1
574,690,37,0.0788912969389653,1
574,691,37,0.072642873267895,1
575,681,37,0.12839610437835,1
575,682,37,0.0923082128377067,1
575,690,37,0.073311297600629,1
576,682,37,0.0780362464774303,1
576,698,37,0.0950948474643578,1
576,699,37,0.105566710496399,1
576,700,37,0.0957104201034368,1
576,701,37,0.0937300894721357,1
576,702,37,0.0985148564892076,1
577,682,37,0.0783731674719232,1
577,697,37,0.0847752821514105,1
578,682,37,0.0797274695741801,1
578,698,37,0.101936128182507,1
579,682,37,0.0807676098142358,1
579,700,37,0.0886359127046612,1
580,682,37,0.0824108639500033,1
581,682,37,0.0797466957228311,1
581,705,37,0.0785096165249665,1
581,706,37,0.0747842407767677,1
582,681,37,0.10880405555896,1
582,682,37,0.0723454495376964,1
582,705,37,0.100727667396141,1
582,706,37,0.108142977095381,1
583,681,37,0.113641232646732,1
583,706,37,0.0818109036153934,1
584,681,37,0.123136748185584,1
584,682,37,0.0747343560429661,1
585,681,37,0.104073782326531,1
586,680,37,0.091168806953419,1
589,680,37,0.0788496288801452,1
589,681,37,0.0816212296661979,1
590,680,37,0.0936486131469402,1
590,681,37,0.108838352868459,1
590,682,37,0.0832996208170834,1
591,682,37,0.0778099489231695,1
591,705,37,0.0784840832541116,1
591,706,37,0.0748346293339407,1
592,705,37,0.0890443641777975,1
592,706,37,0.0805255817747151,1
593,704,37,0.0740031901503996,1
593,705,37,0.0891166099612272,1
594,705,37,0.093450069418393,1
560,685,38,0.0739466561921049,1
563,684,38,0.0720519693138855,1
564,683,38,0.0813935948029886,1
572,679,38,0.0868812327432924,1
573,679,38,0.0934465675349603,1
573,689,38,0.0796334412049931,1
573,690,38,0.0763237757185025,1
574,679,38,0.109430786952708,1
576,682,38,0.0737785595672933,1
576,699,38,0.0868002664615098,1
576,700,38,0.0715746370998366,1
576,702,38,0.0802291470311342,1
576,703,38,0.0788046393190994,1
577,698,38,0.0835884235695951,1
577,699,38,0.109485311837559,1
577,700,38,0.0994155309560338,1
577,701,38,0.092923287873456,1
577,702,38,0.104114529819192,1
577,703,38,0.114675376766665,1
577,704,38,0.0837336117811161,1
578,699,38,0.0873828977601632,1
578,700,38,0.0902830916866917,1
578,703,38,0.105374784892137,1
578,704,38,0.0815508747754211,1
585,680,38,0.103269717546165,1
585,681,38,0.0920437615481417,1
586,680,38,0.0719513477005801,1
589,681,38,0.0758696318196173,1
590,682,38,0.0833129441462359,1
591,706,38,0.0832236305685977,1
592,703,38,0.0734146871324558,1
592,704,38,0.0886485331691105,1
592,705,38,0.0978915150181438,1
593,703,38,0.0762828976049683,1
593,704,38,0.0892664321037559,1
572,678,39,0.0913093239136825,1
573,678,39,0.0946792678235237,1
574,678,39,0.0976701561769302,1
585,680,39,0.085640931563868,1
593,703,39,0.0955708361494165,1
585,679,40,0.0760531106073581,1
581,678,41,0.155696563698252,1
583,679,41,0.106386536862233,1
584,679,41,0.0940050961723318,1
585,680,41,0.0839534342720492,1
