x,y,z,signal,mito.p
798,714,52,0.074027187070974,1
798,715,52,0.127939827005189,1
799,715,52,0.101212600501051,1
801,711,52,0.0775205366065788,1
801,712,52,0.107349026102691,1
801,713,52,0.0895058352857124,1
801,714,52,0.0784123910543862,1
802,711,52,0.0971254049317496,1
802,712,52,0.123763877661995,1
802,713,52,0.105360540996824,1
802,714,52,0.0818321326174464,1
803,712,52,0.0747123184355024,1
793,714,53,0.0827830090401969,1
794,713,53,0.073798955083769,1
794,714,53,0.0988727265838806,1
794,715,53,0.0832914476823932,1
795,714,53,0.0774935105257349,1
795,715,53,0.0764244035518496,1
796,715,53,0.0746902932681218,1
796,716,53,0.0786929335916251,1
796,717,53,0.0742293570837863,1
796,718,53,0.0858166974999985,1
797,715,53,0.103897636967862,1
797,716,53,0.11468882449665,1
797,717,53,0.0944504511524063,1
797,718,53,0.0821633373936895,1
797,719,53,0.0780404823257743,1
798,714,53,0.0759134395727551,1
798,715,53,0.128694106572419,1
798,716,53,0.147889590418211,1
798,717,53,0.109231695860498,1
798,718,53,0.0779878794337842,1
799,715,53,0.0918805600960859,1
799,716,53,0.112026646682796,1
799,717,53,0.0930337931328974,1
799,718,53,0.0802549726439452,1
799,719,53,0.0816100957916961,1
800,718,53,0.0765456757033372,1
800,719,53,0.103313550179469,1
801,712,53,0.0930179817870964,1
801,713,53,0.0824105591679639,1
801,714,53,0.0755687995066102,1
801,718,53,0.0750156823054492,1
802,711,53,0.0845411908849984,1
802,712,53,0.112488895295914,1
802,713,53,0.0935154233957065,1
802,714,53,0.0730145083146757,1
806,708,53,0.0812465219188565,1
806,709,53,0.0738918576254226,1
807,708,53,0.075294601411825,1
807,709,53,0.073529956943779,1
793,713,54,0.0810129220357324,1
793,714,54,0.0891290500444695,1
794,713,54,0.0829159437697242,1
794,714,54,0.104290843118985,1
794,715,54,0.0811148622978615,1
795,714,54,0.077311872870314,1
795,715,54,0.0715620166353873,1
795,719,54,0.0944927909757215,1
795,720,54,0.0878778451320832,1
796,715,54,0.0768795364373526,1
796,716,54,0.0760532163480656,1
796,718,54,0.0828299703544366,1
796,719,54,0.109960684738497,1
796,720,54,0.101710832054947,1
796,721,54,0.0815363882984854,1
796,722,54,0.0756558489890983,1
797,714,54,0.0737352867377349,1
797,715,54,0.101776969757504,1
797,716,54,0.10862648581076,1
797,717,54,0.0920503050319272,1
797,718,54,0.0766554034575759,1
797,719,54,0.0751431371783083,1
797,722,54,0.0768430932134942,1
797,723,54,0.0929962925019635,1
798,715,54,0.105388058460956,1
798,716,54,0.121453480522068,1
798,717,54,0.0991491763337328,1
798,718,54,0.07254904394004,1
798,723,54,0.0802788513837288,1
799,715,54,0.0735024830199384,1
799,716,54,0.091623069033095,1
799,717,54,0.0838425433700273,1
799,718,54,0.0766794501384833,1
799,719,54,0.0814316738977933,1
799,720,54,0.0825283356560604,1
799,721,54,0.0780981421116023,1
799,722,54,0.0755649741810132,1
800,718,54,0.0811855033105529,1
800,719,54,0.106220598591864,1
800,720,54,0.118993503821235,1
800,721,54,0.107848831327117,1
800,722,54,0.0882026743656647,1
801,718,54,0.0842033493243455,1
801,719,54,0.101887201335115,1
801,720,54,0.112284168845995,1
801,721,54,0.102316962670845,1
802,712,54,0.0824436497893884,1
802,713,54,0.0716454958139848,1
802,718,54,0.0735926798434867,1
802,719,54,0.0757620375396546,1
802,720,54,0.0724274421263464,1
806,708,54,0.0960081050753835,1
806,709,54,0.0932439683392761,1
806,716,54,0.0755136526175971,1
807,708,54,0.089890967822811,1
807,709,54,0.095401078773492,1
791,719,55,0.0730652327540962,1
791,721,55,0.0889952009688239,1
792,713,55,0.0719033973997227,1
792,720,55,0.0724753177867044,1
792,721,55,0.0886379901985627,1
792,722,55,0.134649672023841,1
793,713,55,0.0896871059586777,1
793,714,55,0.0895542334295666,1
793,721,55,0.0777617995809801,1
793,722,55,0.120875178372383,1
793,723,55,0.173005434279848,1
794,713,55,0.0845346909415043,1
794,714,55,0.0943469496598303,1
794,715,55,0.0742633620513292,1
794,721,55,0.0741828373925017,1
794,722,55,0.094149705919982,1
794,723,55,0.12265950927216,1
795,719,55,0.0921475305025074,1
795,720,55,0.0928844810337816,1
795,721,55,0.0811825861110326,1
795,722,55,0.0806181235539546,1
795,723,55,0.0963632943321178,1
795,724,55,0.127544282118416,1
796,718,55,0.0719371162453509,1
796,719,55,0.0954413597630306,1
796,720,55,0.0958760971320578,1
796,721,55,0.0819551650407128,1
796,722,55,0.0789501136525349,1
796,723,55,0.0949940268097205,1
796,724,55,0.131121440494825,1
796,725,55,0.171206511162428,1
797,715,55,0.0817578031200736,1
797,716,55,0.0886697435110387,1
797,717,55,0.079887467704801,1
797,722,55,0.0728717148191789,1
797,723,55,0.0940383982751714,1
797,724,55,0.132302290516434,1
797,725,55,0.185458604489725,1
798,716,55,0.0803769165599279,1
798,717,55,0.0753478200879355,1
798,723,55,0.0761647043740832,1
798,724,55,0.105004207252432,1
798,725,55,0.163443948979562,1
799,720,55,0.0728169224725382,1
799,724,55,0.0801352057425299,1
799,725,55,0.121548261516291,1
800,718,55,0.076376322630118,1
800,719,55,0.0910466950963125,1
800,720,55,0.0948155240552766,1
800,721,55,0.0833326678982165,1
800,722,55,0.073930975467178,1
801,718,55,0.0776877997458133,1
801,719,55,0.0867123834934446,1
801,720,55,0.0851542630673458,1
801,721,55,0.0740227770614646,1
806,708,55,0.0947143861785167,1
806,709,55,0.104553614997312,1
807,708,55,0.0915735450617074,1
807,709,55,0.10883873851104,1
807,710,55,0.0741641275073053,1
809,711,55,0.0739667407064996,1
809,712,55,0.0763004567824648,1
810,709,55,0.0758761566432779,1
810,710,55,0.0944052127896957,1
810,711,55,0.112038103999463,1
791,721,56,0.080262561094723,1
791,722,56,0.109014977170334,1
792,721,56,0.077107923925598,1
792,722,56,0.113463314576201,1
792,723,56,0.15975071218642,1
793,713,56,0.0829955540824333,1
793,714,56,0.0786191638979982,1
793,721,56,0.0780882957857161,1
793,722,56,0.111213537961913,1
793,723,56,0.138290822188448,1
793,724,56,0.13955778246626,1
794,713,56,0.0719054189132495,1
794,714,56,0.0723094852570429,1
794,721,56,0.0883168494496626,1
794,722,56,0.11046404782673,1
794,723,56,0.122883381010188,1
794,724,56,0.141042444200813,1
794,725,56,0.142561577406031,1
795,719,56,0.0750752640841382,1
795,720,56,0.082952592254956,1
795,721,56,0.0857407072515129,1
795,722,56,0.0950339034965537,1
795,723,56,0.11802162231793,1
795,724,56,0.16596333951796,1
795,725,56,0.185644397132948,1
796,720,56,0.0753867699885672,1
796,721,56,0.0725695949575563,1
796,722,56,0.0770532995200811,1
796,723,56,0.104446760902302,1
796,724,56,0.158432075802818,1
796,725,56,0.187468200416853,1
796,726,56,0.157880221270106,1
797,723,56,0.0882777751481985,1
797,724,56,0.131606454460276,1
797,725,56,0.173867320567124,1
797,726,56,0.177523585432871,1
798,724,56,0.0957883945451996,1
798,725,56,0.140988578640374,1
798,726,56,0.172846288294929,1
798,727,56,0.163415063106273,1
799,724,56,0.073307192373159,1
799,725,56,0.107857103982473,1
799,726,56,0.142361926510075,1
800,725,56,0.0812849804362,1
800,726,56,0.101246082985097,1
801,726,56,0.0747046366841002,1
806,708,56,0.0811714335764059,1
806,709,56,0.102722223262629,1
806,710,56,0.0783151344835979,1
807,708,56,0.0803091927467568,1
807,709,56,0.105592138026546,1
807,710,56,0.082074851081587,1
808,709,56,0.0740083030246122,1
809,710,56,0.0775187638947168,1
809,711,56,0.0885474699328501,1
809,712,56,0.0852012617018352,1
810,709,56,0.0883189704838554,1
810,710,56,0.112760337912261,1
810,711,56,0.127713131368264,1
810,712,56,0.118682986903423,1
810,713,56,0.0831037268262668,1
811,709,56,0.119613766371696,1
811,710,56,0.135211292021898,1
811,711,56,0.128300116696052,1
784,693,57,0.0833885611922242,1
785,691,57,0.0947036379465953,1
785,692,57,0.11821837467449,1
785,693,57,0.0878270025118719,1
790,722,57,0.0953640197655131,1
791,721,57,0.0723301731154748,1
791,722,57,0.101617338609339,1
791,723,57,0.134078124839356,1
791,724,57,0.140926975348158,1
792,722,57,0.0904526251411178,1
792,723,57,0.115833274834692,1
792,724,57,0.124781401830716,1
792,725,57,0.102909676656966,1
793,721,57,0.0782937375404211,1
793,722,57,0.0976159796144099,1
793,723,57,0.105605535996198,1
793,724,57,0.112134029481344,1
793,725,57,0.107111520033428,1
793,726,57,0.0978120602064752,1
794,721,57,0.093518732457849,1
794,722,57,0.118877213923086,1
794,723,57,0.126107004660933,1
794,724,57,0.144681180989271,1
794,725,57,0.141315317426733,1
794,726,57,0.120985260668994,1
795,721,57,0.0776820399872721,1
795,722,57,0.10339888293047,1
795,723,57,0.142329321051897,1
795,724,57,0.191209207129646,1
795,725,57,0.1778885774752,1
795,726,57,0.131995978346759,1
795,727,57,0.0972434737618023,1
796,722,57,0.0725838388528687,1
796,723,57,0.111611371824002,1
796,724,57,0.165179377912113,1
796,725,57,0.165337379409374,1
796,726,57,0.132153096598109,1
796,727,57,0.115755200872264,1
797,723,57,0.0783188478484457,1
797,724,57,0.114403162865157,1
797,725,57,0.136580099261215,1
797,726,57,0.14800170044839,1
797,727,57,0.167684673836198,1
797,728,57,0.14742963078041,1
798,724,57,0.078422212500106,1
798,725,57,0.105489233657966,1
798,726,57,0.142851132783578,1
798,727,57,0.175666791048207,1
798,728,57,0.148139499250465,1
799,725,57,0.0853008445681898,1
799,726,57,0.116450750806507,1
799,727,57,0.139745851644717,1
799,728,57,0.131411879118283,1
800,725,57,0.0745548145415715,1
800,726,57,0.0934870040255395,1
800,727,57,0.108046118607256,1
800,728,57,0.117811322710718,1
801,726,57,0.0806153120951418,1
801,727,57,0.0860981481633141,1
802,726,57,0.0714843905159553,1
802,727,57,0.0762521581592766,1
802,729,57,0.111675811455197,1
806,709,57,0.0834162154972719,1
806,710,57,0.076536221240073,1
807,709,57,0.085627123071469,1
807,710,57,0.0802231322508865,1
808,709,57,0.0727959111719419,1
808,710,57,0.0766478398869646,1
808,711,57,0.0743382264722813,1
809,709,57,0.0739475767582648,1
809,710,57,0.0921470950995939,1
809,711,57,0.0996168799233521,1
809,712,57,0.0888153733455147,1
810,709,57,0.0935427044982569,1
810,710,57,0.120545715207793,1
810,711,57,0.128510627784679,1
810,712,57,0.110623479933564,1
810,713,57,0.079938907449008,1
811,709,57,0.11093417101254,1
811,710,57,0.125542187561483,1
811,711,57,0.116013693361955,1
811,712,57,0.0967598219854663,1
811,713,57,0.0738331466525605,1
812,709,57,0.0889430645799554,1
812,710,57,0.0906344431777458,1
812,711,57,0.0783839405840111,1
813,708,57,0.074034887482501,1
782,696,58,0.0831251424295684,1
782,697,58,0.0858825553006833,1
782,698,58,0.0808192610398578,1
783,693,58,0.0785403186504085,1
783,694,58,0.0728705081311044,1
784,691,58,0.085851069449997,1
784,692,58,0.0911509056736333,1
784,693,58,0.0823138872810879,1
785,690,58,0.0764841035113294,1
785,691,58,0.088167189028216,1
785,692,58,0.0931547605023456,1
785,693,58,0.0754120357976323,1
786,692,58,0.0716116898877738,1
790,722,58,0.0961573922943328,1
790,723,58,0.119383624831713,1
790,724,58,0.109838771922722,1
791,722,58,0.0925995471471582,1
791,723,58,0.11230225672703,1
791,724,58,0.114628216411093,1
791,725,58,0.0959150594727727,1
792,722,58,0.074479035774501,1
792,723,58,0.0845493204793973,1
792,724,58,0.0945288920972907,1
792,725,58,0.0966465425874619,1
792,726,58,0.0883090308573448,1
793,721,58,0.0737306341466023,1
793,722,58,0.0834716111879499,1
793,723,58,0.0849982333232791,1
793,724,58,0.0938785058852581,1
793,725,58,0.104802491302658,1
793,726,58,0.108244376213889,1
793,727,58,0.0930581943561772,1
794,721,58,0.0857316322107877,1
794,722,58,0.110573110036516,1
794,723,58,0.123736658759861,1
794,724,58,0.13477091307512,1
794,725,58,0.124436040239743,1
794,726,58,0.11104624372247,1
794,727,58,0.0912018229343441,1
795,722,58,0.102025336019437,1
795,723,58,0.153562467418034,1
795,724,58,0.18306265689734,1
795,725,58,0.143554432889682,1
795,726,58,0.103083340219029,1
795,727,58,0.0822575026037922,1
795,728,58,0.0759538760633342,1
796,723,58,0.114443568255528,1
796,724,58,0.150093575086084,1
796,725,58,0.127994414090456,1
796,726,58,0.103382598861506,1
796,727,58,0.104943213524295,1
796,728,58,0.107137855689652,1
797,724,58,0.0944586056269716,1
797,725,58,0.101193977696437,1
797,726,58,0.117922910257402,1
797,727,58,0.1609491773659,1
797,728,58,0.162902345075442,1
797,729,58,0.126136413017718,1
798,725,58,0.0785469803149847,1
798,726,58,0.116636829571646,1
798,727,58,0.170807582573013,1
798,728,58,0.168938348105108,1
798,729,58,0.135207398275843,1
799,726,58,0.0963964906942499,1
799,727,58,0.131320394746119,1
799,728,58,0.141161446037109,1
799,729,58,0.132498296468,1
800,726,58,0.0853103301316621,1
800,727,58,0.106448500916863,1
800,728,58,0.127888810223812,1
800,729,58,0.13633033970996,1
800,730,58,0.115564531716409,1
801,726,58,0.0819661682943406,1
801,727,58,0.0943803761635024,1
801,728,58,0.113291342865459,1
801,729,58,0.139729069972423,1
801,730,58,0.135750109347372,1
802,726,58,0.0736202035276603,1
802,727,58,0.0868080477335779,1
802,728,58,0.114817853040039,1
802,729,58,0.159969968653565,1
802,730,58,0.158926270549702,1
803,728,58,0.0966816049620804,1
803,729,58,0.116163322683194,1
808,710,58,0.0827932658888302,1
808,711,58,0.0832663435944102,1
808,712,58,0.0725412626679719,1
808,713,58,0.0722549354920254,1
809,709,58,0.0814550114939559,1
809,710,58,0.105946381836954,1
809,711,58,0.107973779523202,1
809,712,58,0.087084677864637,1
809,713,58,0.0733587316380319,1
810,709,58,0.0895301121081598,1
810,710,58,0.116554401580082,1
810,711,58,0.116950419190018,1
810,712,58,0.0920424739995261,1
811,709,58,0.0869448326688687,1
811,710,58,0.100860695426292,1
811,711,58,0.0936067149465802,1
811,712,58,0.0753342106368685,1
812,710,58,0.0723173660497769,1
813,707,58,0.0777420696089578,1
813,708,58,0.0728281496476643,1
814,707,58,0.0759156165873225,1
814,708,58,0.0742628706680411,1
781,696,59,0.087805723749486,1
781,697,59,0.0898084278704983,1
781,698,59,0.0893612379781455,1
781,699,59,0.0816522303536378,1
781,700,59,0.0742332072895498,1
782,694,59,0.0714391086129533,1
782,695,59,0.0729687847887186,1
782,696,59,0.0725989970942994,1
783,691,59,0.0781871011468681,1
783,692,59,0.0800259942517457,1
783,693,59,0.0769668969219216,1
784,690,59,0.0778839363182531,1
784,691,59,0.0824945421699327,1
784,692,59,0.0827188306507498,1
784,693,59,0.0760304447756906,1
785,690,59,0.0768472855215469,1
785,691,59,0.0796154466245831,1
785,692,59,0.0746773431414666,1
789,723,59,0.0733441643005552,1
790,722,59,0.085298182390376,1
790,723,59,0.103584283711072,1
790,724,59,0.0958221196108694,1
790,725,59,0.0745783947193573,1
791,722,59,0.082468349574666,1
791,723,59,0.0951434135493357,1
791,724,59,0.0955451038372298,1
791,725,59,0.0874635281596982,1
791,726,59,0.0718924936667608,1
792,723,59,0.077923850325336,1
792,724,59,0.0875661277462391,1
792,725,59,0.0981118102322401,1
792,726,59,0.0964598542582446,1
792,727,59,0.0777092651094479,1
793,722,59,0.0757787756716571,1
793,723,59,0.0829954421216841,1
793,724,59,0.092053558113695,1
793,725,59,0.103033548785851,1
793,726,59,0.110622882809568,1
793,727,59,0.0969067704687661,1
793,728,59,0.0741795034501928,1
794,721,59,0.0721434847862576,1
794,722,59,0.0933510401357427,1
794,723,59,0.113346178752391,1
794,724,59,0.118010326722346,1
794,725,59,0.105812290179685,1
794,726,59,0.099888310099616,1
794,727,59,0.0895579778946226,1
794,728,59,0.0761682746779737,1
795,722,59,0.0923954800216514,1
795,723,59,0.136888153042545,1
795,724,59,0.147093151408872,1
795,725,59,0.11159429158971,1
795,726,59,0.0887405711249788,1
795,727,59,0.0802573549198861,1
795,728,59,0.077687837066063,1
796,723,59,0.104830120727539,1
796,724,59,0.12148237883544,1
796,725,59,0.100320366630705,1
796,726,59,0.08945924717397,1
796,727,59,0.0986661838818086,1
796,728,59,0.107838580698525,1
796,729,59,0.0974223994790764,1
797,724,59,0.0787667592656266,1
797,725,59,0.0814452646887355,1
797,726,59,0.0983783763359563,1
797,727,59,0.138579096237421,1
797,728,59,0.161823080773589,1
797,729,59,0.145883826036721,1
797,730,59,0.116906866458587,1
798,726,59,0.0966961038790993,1
798,727,59,0.14404442288843,1
798,728,59,0.170513810007246,1
798,729,59,0.166841099351454,1
798,730,59,0.136145815955226,1
799,726,59,0.0846641984280984,1
799,727,59,0.114720944791582,1
799,728,59,0.138971419142634,1
799,729,59,0.153793591724593,1
799,730,59,0.135984169513576,1
800,726,59,0.0795719747536929,1
800,727,59,0.102331890770736,1
800,728,59,0.130223390885563,1
800,729,59,0.155132405923213,1
800,730,59,0.149033543152923,1
800,731,59,0.136892581712179,1
801,726,59,0.0773589399252613,1
801,727,59,0.0991089326644439,1
801,728,59,0.127055536127993,1
801,729,59,0.165843305154755,1
801,730,59,0.177356714156258,1
801,731,59,0.148799433226386,1
802,727,59,0.0919962839704475,1
802,728,59,0.131873829169402,1
802,729,59,0.193792340654578,1
802,730,59,0.209646480341902,1
802,731,59,0.150086720600217,1
803,727,59,0.0750305917452151,1
803,728,59,0.111375420765145,1
803,729,59,0.139455960384922,1
803,730,59,0.135354813262264,1
804,728,59,0.0784506878506477,1
804,729,59,0.0767681292718761,1
808,709,59,0.0718261569228712,1
808,710,59,0.0985802540068124,1
808,711,59,0.0986728393263433,1
808,712,59,0.078095996197243,1
808,713,59,0.0809512441030171,1
808,714,59,0.0744704210168557,1
809,709,59,0.0894572318804847,1
809,710,59,0.124238553918272,1
809,711,59,0.121532251129158,1
809,712,59,0.0860639317143561,1
809,713,59,0.0735950994396773,1
810,709,59,0.0842143214777652,1
810,710,59,0.110614112550882,1
810,711,59,0.10907339580124,1
810,712,59,0.0791014472651776,1
811,710,59,0.0825512502893927,1
811,711,59,0.0821292515656056,1
780,698,60,0.0875952313209845,1
780,699,60,0.0831637626679941,1
781,695,60,0.0733853596362121,1
781,696,60,0.0747959157948906,1
781,697,60,0.073956900600655,1
781,698,60,0.0745894228531516,1
781,699,60,0.0748034855855436,1
781,700,60,0.0726828619154774,1
782,692,60,0.0726422450436913,1
783,691,60,0.0771378734260039,1
783,692,60,0.0758241944155748,1
784,690,60,0.0725180992329747,1
784,691,60,0.0754962613812244,1
790,723,60,0.0775641826386345,1
790,724,60,0.0763806766592528,1
791,723,60,0.0759028281817494,1
791,724,60,0.0802423024191629,1
791,725,60,0.0781577176702497,1
792,723,60,0.0716342313186089,1
792,724,60,0.0837348122491489,1
792,725,60,0.0938604615445151,1
792,726,60,0.0958843635673723,1
792,727,60,0.0795173876684257,1
793,723,60,0.0764691940715635,1
793,724,60,0.0889160571592363,1
793,725,60,0.0960172609766499,1
793,726,60,0.101944469258321,1
793,727,60,0.0937756574970523,1
793,728,60,0.0759963713876899,1
794,723,60,0.0883783843214206,1
794,724,60,0.0945723142078479,1
794,725,60,0.0881743047558306,1
794,726,60,0.0870819223861989,1
794,727,60,0.0870227697903817,1
794,728,60,0.0803346140568625,1
795,723,60,0.0965169418002436,1
795,724,60,0.0990969528642816,1
795,725,60,0.0826293180317798,1
795,726,60,0.0759337791088563,1
795,727,60,0.0796503659382443,1
795,728,60,0.082529672965009,1
795,729,60,0.0738062325324658,1
796,723,60,0.0789523093272272,1
796,724,60,0.0827755512102931,1
796,725,60,0.072462765742713,1
796,726,60,0.0730117466161959,1
796,727,60,0.0876802903901538,1
796,728,60,0.102728424644126,1
796,729,60,0.10147188915607,1
796,730,60,0.0909645781068301,1
797,726,60,0.0738132362993312,1
797,727,60,0.104400322071559,1
797,728,60,0.138982739618385,1
797,729,60,0.148053438754595,1
797,730,60,0.132441109405335,1
798,727,60,0.104047160548393,1
798,728,60,0.14777080006333,1
798,729,60,0.17242301446261,1
798,730,60,0.160156507701784,1
798,731,60,0.131337574501076,1
799,727,60,0.0895108672993839,1
799,728,60,0.124422045146096,1
799,729,60,0.155943872553109,1
799,730,60,0.160848151449889,1
799,731,60,0.145752172635767,1
800,727,60,0.0887398682602756,1
800,728,60,0.123470204616894,1
800,729,60,0.157297341169788,1
800,730,60,0.173981968374286,1
800,731,60,0.168322364943282,1
801,727,60,0.0935394078761977,1
801,728,60,0.133746745901948,1
801,729,60,0.174221626577949,1
801,730,60,0.198340659009463,1
801,731,60,0.182620200456661,1
802,727,60,0.0869229505624455,1
802,728,60,0.133931244776514,1
802,729,60,0.193321533264189,1
802,730,60,0.220153548809519,1
802,731,60,0.177150581976933,1
803,727,60,0.0720177715250524,1
803,728,60,0.112399239615987,1
803,729,60,0.149281623292941,1
803,730,60,0.154998202305195,1
803,731,60,0.11989160319083,1
804,728,60,0.0826795697480371,1
804,729,60,0.0903032570616275,1
804,730,60,0.0809802668172214,1
808,709,60,0.0746513247073653,1
808,710,60,0.113414213567643,1
808,711,60,0.107786183067908,1
808,712,60,0.0806117853315427,1
808,713,60,0.0807345129727696,1
808,714,60,0.0765476598966143,1
809,709,60,0.0906658668280158,1
809,710,60,0.134302680781963,1
809,711,60,0.124338087024294,1
809,712,60,0.0823186456129281,1
810,709,60,0.0766021661213405,1
810,710,60,0.101424249857294,1
810,711,60,0.0978148281249966,1
811,711,60,0.0728840180615055,1
783,691,61,0.073724613146313,1
791,723,61,0.0746019064766853,1
791,724,61,0.0788951160445207,1
791,725,61,0.0741661490208322,1
792,723,61,0.0735937123703958,1
792,724,61,0.0861798235298415,1
792,725,61,0.0881633263823693,1
792,726,61,0.0849992471900634,1
792,727,61,0.0739207186185447,1
793,723,61,0.0748604300665852,1
793,724,61,0.0917049621010791,1
793,725,61,0.0927840584618081,1
793,726,61,0.090208712428986,1
793,727,61,0.0853633995267738,1
793,728,61,0.0750010154473065,1
794,723,61,0.0734853716854386,1
794,724,61,0.0852358326931656,1
794,725,61,0.0836614281981026,1
794,726,61,0.0833910554289143,1
794,727,61,0.089472184860542,1
794,728,61,0.0894591663134289,1
794,729,61,0.0725278273780702,1
795,724,61,0.072312750778894,1
795,726,61,0.0740779239504777,1
795,727,61,0.0869121152499414,1
795,728,61,0.0966418215758715,1
795,729,61,0.0866696580275489,1
795,730,61,0.0716069937563499,1
796,727,61,0.0801426200321423,1
796,728,61,0.0984977140544997,1
796,729,61,0.1046474940855,1
796,730,61,0.101047147393928,1
797,727,61,0.0776249089049818,1
797,728,61,0.108700889948632,1
797,729,61,0.13072074541359,1
797,730,61,0.136501900897954,1
797,731,61,0.12051201502229,1
798,727,61,0.0765505584360098,1
798,728,61,0.117771452243927,1
798,729,61,0.15025716218072,1
798,730,61,0.16346105409402,1
798,731,61,0.14798032838538,1
799,727,61,0.0743208787762,1
799,728,61,0.112461738594196,1
799,729,61,0.143782608896513,1
799,730,61,0.16777734001627,1
799,731,61,0.160034918328173,1
799,732,61,0.127149744878387,1
800,727,61,0.0769882938650984,1
800,728,61,0.117003749826878,1
800,729,61,0.149832519939244,1
800,730,61,0.180625781431088,1
800,731,61,0.17895048786093,1
800,732,61,0.140898674158782,1
801,727,61,0.079256774144541,1
801,728,61,0.1253621546768,1
801,729,61,0.161375312417365,1
801,730,61,0.1905002219055,1
801,731,61,0.192067062829952,1
801,732,61,0.166034583874689,1
802,727,61,0.0720916220792204,1
802,728,61,0.116206800774126,1
802,729,61,0.161691016849889,1
802,730,61,0.192827064835474,1
802,731,61,0.179891368676795,1
802,732,61,0.16793955870175,1
803,728,61,0.0964833038151564,1
803,729,61,0.139644241044794,1
803,730,61,0.159920320281345,1
803,731,61,0.130722673626492,1
804,728,61,0.0750554594716165,1
804,729,61,0.0971923636798013,1
804,730,61,0.0957199492072004,1
804,731,61,0.0756830865513573,1
808,710,61,0.109763671140189,1
808,711,61,0.100768663690466,1
808,712,61,0.0765134185674899,1
808,713,61,0.0720609199537784,1
809,709,61,0.0803494239759624,1
809,710,61,0.120068376773703,1
809,711,61,0.108422717247251,1
809,712,61,0.0747243044557063,1
810,710,61,0.0894811852607678,1
810,711,61,0.0867170298645356,1
791,723,62,0.0739560919952442,1
791,724,62,0.073993891188176,1
792,723,62,0.0737118807211145,1
792,724,62,0.0829048845357217,1
792,725,62,0.0790841120091794,1
793,723,62,0.0717874869241125,1
793,724,62,0.0896284571862318,1
793,725,62,0.0911183748559547,1
793,726,62,0.0794494088335481,1
793,727,62,0.0742429105544788,1
794,724,62,0.0759379340966592,1
794,725,62,0.0796062098627757,1
794,726,62,0.0800937553851666,1
794,727,62,0.0918816361632864,1
794,728,62,0.0984389346611798,1
794,729,62,0.0780081318893026,1
795,727,62,0.0927099653260169,1
795,728,62,0.109850453160887,1
795,729,62,0.0968845835803034,1
795,730,62,0.0823731082973629,1
796,727,62,0.0723475892320141,1
796,728,62,0.0927345220503372,1
796,729,62,0.102340020365134,1
796,730,62,0.106872222592179,1
796,731,62,0.0938490913084316,1
797,728,62,0.081270500179306,1
797,729,62,0.107136014557333,1
797,730,62,0.129506817210639,1
797,731,62,0.126201163650994,1
798,728,62,0.0883022510119777,1
798,729,62,0.11954038232065,1
798,730,62,0.149770045841201,1
798,731,62,0.151182729254114,1
798,732,62,0.135427314067401,1
799,728,62,0.0986359047191969,1
799,729,62,0.128125146925249,1
799,730,62,0.161218841050344,1
799,731,62,0.158178298104675,1
799,732,62,0.131449460609758,1
800,728,62,0.106021358218655,1
800,729,62,0.139468238747082,1
800,730,62,0.175077865067433,1
800,731,62,0.171999976991872,1
800,732,62,0.144326576416449,1
801,728,62,0.105290851650501,1
801,729,62,0.140167881468713,1
801,730,62,0.173344028465537,1
801,731,62,0.183127867813696,1
801,732,62,0.175405536860036,1
802,728,62,0.0915005653133664,1
802,729,62,0.128700749576871,1
802,730,62,0.164380898729123,1
802,731,62,0.168364661226306,1
802,732,62,0.168975195631671,1
803,728,62,0.0777104220371894,1
803,729,62,0.123666571330874,1
803,730,62,0.157945718308377,1
803,731,62,0.134791787534801,1
804,729,62,0.0966396694414705,1
804,730,62,0.107897086410014,1
804,731,62,0.0861603796797337,1
808,710,62,0.0836383020833551,1
808,711,62,0.0760184400953618,1
809,710,62,0.0838641020342862,1
809,711,62,0.0762671173593755,1
815,708,62,0.0772399567490903,1
789,716,63,0.071940021004788,1
791,723,63,0.0738958260119768,1
792,723,63,0.0760815859578997,1
792,724,63,0.0820535412189929,1
792,725,63,0.0789640900860576,1
793,724,63,0.0864221314712351,1
793,725,63,0.0947809655040295,1
793,726,63,0.0847128267134925,1
793,727,63,0.0762284722407832,1
794,725,63,0.0766188358328852,1
794,726,63,0.082026284996609,1
794,727,63,0.0953571901598131,1
794,728,63,0.102507706467199,1
794,729,63,0.0824558037507161,1
795,727,63,0.0913282701604605,1
795,728,63,0.110860413758997,1
795,729,63,0.100413225632067,1
795,730,63,0.0927721719622701,1
795,731,63,0.0772865821810824,1
796,728,63,0.0859455456621807,1
796,729,63,0.0974384409664174,1
796,730,63,0.108111341963696,1
796,731,63,0.100979485781173,1
797,729,63,0.0941559321816447,1
797,730,63,0.118742587342237,1
797,731,63,0.126358393863094,1
798,728,63,0.0767078073082341,1
798,729,63,0.101959664820001,1
798,730,63,0.13002605384509,1
798,731,63,0.138703546830178,1
798,732,63,0.139355556473073,1
799,728,63,0.0889224949023142,1
799,729,63,0.114061869181404,1
799,730,63,0.14092671410641,1
799,731,63,0.140127986121755,1
799,732,63,0.12955274599797,1
800,728,63,0.0902354275077488,1
800,729,63,0.118975826462947,1
800,730,63,0.147996065090682,1
800,731,63,0.147135236210481,1
800,732,63,0.141355237653858,1
801,728,63,0.0800047590296511,1
801,729,63,0.109114696877604,1
801,730,63,0.139117104957485,1
801,731,63,0.150426509033897,1
801,732,63,0.160996723364052,1
801,733,63,0.166341829050607,1
802,729,63,0.0992042299221216,1
802,730,63,0.130489670867364,1
802,731,63,0.138231035148385,1
802,732,63,0.145793324431133,1
802,733,63,0.166714310023048,1
803,729,63,0.102671281121752,1
803,730,63,0.136690206437993,1
803,731,63,0.123597864751127,1
803,732,63,0.108983317158482,1
804,729,63,0.088496689513055,1
804,730,63,0.109409638811196,1
804,731,63,0.0981887770272603,1
805,730,63,0.08069687550092,1
805,731,63,0.0969607106697047,1
806,730,63,0.0715306614055751,1
806,731,63,0.112795282106089,1
815,709,63,0.0718470189424685,1
792,723,64,0.0753499535622116,1
792,724,64,0.0801740250222875,1
792,725,64,0.076902531931226,1
793,724,64,0.0764388838087436,1
793,725,64,0.0882795478600605,1
793,726,64,0.0908472556817719,1
793,727,64,0.0852289408870493,1
793,728,64,0.0732266366141235,1
794,726,64,0.0808244547746115,1
794,727,64,0.0960138834940496,1
794,728,64,0.100428079091458,1
794,729,64,0.0877503093986831,1
794,730,64,0.0824627950774983,1
795,727,64,0.0825994182917069,1
795,728,64,0.100630945748932,1
795,729,64,0.0998454788930127,1
795,730,64,0.100920414045897,1
795,731,64,0.0890079209539391,1
796,728,64,0.0755103559955379,1
796,729,64,0.0904825124411075,1
796,730,64,0.106485273802928,1
796,731,64,0.110651171558861,1
796,732,64,0.114040148796063,1
797,729,64,0.0832970954801852,1
797,730,64,0.108495815176383,1
797,731,64,0.127591952517401,1
797,732,64,0.143757243566782,1
798,729,64,0.0879685208988364,1
798,730,64,0.1120284256147,1
798,731,64,0.126632473777088,1
798,732,64,0.1370240360718,1
799,728,64,0.0741980702744319,1
799,729,64,0.0960413511978486,1
799,730,64,0.118936266998237,1
799,731,64,0.125149155571525,1
799,732,64,0.129046148488093,1
800,729,64,0.0918380336715221,1
800,730,64,0.117078726208579,1
800,731,64,0.125436173172092,1
800,732,64,0.136258485789152,1
801,729,64,0.07726458811391,1
801,730,64,0.103665100711855,1
801,731,64,0.11884193384701,1
801,732,64,0.139543003647368,1
802,729,64,0.0723050192671589,1
802,730,64,0.0972599008917238,1
802,731,64,0.108906499644461,1
802,732,64,0.122598950946936,1
803,729,64,0.0800548490248262,1
803,730,64,0.108274879297999,1
803,731,64,0.108471469933477,1
803,732,64,0.103147972671514,1
804,729,64,0.0768946822387001,1
804,730,64,0.104746542028275,1
804,731,64,0.108241564755076,1
804,732,64,0.10011170289444,1
805,730,64,0.0878832192480439,1
805,731,64,0.117281847887759,1
805,732,64,0.137882650617184,1
806,730,64,0.0798592660360907,1
806,731,64,0.134552527413802,1
807,730,64,0.0731404143971711,1
807,731,64,0.109993339957008,1
808,730,64,0.0805914582355247,1
811,711,64,0.0726482909241471,1
812,710,64,0.0720042678146929,1
812,711,64,0.0723593824309278,1
812,718,64,0.0768546500508263,1
812,719,64,0.076907439544065,1
812,720,64,0.0764080946027189,1
813,709,64,0.077147427409934,1
813,710,64,0.0817476395720646,1
813,711,64,0.0817988802749397,1
813,712,64,0.075546096354693,1
813,717,64,0.0727022622252938,1
813,718,64,0.0855293564572678,1
813,719,64,0.0825424302703739,1
813,720,64,0.0830242720145982,1
813,721,64,0.0808667510576353,1
814,708,64,0.0759228878159776,1
814,709,64,0.0842936021282684,1
814,710,64,0.0895986320866584,1
814,711,64,0.0927574055834615,1
814,712,64,0.0882545432927435,1
814,713,64,0.0784865526106352,1
814,717,64,0.0716189735565122,1
814,718,64,0.0770714060612403,1
814,719,64,0.0747140849273228,1
814,720,64,0.0776339155252492,1
814,721,64,0.0794998036107627,1
815,709,64,0.0785149906409272,1
815,710,64,0.0780433248847951,1
815,711,64,0.080260608001654,1
815,712,64,0.0813301192782447,1
815,713,64,0.0801863655848639,1
815,718,64,0.071519185428784,1
792,723,65,0.0746042203321683,1
792,724,65,0.0816526408763848,1
792,725,65,0.078181092586662,1
792,726,65,0.0750043431695739,1
793,725,65,0.0772392725445119,1
793,726,65,0.0888320865973508,1
793,727,65,0.0915034203124706,1
793,728,65,0.0779486993916125,1
794,726,65,0.0733852165752548,1
794,727,65,0.0856987033104453,1
794,728,65,0.0868699122675419,1
794,729,65,0.0848371031450832,1
794,730,65,0.0867871110734811,1
794,731,65,0.0763236948579615,1
795,728,65,0.0790550270945589,1
795,729,65,0.0879519818081657,1
795,730,65,0.0983126367160623,1
795,731,65,0.095142014039971,1
795,732,65,0.0864524541741382,1
796,729,65,0.0803983632634377,1
796,730,65,0.100651882409029,1
796,731,65,0.113573085870731,1
796,732,65,0.119821204759761,1
797,729,65,0.0764221643368659,1
797,730,65,0.103327986896072,1
797,731,65,0.128931948523929,1
797,732,65,0.14152755768693,1
798,729,65,0.0781092075656464,1
798,730,65,0.101775284126225,1
798,731,65,0.125283707511874,1
798,732,65,0.136993184665359,1
798,733,65,0.123917388289205,1
799,729,65,0.0797318795836895,1
799,730,65,0.100666437306422,1
799,731,65,0.119589023046127,1
799,732,65,0.133010118812838,1
799,733,65,0.134296498060592,1
800,729,65,0.0717951500153897,1
800,730,65,0.093212693970005,1
800,731,65,0.112962899787696,1
800,732,65,0.131062474500256,1
800,733,65,0.150595656845743,1
801,730,65,0.0818001305033055,1
801,731,65,0.10165210242196,1
801,732,65,0.124890899443415,1
801,733,65,0.156612887789797,1
802,730,65,0.0763452970625117,1
802,731,65,0.0934861332197125,1
802,732,65,0.114236838952207,1
802,733,65,0.139650000803335,1
803,730,65,0.0842278811684993,1
803,731,65,0.098838242673133,1
803,732,65,0.109392931779401,1
803,733,65,0.124034461912599,1
804,730,65,0.0940711654544317,1
804,731,65,0.114336471578895,1
804,732,65,0.123851455848021,1
805,730,65,0.0869068779748964,1
805,731,65,0.123701565285034,1
805,732,65,0.165930049855204,1
805,733,65,0.191371873658122,1
806,730,65,0.0832267841296997,1
806,731,65,0.132307328750147,1
806,732,65,0.199284164682892,1
807,730,65,0.0811860382341324,1
807,731,65,0.10785882071396,1
808,730,65,0.0872293000523705,1
809,697,65,0.0718298267474277,1
810,697,65,0.101992649700718,1
810,698,65,0.0842871146248576,1
810,699,65,0.0821154555132899,1
810,700,65,0.0798153276620789,1
810,719,65,0.072428319152215,1
810,720,65,0.0758769963488967,1
811,698,65,0.084142610617915,1
811,699,65,0.080281837003707,1
811,700,65,0.079465730222762,1
811,711,65,0.074717331789049,1
811,718,65,0.0755401313347784,1
811,719,65,0.0861143575917788,1
811,720,65,0.0914936237469172,1
811,721,65,0.0778913692679904,1
812,700,65,0.0800972759287241,1
812,701,65,0.0745507715145178,1
812,708,65,0.0718578169347229,1
812,709,65,0.0825342571356837,1
812,710,65,0.0880017981215096,1
812,711,65,0.0838327157042659,1
812,712,65,0.0726258614540612,1
812,717,65,0.0734725770598239,1
812,718,65,0.089294702192924,1
812,719,65,0.0981775809523422,1
812,720,65,0.102395621317186,1
812,721,65,0.0908644976371457,1
812,722,65,0.076746769648949,1
813,701,65,0.0799642416785309,1
813,702,65,0.074397403948265,1
813,708,65,0.0871283798770673,1
813,709,65,0.106923923578134,1
813,710,65,0.113628929404405,1
813,711,65,0.106147861425146,1
813,712,65,0.0896314117060019,1
813,713,65,0.0764476167471797,1
813,717,65,0.080181339791234,1
813,718,65,0.096275486004552,1
813,719,65,0.0994362747948403,1
813,720,65,0.10374968083782,1
813,721,65,0.098499088683698,1
813,722,65,0.0837502006321197,1
814,702,65,0.0791166988072326,1
814,707,65,0.0726153806839296,1
814,708,65,0.0918412494330402,1
814,709,65,0.10928054806739,1
814,710,65,0.118323182375806,1
814,711,65,0.121442272007066,1
814,712,65,0.108868184188074,1
814,713,65,0.092132055038954,1
814,714,65,0.0829124356662498,1
814,715,65,0.078425366061208,1
814,716,65,0.0781963690088836,1
814,717,65,0.0838584977767856,1
814,718,65,0.08848301164153,1
814,719,65,0.0885925465744786,1
815,702,65,0.0829082931185301,1
815,708,65,0.0801852397573305,1
815,709,65,0.085646038218039,1
815,710,65,0.088523696933774,1
792,724,66,0.0723524097642705,1
792,725,66,0.0714871024541021,1
792,726,66,0.0718127651732609,1
792,727,66,0.0741932373020923,1
792,728,66,0.0741987980193016,1
793,726,66,0.0717466274707031,1
793,727,66,0.0804627406942166,1
793,728,66,0.0774595864187332,1
793,729,66,0.0739274176033707,1
794,729,66,0.0737471732372729,1
794,730,66,0.0816594953622513,1
794,731,66,0.0768320775197832,1
795,730,66,0.0855649164352159,1
795,731,66,0.0921523572548054,1
795,732,66,0.0879139462536524,1
796,730,66,0.0856502491862165,1
796,731,66,0.102287025610522,1
796,732,66,0.106300986409776,1
797,730,66,0.0879992976647778,1
797,731,66,0.114636053663536,1
797,732,66,0.121062239904097,1
797,733,66,0.105169200076474,1
798,730,66,0.0840648227774008,1
798,731,66,0.115911983241366,1
798,732,66,0.130198784400909,1
798,733,66,0.11390166578941,1
799,730,66,0.0762253062395981,1
799,731,66,0.105750338565139,1
799,732,66,0.129291392289132,1
799,733,66,0.124871231671809,1
800,731,66,0.0925785234064787,1
800,732,66,0.117624671701751,1
800,733,66,0.135581073496276,1
801,731,66,0.0810239501695267,1
801,732,66,0.107592304370577,1
801,733,66,0.143231985932042,1
802,731,66,0.0771722640361272,1
802,732,66,0.106894453020933,1
802,733,66,0.137288835683696,1
803,731,66,0.0874981240311951,1
803,732,66,0.120313496173909,1
803,733,66,0.142202967126405,1
804,730,66,0.0762585585821048,1
804,731,66,0.10688039572687,1
804,732,66,0.144974518152124,1
804,733,66,0.170184421483157,1
805,730,66,0.0760671679014219,1
805,731,66,0.111299001333787,1
805,732,66,0.165949779827226,1
805,733,66,0.210638502339976,1
806,730,66,0.0779628624263839,1
806,731,66,0.11158389168012,1
806,732,66,0.172520756196644,1
807,730,66,0.0815107306267982,1
807,731,66,0.0969181780250993,1
808,730,66,0.0850999745440763,1
808,731,66,0.0978082722011279,1
809,696,66,0.0789801315733986,1
809,697,66,0.0822453859627141,1
809,698,66,0.0744964083507489,1
809,730,66,0.0831400021090013,1
810,695,66,0.0865141196667703,1
810,696,66,0.108864452163102,1
810,697,66,0.111053471410834,1
810,698,66,0.0970384985102189,1
810,699,66,0.0891616928228973,1
810,700,66,0.0834559304630229,1
810,720,66,0.0733299888257006,1
811,697,66,0.0984172453760468,1
811,698,66,0.103658215125781,1
811,699,66,0.0972485493157652,1
811,700,66,0.0882333764911067,1
811,701,66,0.0775277331947345,1
811,718,66,0.0762383123466279,1
811,719,66,0.094091156668202,1
811,720,66,0.102929356868655,1
811,721,66,0.089238995500165,1
811,722,66,0.0723847477606588,1
812,699,66,0.106743330889706,1
812,700,66,0.0969026030408799,1
812,701,66,0.0945834356422666,1
812,702,66,0.0834880631980378,1
812,708,66,0.0748377206946264,1
812,709,66,0.0919067402512694,1
812,710,66,0.0983416096699336,1
812,711,66,0.0911410033673725,1
812,712,66,0.0799081742233578,1
812,718,66,0.0876432998026328,1
812,719,66,0.107181520381833,1
812,720,66,0.117302996029271,1
812,721,66,0.103587698513922,1
812,722,66,0.084444954401036,1
813,700,66,0.0960679729759871,1
813,701,66,0.100706836476752,1
813,702,66,0.0940365136025602,1
813,703,66,0.0741891445147056,1
813,707,66,0.073759781261639,1
813,708,66,0.0993467808359952,1
813,709,66,0.125904019822669,1
813,710,66,0.129672979402507,1
813,711,66,0.114439189346227,1
813,712,66,0.0953399668645641,1
813,713,66,0.0813698840043288,1
813,714,66,0.0747514549373827,1
813,717,66,0.076976824108349,1
813,718,66,0.0921403712346015,1
813,719,66,0.10450077574374,1
813,720,66,0.1128234091343,1
813,721,66,0.105590048092561,1
813,722,66,0.0900360627337076,1
813,723,66,0.0732143955722131,1
814,701,66,0.0890947154147207,1
814,702,66,0.0883946186300519,1
814,703,66,0.0806346564245836,1
814,704,66,0.0755217511117878,1
814,705,66,0.0750594465182957,1
814,706,66,0.0745309980022041,1
814,707,66,0.0819437885845877,1
814,708,66,0.101720274078128,1
814,709,66,0.119702165603216,1
814,710,66,0.124611432973377,1
814,711,66,0.122139936755461,1
814,712,66,0.107853496358333,1
814,713,66,0.0926819937988466,1
814,714,66,0.0874394254984163,1
814,715,66,0.0867438631240892,1
814,716,66,0.0868260671941544,1
814,717,66,0.0868271557014381,1
814,718,66,0.0905770321935825,1
814,719,66,0.09594002671984,1
814,720,66,0.103240651291669,1
815,702,66,0.0824968746855406,1
815,703,66,0.0819767610252214,1
815,704,66,0.084006354386162,1
815,705,66,0.0836809466887097,1
815,706,66,0.080391987720776,1
815,707,66,0.0787647626322662,1
815,708,66,0.0816214411476131,1
815,709,66,0.0847987752486136,1
815,710,66,0.0878409105249368,1
815,711,66,0.0931788009632113,1
792,727,67,0.0726334934451304,1
792,728,67,0.0861773106330265,1
792,729,67,0.0819265093089641,1
793,728,67,0.0760275897765865,1
793,729,67,0.0792893671626358,1
794,730,67,0.0743588334701722,1
794,731,67,0.0729567365680984,1
795,730,67,0.0743324915939066,1
795,731,67,0.0833967592070809,1
795,732,67,0.0787014363885212,1
796,730,67,0.0740213713320582,1
796,731,67,0.0879017176518252,1
796,732,67,0.0858830404639298,1
796,733,67,0.0797121122914175,1
797,730,67,0.0777966131539337,1
797,731,67,0.100920376725647,1
797,732,67,0.102076949924809,1
797,733,67,0.0879982464777439,1
798,730,67,0.0757463692548109,1
798,731,67,0.109193081842114,1
798,732,67,0.124005688000059,1
798,733,67,0.101027753304153,1
799,731,67,0.0980741292200992,1
799,732,67,0.128333456119142,1
799,733,67,0.114795162328205,1
800,731,67,0.0837121153172734,1
800,732,67,0.116773197764148,1
800,733,67,0.124850531373294,1
801,731,67,0.0738374322612375,1
801,732,67,0.104750037691666,1
801,733,67,0.130166912907642,1
802,731,67,0.0720187107513372,1
802,732,67,0.106739636184983,1
802,733,67,0.131901694955865,1
803,731,67,0.0820085454379055,1
803,732,67,0.13104510814405,1
803,733,67,0.157929782561744,1
803,734,67,0.132803675631432,1
804,731,67,0.0939706744620003,1
804,732,67,0.149947976351816,1
804,733,67,0.184526730294127,1
804,734,67,0.14300027694157,1
805,731,67,0.0929332088398417,1
805,732,67,0.143843304062652,1
805,733,67,0.187445273343437,1
806,731,67,0.0912585123936793,1
806,732,67,0.133753687468397,1
807,730,67,0.0756999615242755,1
807,731,67,0.0844986520203514,1
807,732,67,0.103886814095441,1
808,730,67,0.0754880073859931,1
808,731,67,0.0837304519999725,1
809,696,67,0.0787726061047504,1
809,697,67,0.082563460231095,1
809,698,67,0.0770838772446907,1
810,695,67,0.0828075906446837,1
810,696,67,0.10054691298663,1
810,697,67,0.102120589736823,1
810,698,67,0.0977155251605149,1
810,699,67,0.0869394896531161,1
810,700,67,0.0758010931809938,1
810,720,67,0.0724385200204737,1
811,696,67,0.0812626007264471,1
811,697,67,0.093532572050456,1
811,698,67,0.113810193857329,1
811,699,67,0.110166767157489,1
811,700,67,0.0907497689694436,1
811,701,67,0.0836491125156927,1
811,702,67,0.0717891601153086,1
811,711,67,0.0724328908828065,1
811,718,67,0.0754930518397478,1
811,719,67,0.100089366724978,1
811,720,67,0.110907300432737,1
811,721,67,0.0991998758929868,1
811,722,67,0.078788293049719,1
812,697,67,0.0923439718569867,1
812,698,67,0.129003541202988,1
812,699,67,0.129414947195895,1
812,700,67,0.110223406856491,1
812,701,67,0.110468787498446,1
812,702,67,0.0936096756863918,1
812,708,67,0.0847992852920266,1
812,709,67,0.108475413439865,1
812,710,67,0.112914470543633,1
812,711,67,0.104129625860206,1
812,712,67,0.0939688830900134,1
812,713,67,0.0791574774001009,1
812,718,67,0.0815103076639679,1
812,719,67,0.110803288896748,1
812,720,67,0.124587100170555,1
812,721,67,0.112034483935239,1
812,722,67,0.0913220687789642,1
812,723,67,0.072216128652351,1
813,699,67,0.100285478417251,1
813,700,67,0.10325200908767,1
813,701,67,0.116378200241038,1
813,702,67,0.105421049561715,1
813,703,67,0.0837967389835291,1
813,704,67,0.0806871286956997,1
813,705,67,0.0811642805285416,1
813,706,67,0.0768910808346014,1
813,707,67,0.0876216851579993,1
813,708,67,0.122912528125225,1
813,709,67,0.151146267370131,1
813,710,67,0.141789782201595,1
813,711,67,0.117304090756597,1
813,712,67,0.101186146664036,1
813,713,67,0.0869530493438502,1
813,714,67,0.0783057422207499,1
813,715,67,0.0773633623748539,1
813,716,67,0.0752430248267024,1
813,717,67,0.0729023298640382,1
813,718,67,0.0832902472143603,1
813,719,67,0.105601157086897,1
813,720,67,0.116065232626828,1
813,721,67,0.107476474755508,1
813,722,67,0.0940979240734859,1
813,723,67,0.0799003618510817,1
814,700,67,0.0890180658418232,1
814,701,67,0.0929808792388262,1
814,702,67,0.0926970960599028,1
814,703,67,0.0904666015746406,1
814,704,67,0.099205716512069,1
814,705,67,0.108845792038238,1
814,706,67,0.103753562143791,1
814,707,67,0.100787952039533,1
814,708,67,0.114977732989869,1
814,709,67,0.128538481131058,1
814,710,67,0.122473691748769,1
814,711,67,0.108811942571736,1
814,712,67,0.096996842891482,1
814,713,67,0.0890159759078385,1
814,714,67,0.0892163358885391,1
814,715,67,0.0964673618484814,1
814,716,67,0.0971895397809053,1
814,717,67,0.0877057241403427,1
814,718,67,0.089792342842866,1
814,719,67,0.101482083804287,1
814,720,67,0.10909331237451,1
814,721,67,0.106394498515508,1
814,722,67,0.0956527851977752,1
814,723,67,0.0838118101443772,1
815,701,67,0.0836394838912631,1
815,702,67,0.083845224207966,1
815,703,67,0.0883830369125533,1
815,704,67,0.101340291735491,1
815,705,67,0.112874351275177,1
815,706,67,0.106410396941892,1
815,707,67,0.0908872878696456,1
815,708,67,0.0827328630646471,1
815,709,67,0.0832977796847635,1
815,710,67,0.084127110274195,1
815,711,67,0.0835624984361181,1
815,712,67,0.0823118408873945,1
815,713,67,0.0854675852239281,1
815,714,67,0.0973177410587589,1
792,728,68,0.0863148357532702,1
792,729,68,0.0870904625033447,1
793,729,68,0.0777708746217054,1
796,731,68,0.0714984415899775,1
797,731,68,0.082195426588413,1
797,732,68,0.0849615910580889,1
797,733,68,0.0740468175223303,1
798,731,68,0.0917629639891964,1
798,732,68,0.106150747524459,1
798,733,68,0.0881162406672971,1
799,731,68,0.0844170886145732,1
799,732,68,0.11386794072374,1
799,733,68,0.10438171792707,1
800,731,68,0.0728732573895009,1
800,732,68,0.108410326924341,1
800,733,68,0.115509583868727,1
800,734,68,0.134569968410507,1
801,732,68,0.0978599731870829,1
801,733,68,0.115101200816049,1
801,734,68,0.13795023758944,1
802,732,68,0.102978743999127,1
802,733,68,0.122108824107272,1
802,734,68,0.127155044353848,1
803,731,68,0.0759706515155864,1
803,732,68,0.132378846788707,1
803,733,68,0.157765250020781,1
803,734,68,0.136233083139171,1
804,731,68,0.0807019634949661,1
804,732,68,0.142655599555176,1
804,733,68,0.173984854473598,1
804,734,68,0.143395386425429,1
805,731,68,0.0745112680301818,1
805,732,68,0.117169837378246,1
805,733,68,0.148002310012469,1
805,734,68,0.134018611481125,1
806,731,68,0.071579277250886,1
806,732,68,0.097796957945419,1
806,733,68,0.124025480172498,1
807,732,68,0.0834867072289644,1
807,733,68,0.0985697981168472,1
808,732,68,0.0847198989008158,1
809,697,68,0.0748789409104498,1
809,698,68,0.0726379843151808,1
810,696,68,0.0840201068981864,1
810,697,68,0.0881231697936631,1
810,698,68,0.0920412859715765,1
810,699,68,0.0834991224320402,1
811,696,68,0.0738806926507126,1
811,697,68,0.0881236051965766,1
811,698,68,0.114197167526747,1
811,699,68,0.118435006284071,1
811,700,68,0.0932576337707178,1
811,701,68,0.0875196764754124,1
811,702,68,0.0760241376534867,1
811,711,68,0.0715897766811425,1
811,719,68,0.0959625432705086,1
811,720,68,0.108387462051342,1
811,721,68,0.101188211717854,1
811,722,68,0.0837165191067411,1
812,697,68,0.0949435636120481,1
812,698,68,0.133281200666771,1
812,699,68,0.142095260885693,1
812,700,68,0.120196945034012,1
812,701,68,0.121568215409811,1
812,702,68,0.10018893715125,1
812,703,68,0.076396910967884,1
812,704,68,0.0725158973382408,1
812,708,68,0.0929601602801862,1
812,709,68,0.118783005172692,1
812,710,68,0.117728446876158,1
812,711,68,0.106930404861504,1
812,712,68,0.0967567306247806,1
812,713,68,0.0803459905129875,1
812,718,68,0.0756716665549409,1
812,719,68,0.106180777885406,1
812,720,68,0.121672015464385,1
812,721,68,0.113855612601247,1
812,722,68,0.0965955320261268,1
812,723,68,0.0777993810724551,1
813,697,68,0.0834439195626525,1
813,698,68,0.0980529499783792,1
813,699,68,0.105226499099888,1
813,700,68,0.111237348281239,1
813,701,68,0.128099470593437,1
813,702,68,0.111655745600927,1
813,703,68,0.092328533713683,1
813,704,68,0.0979571177971221,1
813,705,68,0.0960127514464745,1
813,706,68,0.087132422904121,1
813,707,68,0.0970262699083917,1
813,708,68,0.13544841244858,1
813,709,68,0.160493783238649,1
813,710,68,0.140065860346042,1
813,711,68,0.110639378359947,1
813,712,68,0.0974546441748405,1
813,713,68,0.0863856136068773,1
813,714,68,0.0793297663329652,1
813,715,68,0.0846588180920961,1
813,716,68,0.0824653328544797,1
813,717,68,0.0728044326289629,1
813,718,68,0.0796399598086121,1
813,719,68,0.106217351730138,1
813,720,68,0.117537354757473,1
813,721,68,0.110031879334893,1
813,722,68,0.0994938786002938,1
813,723,68,0.0881686818382051,1
813,724,68,0.0724671011117229,1
814,699,68,0.0852994263987002,1
814,700,68,0.0908986954259788,1
814,701,68,0.0971725715073628,1
814,702,68,0.0951421197806785,1
814,703,68,0.0975133675877858,1
814,704,68,0.118498873671437,1
814,705,68,0.135375550881029,1
814,706,68,0.125363274284292,1
814,707,68,0.110775522630951,1
814,708,68,0.117786629145482,1
814,709,68,0.127069394380724,1
814,710,68,0.114242399669416,1
814,711,68,0.092766853826684,1
814,712,68,0.0824351967528252,1
814,713,68,0.0816365807289189,1
814,714,68,0.0866809971634242,1
814,715,68,0.102503570139521,1
814,716,68,0.106007649246922,1
814,717,68,0.0907310528642055,1
814,718,68,0.0917782217512931,1
814,719,68,0.107697870916971,1
814,720,68,0.114005229482402,1
814,721,68,0.111042163375167,1
814,722,68,0.10559437724153,1
814,723,68,0.0990132000038527,1
814,724,68,0.0807072940706355,1
815,700,68,0.0887330759748253,1
815,701,68,0.0819424139553894,1
815,702,68,0.0827871142676668,1
815,703,68,0.0914061202013909,1
815,704,68,0.110995351341926,1
815,705,68,0.130286822870015,1
815,706,68,0.120522539332713,1
815,707,68,0.0938882713506033,1
815,708,68,0.0800956649379442,1
815,709,68,0.0802621319118512,1
815,710,68,0.079582579924657,1
815,711,68,0.0734568652346888,1
815,712,68,0.0717417820582803,1
815,713,68,0.0773458902779401,1
815,714,68,0.0905352521740132,1
815,715,68,0.114131857089725,1
815,716,68,0.122282599630084,1
815,717,68,0.107466970531911,1
815,718,68,0.106356543821536,1
815,719,68,0.104969225738354,1
815,720,68,0.104502803477309,1
815,721,68,0.109856561241759,1
815,722,68,0.109289442726909,1
815,723,68,0.102202545005224,1
792,728,69,0.0777324845248196,1
792,729,69,0.0825390216875655,1
793,729,69,0.0715239873009156,1
797,731,69,0.0723663924178348,1
797,732,69,0.07687760822445,1
797,733,69,0.0724145479800658,1
798,731,69,0.0766552479565354,1
798,732,69,0.0878335833159071,1
798,733,69,0.0830832504492499,1
799,731,69,0.0744123755884471,1
799,732,69,0.0967532536215144,1
799,733,69,0.0996298735902987,1
799,734,69,0.103371359246296,1
800,732,69,0.0985246281745944,1
800,733,69,0.110086441539993,1
800,734,69,0.12170921131328,1
801,732,69,0.0913311064994397,1
801,733,69,0.105569061672132,1
801,734,69,0.122197360179708,1
802,732,69,0.0994780050540766,1
802,733,69,0.116093347214956,1
802,734,69,0.125876576999036,1
803,731,69,0.078553181696481,1
803,732,69,0.127598147678855,1
803,733,69,0.149367273266065,1
803,734,69,0.143972606287872,1
804,731,69,0.0808661788138062,1
804,732,69,0.131212352623159,1
804,733,69,0.153333383285127,1
804,734,69,0.143522747997664,1
805,731,69,0.0717210879798067,1
805,732,69,0.102998312250068,1
805,733,69,0.120659268287629,1
805,734,69,0.121245345489341,1
806,732,69,0.0831607583878911,1
806,733,69,0.096450555296021,1
807,732,69,0.0752571692013489,1
807,733,69,0.0860994543720545,1
808,732,69,0.075715797750243,1
808,733,69,0.092971885058642,1
809,732,69,0.077538232624991,1
810,697,69,0.0760901447351704,1
810,698,69,0.0858511876307878,1
810,699,69,0.0826901064985433,1
811,697,69,0.084030127385238,1
811,698,69,0.107956301206247,1
811,699,69,0.118561944893476,1
811,700,69,0.100904932362302,1
811,701,69,0.0913666789174711,1
811,702,69,0.0787018033709769,1
811,710,69,0.0728306687645209,1
811,711,69,0.071527887267012,1
811,719,69,0.0841861135890133,1
811,720,69,0.096591638280072,1
811,721,69,0.0947697569890282,1
811,722,69,0.0847859744029573,1
811,723,69,0.0726873403454447,1
812,696,69,0.0758231929888738,1
812,697,69,0.0942340807845729,1
812,698,69,0.125157788989296,1
812,699,69,0.141343917178107,1
812,700,69,0.129983732681899,1
812,701,69,0.124467874412761,1
812,702,69,0.101814750290311,1
812,703,69,0.0845682729462169,1
812,704,69,0.0858236950468223,1
812,705,69,0.0756563341523447,1
812,707,69,0.0768284325753932,1
812,708,69,0.10214022018818,1
812,709,69,0.1221825191604,1
812,710,69,0.113906144219377,1
812,711,69,0.102140014926806,1
812,712,69,0.0955061352764733,1
812,713,69,0.0835089625378849,1
812,714,69,0.0729121699698829,1
812,715,69,0.0765053076332159,1
812,716,69,0.072551867838936,1
812,718,69,0.0748072922510157,1
812,719,69,0.0975758665659951,1
812,720,69,0.111519464489008,1
812,721,69,0.108742066624164,1
812,722,69,0.0978515450306862,1
812,723,69,0.0838010743525391,1
813,695,69,0.0754355662150852,1
813,696,69,0.0793779592154459,1
813,697,69,0.0873043821747794,1
813,698,69,0.101612126214461,1
813,699,69,0.114752530162934,1
813,700,69,0.125078620299542,1
813,701,69,0.134270510726699,1
813,702,69,0.114873248730717,1
813,703,69,0.104579589891122,1
813,704,69,0.119398664892353,1
813,705,69,0.116503994362784,1
813,706,69,0.104697975943297,1
813,707,69,0.110675591442266,1
813,708,69,0.137869924412027,1
813,709,69,0.151873514636476,1
813,710,69,0.127930621343589,1
813,711,69,0.101904586351446,1
813,712,69,0.0948240766125057,1
813,713,69,0.0892194956696827,1
813,714,69,0.0829271460646838,1
813,715,69,0.0928806868083927,1
813,716,69,0.091878588342892,1
813,717,69,0.0793346490656378,1
813,718,69,0.0841938264406235,1
813,719,69,0.106891629122037,1
813,720,69,0.116120802478672,1
813,721,69,0.111766648943032,1
813,722,69,0.10410408636931,1
813,723,69,0.0943195628165724,1
813,724,69,0.0792211768463431,1
814,695,69,0.0743645870086718,1
814,696,69,0.0776971173681617,1
814,697,69,0.0831481254833586,1
814,698,69,0.0892363146622263,1
814,699,69,0.0941506762464748,1
814,700,69,0.101270589949085,1
814,701,69,0.107168184612597,1
814,702,69,0.102352174326462,1
814,703,69,0.108537078932497,1
814,704,69,0.136271199554226,1
814,705,69,0.156145638263216,1
814,706,69,0.143809367515567,1
814,707,69,0.11992429572959,1
814,708,69,0.11453209188788,1
814,709,69,0.116362177413822,1
814,710,69,0.103859408592058,1
814,711,69,0.0843997160383253,1
814,712,69,0.078257636418852,1
814,713,69,0.081170052727166,1
814,714,69,0.0867003166126995,1
814,715,69,0.106182643897892,1
814,716,69,0.111108842221346,1
814,717,69,0.0962886911529137,1
814,718,69,0.0979001670960388,1
814,719,69,0.115295402955545,1
814,720,69,0.117555280917425,1
814,721,69,0.114966375193869,1
814,722,69,0.114492370702087,1
814,723,69,0.109612001645298,1
814,724,69,0.0886508345845104,1
815,696,69,0.0835941646680114,1
815,697,69,0.101122652479167,1
815,698,69,0.114868670780084,1
815,699,69,0.106870829302856,1
815,700,69,0.0949223346099951,1
815,701,69,0.0879394111040494,1
815,702,69,0.0878198245838411,1
815,703,69,0.0985116282876062,1
815,704,69,0.120283751934877,1
815,705,69,0.141477150469632,1
815,706,69,0.13083776927665,1
815,707,69,0.0977588912906975,1
815,708,69,0.079019429796361,1
815,709,69,0.0772231253164634,1
815,710,69,0.0771640660212706,1
815,713,69,0.0767016992273622,1
815,714,69,0.0880034961928721,1
815,715,69,0.112563535795368,1
815,716,69,0.121757802278424,1
815,717,69,0.111090144776232,1
815,718,69,0.110707151933452,1
815,719,69,0.111940859868757,1
815,720,69,0.106606477533957,1
815,721,69,0.1111925391014,1
815,722,69,0.118597909174129,1
815,723,69,0.117049728374541,1
815,724,69,0.0909842272183113,1
798,732,70,0.0717484499428981,1
799,732,70,0.0787101444467908,1
799,733,70,0.0897687999853299,1
800,732,70,0.0828403329437774,1
800,733,70,0.0961473531471563,1
801,732,70,0.080777325519248,1
801,733,70,0.0936990017041132,1
802,732,70,0.0906223514168342,1
802,733,70,0.107036033608314,1
803,731,70,0.0754464948282135,1
803,732,70,0.110585077396595,1
803,733,70,0.131171088867045,1
804,731,70,0.0764130955161823,1
804,732,70,0.11077072075882,1
804,733,70,0.129004984252645,1
805,732,70,0.0887726665397439,1
805,733,70,0.101394337677138,1
806,732,70,0.0724090743434392,1
810,698,70,0.0782713516106266,1
810,699,70,0.0788892318851471,1
811,697,70,0.0790319196399363,1
811,698,70,0.0966300345969994,1
811,699,70,0.10802917521388,1
811,700,70,0.10107577824551,1
811,701,70,0.090768789856721,1
811,702,70,0.0784409597055522,1
811,709,70,0.076301389788708,1
811,710,70,0.0748387221213274,1
811,719,70,0.0713522395116723,1
811,720,70,0.081941599129937,1
811,721,70,0.0845653246464885,1
811,722,70,0.0822245674834081,1
811,723,70,0.0753429560153878,1
812,695,70,0.0746801172800296,1
812,696,70,0.0807820589709217,1
812,697,70,0.0902476187893263,1
812,698,70,0.110170772864293,1
812,699,70,0.127667774824763,1
812,700,70,0.127566786229002,1
812,701,70,0.119050180840487,1
812,702,70,0.100824973727262,1
812,703,70,0.0925093067833185,1
812,704,70,0.0966579874640448,1
812,705,70,0.0889087983706645,1
812,706,70,0.0820147841396515,1
812,707,70,0.0886503058809726,1
812,708,70,0.105805572534734,1
812,709,70,0.116008443646827,1
812,710,70,0.10496564299438,1
812,711,70,0.093476094072536,1
812,712,70,0.088910446681694,1
812,713,70,0.0833973936513263,1
812,714,70,0.0778080269303085,1
812,715,70,0.0810227061612025,1
812,716,70,0.0790615705783443,1
812,717,70,0.0722856251773841,1
812,718,70,0.0758495286450977,1
812,719,70,0.088646604956208,1
812,720,70,0.0996714110282448,1
812,721,70,0.10156500939918,1
812,722,70,0.0977870307589916,1
812,723,70,0.0897287677974562,1
812,724,70,0.0772430854300257,1
813,694,70,0.0805561470592414,1
813,695,70,0.0887830602292928,1
813,696,70,0.0892308410255996,1
813,697,70,0.0905894971569913,1
813,698,70,0.102290334672665,1
813,699,70,0.117829385711586,1
813,700,70,0.129325714478798,1
813,701,70,0.130813361833329,1
813,702,70,0.115644372170658,1
813,703,70,0.114612181143794,1
813,704,70,0.131689131253504,1
813,705,70,0.130287121432013,1
813,706,70,0.119016654816149,1
813,707,70,0.117715272828005,1
813,708,70,0.127570480933725,1
813,709,70,0.13009342933593,1
813,710,70,0.111608336443691,1
813,711,70,0.0936195282323197,1
813,712,70,0.0894973449288996,1
813,713,70,0.0885557363681646,1
813,714,70,0.0869333753522025,1
813,715,70,0.0958376012944645,1
813,716,70,0.0969771129194597,1
813,717,70,0.087855372121706,1
813,718,70,0.0912602291251667,1
813,719,70,0.105732785607684,1
813,720,70,0.112871029772951,1
813,721,70,0.112702143202854,1
813,722,70,0.109533977443203,1
813,723,70,0.102347857617577,1
813,724,70,0.0883976415702797,1
813,725,70,0.0733705061768208,1
814,694,70,0.0789123642199361,1
814,695,70,0.0874157084797148,1
814,696,70,0.0894263742540022,1
814,697,70,0.0919476059247203,1
814,698,70,0.0993784470678885,1
814,699,70,0.10613010942636,1
814,700,70,0.11235873470495,1
814,701,70,0.114801046487579,1
814,702,70,0.110375437113795,1
814,703,70,0.118720356913483,1
814,704,70,0.144047122386494,1
814,705,70,0.158723708674268,1
814,706,70,0.146784811505628,1
814,707,70,0.121863779347565,1
814,708,70,0.108348250908962,1
814,709,70,0.103945686789385,1
814,710,70,0.0945279093307145,1
814,711,70,0.0816475404422554,1
814,712,70,0.0779022170205776,1
814,713,70,0.0813076898081589,1
814,714,70,0.0875211879455263,1
814,715,70,0.1033845706147,1
814,716,70,0.110126672769199,1
814,717,70,0.102495745327162,1
814,718,70,0.106124523828984,1
814,719,70,0.119179084983043,1
814,720,70,0.120509726046973,1
814,721,70,0.120683986733032,1
814,722,70,0.124852745708111,1
814,723,70,0.120320276019276,1
814,724,70,0.098720882927825,1
