x,y,z,signal,cytoplasm.p
442,139,49,0.041105039383954,1
443,138,49,0.0429790704430071,1
443,139,49,0.0450222187604701,1
442,137,50,0.0421718503412342,1
442,138,50,0.0524491449010987,1
442,139,50,0.04986165463214,1
443,138,50,0.0525698610694072,1
443,139,50,0.0537752169030621,1
444,139,50,0.0420839449431761,1
441,137,51,0.046230102242653,1
441,138,51,0.0486720972776268,1
442,137,51,0.0616546083504035,1
442,138,51,0.0704162059047254,1
442,139,51,0.0561680376848552,1
443,137,51,0.0565629942566635,1
443,138,51,0.0679281238621527,1
443,139,51,0.0591010994097835,1
444,138,51,0.0476616109803258,1
444,139,51,0.0459183877601213,1
446,142,51,0.041483183713842,1
447,142,51,0.0429236081572317,1
447,143,51,0.0426978634616927,1
441,137,52,0.0531413853802064,1
441,138,52,0.0577400836806836,1
441,139,52,0.0420712580399228,1
442,136,52,0.0428334670743258,1
442,137,52,0.082748594962636,1
442,138,52,0.095093684440637,1
442,139,52,0.0662311336313872,1
443,136,52,0.0413227199345102,1
443,137,52,0.0824122311760634,1
443,138,52,0.098015062211621,1
443,139,52,0.0716239677353748,1
444,137,52,0.0564328487428303,1
444,138,52,0.0677458952718061,1
444,139,52,0.0561720602955607,1
446,142,52,0.0468889453207824,1
446,143,52,0.0436899668606084,1
447,142,52,0.0463170587587504,1
447,143,52,0.0437790320032852,1
457,135,52,0.0411055530237619,1
441,137,53,0.0519351374353063,1
441,138,53,0.0603804410027045,1
441,139,53,0.0458660073131928,1
442,136,53,0.0443639758299057,1
442,137,53,0.0913505370444815,1
442,138,53,0.111879346852593,1
442,139,53,0.0771471365889144,1
443,136,53,0.0470537912586853,1
443,137,53,0.103343853541675,1
443,138,53,0.130061828391621,1
443,139,53,0.0909656315927021,1
443,140,53,0.0452223733801098,1
444,137,53,0.0715063766597919,1
444,138,53,0.0913455304080389,1
444,139,53,0.0707086507843615,1
444,140,53,0.043568412648403,1
445,138,53,0.045815789560192,1
445,139,53,0.0438227130138896,1
446,142,53,0.0456373132438099,1
446,143,53,0.0423319545727006,1
447,142,53,0.0454955540635851,1
447,143,53,0.0422781197141057,1
457,135,53,0.041701226515631,1
438,142,54,0.0416259945039892,1
439,142,54,0.04359661417722,1
441,137,54,0.0442671736497026,1
441,138,54,0.0543882054631898,1
441,139,54,0.044908177206296,1
442,137,54,0.0830216621046801,1
442,138,54,0.109406987594874,1
442,139,54,0.0799249114831002,1
443,136,54,0.0456921321281419,1
443,137,54,0.104360233179929,1
443,138,54,0.140762946080494,1
443,139,54,0.102356356680825,1
443,140,54,0.0496217253678029,1
444,137,54,0.0727329214872033,1
444,138,54,0.0987437927440235,1
444,139,54,0.0774166623196519,1
444,140,54,0.045706962801751,1
445,138,54,0.0469309989042062,1
445,139,54,0.0447446883588328,1
455,128,54,0.0594198642745196,1
455,129,54,0.0568689505666128,1
456,127,54,0.0523038064624236,1
456,128,54,0.0790599258265189,1
456,129,54,0.0746278252460259,1
456,130,54,0.046894908949288,1
457,128,54,0.0673333289646916,1
457,129,54,0.0623550184058229,1
457,130,54,0.0412493829834224,1
438,141,55,0.0448013914902492,1
438,142,55,0.0534931097004003,1
438,143,55,0.0464560388772781,1
439,141,55,0.0444829239959283,1
439,142,55,0.0542094588100668,1
439,143,55,0.0471577249221149,1
441,138,55,0.0465029152681606,1
441,139,55,0.0415531684893419,1
442,137,55,0.0675843420354081,1
442,138,55,0.0920908596163364,1
442,139,55,0.072726260389906,1
443,137,55,0.0876907128386249,1
443,138,55,0.122986845543946,1
443,139,55,0.0962206209924741,1
443,140,55,0.050987190839659,1
444,137,55,0.0624978643397464,1
444,138,55,0.0874165156890036,1
444,139,55,0.0730218141420632,1
444,140,55,0.0461375119088741,1
445,138,55,0.0426914808112386,1
445,139,55,0.0422114168266411,1
454,128,55,0.0488680697878838,1
454,129,55,0.0450286230378635,1
455,127,55,0.070015599295031,1
455,128,55,0.104163903825174,1
455,129,55,0.0910576434058554,1
455,130,55,0.0484020146532029,1
456,127,55,0.0927773094824526,1
456,128,55,0.141953260377881,1
456,129,55,0.123104831311171,1
456,130,55,0.0617780386995912,1
457,127,55,0.0744653636781783,1
457,128,55,0.108999211654809,1
457,129,55,0.0946161940618134,1
457,130,55,0.0510865017448182,1
458,128,55,0.0576062778073778,1
458,129,55,0.0525393346446179,1
438,141,56,0.0452617722567374,1
438,142,56,0.0548789747827293,1
438,143,56,0.0470596629726989,1
439,141,56,0.0448323883009678,1
439,142,56,0.0563804574824322,1
439,143,56,0.0496708779940443,1
442,138,56,0.0676590847375489,1
442,139,56,0.0579148942308582,1
443,137,56,0.0620307278581017,1
443,138,56,0.0882307050719584,1
443,139,56,0.0753337934248395,1
443,140,56,0.0460868994642315,1
444,138,56,0.0651142644197834,1
444,139,56,0.0599915994479767,1
444,140,56,0.0429278686642692,1
454,128,56,0.0584071071485945,1
454,129,56,0.051858286106586,1
455,127,56,0.0930350160908754,1
455,128,56,0.13790107483293,1
455,129,56,0.11466963293115,1
455,130,56,0.0571409309549583,1
456,126,56,0.0531203585884945,1
456,127,56,0.129257295437053,1
456,128,56,0.19310151244107,1
456,129,56,0.157883901745528,1
456,130,56,0.0733623627413858,1
457,127,56,0.0991776940267345,1
457,128,56,0.143331426269828,1
457,129,56,0.116903101017617,1
457,130,56,0.0567959109859402,1
458,128,56,0.0687784680808436,1
458,129,56,0.060725688054585,1
459,129,56,0.0420239382967851,1
459,136,56,0.0426996179471415,1
460,136,56,0.0417957037998619,1
438,142,57,0.0464703288774053,1
438,143,57,0.0419150142171173,1
439,142,57,0.0483819502602889,1
439,143,57,0.0450595171206204,1
443,138,57,0.0520947766875782,1
443,139,57,0.0484799148884781,1
444,139,57,0.0415037509330943,1
454,128,57,0.0587868924225001,1
454,129,57,0.0524633159530598,1
455,127,57,0.100079980746834,1
455,128,57,0.140971581163697,1
455,129,57,0.114756173128666,1
455,130,57,0.0618481964906052,1
456,126,57,0.0623416853977588,1
456,127,57,0.141376383399611,1
456,128,57,0.199551703826506,1
456,129,57,0.15666306102335,1
456,130,57,0.0764553286485923,1
457,127,57,0.109752445509413,1
457,128,57,0.15125521241677,1
457,129,57,0.118227026545857,1
457,130,57,0.0593936037635027,1
458,128,57,0.0724961010953872,1
458,129,57,0.062673572407901,1
458,136,57,0.0457940544862188,1
458,137,57,0.0447015020644644,1
459,128,57,0.041603586291531,1
459,129,57,0.0454206707863391,1
459,136,57,0.0520149570614422,1
459,137,57,0.0536452065575994,1
460,129,57,0.0432118141567695,1
460,136,57,0.0496216442667806,1
460,137,57,0.0518286896401857,1
462,128,57,0.0424754709417416,1
463,127,57,0.0520432450980163,1
463,128,57,0.0482603041335915,1
464,127,57,0.0562090261415196,1
455,128,58,0.112127105068948,1
455,129,58,0.0925875006498895,1
456,127,58,0.120313788289739,1
456,128,58,0.160003763519973,1
456,129,58,0.125286070339284,1
456,130,58,0.0705387387359331,1
457,127,58,0.0966709587490355,1
457,128,58,0.127232267791337,1
457,129,58,0.0992891484582977,1
457,130,58,0.0562798435541816,1
458,128,58,0.0658727374004263,1
458,129,58,0.0575336437318166,1
458,136,58,0.0451057447033247,1
458,137,58,0.0466707835708274,1
459,129,58,0.0441449571124818,1
459,136,58,0.0554230707277906,1
459,137,58,0.0611559938586413,1
459,138,58,0.0458260947967574,1
460,129,58,0.0463717749151208,1
460,130,58,0.0447112098568323,1
460,136,58,0.0517152401234743,1
460,137,58,0.058015086433793,1
460,138,58,0.0447420417621388,1
461,129,58,0.0471291395151258,1
461,130,58,0.0461724664494803,1
462,127,58,0.0428144596980689,1
462,128,58,0.0422800120712924,1
463,126,58,0.0575059720630119,1
463,127,58,0.0718264878014979,1
463,128,58,0.0582351729813437,1
464,126,58,0.0681327633683249,1
464,127,58,0.0851325811397345,1
464,128,58,0.0669873520036105,1
465,127,58,0.0622415634823767,1
456,128,59,0.0972969288794642,1
456,129,59,0.078502210316448,1
457,128,59,0.0826869203385533,1
457,129,59,0.0673384707695047,1
458,136,59,0.0417105477264594,1
458,137,59,0.0443148772710125,1
459,136,59,0.0535531623040372,1
459,137,59,0.0597830400590606,1
459,138,59,0.0476637087934356,1
460,129,59,0.0443164263005382,1
460,130,59,0.0481509258881989,1
460,136,59,0.0498178492666348,1
460,137,59,0.056553856874819,1
460,138,59,0.0466745088111178,1
461,129,59,0.049241588656134,1
461,130,59,0.0532542725964966,1
462,127,59,0.047081133116666,1
462,128,59,0.0433287672376438,1
462,129,59,0.0414679150947126,1
463,126,59,0.0639193652112688,1
463,127,59,0.082753498871117,1
463,128,59,0.0655063554221375,1
463,129,59,0.0425302871227062,1
464,126,59,0.0765120885507243,1
464,127,59,0.100625628424788,1
464,128,59,0.0769979918089265,1
464,129,59,0.0487248237555837,1
465,127,59,0.0697730747979806,1
465,128,59,0.0571791836038042,1
456,127,60,0.0423229307322873,1
456,128,60,0.0474607507817922,1
456,129,60,0.042062144988385,1
457,128,60,0.0451959668872528,1
457,129,60,0.0410702037915139,1
459,136,60,0.0476433794705154,1
459,137,60,0.0511268251730999,1
459,138,60,0.0436561909881928,1
460,130,60,0.0450685004105226,1
460,136,60,0.0462683657049686,1
460,137,60,0.0494511482909917,1
460,138,60,0.0434305165802065,1
461,128,60,0.0430902410209922,1
461,129,60,0.0490953472927441,1
461,130,60,0.0512533968352175,1
462,127,60,0.0501835229626623,1
462,128,60,0.0537857438157551,1
462,129,60,0.0495572987156972,1
462,130,60,0.041716419440473,1
463,126,60,0.0570686375036906,1
463,127,60,0.0777471543922108,1
463,128,60,0.0717674786976811,1
463,129,60,0.0516261263201841,1
464,126,60,0.0669210816549315,1
464,127,60,0.0908872555647629,1
464,128,60,0.0767056550639868,1
464,129,60,0.0510648802122762,1
465,127,60,0.0621679183474043,1
465,128,60,0.0537073840080203,1
461,128,61,0.0477337692632229,1
461,129,61,0.0490149167055735,1
461,130,61,0.0442814149892164,1
462,127,61,0.050132813196793,1
462,128,61,0.0637776222512485,1
462,129,61,0.0601018211440011,1
462,130,61,0.044854063900858,1
463,126,61,0.0473800282309415,1
463,127,61,0.0626253335198441,1
463,128,61,0.0705581272869948,1
463,129,61,0.0589101821965825,1
463,130,61,0.041136876941937,1
464,126,61,0.0520181740686596,1
464,127,61,0.0670844731811679,1
464,128,61,0.0669343281552385,1
464,129,61,0.0520277169556156,1
465,127,61,0.0489324315591717,1
465,128,61,0.0491653969490617,1
432,123,62,0.0610431498962296,1
432,124,62,0.0444391970280779,1
433,122,62,0.070344712650211,1
433,123,62,0.0579180031033793,1
433,124,62,0.0440784867146145,1
434,121,62,0.0519380300384345,1
434,122,62,0.0528590186542732,1
434,123,62,0.0447968282060618,1
452,148,62,0.0428521716734329,1
461,128,62,0.0458923975858453,1
461,129,62,0.0463225465945919,1
462,128,62,0.0633716089067349,1
462,129,62,0.0645522127083875,1
462,130,62,0.0456349991613073,1
463,127,62,0.0468256540829888,1
463,128,62,0.061406552763633,1
463,129,62,0.0608663280407022,1
463,130,62,0.0426784938342029,1
464,127,62,0.0436679181960157,1
464,128,62,0.051216928408862,1
464,129,62,0.0495606508912851,1
431,123,63,0.0568707456025728,1
431,124,63,0.0437689673664193,1
432,121,63,0.0630847762178411,1
432,122,63,0.0760324354779731,1
432,123,63,0.0694708707619958,1
432,124,63,0.0498544042007475,1
433,120,63,0.0553027222174499,1
433,121,63,0.0684918246276685,1
433,122,63,0.0751842161060661,1
433,123,63,0.0649356204946219,1
433,124,63,0.0465743220149179,1
434,119,63,0.0464858029524578,1
434,120,63,0.051648915707447,1
434,121,63,0.0577044154510813,1
434,122,63,0.0575824557337644,1
434,123,63,0.0479201285989714,1
439,150,63,0.0489911811397172,1
440,150,63,0.0480562593682494,1
440,151,63,0.0420788355787719,1
443,151,63,0.0457011181214114,1
452,148,63,0.0424381022940387,1
453,118,63,0.0435081167416992,1
462,128,63,0.051099964514518,1
462,129,63,0.0547432278916234,1
463,128,63,0.0488656854178286,1
463,129,63,0.0530904593449442,1
430,136,64,0.0498793346549988,1
430,137,64,0.0459220264926546,1
431,121,64,0.0453996926552405,1
431,122,64,0.0548404247634683,1
431,123,64,0.0576184321472514,1
431,124,64,0.0471780542450351,1
431,136,64,0.0458778696893861,1
432,120,64,0.0449088854885573,1
432,121,64,0.0588363694528306,1
432,122,64,0.0712709944594377,1
432,123,64,0.0710185648241985,1
432,124,64,0.0527833784341525,1
433,119,64,0.0434892391270779,1
433,120,64,0.0545480826117938,1
433,121,64,0.0687754403093448,1
433,122,64,0.0743968549412842,1
433,123,64,0.066088157935828,1
433,124,64,0.0456520790366012,1
434,119,64,0.0466907560492496,1
434,120,64,0.0550559804672405,1
434,121,64,0.0617845105611698,1
434,122,64,0.0586949130497557,1
434,123,64,0.0469797352118666,1
435,119,64,0.0415576263422003,1
435,120,64,0.0446134614980358,1
435,121,64,0.0435724244456388,1
439,150,64,0.0525658330519669,1
440,150,64,0.0510162141921685,1
440,151,64,0.0421155500115618,1
443,151,64,0.046251604827029,1
462,123,64,0.0419528856911585,1
462,129,64,0.0416943653691455,1
429,136,65,0.0509729765338193,1
429,137,65,0.0487877581488793,1
430,135,65,0.0426920566284969,1
430,136,65,0.071925025543578,1
430,137,65,0.0689804474734847,1
431,122,65,0.0453221817048724,1
431,123,65,0.0504419216331419,1
431,124,65,0.046201154584431,1
431,136,65,0.0576128199565091,1
431,137,65,0.0531759722628448,1
432,121,65,0.0498417632547402,1
432,122,65,0.0595558598754271,1
432,123,65,0.0612252216912664,1
432,124,65,0.0487462073917937,1
433,119,65,0.041682343494275,1
433,120,65,0.0506298218883138,1
433,121,65,0.0608166671813878,1
433,122,65,0.0651626979502938,1
433,123,65,0.0582563511616305,1
434,119,65,0.0476660120624686,1
434,120,65,0.0564676573015964,1
434,121,65,0.0585582145733217,1
434,122,65,0.0531091396137446,1
434,123,65,0.042178316796078,1
435,119,65,0.0443987546516302,1
435,120,65,0.0489771452561265,1
435,121,65,0.044546869448635,1
439,150,65,0.0470675081449216,1
440,150,65,0.0468390033112574,1
442,152,65,0.0465432278829727,1
443,151,65,0.0413784228199851,1
443,152,65,0.0567485209552498,1
461,123,65,0.0428852419669546,1
462,123,65,0.0505750192241863,1
462,124,65,0.0447138159030151,1
463,123,65,0.0412636594667126,1
429,136,66,0.0591330910597088,1
429,137,66,0.0583494821688913,1
430,135,66,0.0476726623462963,1
430,136,66,0.0933294560556598,1
430,137,66,0.0934332437372493,1
430,138,66,0.0469531232630864,1
431,124,66,0.0421219759158944,1
431,136,66,0.0665688545083993,1
431,137,66,0.0653347078118321,1
432,122,66,0.0469843741903415,1
432,123,66,0.0476727812944623,1
432,124,66,0.0421315079893807,1
433,120,66,0.0462578604192149,1
433,121,66,0.0489351349265813,1
433,122,66,0.052270479348998,1
433,123,66,0.0468446857895524,1
433,148,66,0.0555097244667381,1
434,119,66,0.0496061053109102,1
434,120,66,0.0563902652993943,1
434,121,66,0.0504195269375207,1
434,122,66,0.0441270256764539,1
434,148,66,0.0462170990454129,1
434,149,66,0.0512651889238582,1
435,119,66,0.0455842948021728,1
435,120,66,0.0497321471130156,1
443,152,66,0.0445903801470926,1
461,123,66,0.0454892876579296,1
462,122,66,0.0428108263722704,1
462,123,66,0.0552802950814198,1
462,124,66,0.048182982418942,1
463,123,66,0.0433834428435031,1
429,136,67,0.0596516780298931,1
429,137,67,0.0598401297720166,1
430,135,67,0.0497539741014807,1
430,136,67,0.0973509962276562,1
430,137,67,0.0994416183801993,1
430,138,67,0.048920401574199,1
431,136,67,0.0671345449523286,1
431,137,67,0.0681402300691102,1
433,120,67,0.0430659810018584,1
433,121,67,0.0410565166423191,1
433,122,67,0.0415079762963555,1
433,148,67,0.0616744402537203,1
434,119,67,0.0496506730260249,1
434,120,67,0.0534368255909323,1
434,121,67,0.0433742351741059,1
434,148,67,0.0504953942405039,1
434,149,67,0.0586784225085571,1
435,119,67,0.0438055141904297,1
435,120,67,0.0466177326887813,1
435,149,67,0.042896952954573,1
462,123,67,0.0485778200425843,1
462,124,67,0.0449176606191689,1
429,136,68,0.0471589955047974,1
429,137,68,0.047034867686818,1
430,135,68,0.0420895868709599,1
430,136,68,0.0743447664580359,1
430,137,68,0.075693665694406,1
431,136,68,0.0514534568369978,1
431,137,68,0.0520956147314752,1
433,148,68,0.0574413345482483,1
433,149,68,0.067352425552073,1
434,148,68,0.0571961715646061,1
434,149,68,0.0624336052964201,1
435,148,68,0.0475986008927428,1
435,149,68,0.0492269309980391,1
445,154,68,0.0526395592879616,1
446,154,68,0.0569212877596628,1
462,124,68,0.041535237053314,1
430,136,69,0.0426027833265295,1
430,137,69,0.043005152531775,1
433,148,69,0.0487899478764811,1
433,149,69,0.0508167705581576,1
434,148,69,0.0583017298869681,1
434,149,69,0.0560070034949999,1
435,148,69,0.0525327979022215,1
435,149,69,0.0498378055248525,1
445,154,69,0.0520711330362138,1
446,154,69,0.0459170252629468,1
434,148,70,0.0522000295943037,1
434,149,70,0.0481066285098252,1
435,148,70,0.0485838972125211,1
435,149,70,0.0454480829318725,1
