x,y,z,signal,cytoplasm.p
116,140,6,0.0425417818409318,1
106,124,14,0.049443481541018,1
106,125,14,0.0422231953984448,1
104,125,15,0.05111964502926,1
105,124,15,0.0595807038219214,1
105,125,15,0.0483398426095169,1
106,123,15,0.0529077495551987,1
106,124,15,0.0479664913500461,1
107,122,15,0.0480020460382172,1
107,123,15,0.0442711124560184,1
108,122,15,0.0411092025697648,1
114,130,15,0.04281121295381,1
103,125,16,0.0465991767748818,1
103,126,16,0.0412074943054106,1
104,124,16,0.0593008079738006,1
104,125,16,0.0491632180349296,1
105,122,16,0.0622128320935474,1
105,123,16,0.0619693235707599,1
105,124,16,0.0588192571371279,1
105,125,16,0.0471178664730277,1
106,121,16,0.0555385585835289,1
106,122,16,0.0557114389293731,1
106,123,16,0.0528568775872848,1
106,124,16,0.0469114211174259,1
107,120,16,0.0535592340672392,1
107,121,16,0.0477269729975552,1
107,122,16,0.0477346667812029,1
107,123,16,0.0441793926065453,1
108,119,16,0.053569766386667,1
108,120,16,0.0421465143818714,1
109,118,16,0.0479486329049383,1
109,119,16,0.04153498023341,1
114,130,16,0.0414206061650445,1
102,125,17,0.0445646900465991,1
103,124,17,0.0518999395916332,1
103,125,17,0.0456029750709731,1
104,122,17,0.0615545459091044,1
104,123,17,0.0579572668116364,1
104,124,17,0.0546321194910887,1
104,125,17,0.0460742909586331,1
105,121,17,0.0604065068712679,1
105,122,17,0.0611979663410428,1
105,123,17,0.0586268855122604,1
105,124,17,0.0537638411330025,1
105,125,17,0.0445516787392567,1
106,121,17,0.0539794130569791,1
106,122,17,0.0551159790035293,1
106,123,17,0.0510773102956256,1
106,124,17,0.0442278477639951,1
107,120,17,0.0527737111922958,1
107,121,17,0.0455608187595878,1
107,122,17,0.04643370365574,1
107,123,17,0.0431055285636935,1
108,119,17,0.0528335799669488,1
109,117,17,0.0498299441324254,1
109,118,17,0.044943256101803,1
110,117,17,0.0427244673003706,1
111,116,17,0.0446163622112663,1
113,115,17,0.043330213539208,1
102,124,18,0.0500093341869919,1
102,125,18,0.0433948213169301,1
103,123,18,0.0529594811939489,1
103,124,18,0.0506847002467288,1
103,125,18,0.0440640128855034,1
104,122,18,0.057496131805641,1
104,123,18,0.0536529273749212,1
104,124,18,0.0501016001166817,1
104,125,18,0.0429579679570077,1
105,120,18,0.0653125131653993,1
105,121,18,0.0583599550142362,1
105,122,18,0.0585454114252698,1
105,123,18,0.0540150434394377,1
105,124,18,0.0477465507843356,1
106,120,18,0.0643213667585465,1
106,121,18,0.0528170786122806,1
106,122,18,0.0533690575767084,1
106,123,18,0.0484626998448137,1
106,124,18,0.0410120273248592,1
107,119,18,0.0767589005884863,1
107,120,18,0.0521289580651052,1
107,121,18,0.0440154090428462,1
107,122,18,0.0445841137414371,1
107,123,18,0.0415057352047729,1
108,117,18,0.0558680125630025,1
108,118,18,0.0605208701261638,1
108,119,18,0.0506220902575223,1
109,117,18,0.0459989048550489,1
109,118,18,0.0418960365779019,1
110,116,18,0.0461929039070969,1
111,115,18,0.0499464052004311,1
111,116,18,0.0431742103161019,1
112,115,18,0.0455674636366806,1
113,114,18,0.0603919843815435,1
113,115,18,0.0430884054345211,1
114,114,18,0.0464803745906994,1
102,125,19,0.0416413361140387,1
103,123,19,0.0491372927414715,1
103,124,19,0.046908366312253,1
103,125,19,0.0416087767569574,1
104,122,19,0.0514605937269592,1
104,123,19,0.0483199458253822,1
104,124,19,0.0445897232288121,1
105,120,19,0.060997500834151,1
105,121,19,0.0549354589413855,1
105,122,19,0.0528822730207306,1
105,123,19,0.0477228963195015,1
105,124,19,0.0417395197149881,1
106,119,19,0.0845417493788959,1
106,120,19,0.0617496209013814,1
106,121,19,0.051387510892408,1
106,122,19,0.0488476863976154,1
106,123,19,0.0438456510863601,1
107,118,19,0.0813698343298594,1
107,119,19,0.0708821961585884,1
107,120,19,0.0528285408900973,1
107,121,19,0.0439179229106884,1
107,122,19,0.0413583016563554,1
108,117,19,0.0523089320470322,1
108,118,19,0.0563883459085334,1
108,119,19,0.0501054659320774,1
109,116,19,0.0454718887852814,1
109,117,19,0.0434567689811211,1
110,115,19,0.0485213304771932,1
110,116,19,0.0439654237794426,1
111,115,19,0.0474612157609867,1
111,116,19,0.0418975558703861,1
112,114,19,0.0540416229478089,1
112,115,19,0.0442439868674304,1
113,113,19,0.0702194331977151,1
113,114,19,0.0547705859698086,1
113,115,19,0.0423470042190698,1
114,113,19,0.0552336457733997,1
114,114,19,0.0453138201894745,1
116,135,19,0.0428760748480686,1
102,124,20,0.044082463368074,1
103,123,20,0.0449451160185808,1
103,124,20,0.0424182001031691,1
104,121,20,0.0483627887920896,1
104,122,20,0.0456455368874699,1
104,123,20,0.0428327939358408,1
105,120,20,0.0565548246803517,1
105,121,20,0.0509321178387905,1
105,122,20,0.0463854701744178,1
105,123,20,0.0418483843205728,1
106,119,20,0.0728985135545112,1
106,120,20,0.0594825283310742,1
106,121,20,0.0495126931534387,1
106,122,20,0.0435649793717928,1
107,117,20,0.0586273072375763,1
107,118,20,0.0694517958015536,1
107,119,20,0.065686972805508,1
107,120,20,0.0530541531206333,1
107,121,20,0.0432234116029567,1
108,116,20,0.0463293266400552,1
108,117,20,0.0486980441980242,1
108,118,20,0.0513503504039955,1
108,119,20,0.0482324324155985,1
109,115,20,0.0461517370281834,1
109,116,20,0.044152964486749,1
109,117,20,0.0411365957917263,1
110,115,20,0.047040193320615,1
110,116,20,0.0431457762976877,1
111,114,20,0.0516054401527658,1
111,115,20,0.0471271336165078,1
111,116,20,0.0418623769502849,1
112,113,20,0.0587782632737286,1
112,114,20,0.053021653237635,1
112,115,20,0.0448398604084879,1
113,113,20,0.0595838775752602,1
113,114,20,0.0525300080270548,1
113,115,20,0.0426608813955293,1
114,112,20,0.0479480111304341,1
114,113,20,0.0498334044427097,1
114,114,20,0.0446545337590899,1
116,135,20,0.0456034238299631,1
101,124,21,0.0442680982013567,1
102,123,21,0.0446706296086467,1
102,124,21,0.0424555903778114,1
103,121,21,0.0433204381626548,1
103,122,21,0.0430912737073427,1
103,123,21,0.0423597560031409,1
104,120,21,0.0487895585915741,1
104,121,21,0.045958467885336,1
104,122,21,0.0423356960331954,1
105,119,21,0.0592063577232439,1
105,120,21,0.0559584239826493,1
105,121,21,0.0496862114939916,1
105,122,21,0.0424904584106605,1
106,118,21,0.0671362426670618,1
106,119,21,0.0680117660498058,1
106,120,21,0.0600567668227526,1
106,121,21,0.0495266641562116,1
106,148,21,0.0418484870485344,1
107,117,21,0.0571203421087667,1
107,118,21,0.0631410711407787,1
107,119,21,0.0624897380173131,1
107,120,21,0.0534040499644583,1
107,121,21,0.0429664213868976,1
107,148,21,0.0617031554223451,1
107,149,21,0.0528773528920452,1
108,116,21,0.0472829394937929,1
108,117,21,0.0485307544159831,1
108,118,21,0.0491903057763738,1
108,119,21,0.0468710544352657,1
108,148,21,0.0446001122697672,1
109,115,21,0.0453456171969462,1
109,116,21,0.0442876732847696,1
109,117,21,0.0414382104936159,1
110,114,21,0.0469894781480108,1
110,115,21,0.0460947824835979,1
110,116,21,0.0433113061875452,1
111,113,21,0.0519805648212572,1
111,114,21,0.0513100918565317,1
111,115,21,0.0480261060081627,1
111,116,21,0.0431606529285428,1
112,113,21,0.0546413541941599,1
112,114,21,0.0541518608640377,1
112,115,21,0.0483889303549405,1
112,116,21,0.0409952529300826,1
113,112,21,0.0485194975940895,1
113,113,21,0.0534078400855666,1
113,114,21,0.0529545015911804,1
113,115,21,0.0457469726394131,1
114,112,21,0.0422319570122193,1
114,113,21,0.0461168689953344,1
114,114,21,0.0450400096213927,1
100,124,22,0.0606063181632465,1
100,125,22,0.0505334252132222,1
101,123,22,0.0437779993169347,1
101,124,22,0.0435930970962201,1
102,121,22,0.0414060782685853,1
102,122,22,0.0430446108824855,1
102,123,22,0.0437212448215375,1
102,124,22,0.0415237098946794,1
103,120,22,0.0420735937493647,1
103,121,22,0.0410644239919922,1
103,122,22,0.0411857159775589,1
104,119,22,0.0468506277911187,1
104,120,22,0.0462456303850538,1
104,121,22,0.042719731000669,1
105,118,22,0.0509095717545945,1
105,119,22,0.0535818882861317,1
105,120,22,0.0530232698513459,1
105,121,22,0.0464137744311964,1
106,117,22,0.0570563371819769,1
106,118,22,0.0585342357043985,1
106,119,22,0.0606150770736537,1
106,120,22,0.0567732297333736,1
106,121,22,0.0464169698114745,1
106,148,22,0.0445931429885852,1
107,116,22,0.0527103875140932,1
107,117,22,0.0544493231935861,1
107,118,22,0.0554851995175981,1
107,119,22,0.0549907211779727,1
107,120,22,0.0489841361642478,1
107,148,22,0.0749510831073967,1
107,149,22,0.0679979896894865,1
108,115,22,0.0438488545767405,1
108,116,22,0.0469935331991252,1
108,117,22,0.0474834050006847,1
108,118,22,0.0456861198390229,1
108,119,22,0.0421550813531924,1
108,148,22,0.0499422744550292,1
108,149,22,0.0470578571232693,1
109,114,22,0.0423094625558527,1
109,115,22,0.0435488727087664,1
109,116,22,0.0443197406289823,1
109,117,22,0.0421604421307656,1
110,113,22,0.0447429960508344,1
110,114,22,0.0450154116813328,1
110,115,22,0.0463990248586096,1
110,116,22,0.0447326556704926,1
111,113,22,0.0482392178677966,1
111,114,22,0.0519594785554623,1
111,115,22,0.0554343221429494,1
111,116,22,0.0510429018352361,1
112,112,22,0.0456552473832052,1
112,113,22,0.0503488555066989,1
112,114,22,0.0574555867012317,1
112,115,22,0.0612784564022964,1
112,116,22,0.0533181153212418,1
113,112,22,0.0425628762168289,1
113,113,22,0.0484156774720911,1
113,114,22,0.0545656274662821,1
113,115,22,0.0538726462645042,1
113,116,22,0.044314934041728,1
114,113,22,0.042084082814914,1
114,114,22,0.0444179620770755,1
99,125,23,0.0686103889155189,1
99,126,23,0.0438807299818671,1
100,123,23,0.0526159967376195,1
100,124,23,0.0606083943494171,1
100,125,23,0.0498409738714566,1
101,123,23,0.041959838752136,1
101,124,23,0.0418344106144326,1
102,120,23,0.0414809993929751,1
102,123,23,0.0414928942095773,1
103,119,23,0.0454997010291914,1
103,120,23,0.0427964363475491,1
104,118,23,0.0464517243028924,1
104,119,23,0.0474337441413703,1
104,120,23,0.0458892238325064,1
104,121,23,0.0416824516289713,1
105,117,23,0.0494423731603801,1
105,118,23,0.0481772945339122,1
105,119,23,0.0499621117650809,1
105,120,23,0.0499841550229388,1
105,121,23,0.0441570573850072,1
106,116,23,0.0586506210781168,1
106,117,23,0.0548257995457824,1
106,118,23,0.0511658293580856,1
106,119,23,0.0516880983146818,1
106,120,23,0.0504151799227261,1
106,121,23,0.0423607913928588,1
107,115,23,0.0496518246605414,1
107,116,23,0.0535114114977633,1
107,117,23,0.051587100508259,1
107,118,23,0.0476957545107091,1
107,119,23,0.045618470772965,1
107,120,23,0.0421501558177721,1
107,148,23,0.0696666378163297,1
107,149,23,0.0713208445544708,1
108,115,23,0.0432691093256487,1
108,116,23,0.0468656639206509,1
108,117,23,0.0470360301348042,1
108,118,23,0.0420922172474495,1
108,148,23,0.0465498295061869,1
108,149,23,0.0508815973086399,1
109,115,23,0.041857427084558,1
109,116,23,0.0434661983266459,1
109,117,23,0.0423844188240187,1
110,113,23,0.0439456351300043,1
110,114,23,0.0459979965235993,1
110,115,23,0.0481318401142871,1
110,116,23,0.0463476987249708,1
111,112,23,0.0447032403297087,1
111,113,23,0.0469788971679696,1
111,114,23,0.0543471250920334,1
111,115,23,0.0619505027268543,1
111,116,23,0.057013569909557,1
112,111,23,0.0428623471483626,1
112,112,23,0.042924540818988,1
112,113,23,0.0484772655884167,1
112,114,23,0.0613293824375585,1
112,115,23,0.0732525627706774,1
112,116,23,0.0644941551898988,1
112,117,23,0.0414916993211823,1
113,113,23,0.0450799221378281,1
113,114,23,0.0552318777711138,1
113,115,23,0.0604742208181437,1
113,116,23,0.0502137033564231,1
114,114,23,0.0441523859661234,1
114,115,23,0.0425044483370052,1
127,128,23,0.0423795933131926,1
98,125,24,0.0607461471391409,1
98,126,24,0.0428124916465947,1
99,123,24,0.0635906195140565,1
99,124,24,0.0784655364341693,1
99,125,24,0.0603161549257041,1
99,126,24,0.040998726757204,1
100,123,24,0.0461245844059214,1
100,124,24,0.0530069631391312,1
100,125,24,0.0435843895497937,1
101,120,24,0.041471461912754,1
102,119,24,0.0486037777764513,1
102,120,24,0.0417650340965999,1
103,118,24,0.0503187183668166,1
103,119,24,0.0471353194130241,1
103,120,24,0.042284569948745,1
104,117,24,0.0439638260893035,1
104,118,24,0.0456027209544366,1
104,119,24,0.0459895241701376,1
104,120,24,0.0435138262536683,1
105,115,24,0.0480216076047931,1
105,116,24,0.0497178030455402,1
105,117,24,0.0460705116509945,1
105,118,24,0.0435955571605628,1
105,119,24,0.0446580967973358,1
105,120,24,0.0442923582204904,1
106,114,24,0.048327845064953,1
106,115,24,0.0541000210905912,1
106,116,24,0.0565058126292156,1
106,117,24,0.049890304919947,1
106,118,24,0.0428203692592263,1
106,119,24,0.0420165337734502,1
106,120,24,0.0414699858741483,1
107,114,24,0.044980459844094,1
107,115,24,0.0486394784464626,1
107,116,24,0.0508903021516988,1
107,117,24,0.0463150474533976,1
107,148,24,0.0479243999194786,1
107,149,24,0.0552826416043313,1
108,115,24,0.0417153137632025,1
108,116,24,0.0441939934939246,1
108,117,24,0.0432697419136225,1
108,149,24,0.0426603190951081,1
110,113,24,0.0430800736561647,1
110,114,24,0.046987228946326,1
110,115,24,0.0487120584546756,1
110,116,24,0.0452847806167605,1
111,111,24,0.042468609795256,1
111,112,24,0.042290133478874,1
111,113,24,0.0460476952300574,1
111,114,24,0.0563673894043742,1
111,115,24,0.0652233398880261,1
111,116,24,0.0580372648600214,1
112,110,24,0.0428891537395963,1
112,111,24,0.0411095891513044,1
112,113,24,0.0471708092203774,1
112,114,24,0.0630140615331407,1
112,115,24,0.0780865621704865,1
112,116,24,0.0676558731370663,1
113,113,24,0.0429766725561148,1
113,114,24,0.0545244659941035,1
113,115,24,0.0625199995120962,1
113,116,24,0.0517806616147867,1
114,114,24,0.0417502547869716,1
114,115,24,0.0419613283075787,1
126,129,24,0.0412202244625424,1
127,128,24,0.0472662867505498,1
127,129,24,0.0449857233004405,1
130,125,24,0.0425430064663683,1
131,125,24,0.0435880309856945,1
98,124,25,0.0523791384986596,1
98,125,25,0.0470157224388232,1
99,123,25,0.0479733200561228,1
99,124,25,0.0545101868074459,1
99,125,25,0.0469939981783197,1
100,120,25,0.0410027764015835,1
100,124,25,0.0421360901971399,1
101,119,25,0.0482003110040376,1
101,120,25,0.0426087091078914,1
102,118,25,0.0573116810472837,1
102,119,25,0.0521447619509818,1
102,120,25,0.0433113737717304,1
103,117,25,0.0495630028209314,1
103,118,25,0.0519615979955115,1
103,119,25,0.0492352789966,1
103,120,25,0.0423760032412726,1
104,115,25,0.0423940482187318,1
104,116,25,0.0430022734454837,1
104,117,25,0.0435457259891016,1
104,118,25,0.0443056587881457,1
104,119,25,0.0436691238978804,1
105,114,25,0.043373562035621,1
105,115,25,0.0446923673859873,1
105,116,25,0.0449194340281896,1
105,117,25,0.0421216001478245,1
106,113,25,0.0425925916313953,1
106,114,25,0.0443993250621537,1
106,115,25,0.0470163928739408,1
106,116,25,0.0474407674899004,1
106,117,25,0.0422302728143231,1
107,113,25,0.0412926152350368,1
107,114,25,0.042683649155853,1
107,115,25,0.0438871883266087,1
107,116,25,0.0439664645758953,1
110,113,25,0.0419655590775747,1
110,114,25,0.0460579463992747,1
110,115,25,0.0473798119615487,1
110,116,25,0.0414550227355362,1
111,113,25,0.0446752929174283,1
111,114,25,0.0550555263015157,1
111,115,25,0.0620637846347863,1
111,116,25,0.0519670750178833,1
112,113,25,0.04441573450233,1
112,114,25,0.058611438470882,1
112,115,25,0.0695870452730561,1
112,116,25,0.0574730450479629,1
113,114,25,0.050785297954775,1
113,115,25,0.0569589727013526,1
113,116,25,0.046146757425415,1
127,128,25,0.043437423683938,1
127,129,25,0.0445070380332219,1
130,124,25,0.0429358706318016,1
130,125,25,0.0466060000742237,1
130,126,25,0.0411492962118167,1
131,123,25,0.0416236101339339,1
131,124,25,0.0450588602023399,1
131,125,25,0.0480188339498309,1
132,122,25,0.0482588389084555,1
132,123,25,0.0443826128448275,1
132,124,25,0.0448368028999476,1
132,125,25,0.0468354889336249,1
133,123,25,0.0490893133766858,1
133,124,25,0.041821972420981,1
100,151,26,0.0416421876747727,1
101,118,26,0.0496663201165917,1
101,119,26,0.0474193946671601,1
101,120,26,0.042627081192807,1
102,117,26,0.0520847093473448,1
102,118,26,0.0532718769250679,1
102,119,26,0.0504687552580496,1
102,120,26,0.0431397423816295,1
103,116,26,0.0465712347693361,1
103,117,26,0.0485151559860297,1
103,118,26,0.0495935833130689,1
103,119,26,0.0473242956084251,1
104,115,26,0.0414572340900772,1
104,116,26,0.0427104097898406,1
104,117,26,0.0431762702820681,1
104,118,26,0.0423214655071513,1
105,114,26,0.0412603802820447,1
105,115,26,0.0411642377234895,1
110,110,26,0.0411268501522147,1
110,114,26,0.0425925375640471,1
110,115,26,0.0432759353283579,1
111,113,26,0.0418034273205511,1
111,114,26,0.050751770792161,1
111,115,26,0.0548485943397801,1
111,116,26,0.0442593284774799,1
112,113,26,0.0414072028694277,1
112,114,26,0.0528261835537162,1
112,115,26,0.0580799942852976,1
112,116,26,0.0457122397749345,1
113,114,26,0.046155608250314,1
113,115,26,0.0489134052593429,1
126,129,26,0.0412473987117438,1
127,128,26,0.0414826051932164,1
127,129,26,0.0444435900001185,1
129,125,26,0.0418303853003597,1
130,123,26,0.0431017735863616,1
130,124,26,0.0457037295743291,1
130,125,26,0.0479716115279199,1
130,126,26,0.0423024770544662,1
131,122,26,0.0471859751115453,1
131,123,26,0.0531953067465583,1
131,124,26,0.0514750621493354,1
131,125,26,0.0493481013320724,1
132,122,26,0.0520539179925494,1
132,123,26,0.0545679361420499,1
132,124,26,0.0510438588272991,1
132,125,26,0.0491598982997506,1
133,122,26,0.0515464743028275,1
133,123,26,0.049535952926631,1
133,124,26,0.0444810965195594,1
133,125,26,0.0437843143832036,1
100,151,27,0.0457959576568751,1
100,152,27,0.0454815992810167,1
101,118,27,0.0446731707740117,1
101,119,27,0.0434066945065931,1
102,116,27,0.0469175956085894,1
102,117,27,0.0458512361136667,1
102,118,27,0.0455852301672965,1
102,119,27,0.0450029897080856,1
102,120,27,0.0412734132163264,1
103,115,27,0.0464003008480269,1
103,116,27,0.045078086551357,1
103,117,27,0.0445952029545513,1
103,118,27,0.0437243347704867,1
103,119,27,0.0427702488274522,1
104,114,27,0.0429716551062025,1
104,115,27,0.0433424219464297,1
104,116,27,0.0434752519041006,1
104,117,27,0.0428731146607551,1
105,113,27,0.0426095768888298,1
105,114,27,0.0410751293269342,1
105,115,27,0.0410850371684904,1
106,112,27,0.0423493561487162,1
109,110,27,0.0416535472246279,1
111,109,27,0.0425441959480286,1
111,114,27,0.041371934738202,1
111,115,27,0.0420793654387842,1
112,114,27,0.0417862149802542,1
112,115,27,0.0424499268230883,1
130,123,27,0.0448175846610328,1
130,124,27,0.0452190455348286,1
130,125,27,0.0447303253677856,1
131,122,27,0.0492577007258952,1
131,123,27,0.0587032664550514,1
131,124,27,0.0536468880521282,1
131,125,27,0.0462642728067104,1
132,122,27,0.0507088088772876,1
132,123,27,0.0596337871443763,1
132,124,27,0.0530822465147539,1
132,125,27,0.0450583871130432,1
133,122,27,0.0426429283325621,1
133,123,27,0.0468755798723094,1
133,124,27,0.0429697951894247,1
100,152,28,0.0419566568886949,1
101,117,28,0.0435189221012354,1
101,118,28,0.0424947486547395,1
101,119,28,0.0412374368028394,1
102,116,28,0.0459763858045269,1
102,117,28,0.0428274628953091,1
102,118,28,0.0411204675017606,1
102,119,28,0.0410175557112118,1
103,114,28,0.0504816557273282,1
103,115,28,0.0478893426509108,1
103,116,28,0.0454966462240186,1
103,117,28,0.0433913285662369,1
104,113,28,0.0460488360511043,1
104,114,28,0.044869210868454,1
104,115,28,0.046015471090535,1
104,116,28,0.0466169378987629,1
104,117,28,0.0450748992811811,1
105,112,28,0.0449071472233129,1
105,113,28,0.0430287042686474,1
105,114,28,0.0418394307677122,1
105,115,28,0.0434825401826369,1
105,116,28,0.0434341904565161,1
106,111,28,0.0423873141305144,1
106,112,28,0.041812864776178,1
102,115,29,0.0482215756920815,1
102,116,29,0.0433036853948175,1
103,114,29,0.0496170539489191,1
103,115,29,0.0474732565594291,1
103,116,29,0.0446256401682161,1
103,117,29,0.0415997799502182,1
104,113,29,0.0471991891714434,1
104,114,29,0.0459201719826116,1
104,115,29,0.0465929860635138,1
104,116,29,0.0461030710080758,1
104,117,29,0.0434377453846598,1
105,112,29,0.0451410966389401,1
105,113,29,0.0441779246780419,1
105,114,29,0.0427954090679334,1
105,115,29,0.0449571378934513,1
105,116,29,0.04530917039753,1
105,117,29,0.0418078229959591,1
106,111,29,0.0436985960093799,1
106,112,29,0.0415349856401449,1
107,110,29,0.0448414932424033,1
109,109,29,0.0426529551222843,1
102,114,30,0.0467564370638333,1
102,115,30,0.0449895728956318,1
103,113,30,0.0455173648318458,1
103,114,30,0.0479299364159334,1
103,115,30,0.0476533548962569,1
103,116,30,0.0436131560823993,1
104,112,30,0.0442944560336003,1
104,113,30,0.0457072926125749,1
104,114,30,0.0474190270091924,1
104,115,30,0.047646142312008,1
104,116,30,0.0451595417147758,1
105,111,30,0.0454384805708335,1
105,112,30,0.0435529385733504,1
105,113,30,0.043524945203824,1
105,114,30,0.0434480344010207,1
105,115,30,0.0442497153029714,1
105,116,30,0.0439491873547805,1
106,110,30,0.0474709478836613,1
106,111,30,0.042445014804505,1
107,109,30,0.0511118052637721,1
107,110,30,0.0429851854600876,1
108,109,30,0.043777407279472,1
102,114,31,0.042010843185053,1
102,115,31,0.0411153013666409,1
103,113,31,0.0416775504238577,1
103,114,31,0.0445694777102815,1
103,115,31,0.0450092398935366,1
104,113,31,0.042239010097791,1
104,114,31,0.0455051672380937,1
104,115,31,0.0459740771287591,1
104,116,31,0.0417807920252305,1
105,114,31,0.0416956629855021,1
105,115,31,0.041482286195862,1
103,114,32,0.0411273394617159,1
103,115,32,0.041000667775004,1
104,114,32,0.0423801123597352,1
104,115,32,0.0422259014692218,1
107,109,32,0.0411835316566919,1
107,110,35,0.0412631052763936,1
107,111,35,0.0427189929813661,1
108,110,35,0.041106253195921,1
108,111,35,0.0421135197826372,1
103,112,36,0.0415167162831908,1
104,112,36,0.0423349066499118,1
107,110,36,0.0425824431901396,1
107,111,36,0.0486772607093792,1
107,112,36,0.0421157419506478,1
108,110,36,0.0446660690278267,1
108,111,36,0.05244207829869,1
108,112,36,0.0426940652304822,1
102,113,37,0.0433746704162589,1
103,112,37,0.0440859588221346,1
103,113,37,0.0434947566999609,1
104,112,37,0.0452901819448449,1
104,113,37,0.0423064807415999,1
107,110,37,0.0436490595049663,1
107,111,37,0.0525576742891247,1
107,112,37,0.0468385707724719,1
108,110,37,0.0476506731557865,1
108,111,37,0.060882964563741,1
108,112,37,0.0512844206796101,1
109,111,37,0.0447707326004569,1
102,113,38,0.0472174314947234,1
102,114,38,0.0461507962563249,1
103,112,38,0.0471295936808506,1
103,113,38,0.0483024388180376,1
103,114,38,0.0441270581168628,1
104,111,38,0.0430044875033922,1
104,112,38,0.048682889120326,1
104,113,38,0.047275343031372,1
104,114,38,0.0426097796413856,1
105,112,38,0.0438001182690801,1
105,113,38,0.0442858620286052,1
105,114,38,0.0411653136637186,1
106,112,38,0.0422531162689343,1
107,110,38,0.043188427325309,1
107,111,38,0.0527298409459727,1
107,112,38,0.0495218846026314,1
108,110,38,0.0478036188703523,1
108,111,38,0.063616474519962,1
108,112,38,0.0560340263556263,1
109,111,38,0.0481855938718597,1
101,114,39,0.0424668417929702,1
102,113,39,0.0467668125879514,1
102,114,39,0.0505475205708958,1
103,112,39,0.0466985255271848,1
103,113,39,0.0479982126632304,1
103,114,39,0.0476916724259206,1
104,111,39,0.0432080537727028,1
104,112,39,0.0485547765387848,1
104,113,39,0.049231569976514,1
104,114,39,0.0464323195316262,1
105,112,39,0.0459054656639033,1
105,113,39,0.0478696134755555,1
105,114,39,0.0445801289778754,1
106,111,39,0.04258467617162,1
106,112,39,0.0450520477164677,1
106,113,39,0.0425035643358622,1
107,110,39,0.0440238057020204,1
107,111,39,0.0520415690102224,1
107,112,39,0.0495824940999547,1
108,110,39,0.0498062626339172,1
108,111,39,0.0632442803017425,1
108,112,39,0.0558714133992038,1
109,110,39,0.0448842497013536,1
109,111,39,0.0520181145945766,1
109,112,39,0.0430143169472935,1
117,105,39,0.0413607914577396,1
118,104,39,0.043177827421696,1
118,105,39,0.0437961091752117,1
102,113,40,0.0433649301834821,1
102,114,40,0.049272542212974,1
102,115,40,0.0432569685026121,1
103,112,40,0.0435503514507394,1
103,113,40,0.0441396341820523,1
103,114,40,0.0465591723439545,1
104,112,40,0.046283304513274,1
104,113,40,0.0474609346107761,1
104,114,40,0.0453623104907005,1
105,111,40,0.0428237592819579,1
105,112,40,0.0470529207743794,1
105,113,40,0.0482277285563058,1
105,114,40,0.0431610313999801,1
106,110,40,0.0412073699505098,1
106,111,40,0.0435527033803858,1
106,112,40,0.045783430252299,1
106,113,40,0.0438926626456131,1
107,110,40,0.0435432632213914,1
107,111,40,0.0485084570415887,1
107,112,40,0.0462296642971327,1
108,109,40,0.0422590717873376,1
108,110,40,0.0509095879747989,1
108,111,40,0.0589861522275272,1
108,112,40,0.0505595397423989,1
109,109,40,0.0429362788402805,1
109,110,40,0.0519442694104159,1
109,111,40,0.0554672059041198,1
109,112,40,0.0431532592186775,1
110,109,40,0.0424371858524868,1
110,110,40,0.0477625114655219,1
110,111,40,0.0451299101045991,1
118,105,40,0.0429888890734388,1
102,114,41,0.0431470090332265,1
102,115,41,0.0413903717039355,1
103,114,41,0.043014960348737,1
104,112,41,0.0435670744815352,1
104,113,41,0.0437490922092239,1
104,114,41,0.0420552135543468,1
105,111,41,0.0449179444727469,1
105,112,41,0.0471070151562456,1
105,113,41,0.0459645450552728,1
106,110,41,0.0425072301020696,1
106,111,41,0.0460555349955453,1
106,112,41,0.0481108025091056,1
106,113,41,0.0458281169155798,1
107,110,41,0.043505759405318,1
107,111,41,0.0466011340128864,1
107,112,41,0.0458403631699453,1
107,113,41,0.0415259077323834,1
108,109,41,0.0437784940331707,1
108,110,41,0.049466719687271,1
108,111,41,0.0518395625839071,1
108,112,41,0.0449104264079808,1
109,108,41,0.0420704875802111,1
109,109,41,0.0458714897422994,1
109,110,41,0.0553456570986492,1
109,111,41,0.0549745226004543,1
109,112,41,0.041528208298049,1
110,109,41,0.0442483311788576,1
110,110,41,0.0528787856767722,1
110,111,41,0.0502614286046723,1
113,106,41,0.0412573389937089,1
103,114,42,0.0415759146227263,1
103,115,42,0.0416334476879375,1
104,112,42,0.0435210956086327,1
104,113,42,0.0416807349906662,1
105,112,42,0.0480943227813766,1
105,113,42,0.0448880614494011,1
106,111,42,0.0486380726954096,1
106,112,42,0.0527416600682875,1
106,113,42,0.0509665100789755,1
106,114,42,0.0434223659274665,1
107,110,42,0.0427867042248745,1
107,111,42,0.0459012646309488,1
107,112,42,0.0498958792635456,1
107,113,42,0.0499752609441612,1
107,114,42,0.042213514639751,1
108,109,42,0.0440976454794463,1
108,110,42,0.045649391889396,1
108,111,42,0.0449100938937894,1
108,112,42,0.0418646099317653,1
109,109,42,0.0473069616165947,1
109,110,42,0.0556484072148508,1
109,111,42,0.0533000243865367,1
110,109,42,0.0453037204088322,1
110,110,42,0.056634963303842,1
110,111,42,0.0550248863352952,1
111,110,42,0.0415551635744901,1
113,106,42,0.0433827480780788,1
114,106,42,0.0418969773497605,1
103,113,43,0.0457859606041944,1
103,114,43,0.0431622722456211,1
103,115,43,0.0438523932846796,1
104,112,43,0.045181441694161,1
104,113,43,0.0429195720296891,1
104,114,43,0.041683749245328,1
104,115,43,0.0450390877731061,1
104,116,43,0.0423735377701951,1
105,112,43,0.0493305186304403,1
105,113,43,0.0468967418323917,1
105,114,43,0.0433769872021289,1
105,115,43,0.0428722820235929,1
106,110,43,0.0468395331712697,1
106,111,43,0.0512569382465241,1
106,112,43,0.0582083880170493,1
106,113,43,0.0584069557600195,1
106,114,43,0.0493728966179533,1
107,110,43,0.0453555520721765,1
107,111,43,0.0492092834155892,1
107,112,43,0.0590140563859291,1
107,113,43,0.0620870660349178,1
107,114,43,0.0505957594589528,1
108,110,43,0.0455549902994527,1
108,111,43,0.0441515154818175,1
108,112,43,0.0452175586827533,1
108,113,43,0.0457917241835117,1
109,109,43,0.0505576744188863,1
109,110,43,0.056100723836356,1
109,111,43,0.0523899357480936,1
110,108,43,0.0434155858820032,1
110,109,43,0.0499084174815914,1
110,110,43,0.0602553940398058,1
110,111,43,0.0576037258285432,1
111,110,43,0.0443729888568493,1
111,111,43,0.0430461220648675,1
113,106,43,0.0423163939898909,1
102,113,44,0.051773595012378,1
102,114,44,0.0431754160179666,1
103,113,44,0.0509331721520803,1
103,114,44,0.0449022081710556,1
103,115,44,0.0450082180206558,1
103,116,44,0.0437053057672905,1
104,112,44,0.0457056003045765,1
104,113,44,0.044762773886803,1
104,114,44,0.0439879509400668,1
104,115,44,0.0495510701571855,1
104,116,44,0.0477804293847127,1
105,110,44,0.0501964720925543,1
105,111,44,0.0499626145914191,1
105,112,44,0.0490993320563058,1
105,113,44,0.0492687034312523,1
105,114,44,0.0474702936687481,1
105,115,44,0.0468577430541408,1
106,109,44,0.0489142865571184,1
106,110,44,0.0504151420755823,1
106,111,44,0.0517727840021551,1
106,112,44,0.0586016739077985,1
106,113,44,0.0616858214305148,1
106,114,44,0.0524793090746551,1
107,110,44,0.0470943688035034,1
107,111,44,0.0498155243706626,1
107,112,44,0.0618398701189836,1
107,113,44,0.0671096631586906,1
107,114,44,0.0533021438265859,1
108,109,44,0.0473828397330474,1
108,110,44,0.0455524166936787,1
108,111,44,0.0435862873137153,1
108,112,44,0.0470498875961458,1
108,113,44,0.0494876707846954,1
109,108,44,0.051309037543242,1
109,109,44,0.0522969885698166,1
109,110,44,0.0537624299752147,1
109,111,44,0.0484012793372675,1
110,108,44,0.0484208949711916,1
110,109,44,0.0531681811579703,1
110,110,44,0.0583947149123888,1
110,111,44,0.0536870546851001,1
111,107,44,0.0429307612673975,1
111,110,44,0.0430219080029797,1
111,111,44,0.0420072801468071,1
112,106,44,0.041402499010135,1
95,121,45,0.0410394908343734,1
96,120,45,0.0434389159427481,1
96,121,45,0.0451397287350308,1
102,113,45,0.0539778937644949,1
102,114,45,0.0448400604576762,1
103,112,45,0.0509119074640363,1
103,113,45,0.0518656879265535,1
103,114,45,0.044462416250759,1
103,115,45,0.042825746257004,1
103,116,45,0.0425866090793178,1
104,111,45,0.0486624949165879,1
104,112,45,0.0469139568760561,1
104,113,45,0.046075669676012,1
104,114,45,0.04465326047304,1
104,115,45,0.0475324873393735,1
104,116,45,0.0460700737054741,1
105,110,45,0.054040006334098,1
105,111,45,0.0529075116588667,1
105,112,45,0.0499467944853381,1
105,113,45,0.049496235052649,1
105,114,45,0.0483644378462095,1
105,115,45,0.0443553872316454,1
106,109,45,0.0505948349072987,1
106,110,45,0.0549479214651438,1
106,111,45,0.0546145043490477,1
106,112,45,0.0555511076150443,1
106,113,45,0.056638850746177,1
106,114,45,0.0499757205166209,1
107,109,45,0.0477097795808301,1
107,110,45,0.0494315705042113,1
107,111,45,0.050574310941925,1
107,112,45,0.056847053290595,1
107,113,45,0.0602623038469048,1
107,114,45,0.0491878348985614,1
108,108,45,0.0491914520041555,1
108,109,45,0.0477315362817426,1
108,110,45,0.0465366641069021,1
108,111,45,0.0443679822204067,1
108,112,45,0.0468446479424087,1
108,113,45,0.0486705617649382,1
109,107,45,0.0550706002781916,1
109,108,45,0.0524115572806356,1
109,109,45,0.0516723701230928,1
109,110,45,0.0503586146630475,1
109,111,45,0.0450455109740713,1
110,107,45,0.053775249343471,1
110,108,45,0.0530868260191457,1
110,109,45,0.0526375696095481,1
110,110,45,0.0518907211087665,1
110,111,45,0.0465850165363903,1
111,107,45,0.046679888512263,1
111,108,45,0.0448246053061955,1
111,109,45,0.0417248917939347,1
111,110,45,0.0410836260107026,1
95,121,46,0.0430483199025715,1
96,120,46,0.046737545932375,1
96,121,46,0.04991817663794,1
97,120,46,0.0414129988891539,1
97,121,46,0.0434299083225393,1
102,113,46,0.0496338526740024,1
102,114,46,0.0440735125185808,1
103,112,46,0.0469805462220895,1
103,113,46,0.0489662939393444,1
103,114,46,0.0443610913368796,1
104,111,46,0.0488815595912578,1
104,112,46,0.0464243283775635,1
104,113,46,0.0457449559273255,1
104,114,46,0.04408848917403,1
104,115,46,0.0415577371802641,1
105,110,46,0.0552653779000536,1
105,111,46,0.0553780109998073,1
105,112,46,0.0498226666673587,1
105,113,46,0.0476726299058873,1
105,114,46,0.0459797271666452,1
106,109,46,0.0504164721323479,1
106,110,46,0.0568039994612297,1
106,111,46,0.0569327175970706,1
106,112,46,0.0508313849623739,1
106,113,46,0.0482002569366894,1
106,114,46,0.0441407614862621,1
107,109,46,0.0470334294953561,1
107,110,46,0.0500634177553884,1
107,111,46,0.0495938914969536,1
107,112,46,0.0474226765551954,1
107,113,46,0.0474681201613508,1
107,114,46,0.0411355820289477,1
108,108,46,0.0472700390245143,1
108,109,46,0.0471104754665298,1
108,110,46,0.0465738840693976,1
108,111,46,0.0430858940061976,1
108,112,46,0.0419782405740932,1
108,113,46,0.0418685514414485,1
109,107,46,0.0538333230821641,1
109,108,46,0.0532924928049336,1
109,109,46,0.0500155789657081,1
109,110,46,0.0461837070511694,1
110,107,46,0.0570407279385539,1
110,108,46,0.0574355601554614,1
110,109,46,0.0497647551307102,1
110,110,46,0.0437648744681611,1
111,106,46,0.0448402064395163,1
111,107,46,0.0502828825284349,1
111,108,46,0.0496592481074482,1
111,109,46,0.0418194772128619,1
96,120,47,0.0418779618634013,1
96,121,47,0.0447195362284538,1
102,112,47,0.0414648278491308,1
102,113,47,0.0434755195374742,1
102,114,47,0.0412115331363206,1
103,112,47,0.043385343310792,1
103,113,47,0.0458447155914747,1
103,114,47,0.0435765741146126,1
104,111,47,0.0465978142777074,1
104,112,47,0.0451430106230661,1
104,113,47,0.0445986416378963,1
104,114,47,0.0419254546220532,1
105,110,47,0.0505805070600278,1
105,111,47,0.0531523502384197,1
105,112,47,0.0483231898662737,1
105,113,47,0.0447910943637861,1
105,114,47,0.0412867786647995,1
106,109,47,0.0465007687944374,1
106,110,47,0.0527101874649049,1
106,111,47,0.0548499568369546,1
106,112,47,0.0470128406491646,1
106,113,47,0.0417868610850651,1
107,109,47,0.0448070090877264,1
107,110,47,0.0477601054685273,1
107,111,47,0.0467405791106086,1
108,108,47,0.0472258443741021,1
108,109,47,0.0474373882806384,1
108,110,47,0.0461926119434167,1
108,111,47,0.0414380618084083,1
109,107,47,0.0522121677139728,1
109,108,47,0.0542908950499137,1
109,109,47,0.0501887512752325,1
109,110,47,0.043943402148524,1
110,107,47,0.055142542291696,1
110,108,47,0.0572022217008688,1
110,109,47,0.0479775210890773,1
111,106,47,0.0428473299424023,1
111,107,47,0.049135962684706,1
111,108,47,0.0497106445286396,1
111,109,47,0.0418153248405208,1
103,112,48,0.0415058217125301,1
103,113,48,0.0443888035561955,1
103,114,48,0.0428666698328506,1
104,110,48,0.042850357713901,1
104,111,48,0.0442393668125274,1
104,112,48,0.0440418155357032,1
104,113,48,0.0430393041722605,1
105,110,48,0.0458452130110781,1
105,111,48,0.0493937720210902,1
105,112,48,0.0462308645922626,1
105,113,48,0.0412402942621913,1
106,109,48,0.0424708481834712,1
106,110,48,0.0472018006243611,1
106,111,48,0.0500464946754043,1
106,112,48,0.0439967882481288,1
107,108,48,0.0422108545262199,1
107,109,48,0.0428659020765063,1
107,110,48,0.0454229362082283,1
107,111,48,0.0442659571343683,1
108,107,48,0.0461810253106991,1
108,108,48,0.0479441777554472,1
108,109,48,0.0477074384646534,1
108,110,48,0.0455295245784542,1
109,107,48,0.0514195295760073,1
109,108,48,0.0556203408544042,1
109,109,48,0.0512054553175756,1
109,110,48,0.0423718779026056,1
110,106,48,0.0420851803820823,1
110,107,48,0.0515344929784681,1
110,108,48,0.0551213424844699,1
110,109,48,0.0475182459998597,1
111,107,48,0.0455704860014445,1
111,108,48,0.0462452573203513,1
105,110,49,0.0413293837351748,1
105,111,49,0.0437074954948923,1
105,112,49,0.041811834793195,1
106,110,49,0.0422302484840164,1
106,111,49,0.0439028759676866,1
107,108,49,0.0415254265329845,1
107,109,49,0.0418199340819542,1
107,110,49,0.0429304557868802,1
107,111,49,0.041676509627405,1
108,107,49,0.0445048510089876,1
108,108,49,0.0465593021055902,1
108,109,49,0.0457113692906286,1
108,110,49,0.0431546109023823,1
109,107,49,0.0484745838479464,1
109,108,49,0.0527719918506232,1
109,109,49,0.048330716041142,1
110,107,49,0.0458709544755523,1
110,108,49,0.049597227452337,1
110,109,49,0.0438916759165086,1
111,108,49,0.0413171969548923,1
108,107,50,0.0420286637830171,1
108,108,50,0.0435566097462926,1
108,109,50,0.042689272160065,1
109,107,50,0.0439931846593718,1
109,108,50,0.0474903472481926,1
109,109,50,0.0438566808253913,1
110,108,50,0.0442617939485575,1
94,116,61,0.0450233190310058,1
95,116,61,0.0412188295249591,1
95,116,62,0.0412009413428097,1
