x,y,z,signal,cytoplasm.p
289,504,27,0.0409917088154086,1
290,504,27,0.0414063621221633,1
277,514,28,0.0441994921432357,1
278,514,28,0.0423525839694032,1
276,512,29,0.0411401480165026,1
276,514,29,0.0449335266824959,1
277,513,29,0.0446647957417768,1
277,514,29,0.047705686682572,1
277,515,29,0.0435718405182784,1
278,513,29,0.0447008100024075,1
278,514,29,0.0462368444409726,1
278,515,29,0.040994582494965,1
279,514,29,0.0429356435489392,1
275,512,30,0.0422642433291922,1
276,512,30,0.0423789904622603,1
276,513,30,0.0440349516858502,1
276,514,30,0.0458095123410669,1
277,512,30,0.0424604618458835,1
277,513,30,0.0471463761857294,1
277,514,30,0.04983788121914,1
277,515,30,0.0439366788737763,1
278,512,30,0.0421766488183862,1
278,513,30,0.0472228977036256,1
278,514,30,0.0478491003236515,1
279,512,30,0.0416191603911777,1
279,513,30,0.0451483524770674,1
279,514,30,0.044326853188637,1
291,509,30,0.0412828209349118,1
275,513,31,0.0423051317612625,1
275,514,31,0.0432578227667136,1
276,512,31,0.0421126141545549,1
276,513,31,0.0437929921925884,1
276,514,31,0.0440045847597381,1
277,511,31,0.0418568918178109,1
277,512,31,0.0436990799121462,1
277,513,31,0.0467751605865122,1
277,514,31,0.0470311045993839,1
277,515,31,0.0414137287983545,1
278,511,31,0.0416634253291426,1
278,512,31,0.0436602027854287,1
278,513,31,0.0464976923623253,1
278,514,31,0.0453600666957506,1
279,512,31,0.0422038122541179,1
279,513,31,0.0447351995392251,1
279,514,31,0.0432536136236568,1
284,508,31,0.0410035333444582,1
292,501,31,0.0424637923945321,1
292,502,31,0.0426633036127283,1
292,509,31,0.0410969103581534,1
274,513,32,0.0426241155987587,1
274,514,32,0.0442795685892756,1
275,513,32,0.0428529934971254,1
275,514,32,0.0432800201165138,1
276,512,32,0.0418068957409376,1
276,513,32,0.044316550655439,1
276,514,32,0.0426022129160061,1
277,511,32,0.0424569393581488,1
277,512,32,0.04449505941223,1
277,513,32,0.0461978835098654,1
277,514,32,0.0438036326467126,1
278,511,32,0.0423333657304884,1
278,512,32,0.0441786167400988,1
278,513,32,0.0450327321563261,1
278,514,32,0.0424677257941131,1
279,513,32,0.0424719430472721,1
279,514,32,0.0413183729197155,1
283,508,32,0.0493145092886407,1
283,509,32,0.0478948683338961,1
283,510,32,0.0410302642414044,1
284,507,32,0.042635231845547,1
284,508,32,0.0572961907520266,1
284,509,32,0.0538850763478536,1
284,510,32,0.0428591463613497,1
285,508,32,0.045533476901607,1
285,509,32,0.0449190555567522,1
291,501,32,0.0453128983411878,1
291,502,32,0.0519196146996403,1
292,501,32,0.0493443328379034,1
292,502,32,0.0540946630163853,1
292,503,32,0.0417596327685155,1
292,509,32,0.0432099947905029,1
293,502,32,0.0438968501617306,1
293,509,32,0.0448964716254124,1
293,510,32,0.0423625161412661,1
273,513,33,0.0411205296792111,1
273,514,33,0.0427461131632193,1
274,513,33,0.0426608895056315,1
274,514,33,0.0437780425708133,1
274,515,33,0.0422259366129981,1
275,513,33,0.0435817159194256,1
275,514,33,0.04314817418458,1
276,512,33,0.0420763836245314,1
276,513,33,0.0451783517452118,1
276,514,33,0.0425105633540857,1
277,511,33,0.0442918716143567,1
277,512,33,0.0456947165473854,1
277,513,33,0.0458567401697126,1
277,514,33,0.0424174458636619,1
278,511,33,0.0441406236145242,1
278,512,33,0.0450535588988497,1
278,513,33,0.0440748966426945,1
278,514,33,0.0414165186735212,1
283,508,33,0.0551149733508529,1
283,509,33,0.0549695808448296,1
283,510,33,0.0456880932972319,1
284,507,33,0.0428145407990912,1
284,508,33,0.0669430438117671,1
284,509,33,0.0665736178417751,1
284,510,33,0.0511932306901494,1
285,508,33,0.0496199411453125,1
285,509,33,0.0517775203018567,1
285,510,33,0.0445575288263311,1
290,502,33,0.0493834343441159,1
291,501,33,0.044827776356167,1
291,502,33,0.0581444371576077,1
291,503,33,0.0456871579321082,1
292,501,33,0.0440908005531652,1
292,502,33,0.0553145954071129,1
292,503,33,0.0449344593442522,1
292,509,33,0.0409990673814976,1
292,510,33,0.0435445878714221,1
293,502,33,0.0467428823796415,1
293,503,33,0.042272175009172,1
293,509,33,0.0447483892688165,1
293,510,33,0.0474826318376056,1
302,503,33,0.0465267427485089,1
302,504,33,0.0411309160167988,1
303,503,33,0.0491983888449285,1
303,504,33,0.0438738012511963,1
273,514,34,0.041150526243988,1
274,513,34,0.0411863269385934,1
274,514,34,0.0411631834101998,1
275,513,34,0.0430601822787648,1
275,514,34,0.0418846040371267,1
276,512,34,0.0411487366147629,1
276,513,34,0.0446029021449339,1
276,514,34,0.0419465760316245,1
277,511,34,0.0455773525546649,1
277,512,34,0.0455202520282392,1
277,513,34,0.0445928942787835,1
278,511,34,0.0458679861781366,1
278,512,34,0.0449740690835377,1
278,513,34,0.0426535633799515,1
283,508,34,0.0532529966070793,1
283,509,34,0.0574055906243585,1
283,510,34,0.0478778371192156,1
284,508,34,0.0638092570566756,1
284,509,34,0.070635816659612,1
284,510,34,0.0561925896676692,1
284,511,34,0.0422557898993024,1
285,508,34,0.0457516224313576,1
285,509,34,0.0530643502225023,1
285,510,34,0.048137884843815,1
285,511,34,0.0411002273899649,1
290,502,34,0.046837759762249,1
291,502,34,0.0545155935422651,1
291,503,34,0.0452691281194589,1
292,502,34,0.0541795703799862,1
292,503,34,0.0473714315225789,1
292,509,34,0.0412770330252879,1
292,510,34,0.0443834833291334,1
293,502,34,0.049613496317408,1
293,503,34,0.0455429008403969,1
293,507,34,0.0432638026154236,1
293,508,34,0.0423566579440895,1
293,509,34,0.0448153868233288,1
293,510,34,0.0480925223386818,1
294,507,34,0.0412968784454418,1
302,503,34,0.045924497370467,1
302,504,34,0.0424522895662043,1
303,503,34,0.0503933529342609,1
303,504,34,0.0462771732759891,1
275,513,35,0.0433087731322824,1
275,514,35,0.041971652467716,1
276,513,35,0.044264245902798,1
276,514,35,0.0420740019578436,1
277,511,35,0.0435681828621732,1
277,512,35,0.0437096473753503,1
277,513,35,0.0432231331561135,1
278,511,35,0.0444703506341062,1
278,512,35,0.044165689237146,1
278,513,35,0.0419732609713247,1
282,512,35,0.0418278062878509,1
282,513,35,0.0417073036855678,1
282,514,35,0.0410823662414897,1
283,508,35,0.0488436800071144,1
283,509,35,0.0579314442461398,1
283,510,35,0.0503096080186462,1
283,511,35,0.0422485151376031,1
284,508,35,0.053995146655303,1
284,509,35,0.0663356836625862,1
284,510,35,0.0572698707669267,1
284,511,35,0.0441061475699495,1
285,509,35,0.0501481629169447,1
285,510,35,0.0485895418436724,1
285,511,35,0.0422334790080709,1
291,502,35,0.046645853116576,1
291,503,35,0.0417756691439893,1
292,502,35,0.0502863266185147,1
292,503,35,0.0469689595893719,1
292,508,35,0.0410540322476696,1
292,509,35,0.0411946019462342,1
292,510,35,0.0419969722068743,1
293,502,35,0.048756036835695,1
293,503,35,0.0461465357492874,1
293,507,35,0.041676331205156,1
293,508,35,0.0434526463458215,1
293,509,35,0.0430591766260885,1
293,510,35,0.0443350660188274,1
294,507,35,0.041234919967781,1
302,504,35,0.0420339813067118,1
303,503,35,0.0419114430687693,1
303,504,35,0.043964185637169,1
303,510,35,0.0592931790709707,1
304,510,35,0.0547275645808522,1
304,511,35,0.0500314098852587,1
305,510,35,0.0487589726927019,1
306,508,35,0.0423589125525091,1
275,513,36,0.0412280939650718,1
276,513,36,0.0421949343955448,1
276,514,36,0.0410024303705551,1
278,512,36,0.0418739608796351,1
280,513,36,0.0410345274518093,1
281,512,36,0.042413104255602,1
281,513,36,0.0425365264946875,1
282,512,36,0.0428760829581708,1
282,513,36,0.0422811664091763,1
283,508,36,0.0414977900079561,1
283,509,36,0.0514804040033368,1
283,510,36,0.0470765373920697,1
284,508,36,0.0424753384767385,1
284,509,36,0.0541171604399681,1
284,510,36,0.0504079835586817,1
284,511,36,0.041366463122565,1
285,509,36,0.0428767101394098,1
285,510,36,0.0435653470297605,1
291,502,36,0.0434442848304236,1
292,501,36,0.0433118820048034,1
292,502,36,0.0503628805768199,1
292,503,36,0.0441413183799485,1
292,507,36,0.0410516235473077,1
292,508,36,0.0464976437017119,1
292,509,36,0.0460850828013323,1
292,510,36,0.042599552802475,1
293,502,36,0.0480727769431221,1
293,503,36,0.0444899743781325,1
293,507,36,0.04190371954808,1
293,508,36,0.0461449840163943,1
293,509,36,0.0454336956105185,1
293,510,36,0.0435314738361181,1
293,511,36,0.0418610495968868,1
294,502,36,0.0433663197143306,1
294,506,36,0.0413122660127372,1
302,510,36,0.0525839780540201,1
303,509,36,0.0518766419712972,1
303,510,36,0.0602185309218085,1
303,511,36,0.05353154617823,1
304,509,36,0.0490445564258524,1
304,510,36,0.0557342120964316,1
304,511,36,0.0510175658758733,1
304,512,36,0.0437017832795558,1
305,508,36,0.0423856434494553,1
305,509,36,0.0452080644564108,1
305,510,36,0.0480394444229617,1
305,511,36,0.0456982038913438,1
306,508,36,0.0415311711887299,1
306,509,36,0.0418701707585268,1
306,510,36,0.0432662788999708,1
280,513,37,0.0426165948306252,1
281,512,37,0.0422632241596788,1
281,513,37,0.0433690338952099,1
282,512,37,0.0424054699460373,1
282,513,37,0.0421309835361032,1
283,509,37,0.0433013794224171,1
283,510,37,0.0424062512192187,1
284,509,37,0.0436014910520269,1
284,510,37,0.0429985617220303,1
291,501,37,0.0445039075337616,1
291,502,37,0.0412050937151509,1
291,508,37,0.0410865834946487,1
291,509,37,0.0412663979778985,1
292,501,37,0.049691580381667,1
292,502,37,0.0478610275806626,1
292,507,37,0.0443854567873424,1
292,508,37,0.048272371965708,1
292,509,37,0.0490723416360883,1
292,510,37,0.0432757677195785,1
292,511,37,0.0412948617333542,1
293,501,37,0.0413307462323493,1
293,502,37,0.0444230633313774,1
293,503,37,0.0413914314239601,1
293,507,37,0.0422375097288786,1
293,508,37,0.0460385794751522,1
293,509,37,0.0469444508604364,1
293,510,37,0.0428843444489746,1
293,511,37,0.041811907784115,1
294,502,37,0.0451860401221247,1
295,501,37,0.0432284236461341,1
295,502,37,0.047559985992664,1
302,510,37,0.0502799628916325,1
302,511,37,0.0464493237126326,1
303,509,37,0.0514804905110939,1
303,510,37,0.0580452884544931,1
303,511,37,0.0538651363098403,1
303,512,37,0.0450149007448923,1
304,509,37,0.0492602527047299,1
304,510,37,0.0572221076715339,1
304,511,37,0.054878834207624,1
304,512,37,0.0461197453782582,1
305,508,37,0.0427238887797449,1
305,509,37,0.0466957897193662,1
305,510,37,0.0511578760511666,1
305,511,37,0.0496981387510027,1
305,512,37,0.0425309521510889,1
306,508,37,0.0425638142853201,1
306,509,37,0.0436120990657422,1
306,510,37,0.0444104710459835,1
306,511,37,0.0423949159996702,1
307,508,37,0.0409960044662225,1
307,509,37,0.0414218497140529,1
307,510,37,0.0413869330205905,1
280,513,38,0.0423071755070241,1
281,513,38,0.0420940744608599,1
291,501,38,0.0430299775546973,1
291,507,38,0.0427747039769433,1
292,501,38,0.0491871158028305,1
292,502,38,0.0441180072427755,1
292,506,38,0.0427263488440877,1
292,507,38,0.045815340801202,1
292,508,38,0.0459752071363363,1
292,509,38,0.0468423554868453,1
292,510,38,0.0426470942217403,1
292,511,38,0.0413301623049888,1
293,507,38,0.0417790672768232,1
293,508,38,0.0433930722382161,1
293,509,38,0.0449585814916481,1
293,510,38,0.0416872555128582,1
294,502,38,0.0452314999484846,1
295,501,38,0.0453152935247127,1
295,502,38,0.0504729184438604,1
302,510,38,0.0449383089394434,1
302,511,38,0.0425622138918136,1
303,509,38,0.0478049705540571,1
303,510,38,0.0499842955980441,1
303,511,38,0.0482408831421209,1
303,512,38,0.0426463832361116,1
304,508,38,0.041191155152787,1
304,509,38,0.046505056335149,1
304,510,38,0.0522662837227783,1
304,511,38,0.0513497178160217,1
304,512,38,0.043725597243067,1
305,509,38,0.0449967205990628,1
305,510,38,0.0489506792891865,1
305,511,38,0.0474202327110571,1
306,508,38,0.0418323857922428,1
306,509,38,0.0428370571462458,1
306,510,38,0.042507443668095,1
291,507,39,0.0410087697671306,1
292,507,39,0.0425506299624634,1
295,502,39,0.0420589360912698,1
302,510,39,0.0412015036432309,1
303,509,39,0.04343624231238,1
303,510,39,0.0441895275309639,1
303,511,39,0.0436962927403469,1
304,509,39,0.043422844423498,1
304,510,39,0.0470142518069524,1
304,511,39,0.0457513196542077,1
305,509,39,0.0423217493607293,1
305,510,39,0.0454036071312497,1
305,511,39,0.0432052179402901,1
304,510,40,0.0416636388951679,1
289,508,44,0.0412540381821018,1
290,508,44,0.0428192203280772,1
289,508,45,0.0426156026947858,1
290,508,45,0.0458182496245347,1
