x,y,z,signal,cytoplasm.p
543,735,40,0.0575965673116426,1
544,734,40,0.0637972811390511,1
545,768,40,0.0513703174756829,1
546,733,40,0.0777724308774906,1
547,732,40,0.0780715855150373,1
547,768,40,0.0432988220368476,1
548,732,40,0.079213131064356,1
548,768,40,0.0442134631460086,1
552,731,40,0.0709785874269453,1
558,767,40,0.0558887744247083,1
559,767,40,0.062962702959093,1
562,766,40,0.059581731101537,1
563,766,40,0.057707026903999,1
565,731,40,0.0955003465933288,1
565,765,40,0.0553007811996498,1
566,732,40,0.0905853975598065,1
567,732,40,0.0902512397210402,1
567,764,40,0.0653158599342524,1
568,733,40,0.0857521334759327,1
568,764,40,0.0680130420392231,1
569,733,40,0.0861436189239871,1
570,734,40,0.0862179020536682,1
570,763,40,0.0731922560505039,1
571,734,40,0.0908516468092436,1
571,762,40,0.0771121982685126,1
572,735,40,0.0957244233111761,1
574,760,40,0.0910129945897184,1
575,738,40,0.0949383273223418,1
575,759,40,0.108792003949598,1
576,757,40,0.0754549637588728,1
577,755,40,0.0762120742423413,1
577,756,40,0.0800560085822616,1
578,749,40,0.0818506552573316,1
578,750,40,0.0806288142892129,1
578,751,40,0.0808542697244391,1
578,752,40,0.0807727523835699,1
578,753,40,0.0835529224612806,1
579,746,40,0.103843197942638,1
579,747,40,0.101657849796062,1
579,748,40,0.0948382811012472,1
535,748,41,0.0737050145605531,1
535,749,41,0.0785338667488144,1
535,750,41,0.0749828855216033,1
535,751,41,0.069232963616481,1
535,752,41,0.0657563736536473,1
535,753,41,0.062058978047532,1
535,754,41,0.0572981588035008,1
536,745,41,0.0529503167784304,1
536,746,41,0.0545803500051948,1
536,747,41,0.0629666444687762,1
536,748,41,0.072461595313771,1
536,749,41,0.0766921382269387,1
536,750,41,0.074773671917774,1
536,751,41,0.0714218693945677,1
536,752,41,0.0649143882469869,1
536,753,41,0.0577350337903625,1
536,754,41,0.0536624972955512,1
536,755,41,0.0506510433224792,1
536,756,41,0.0483547976380268,1
536,757,41,0.0470799544484754,1
536,758,41,0.0461877621022838,1
537,743,41,0.0542747613532132,1
537,744,41,0.0555801363742886,1
537,745,41,0.0554331651016981,1
537,746,41,0.0556247581567515,1
537,747,41,0.0577877332346453,1
537,748,41,0.0622539449051127,1
537,749,41,0.0664771670993352,1
537,750,41,0.0699682471114844,1
537,751,41,0.0717985349824826,1
537,752,41,0.0648998062831795,1
537,753,41,0.0543388906349038,1
537,754,41,0.0501485089479731,1
537,755,41,0.0489306257097421,1
537,756,41,0.0474348849624171,1
537,757,41,0.0462205485422275,1
537,758,41,0.0449344917846611,1
537,759,41,0.0478325611218395,1
538,742,41,0.0544658569886632,1
538,743,41,0.056089450794258,1
538,744,41,0.0570280004847895,1
538,745,41,0.0560610275893134,1
538,746,41,0.0539435177445144,1
538,747,41,0.0511206128347926,1
538,748,41,0.0512293044248631,1
538,749,41,0.0540899321234185,1
538,750,41,0.0584110702852169,1
538,751,41,0.0617762598838357,1
538,752,41,0.0568701562684775,1
538,753,41,0.0490049791269758,1
538,754,41,0.0473715883178887,1
538,755,41,0.0483395290188974,1
538,756,41,0.0466965412555061,1
538,757,41,0.0445821240630237,1
538,758,41,0.0425123583900457,1
538,759,41,0.0426460290949809,1
538,760,41,0.0458675914864948,1
538,761,41,0.0455207170074337,1
539,740,41,0.0521352785381089,1
539,741,41,0.0589207361429496,1
539,742,41,0.0599099685656763,1
539,743,41,0.0596712017493253,1
539,744,41,0.0582443590238015,1
539,745,41,0.0539114828407106,1
539,746,41,0.0486397379697339,1
539,747,41,0.0432605288374906,1
539,748,41,0.0415791829939245,1
539,749,41,0.042583719179557,1
539,750,41,0.0449715711720512,1
539,751,41,0.0469025865127313,1
539,752,41,0.0454156100825483,1
539,753,41,0.0429399364963857,1
539,754,41,0.0448867395027378,1
539,755,41,0.0476067488421153,1
539,756,41,0.0460236406668468,1
539,757,41,0.0426825759189914,1
540,739,41,0.046826784090566,1
540,740,41,0.0553455111168091,1
540,741,41,0.0607975111199234,1
540,742,41,0.0605703958171077,1
540,743,41,0.0592400849350461,1
540,744,41,0.0557450634132137,1
540,745,41,0.0488026807369803,1
540,746,41,0.0414479020657793,1
540,755,41,0.0441629372091231,1
540,756,41,0.0430613744637925,1
540,764,41,0.0439845257735589,1
541,738,41,0.0445056701293127,1
541,739,41,0.0502785895809884,1
541,740,41,0.0561904269737415,1
541,741,41,0.0583941147648239,1
541,742,41,0.0574966184117747,1
541,743,41,0.0545709963539576,1
541,744,41,0.0490309098271687,1
541,745,41,0.0410448705355185,1
541,765,41,0.0433268856939267,1
542,737,41,0.0467494731893862,1
542,738,41,0.0499206691426917,1
542,739,41,0.0547614972485775,1
542,740,41,0.0578658172989043,1
542,741,41,0.0554663786736925,1
542,742,41,0.0524598934899193,1
542,743,41,0.0478406387836594,1
542,744,41,0.0412474257454179,1
542,765,41,0.0451717203849561,1
543,736,41,0.0506959516618875,1
543,737,41,0.0522331620652758,1
543,738,41,0.0554834261085774,1
543,739,41,0.0597557036078147,1
543,740,41,0.0608445551195853,1
543,741,41,0.0541277846738878,1
543,742,41,0.0479637663556972,1
543,743,41,0.0415830623261573,1
543,765,41,0.0461313698581195,1
544,735,41,0.0532262062360501,1
544,736,41,0.054699487406936,1
544,737,41,0.0590597216682121,1
544,738,41,0.0614463192982283,1
544,739,41,0.0604780650066001,1
544,740,41,0.057907692460079,1
544,741,41,0.0497653769052144,1
544,742,41,0.0425119772152409,1
544,765,41,0.0429491739028243,1
544,766,41,0.0508611490375536,1
544,767,41,0.057588538310436,1
545,734,41,0.0572954878765001,1
545,735,41,0.055605007354457,1
545,736,41,0.0597286753404534,1
545,737,41,0.0676178746047569,1
545,738,41,0.0669343551889126,1
545,739,41,0.0579800183517556,1
545,740,41,0.0500117455907212,1
545,741,41,0.0413633569534113,1
545,766,41,0.0458542909188395,1
545,767,41,0.0520569187303741,1
546,733,41,0.0695322372021938,1
546,734,41,0.0676326566177526,1
546,735,41,0.062589178684108,1
546,736,41,0.0648546870811132,1
546,737,41,0.0696521693939535,1
546,738,41,0.0644498469980554,1
546,739,41,0.0521155872098973,1
546,740,41,0.041868938022988,1
546,767,41,0.0455060755695433,1
546,768,41,0.0465092249276947,1
547,733,41,0.0797638232258968,1
547,734,41,0.0769931365610589,1
547,735,41,0.0691508623482513,1
547,736,41,0.0663643717975369,1
547,737,41,0.064273176531103,1
547,738,41,0.0554508613447614,1
547,739,41,0.044189587005047,1
547,767,41,0.0417435747661025,1
547,768,41,0.0450384822188063,1
548,732,41,0.075398495820421,1
548,733,41,0.0807317693336403,1
548,734,41,0.0772369748946703,1
548,735,41,0.0703161596836308,1
548,736,41,0.0643674159190017,1
548,737,41,0.0570527957706704,1
548,738,41,0.0466060217011629,1
548,768,41,0.0462010680766739,1
549,732,41,0.0714718870983802,1
549,733,41,0.0721455446299142,1
549,734,41,0.0689516836442465,1
549,735,41,0.0644822387463573,1
549,736,41,0.0570638795770497,1
549,737,41,0.0478974960070182,1
550,732,41,0.0676657296146417,1
550,733,41,0.0664443860661264,1
550,734,41,0.0636430269946591,1
550,735,41,0.0585691307709217,1
550,736,41,0.0495672471077645,1
551,731,41,0.0665924062452718,1
551,732,41,0.0647177182679382,1
551,733,41,0.0640443527000844,1
551,734,41,0.0604085560237644,1
551,735,41,0.0528787153892196,1
551,736,41,0.042672403147429,1
552,731,41,0.0666325079974259,1
552,732,41,0.0648023552947981,1
552,733,41,0.062606674877983,1
552,734,41,0.0566337738221817,1
552,735,41,0.0469367678902583,1
553,731,41,0.0702214499098027,1
553,732,41,0.0673730360252039,1
553,733,41,0.0628848730113705,1
553,734,41,0.0540376111505731,1
553,735,41,0.0424866412558781,1
554,730,41,0.0750612561428077,1
554,733,41,0.0670212468241921,1
554,734,41,0.0548215552589493,1
555,730,41,0.0790285126972193,1
555,734,41,0.0563194478867323,1
556,730,41,0.0800011031901725,1
556,767,41,0.0429986238994808,1
557,730,41,0.0796501520330577,1
557,734,41,0.0542794814327103,1
557,767,41,0.0482230246970131,1
558,730,41,0.0815537444147348,1
558,734,41,0.0497036806541924,1
558,766,41,0.0443475853133012,1
558,767,41,0.0533503556809687,1
559,734,41,0.047357374012049,1
559,766,41,0.052876817625298,1
560,734,41,0.0470880753641739,1
560,765,41,0.0429015784162108,1
560,766,41,0.0622765288364525,1
561,734,41,0.0495672741414386,1
561,765,41,0.0467971876241657,1
561,766,41,0.062745017001802,1
562,734,41,0.0530660803776444,1
562,765,41,0.0492183342896766,1
562,766,41,0.0595983568111061,1
563,734,41,0.0548033940366916,1
563,765,41,0.0500542371196654,1
564,731,41,0.0913178911796431,1
564,733,41,0.0759662678572556,1
564,734,41,0.0565941586761614,1
564,765,41,0.0513716042785699,1
565,731,41,0.0908694241533291,1
565,732,41,0.0855630869929791,1
565,733,41,0.0757738691987141,1
565,734,41,0.0593512095557853,1
565,735,41,0.0413969544035779,1
565,764,41,0.0458179955079982,1
565,765,41,0.0547979548614635,1
566,731,41,0.0911470383593562,1
566,732,41,0.0856161108413511,1
566,733,41,0.0778906166939036,1
566,734,41,0.0650763145480874,1
566,735,41,0.0484825587818047,1
566,763,41,0.0425893611073408,1
566,764,41,0.0555805472861349,1
567,732,41,0.0850175312295166,1
567,733,41,0.0799465600493163,1
567,734,41,0.0704129780840383,1
567,735,41,0.0550540556696449,1
567,763,41,0.0526380832493559,1
567,764,41,0.0641586240404884,1
568,732,41,0.0849783972828952,1
568,733,41,0.0818812033090601,1
568,734,41,0.0754866418181785,1
568,735,41,0.0619589047927633,1
568,736,41,0.0452727911822989,1
568,762,41,0.0452599312635314,1
568,763,41,0.0603339484899941,1
568,764,41,0.0670768172446639,1
569,733,41,0.0832586663254801,1
569,734,41,0.079246625786561,1
569,735,41,0.0692037834686617,1
569,736,41,0.0547786528181589,1
569,761,41,0.0418574757451713,1
569,762,41,0.0560057058786433,1
569,763,41,0.0653325397111696,1
570,734,41,0.0827511253145314,1
570,735,41,0.076585457942221,1
570,736,41,0.0686055498878557,1
570,737,41,0.0582776050362048,1
570,738,41,0.043447891122548,1
570,761,41,0.0568320441947369,1
570,762,41,0.0682814539825879,1
571,734,41,0.0869638368162654,1
571,735,41,0.0833303866628569,1
571,739,41,0.0451686655797832,1
571,760,41,0.0489697596563635,1
571,761,41,0.0674400470965531,1
571,762,41,0.0755496140586178,1
572,735,41,0.0906929212951561,1
572,740,41,0.043846013337593,1
572,759,41,0.0412151150981383,1
572,760,41,0.0563129922453581,1
572,761,41,0.0716686598053904,1
573,741,41,0.0499015401149013,1
573,742,41,0.0443411080449878,1
573,759,41,0.050796241186049,1
573,760,41,0.0646914199097776,1
574,743,41,0.0548097793905131,1
574,744,41,0.0470519691890512,1
574,757,41,0.0443050234968044,1
574,758,41,0.055062246872896,1
574,759,41,0.0743309630640425,1
575,745,41,0.0499079308754576,1
575,755,41,0.0454471475667487,1
575,756,41,0.0511086747643118,1
575,757,41,0.0584677598997963,1
575,758,41,0.076992114688178,1
576,746,41,0.0557554984114148,1
576,747,41,0.0509924732195774,1
576,748,41,0.047982944044101,1
576,749,41,0.0460372872655305,1
576,750,41,0.0462394883342992,1
576,751,41,0.0490820088779451,1
576,752,41,0.050573472898028,1
576,753,41,0.0505453092163548,1
576,754,41,0.0531341619824879,1
576,755,41,0.0589617786669622,1
576,756,41,0.0653392008084669,1
576,757,41,0.0735455375103258,1
577,748,41,0.0645646157580627,1
577,749,41,0.0612424637686049,1
577,750,41,0.0615752915506057,1
577,751,41,0.063739147926275,1
577,752,41,0.0642021698827223,1
577,753,41,0.0646465277905737,1
577,754,41,0.0675911545212804,1
577,755,41,0.0710711291001108,1
578,746,41,0.0907987473157724,1
578,747,41,0.0863200298676682,1
578,748,41,0.0792086380677212,1
578,749,41,0.0751318951332206,1
578,750,41,0.0743213823299428,1
578,751,41,0.0741166455025439,1
578,752,41,0.0736306989904631,1
579,746,41,0.096026713854918,1
579,747,41,0.0919037649646525,1
536,748,42,0.0694638744471397,1
536,749,42,0.075247977729789,1
536,750,42,0.074981847428518,1
536,751,42,0.0722022072108195,1
536,752,42,0.065441296182058,1
536,753,42,0.0583998296835278,1
536,754,42,0.0545686606445157,1
537,745,42,0.0524740212880019,1
537,746,42,0.0530979206389947,1
537,747,42,0.0540536583395165,1
537,748,42,0.0582209478620343,1
537,749,42,0.0648071564753176,1
537,750,42,0.0710240634735096,1
537,751,42,0.0735929816083643,1
537,752,42,0.0672290492702335,1
537,753,42,0.0574074018805229,1
537,754,42,0.0535362446307879,1
537,755,42,0.0518180005254481,1
537,756,42,0.0500900567378427,1
537,757,42,0.0490722767552705,1
537,758,42,0.0481929362177442,1
538,743,42,0.0527816753126844,1
538,744,42,0.0529631685870956,1
538,745,42,0.0523818418660692,1
538,746,42,0.0514437895951411,1
538,747,42,0.0491109024688189,1
538,748,42,0.0494844213370691,1
538,749,42,0.0545011737805023,1
538,750,42,0.0622312095851979,1
538,751,42,0.0676003784108819,1
538,752,42,0.0634015135570199,1
538,753,42,0.0550615980647177,1
538,754,42,0.0531602494779906,1
538,755,42,0.0540684565727166,1
538,756,42,0.0518807673099643,1
538,757,42,0.0491119892225176,1
538,758,42,0.0472921633833945,1
538,759,42,0.0473122115561041,1
538,760,42,0.0486095683894427,1
538,761,42,0.0470458703921751,1
538,764,42,0.0589354478683926,1
539,741,42,0.0485398269170097,1
539,742,42,0.0526063349024975,1
539,743,42,0.0566565794296492,1
539,744,42,0.0559036861993396,1
539,745,42,0.0512930498283816,1
539,746,42,0.0476356802801329,1
539,747,42,0.0438419420662741,1
539,748,42,0.0428401200615209,1
539,749,42,0.0450221673964894,1
539,750,42,0.0501919845026544,1
539,751,42,0.0544793738257113,1
539,752,42,0.0533017545416789,1
539,753,42,0.0500759884138431,1
539,754,42,0.0535465336471489,1
539,755,42,0.0583883241518325,1
539,756,42,0.0551178551405115,1
539,757,42,0.0487356210050177,1
539,758,42,0.0445673447533954,1
539,759,42,0.0430441540133933,1
539,763,42,0.0508672262074904,1
539,764,42,0.0666684627839736,1
539,765,42,0.0620746467650381,1
540,740,42,0.0499762828170421,1
540,741,42,0.0528358616090426,1
540,742,42,0.0573497228334716,1
540,743,42,0.0607298566471306,1
540,744,42,0.0571274357448495,1
540,745,42,0.0482884570017951,1
540,746,42,0.0423271831292226,1
540,750,42,0.0411443166090482,1
540,751,42,0.0429589709063167,1
540,752,42,0.0427611736230582,1
540,753,42,0.0457777261470647,1
540,754,42,0.0569622870297968,1
540,755,42,0.064348627515505,1
540,756,42,0.0561425557436523,1
540,757,42,0.0442654299777234,1
540,763,42,0.0472591823009973,1
540,764,42,0.059083322065698,1
541,739,42,0.0454934886908842,1
541,740,42,0.0513227544294783,1
541,741,42,0.0533211376860057,1
541,742,42,0.0565290724024078,1
541,743,42,0.0566607155817859,1
541,744,42,0.051154902347016,1
541,745,42,0.0419561837993982,1
541,753,42,0.0415951355650085,1
541,754,42,0.0575083996869457,1
541,755,42,0.0644256410462698,1
541,756,42,0.0519264271855125,1
541,763,42,0.0431276177787974,1
541,764,42,0.0482184289724167,1
542,738,42,0.0448086743620507,1
542,739,42,0.0498875637053937,1
542,740,42,0.0532703576325837,1
542,741,42,0.0522330323036402,1
542,742,42,0.0514273909684344,1
542,743,42,0.0480679973895419,1
542,744,42,0.0424762278846163,1
542,754,42,0.0458585784595512,1
542,755,42,0.049995784909535,1
542,763,42,0.0415335934059289,1
542,764,42,0.0442360714076551,1
543,737,42,0.0465769442813052,1
543,738,42,0.0507536955897567,1
543,739,42,0.0555794929728451,1
543,740,42,0.0572147112583012,1
543,741,42,0.0524070318435919,1
543,742,42,0.0475225011001624,1
543,743,42,0.0417629281733878,1
543,764,42,0.0442575902122355,1
543,765,42,0.0490774239668184,1
543,766,42,0.0551601844674111,1
544,736,42,0.0499870584395367,1
544,737,42,0.0548556933825978,1
544,738,42,0.0580609733922036,1
544,739,42,0.059521710938309,1
544,740,42,0.0578869197849037,1
544,741,42,0.0502474359749602,1
544,742,42,0.0434899879598504,1
544,765,42,0.048330418670727,1
544,766,42,0.0559177491166044,1
544,767,42,0.0580402980382549,1
545,735,42,0.0500010618827185,1
545,736,42,0.0561926167013433,1
545,737,42,0.0635879918409344,1
545,738,42,0.0639898257794327,1
545,739,42,0.0590518494623154,1
545,740,42,0.0519079037120219,1
545,741,42,0.0423207626316248,1
545,765,42,0.0445748087508133,1
545,766,42,0.0542341081141075,1
545,767,42,0.0572546616218803,1
546,734,42,0.0571576972396326,1
546,735,42,0.0562747504099819,1
546,736,42,0.0614742288633651,1
546,737,42,0.0670964977594058,1
546,738,42,0.0639335578901692,1
546,739,42,0.0547570637260258,1
546,740,42,0.0443731240252198,1
546,766,42,0.0463439951116197,1
546,767,42,0.0508653338503037,1
547,733,42,0.0711067757027739,1
547,734,42,0.069042733058602,1
547,735,42,0.0638078350854182,1
547,736,42,0.0634094722706738,1
547,737,42,0.0641027562496015,1
547,738,42,0.0578365668635324,1
547,739,42,0.0470445349286748,1
547,767,42,0.0448980476886122,1
547,768,42,0.0458554047062123,1
548,733,42,0.0760702555880334,1
548,734,42,0.0749123871062956,1
548,735,42,0.0679353742935452,1
548,736,42,0.0624219700030892,1
548,737,42,0.0579024263003651,1
548,738,42,0.0494594368154695,1
548,767,42,0.0412231359892426,1
549,732,42,0.0667856916083237,1
549,733,42,0.0699900200326013,1
549,734,42,0.0686262414620088,1
549,735,42,0.0629983225280819,1
549,736,42,0.0555881059014121,1
549,737,42,0.0481581276589781,1
550,732,42,0.0637092270557855,1
550,733,42,0.0646274474233967,1
550,734,42,0.0628791905330755,1
550,735,42,0.0575585904062724,1
550,736,42,0.049011283379775,1
551,732,42,0.0605542999675509,1
551,733,42,0.0612990074013442,1
551,734,42,0.0589928457652333,1
551,735,42,0.0525063265285466,1
551,736,42,0.0426403114729096,1
552,731,42,0.0618224117722524,1
552,732,42,0.0610135480230945,1
552,733,42,0.0599530602421854,1
552,734,42,0.0552187448122379,1
552,735,42,0.0467880826827301,1
553,731,42,0.0658673198521375,1
553,732,42,0.0649395295638962,1
553,733,42,0.0628490858336022,1
553,734,42,0.0539819217819352,1
553,735,42,0.0423291160369205,1
554,731,42,0.0723114340676371,1
554,732,42,0.0738699307860086,1
554,733,42,0.071968057746004,1
554,734,42,0.0579269296225658,1
554,735,42,0.0411493854229412,1
555,731,42,0.076200119951656,1
555,732,42,0.0790208081001019,1
555,733,42,0.0758499149239463,1
555,734,42,0.0589816321972183,1
556,731,42,0.0773169729430553,1
556,732,42,0.0792133311135443,1
556,733,42,0.0743300331056536,1
556,734,42,0.0567639085225453,1
557,731,42,0.0758297856502144,1
557,732,42,0.0763641873197449,1
557,733,42,0.0708655920759587,1
557,734,42,0.0537664796195942,1
558,730,42,0.0773223093903219,1
558,731,42,0.0782127337342276,1
558,732,42,0.0772994064616277,1
558,733,42,0.070758430591842,1
558,734,42,0.0518427417439808,1
558,766,42,0.0446697996748519,1
559,732,42,0.0784644659006751,1
559,733,42,0.0703720977620703,1
559,734,42,0.0504820774526441,1
559,766,42,0.0528997367741967,1
560,733,42,0.0704698028669882,1
560,734,42,0.0507810482612071,1
560,765,42,0.0456016882680862,1
560,766,42,0.062722022158616,1
561,732,42,0.0800049527853638,1
561,733,42,0.0725313800400825,1
561,734,42,0.0538695806458617,1
561,765,42,0.0492765594169446,1
561,766,42,0.0617787469818525,1
562,731,42,0.0839940579551798,1
562,732,42,0.0814205765361377,1
562,733,42,0.0751073809975504,1
562,734,42,0.0570069034055249,1
562,765,42,0.0515451766864709,1
563,731,42,0.0850609094629711,1
563,732,42,0.082061269205479,1
563,733,42,0.0752026368515952,1
563,734,42,0.0577084056213779,1
563,764,42,0.0426029266050022,1
563,765,42,0.0521971694315843,1
564,731,42,0.0869862909859696,1
564,732,42,0.0828844175480293,1
564,733,42,0.0750206245306413,1
564,734,42,0.0592051358011747,1
564,764,42,0.0448954416424294,1
564,765,42,0.053255786482246,1
565,732,42,0.0822579391845277,1
565,733,42,0.0746222076485487,1
565,734,42,0.0619519571385206,1
565,735,42,0.0446104959039875,1
565,764,42,0.0490686704631461,1
566,732,42,0.082847851800447,1
566,733,42,0.0769448868595323,1
566,734,42,0.0681289948741559,1
566,735,42,0.0531418557661356,1
566,763,42,0.0467555827997319,1
566,764,42,0.0570707569437398,1
567,732,42,0.0828486844376092,1
567,733,42,0.079025441671842,1
567,735,42,0.0595703228910685,1
567,736,42,0.0413615916544929,1
567,763,42,0.0564858347440586,1
567,764,42,0.0637677333332641,1
568,732,42,0.0830964048068208,1
568,733,42,0.0809014488924715,1
568,734,42,0.076398244342371,1
568,735,42,0.0642389681199018,1
568,736,42,0.0462434352507172,1
568,762,42,0.050295258544436,1
568,763,42,0.0628706208583871,1
569,733,42,0.0828158168966432,1
569,734,42,0.0787900756916922,1
569,735,42,0.0690045236636347,1
569,736,42,0.0541431668344485,1
569,761,42,0.0460814008149204,1
569,762,42,0.0589697049402071,1
569,763,42,0.0652022860626401,1
570,734,42,0.0814042644171882,1
570,735,42,0.074865272819081,1
570,736,42,0.066296392920655,1
570,737,42,0.0554359603835996,1
570,738,42,0.0413366422766696,1
570,760,42,0.0420330837887318,1
570,761,42,0.0583551105798381,1
570,762,42,0.0678136903197041,1
571,735,42,0.0806987179636905,1
571,736,42,0.0793379779780663,1
571,738,42,0.0614432050189724,1
571,739,42,0.0417798269230653,1
571,760,42,0.0517232961583549,1
571,761,42,0.0670104657949626,1
572,739,42,0.0590149971577876,1
572,759,42,0.0451060988444553,1
572,760,42,0.0584264200053687,1
573,741,42,0.0464169319643308,1
573,742,42,0.0416806565930114,1
573,758,42,0.0425311143531335,1
573,759,42,0.053386683532219,1
573,760,42,0.065502959992671,1
574,743,42,0.0520207206407595,1
574,744,42,0.0443683958356204,1
574,756,42,0.0409964532252125,1
574,757,42,0.046500660659741,1
574,758,42,0.0565668816989985,1
574,759,42,0.0725019511824616,1
575,744,42,0.0588226958204729,1
575,745,42,0.0470601874259764,1
575,754,42,0.0411716773906008,1
575,755,42,0.0466911831813003,1
575,756,42,0.0521546724959054,1
575,757,42,0.0589170595632725,1
575,758,42,0.0747938660723238,1
576,745,42,0.0615445921103022,1
576,746,42,0.0539715570712868,1
576,747,42,0.0502544431032858,1
576,748,42,0.048541973390733,1
576,749,42,0.0472754349458639,1
576,750,42,0.0479583055535298,1
576,751,42,0.0511056523995478,1
576,752,42,0.0520666562597835,1
576,753,42,0.0507523222791126,1
576,754,42,0.0523457302842117,1
576,755,42,0.0571745338118596,1
576,756,42,0.0625912873106875,1
577,746,42,0.0708853158445791,1
577,747,42,0.0657635483907524,1
577,748,42,0.0620481970183025,1
577,749,42,0.0605441353060908,1
577,750,42,0.0613149194219171,1
577,751,42,0.0631965172063496,1
577,752,42,0.062955944540569,1
577,753,42,0.0619457339867437,1
577,754,42,0.0631186980720968,1
578,746,42,0.0835244505957227,1
578,747,42,0.0773043211835784,1
578,748,42,0.0722903153614333,1
578,749,42,0.0707641671374851,1
578,750,42,0.0706368601594321,1
578,751,42,0.070036204361427,1
579,747,42,0.0833328845743433,1
537,750,43,0.0719831155024755,1
537,751,43,0.0742104739785964,1
537,752,43,0.0688509723947692,1
537,753,43,0.0617645651164217,1
538,746,43,0.0499492653631505,1
538,747,43,0.0488349373169117,1
538,748,43,0.0497293031705006,1
538,749,43,0.0562867479545457,1
538,750,43,0.0657723289280988,1
538,751,43,0.071458045857243,1
538,752,43,0.0680300408134947,1
538,753,43,0.0614837609368513,1
538,754,43,0.059684248200444,1
538,755,43,0.060041682032607,1
538,756,43,0.0582982587632142,1
538,757,43,0.0550024537925303,1
538,758,43,0.0555568117202785,1
538,759,43,0.0554810147048481,1
538,764,43,0.0621244860466016,1
539,743,43,0.0577004577211936,1
539,744,43,0.0547706778843005,1
539,745,43,0.0498896452982991,1
539,746,43,0.0477012099061417,1
539,747,43,0.0463851133299197,1
539,748,43,0.0463163883236328,1
539,749,43,0.0497140075176971,1
539,750,43,0.0565364201550271,1
539,751,43,0.0619968871048682,1
539,752,43,0.0606320488142511,1
539,753,43,0.0576278614927761,1
539,754,43,0.0623823278233948,1
539,755,43,0.0674992995034368,1
539,756,43,0.0642424122099817,1
539,757,43,0.0556146800030485,1
539,758,43,0.0521919519324838,1
539,759,43,0.0498982041595179,1
539,760,43,0.0455280377263789,1
539,763,43,0.0692922214300995,1
539,764,43,0.0820866538254552,1
539,765,43,0.0683847063974303,1
540,741,43,0.049410884336793,1
540,742,43,0.0595865106551172,1
540,743,43,0.0661264051779391,1
540,744,43,0.0598109712511366,1
540,745,43,0.0487812051862785,1
540,746,43,0.044275175617235,1
540,747,43,0.0439398039665018,1
540,748,43,0.0439250354703431,1
540,749,43,0.0445127610620281,1
540,750,43,0.0472858266901864,1
540,751,43,0.0505632974230983,1
540,752,43,0.0504049125333044,1
540,753,43,0.0556164534120692,1
540,754,43,0.0731154912295408,1
540,755,43,0.0814293138196056,1
540,756,43,0.0671102146456422,1
540,757,43,0.0497827703711278,1
540,758,43,0.0435361317381649,1
540,762,43,0.054832179492869,1
540,763,43,0.0753654714841452,1
540,764,43,0.0824563176917793,1
540,765,43,0.0641364239873207,1
541,740,43,0.0467947654069667,1
541,741,43,0.0511368330392502,1
541,742,43,0.0588897285187614,1
541,743,43,0.0621494543479967,1
541,744,43,0.0549538796869146,1
541,745,43,0.0442534459499966,1
541,748,43,0.0415441689792353,1
541,749,43,0.0412498993265977,1
541,750,43,0.0423532652179905,1
541,751,43,0.0435187247554145,1
541,752,43,0.04326570578608,1
541,753,43,0.0551076147847639,1
541,754,43,0.0833962893535682,1
541,755,43,0.0923374824183797,1
541,756,43,0.0663934113702509,1
541,757,43,0.0415814213821396,1
541,762,43,0.0517961410965741,1
541,763,43,0.0643074552298567,1
541,764,43,0.0651148699740831,1
542,739,43,0.0449892106443989,1
542,740,43,0.0490993158361014,1
542,741,43,0.0520023161154349,1
542,742,43,0.0542102481933504,1
542,743,43,0.0521825171802243,1
542,744,43,0.0460382658845327,1
542,749,43,0.0415689912987903,1
542,750,43,0.0430882918930899,1
542,753,43,0.0448569619107211,1
542,754,43,0.0666552757577496,1
542,755,43,0.0736298447263617,1
542,756,43,0.0524223491233347,1
542,762,43,0.0456621680037738,1
542,763,43,0.0506107469278716,1
542,764,43,0.0500549399951919,1
543,738,43,0.0451757024451504,1
543,739,43,0.0503623723437469,1
543,740,43,0.0529500734753635,1
543,741,43,0.0533000135730671,1
543,742,43,0.0509844117779619,1
543,743,43,0.0453793362986462,1
543,750,43,0.0412242903271265,1
543,762,43,0.043888061514282,1
543,763,43,0.0470758128896039,1
543,764,43,0.0470109915458564,1
543,765,43,0.0505625080398147,1
543,766,43,0.0544594608213721,1
544,736,43,0.0432054315063155,1
544,737,43,0.047780272589403,1
544,738,43,0.0520597410459497,1
544,739,43,0.0559255294080093,1
544,740,43,0.0551323830369707,1
544,741,43,0.0510330940182741,1
544,742,43,0.0457831112549447,1
544,763,43,0.0418492142543676,1
544,764,43,0.0440963938203357,1
544,765,43,0.0523582468753182,1
544,766,43,0.0589504948113945,1
544,767,43,0.0556236497761136,1
545,735,43,0.0441574574833838,1
545,736,43,0.0499639879020632,1
545,737,43,0.0546468312165318,1
545,738,43,0.0568818780695656,1
545,739,43,0.0574006326485293,1
545,740,43,0.0519218476811206,1
545,741,43,0.043631514650478,1
545,765,43,0.0498212609163057,1
545,766,43,0.0603715469239269,1
545,767,43,0.059089182966242,1
545,768,43,0.049132042801962,1
546,735,43,0.0510197447900054,1
546,736,43,0.0566309406931365,1
546,737,43,0.0596634917454731,1
546,738,43,0.0586215977256073,1
546,739,43,0.0542482467256598,1
546,740,43,0.0458583405632191,1
546,766,43,0.0512248763090462,1
546,767,43,0.054509586659881,1
547,734,43,0.0606275125637378,1
547,735,43,0.0581400090417908,1
547,736,43,0.0594054174790826,1
547,737,43,0.0604290691756684,1
547,738,43,0.0565931151763413,1
547,739,43,0.0479341915162362,1
547,767,43,0.0467012721484729,1
548,733,43,0.0671324038853402,1
548,734,43,0.0693071440182005,1
548,735,43,0.0645682220501871,1
548,736,43,0.0607965162807166,1
548,737,43,0.0582493602535093,1
548,738,43,0.0514816745860193,1
548,767,43,0.0410056419710377,1
549,733,43,0.0654081745245555,1
549,734,43,0.06664763604145,1
549,735,43,0.0620156592881605,1
549,736,43,0.05587272182903,1
549,737,43,0.0502463005606481,1
549,738,43,0.0425411222192838,1
550,732,43,0.06066348357049,1
550,733,43,0.0626959671035222,1
550,734,43,0.062443418520117,1
550,735,43,0.0582647964814181,1
550,736,43,0.050863890252107,1
550,737,43,0.0429557728226711,1
551,732,43,0.0591496681086645,1
551,733,43,0.0601350509361999,1
551,734,43,0.0584094050108926,1
551,735,43,0.0534004220453946,1
551,736,43,0.0444993469529416,1
552,732,43,0.0593077988819218,1
552,733,43,0.0592941685034426,1
552,734,43,0.0554040119875529,1
552,735,43,0.0487415521931144,1
553,732,43,0.0637799309270163,1
553,733,43,0.0643255569780314,1
553,734,43,0.0557455662395519,1
553,735,43,0.0450455407111128,1
554,731,43,0.0692677235146337,1
554,732,43,0.0747320508731358,1
554,733,43,0.0763859602408618,1
554,734,43,0.0612442155506863,1
554,735,43,0.0440247248469397,1
555,731,43,0.0739132549521149,1
555,732,43,0.0799603688500446,1
555,733,43,0.0803216901245426,1
555,734,43,0.062811379264973,1
555,735,43,0.043462529857071,1
556,731,43,0.0742199141375908,1
556,732,43,0.0767007998161191,1
556,733,43,0.074501918612291,1
556,734,43,0.0595572331860712,1
556,735,43,0.0424151398912615,1
557,731,43,0.0723392300913427,1
557,732,43,0.0732677827291934,1
557,733,43,0.06951979089864,1
557,734,43,0.0564289072331471,1
558,731,43,0.0748048579642112,1
558,732,43,0.0756914651533346,1
558,733,43,0.0705521312180803,1
558,734,43,0.0554806903007589,1
558,766,43,0.043068624895185,1
559,732,43,0.0783161970117279,1
559,733,43,0.0720627621130973,1
559,734,43,0.0558259427593743,1
559,766,43,0.0498655691081491,1
560,733,43,0.0734151000328124,1
560,734,43,0.0577288971463427,1
560,765,43,0.0456353614125402,1
560,766,43,0.0581768991934622,1
561,732,43,0.0798914059474256,1
561,733,43,0.0758248114541807,1
561,734,43,0.0615741669497633,1
561,765,43,0.0498956684008877,1
562,731,43,0.080286778837815,1
562,732,43,0.0804582696528106,1
562,733,43,0.0775395195549487,1
562,734,43,0.0638689149686708,1
562,735,43,0.0419427021061265,1
562,764,43,0.0434627812702401,1
562,765,43,0.0535593800490793,1
563,731,43,0.0814310926353611,1
563,732,43,0.0806247376111592,1
563,733,43,0.0769143550280082,1
563,734,43,0.0638443737993264,1
563,735,43,0.042822096711001,1
563,764,43,0.0459611279988671,1
563,765,43,0.0543686763370228,1
564,732,43,0.0806264407326273,1
564,733,43,0.0758367549313963,1
564,734,43,0.0643931844171501,1
564,735,43,0.0456114690513741,1
564,764,43,0.0486291569896927,1
565,732,43,0.0797385683675562,1
565,733,43,0.0753193412226678,1
565,734,43,0.0669275156693663,1
565,735,43,0.051363434702258,1
565,763,43,0.0417790510566187,1
565,764,43,0.0523048013016303,1
566,732,43,0.0804297977872527,1
566,733,43,0.0776806785876086,1
566,736,43,0.0412209111178645,1
566,763,43,0.0504103246748584,1
566,764,43,0.0580044297594643,1
567,732,43,0.0810241168920496,1
567,736,43,0.0467765447106259,1
567,762,43,0.0456560962405718,1
567,763,43,0.0589895044031151,1
568,735,43,0.0676324025012161,1
568,736,43,0.0500069011563232,1
568,762,43,0.054646733895305,1
568,763,43,0.0639445930359352,1
569,734,43,0.077565320493506,1
569,735,43,0.0694192580714116,1
569,736,43,0.0562142382338853,1
569,737,43,0.042900616017413,1
569,761,43,0.0504497505851601,1
569,762,43,0.0618962948035569,1
570,735,43,0.0747786244868684,1
570,736,43,0.0666022951632561,1
570,737,43,0.0559303954693465,1
570,738,43,0.0433068510380542,1
570,760,43,0.045698587769516,1
570,761,43,0.0590165651108852,1
570,762,43,0.0669021580830642,1
571,736,43,0.07673696005859,1
571,737,43,0.0721712536539795,1
571,738,43,0.0592933953403635,1
571,739,43,0.0438364299001259,1
571,759,43,0.0414349934863984,1
571,760,43,0.0545859243487934,1
571,761,43,0.0657867486898616,1
572,738,43,0.0769259524741954,1
572,739,43,0.0581444641912818,1
572,740,43,0.0427813515574035,1
572,759,43,0.0486482481703393,1
572,760,43,0.0602263166199482,1
573,741,43,0.0489167195877871,1
573,742,43,0.0434437955209225,1
573,758,43,0.0466260158065244,1
573,759,43,0.0560238995413099,1
574,737,43,0.0891580141608008,1
574,743,43,0.0528359805572086,1
574,744,43,0.044309238046596,1
574,756,43,0.0444271210858592,1
574,757,43,0.0498607517074252,1
574,758,43,0.0585401777059648,1
575,744,43,0.0578431955204207,1
575,745,43,0.0481386796338334,1
575,746,43,0.0424728784123958,1
575,751,43,0.0426906562841787,1
575,752,43,0.0434951108410916,1
575,753,43,0.0429207074440012,1
575,754,43,0.0459446266441989,1
575,755,43,0.0505897471698338,1
575,756,43,0.0554517318290672,1
575,757,43,0.0608805369398071,1
576,745,43,0.0612451184754011,1
576,746,43,0.055062636157803,1
576,747,43,0.0522673704764769,1
576,748,43,0.0519478270419269,1
576,749,43,0.0518108366018127,1
576,750,43,0.0527975819265226,1
576,751,43,0.0553150279458984,1
576,752,43,0.0566449927969316,1
576,753,43,0.0549758850976288,1
576,754,43,0.0557143044988273,1
576,755,43,0.0584021653929697,1
577,746,43,0.0686396123172167,1
577,747,43,0.0645499580999678,1
577,748,43,0.0627818152389816,1
577,749,43,0.0624649535449019,1
577,750,43,0.0632122778383476,1
577,751,43,0.0640734301199421,1
577,752,43,0.0642232128946387,1
577,753,43,0.0625813605455594,1
578,747,43,0.0719636080032478,1
578,748,43,0.0686970372477315,1
578,749,43,0.0686737936947437,1
578,750,43,0.0687816634611217,1
538,748,44,0.0492934068026413,1
538,749,44,0.0561240863375098,1
538,750,44,0.0662490677707825,1
538,751,44,0.0715129188089231,1
538,752,44,0.0682238776634981,1
538,753,44,0.0640024775389097,1
538,754,44,0.0618353176482659,1
538,755,44,0.0612041029850626,1
539,744,44,0.0523389610522181,1
539,745,44,0.0463087377938636,1
539,746,44,0.046362286095513,1
539,747,44,0.0474170427375138,1
539,748,44,0.0482918956851401,1
539,749,44,0.051706275757144,1
539,750,44,0.0588708752344468,1
539,751,44,0.064658271218601,1
539,752,44,0.0628843431513582,1
539,753,44,0.060671528791901,1
539,754,44,0.0656485255142086,1
539,755,44,0.0704784752696382,1
539,756,44,0.0677016033001671,1
539,757,44,0.0588528599940292,1
539,758,44,0.0557343851119458,1
539,759,44,0.0528616949880087,1
539,763,44,0.0938129046562541,1
539,764,44,0.0913521266245184,1
540,742,44,0.0693978149611187,1
540,743,44,0.0751191784929259,1
540,744,44,0.0602229968847692,1
540,745,44,0.0464645382644139,1
540,746,44,0.0442047799298889,1
540,747,44,0.0466831920272375,1
540,748,44,0.0474722238730786,1
540,749,44,0.0479496061172057,1
540,750,44,0.0513393476986385,1
540,751,44,0.0555339952993415,1
540,752,44,0.0550651232558198,1
540,753,44,0.0599929186912726,1
540,754,44,0.0799885703788616,1
540,755,44,0.0899821303088837,1
540,756,44,0.073336102230369,1
540,757,44,0.0529495436153512,1
540,758,44,0.045661146130893,1
540,759,44,0.0428999834294391,1
540,760,44,0.0413498536332004,1
540,761,44,0.0552877888158792,1
540,762,44,0.0916822510391096,1
540,763,44,0.121478388156327,1
540,764,44,0.108052935740221,1
540,765,44,0.0696323428973714,1
541,741,44,0.0537253614012942,1
541,742,44,0.0674243837857819,1
541,743,44,0.0707241302661489,1
541,744,44,0.057463831971831,1
541,745,44,0.0445671717378811,1
541,746,44,0.0417117642417937,1
541,747,44,0.044056624582373,1
541,748,44,0.0453731455872782,1
541,749,44,0.0464184350366105,1
541,750,44,0.04867693630529,1
541,751,44,0.0495805260484805,1
541,752,44,0.0488755905560174,1
541,753,44,0.0624085018266545,1
541,754,44,0.0985596717964902,1
541,755,44,0.112986624516627,1
541,756,44,0.0800420159525495,1
541,757,44,0.0468161057892981,1
541,761,44,0.0506375697393097,1
541,762,44,0.0790762866060818,1
541,763,44,0.099461277268002,1
541,764,44,0.0860912060366497,1
541,765,44,0.0588121526875754,1
542,740,44,0.0463006601320437,1
542,741,44,0.0557259073517493,1
542,742,44,0.0626795955104896,1
542,743,44,0.0597426517499611,1
542,744,44,0.0495890200288815,1
542,748,44,0.044756912986259,1
542,749,44,0.0560811027956971,1
542,750,44,0.0587931317944814,1
542,751,44,0.049005244056982,1
542,752,44,0.0410533131519387,1
542,753,44,0.0515458633417929,1
542,754,44,0.0817104369965303,1
542,755,44,0.0947651928599612,1
542,756,44,0.0662646121333877,1
542,761,44,0.0440058337154813,1
542,762,44,0.0572668538088976,1
542,763,44,0.0639334984160862,1
542,764,44,0.0577009010734488,1
543,739,44,0.0452524023852957,1
543,740,44,0.0499530230438498,1
543,741,44,0.0571078255176603,1
543,742,44,0.0593032896650826,1
543,743,44,0.051442746095321,1
543,744,44,0.041641760542722,1
543,748,44,0.0442675331975681,1
543,749,44,0.0633529556716086,1
543,750,44,0.0655584601255902,1
543,751,44,0.0476131990767546,1
543,754,44,0.045425996420136,1
543,755,44,0.0503234114126397,1
543,761,44,0.0432398183397656,1
543,762,44,0.0534221138654893,1
543,763,44,0.0530551966204534,1
543,764,44,0.0486075949312337,1
543,765,44,0.0510336509119605,1
543,766,44,0.0523450057817459,1
544,737,44,0.0412446899375994,1
544,738,44,0.0474060778793004,1
544,739,44,0.0519415173823929,1
544,740,44,0.05190377296662,1
544,741,44,0.0514377286454088,1
544,742,44,0.0490402959188149,1
544,743,44,0.0412252365057198,1
544,749,44,0.0488639228222775,1
544,750,44,0.0488178195944741,1
544,762,44,0.0495371586284956,1
544,763,44,0.0485970139511925,1
544,764,44,0.0459816087103623,1
544,765,44,0.0543773162992639,1
544,766,44,0.0590769853724899,1
544,767,44,0.0521168091319665,1
545,736,44,0.0437477756692954,1
545,737,44,0.0466496324242147,1
545,738,44,0.0512569274330545,1
545,739,44,0.0547005579404302,1
545,740,44,0.0505754085090933,1
545,741,44,0.0434786824773434,1
545,765,44,0.0527234826258253,1
545,766,44,0.0622622820902039,1
545,767,44,0.0575145903983137,1
546,735,44,0.047184158448646,1
546,736,44,0.0516950513756593,1
546,737,44,0.052416477409321,1
546,738,44,0.0531700086343392,1
546,739,44,0.0520029432966739,1
546,740,44,0.0459835335079579,1
546,765,44,0.0422200378653104,1
546,766,44,0.0530899024512579,1
546,767,44,0.0549473591647226,1
547,734,44,0.051195425824486,1
547,735,44,0.0527078247217889,1
547,736,44,0.0550899131349659,1
547,737,44,0.055585867513197,1
547,738,44,0.053352950913682,1
547,739,44,0.0469632122302591,1
548,734,44,0.0586883438669504,1
548,735,44,0.0580082415075119,1
548,736,44,0.0570197227737813,1
548,737,44,0.0557792231638015,1
548,738,44,0.0509544476535939,1
548,739,44,0.0418645585677845,1
549,733,44,0.0563763051100911,1
549,734,44,0.0597604615344556,1
549,735,44,0.0579714757107412,1
549,736,44,0.0538817620194094,1
549,737,44,0.0496153724543903,1
549,738,44,0.0435839543076408,1
550,733,44,0.0570053516726318,1
550,734,44,0.0589281758100608,1
550,735,44,0.0567059429185485,1
550,736,44,0.0503636591466338,1
550,737,44,0.0433478476048208,1
551,732,44,0.05617671549424,1
551,733,44,0.0558102145677852,1
551,734,44,0.0550812893929292,1
551,735,44,0.0517818132493032,1
551,736,44,0.0442712016671429,1
552,732,44,0.0561534665345174,1
552,733,44,0.0560091553754579,1
552,734,44,0.0531372384146,1
552,735,44,0.0483812690117016,1
553,732,44,0.0597728213302523,1
553,733,44,0.061318390545671,1
553,734,44,0.0547950568516004,1
553,735,44,0.0464815586656248,1
554,732,44,0.0699596666233263,1
554,733,44,0.0727486334585879,1
554,734,44,0.0604072367804685,1
554,735,44,0.0464322276171343,1
555,732,44,0.0767044115149783,1
555,733,44,0.0784226718405226,1
555,734,44,0.0635364386244332,1
555,735,44,0.0470377765101508,1
556,732,44,0.07344776752459,1
556,733,44,0.0726790055275862,1
556,734,44,0.0607611292013249,1
556,735,44,0.0466533090038917,1
557,731,44,0.0690083245982126,1
557,732,44,0.0708833315729005,1
557,733,44,0.0684156329205962,1
557,734,44,0.0582078473435674,1
557,735,44,0.0452446788646065,1
558,731,44,0.0699029067211942,1
558,732,44,0.0722356803060852,1
558,733,44,0.0688026902528336,1
558,734,44,0.0574258658799305,1
558,735,44,0.0428048762606019,1
559,731,44,0.074223255499709,1
559,732,44,0.0751753166205537,1
559,733,44,0.0714541908553169,1
559,734,44,0.0590836356563175,1
559,735,44,0.0420698117383587,1
560,732,44,0.0773012285312618,1
560,733,44,0.0749065099855472,1
560,734,44,0.0628190838620904,1
560,735,44,0.0432794253756837,1
560,765,44,0.0444802773992342,1
561,731,44,0.0772034098849127,1
561,732,44,0.0777134596208175,1
561,733,44,0.0781688580811697,1
561,734,44,0.0670969302981914,1
561,735,44,0.0458469107258113,1
561,765,44,0.0496729595869497,1
562,731,44,0.0765513738859207,1
562,732,44,0.0780887464913535,1
562,733,44,0.0789628641230445,1
562,734,44,0.0685124621344734,1
562,735,44,0.047602093643436,1
562,764,44,0.0461439351098393,1
562,765,44,0.0543752779602371,1
563,732,44,0.077629676858059,1
563,733,44,0.0765896265347666,1
563,734,44,0.0672124019337252,1
563,735,44,0.0489765072614179,1
563,764,44,0.0485435034966868,1
563,765,44,0.0556764249146839,1
564,732,44,0.0768652456556453,1
564,733,44,0.074357412810778,1
564,734,44,0.0668537948401064,1
564,764,44,0.0513895059775563,1
565,732,44,0.0758521533121614,1
565,733,44,0.0733375079814219,1
565,763,44,0.0455867440530459,1
565,764,44,0.0546955945578662,1
566,732,44,0.0771090028882345,1
566,762,44,0.0414372237645114,1
566,763,44,0.0535326707790724,1
567,762,44,0.0504154664796715,1
567,763,44,0.0599842300684181,1
568,736,44,0.055776157545159,1
568,761,44,0.046102914212766,1
568,762,44,0.0580700783336391,1
568,763,44,0.0632979205178839,1
569,735,44,0.0708503396770337,1
569,736,44,0.0602735011947154,1
569,737,44,0.0478748958554739,1
569,760,44,0.0417670967659335,1
569,761,44,0.0544658515819284,1
569,762,44,0.0637877598790345,1
570,736,44,0.068099982335116,1
570,737,44,0.0582052304839149,1
570,738,44,0.0471496310400905,1
570,760,44,0.0504107031462958,1
570,761,44,0.0604589792326883,1
571,737,44,0.0694511091462316,1
571,738,44,0.0611046893519418,1
571,739,44,0.0496900232420391,1
571,759,44,0.0469421421846686,1
571,760,44,0.0575192347835234,1
572,738,44,0.0742556959086243,1
572,739,44,0.0633499873741929,1
572,740,44,0.0492896004613286,1
572,758,44,0.0430664567945225,1
572,759,44,0.0519858796415845,1
573,738,44,0.0820016653608321,1
573,742,44,0.0470358679327596,1
573,757,44,0.0430732206197814,1
573,758,44,0.0493465117520355,1
574,743,44,0.0544740752255884,1
574,744,44,0.0447192794085499,1
574,755,44,0.0440474142096085,1
574,756,44,0.0475634517096831,1
574,757,44,0.052300265051117,1
575,744,44,0.0580184332026461,1
575,745,44,0.0508335909101801,1
575,746,44,0.046455773947272,1
575,747,44,0.0443897281078496,1
575,748,44,0.0455206413131462,1
575,749,44,0.0472817067582542,1
575,750,44,0.047892597505272,1
575,751,44,0.0479574188490195,1
575,752,44,0.0495438737931411,1
575,753,44,0.0514374042413196,1
575,754,44,0.0542384659423718,1
575,755,44,0.0555346603277243,1
575,756,44,0.0574670814194573,1
576,745,44,0.0628736702568251,1
576,746,44,0.0585625237409726,1
576,747,44,0.0569704349791694,1
576,748,44,0.0580820542512637,1
576,749,44,0.0591520470719849,1
576,750,44,0.0595170395194252,1
576,751,44,0.0597608291924233,1
576,752,44,0.0617903984953879,1
576,753,44,0.0624331403172257,1
576,754,44,0.0622212395661913,1
576,755,44,0.0610812619699702,1
577,746,44,0.0686489551549843,1
577,747,44,0.0658844267611055,1
577,748,44,0.0650191275139046,1
577,749,44,0.0652018318969153,1
577,750,44,0.0656343490555126,1
577,751,44,0.0650789314077399,1
577,752,44,0.0655634883889721,1
578,747,44,0.070186630537567,1
578,748,44,0.0674847824204473,1
578,749,44,0.0676919630919845,1
539,746,45,0.0459642260579185,1
539,747,45,0.0500237215083458,1
539,748,45,0.0523115489066847,1
539,749,45,0.0532183394368881,1
539,750,45,0.057593831503824,1
539,751,45,0.0614305802931696,1
539,752,45,0.0608284971171722,1
539,753,45,0.0615177314517204,1
539,754,45,0.0668745350748729,1
539,755,45,0.0699904796050609,1
539,756,45,0.0668135038522337,1
539,757,45,0.0599938053957829,1
539,762,45,0.0931487521645322,1
539,763,45,0.111235891341759,1
539,764,45,0.0923238033792871,1
540,744,45,0.0590755850281717,1
540,745,45,0.0442417241489086,1
540,746,45,0.0444237986473128,1
540,747,45,0.0498608057747734,1
540,748,45,0.0526661279828632,1
540,749,45,0.05203685433746,1
540,750,45,0.0538940082737749,1
540,751,45,0.0569234071997119,1
540,752,45,0.0571900187003819,1
540,753,45,0.0619074002368755,1
540,754,45,0.0794290544260959,1
540,755,45,0.0892040579145212,1
540,756,45,0.0752496267839089,1
540,757,45,0.056186945036518,1
540,758,45,0.0483321920797477,1
540,759,45,0.045363672987875,1
540,760,45,0.0458716249106699,1
540,761,45,0.0716611282237873,1
540,762,45,0.127473873143468,1
540,763,45,0.157857084340824,1
540,764,45,0.122505819160551,1
540,765,45,0.0712240207473284,1
541,742,45,0.0788152764826846,1
541,743,45,0.0786119183726645,1
541,744,45,0.0593002997407276,1
541,745,45,0.0441644321713006,1
541,746,45,0.0428323073297071,1
541,747,45,0.0468824626457342,1
541,748,45,0.0501563108663172,1
541,749,45,0.0524194781471457,1
541,750,45,0.0544933340150145,1
541,751,45,0.0535803581801778,1
541,752,45,0.0527734841094334,1
541,753,45,0.064124334528265,1
541,754,45,0.0973306560912664,1
541,755,45,0.114864394332808,1
541,756,45,0.0872460521536236,1
541,757,45,0.0532279039507833,1
541,758,45,0.0411782114296298,1
541,760,45,0.0429670188310951,1
541,761,45,0.0618408217043118,1
541,762,45,0.103971943112153,1
541,763,45,0.127281404197374,1
541,764,45,0.100053357984584,1
541,765,45,0.0622596436036121,1
542,740,45,0.0449054495085797,1
542,741,45,0.059409175159782,1
542,742,45,0.0726299556293063,1
542,743,45,0.0693895534703149,1
542,744,45,0.0545200432850213,1
542,745,45,0.042291717652176,1
542,747,45,0.041610225761889,1
542,748,45,0.0511609903304224,1
542,749,45,0.0675102751751198,1
542,750,45,0.0699001817268454,1
542,751,45,0.0533187641294201,1
542,752,45,0.0447771639115244,1
542,753,45,0.0551430937786476,1
542,754,45,0.085194980266283,1
542,755,45,0.101239282013298,1
542,756,45,0.0753750143711012,1
542,757,45,0.0451903709167149,1
542,760,45,0.0413676417907556,1
542,761,45,0.0511104968339458,1
542,762,45,0.0680824969547107,1
542,763,45,0.0748187424592269,1
542,764,45,0.0642835358350166,1
543,739,45,0.0415042780897392,1
543,740,45,0.047431689582139,1
543,741,45,0.0587337334057576,1
543,742,45,0.0661945895107441,1
543,743,45,0.0583068608783115,1
543,744,45,0.0453455144689847,1
543,748,45,0.0559767095598079,1
543,749,45,0.0840939095338209,1
543,750,45,0.0852104543413356,1
543,751,45,0.0548206847746434,1
543,754,45,0.0495381588744372,1
543,755,45,0.0551906460113825,1
543,756,45,0.0439917653914818,1
543,761,45,0.0499302174363824,1
543,762,45,0.0608100925918477,1
543,763,45,0.0568666310773754,1
543,764,45,0.0507852330739571,1
544,738,45,0.0418272602076342,1
544,739,45,0.047261015184101,1
544,740,45,0.0479530988678989,1
544,741,45,0.0495594397826856,1
544,742,45,0.0498652825512037,1
544,743,45,0.0424290514199513,1
544,748,45,0.0441385933855996,1
544,749,45,0.0619797369420217,1
544,750,45,0.0611609139873268,1
544,761,45,0.0458615035030884,1
544,762,45,0.0574473738710413,1
544,763,45,0.0525180375161651,1
544,764,45,0.0477486485974454,1
544,765,45,0.0534158853069775,1
544,766,45,0.0554635131042383,1
545,738,45,0.0442561358005692,1
545,739,45,0.0487202442511919,1
545,740,45,0.0470163388065926,1
545,741,45,0.0425469993400323,1
545,764,45,0.0419226160862732,1
545,765,45,0.0524034850255505,1
545,766,45,0.0580369350491974,1
545,767,45,0.0526548441272955,1
546,736,45,0.043536680521749,1
546,737,45,0.0435380105785146,1
546,738,45,0.0451003650021796,1
546,739,45,0.0459695300647761,1
546,740,45,0.0437289142748786,1
546,765,45,0.0432202270361482,1
546,766,45,0.0505865517895557,1
547,735,45,0.0470175553219269,1
547,736,45,0.047890505098897,1
547,737,45,0.0473656138759134,1
547,738,45,0.0459173280400967,1
547,739,45,0.0429413800945824,1
548,734,45,0.0494116574998722,1
548,735,45,0.0512583223706378,1
548,736,45,0.050751262559088,1
548,737,45,0.0495206302401533,1
548,738,45,0.0464187107800863,1
549,734,45,0.0534456439754225,1
549,735,45,0.0539302712442073,1
549,736,45,0.0509219585840653,1
549,737,45,0.0478936950724403,1
549,738,45,0.0437238643845574,1
550,733,45,0.0528205172956256,1
550,734,45,0.055363456069674,1
550,735,45,0.0549375513477606,1
550,736,45,0.0499929517804897,1
550,737,45,0.0450894542113144,1
551,733,45,0.0530493032795004,1
551,734,45,0.0527945000876756,1
551,735,45,0.051160195540404,1
551,736,45,0.0459503307494331,1
552,733,45,0.0543559705101977,1
552,734,45,0.0528435824263644,1
552,735,45,0.0497567315362385,1
552,736,45,0.0436276055812037,1
553,732,45,0.0575845373266698,1
553,733,45,0.0587236282183805,1
553,734,45,0.055099358700695,1
553,735,45,0.048999410190112,1
554,732,45,0.0650698859403873,1
554,733,45,0.0670235122460813,1
554,734,45,0.059557000696474,1
554,735,45,0.049650581111533,1
555,732,45,0.0717836069876468,1
555,733,45,0.0735142433291922,1
555,734,45,0.0636410102825715,1
555,735,45,0.0515535138715621,1
556,732,45,0.0715030893650218,1
556,733,45,0.0714780724030133,1
556,734,45,0.0626432676592394,1
556,735,45,0.0522916467158152,1
556,736,45,0.0420177475854171,1
557,732,45,0.0703116180263826,1
557,733,45,0.0687674870024258,1
557,734,45,0.0602845255270117,1
557,735,45,0.0506859546092068,1
558,732,45,0.069090312325011,1
558,733,45,0.0674974828405376,1
558,734,45,0.0588622677126147,1
558,735,45,0.0483702068322615,1
559,731,45,0.0698391018435928,1
559,732,45,0.071606887860081,1
559,733,45,0.0711660605500665,1
559,734,45,0.0615313456099952,1
559,735,45,0.0484788930155973,1
560,731,45,0.0735705706925387,1
560,732,45,0.0746002941523265,1
560,733,45,0.0769406263524947,1
560,734,45,0.0666249493821486,1
560,735,45,0.0502800764330637,1
560,765,45,0.0436098931179359,1
561,731,45,0.0731239689897373,1
561,732,45,0.0747248436956218,1
561,733,45,0.0799863914647295,1
561,734,45,0.0701747195007603,1
561,735,45,0.0522682247405784,1
561,764,45,0.0417161653239365,1
561,765,45,0.0492175124659841,1
562,731,45,0.0730967406731878,1
562,732,45,0.0735801406131687,1
562,733,45,0.0777009862835896,1
562,734,45,0.0697272959742664,1
562,735,45,0.0539319473320013,1
562,764,45,0.047063609889117,1
562,765,45,0.0544093349828632,1
563,732,45,0.072716333624778,1
563,733,45,0.0736221563494488,1
563,734,45,0.0679039557575108,1
563,764,45,0.0504110870244679,1
564,732,45,0.0723229666330065,1
564,733,45,0.0713709217323663,1
564,763,45,0.0430147035288331,1
564,764,45,0.0533870403767171,1
565,732,45,0.0715889591274205,1
565,763,45,0.0494470283590594,1
565,764,45,0.0558881634636737,1
566,762,45,0.0466463667563839,1
566,763,45,0.0556711046876218,1
567,737,45,0.0420074964161999,1
567,761,45,0.0440316346540386,1
567,762,45,0.0542932577930297,1
567,763,45,0.0594395556027311,1
568,737,45,0.0471782921413672,1
568,761,45,0.0511126108672602,1
568,762,45,0.0599148616606877,1
569,736,45,0.064942827672136,1
569,737,45,0.0541538126953075,1
569,738,45,0.0427693810465138,1
569,760,45,0.0464318869928407,1
569,761,45,0.0573979725349982,1
570,737,45,0.062442639950303,1
570,738,45,0.0537683827902506,1
570,739,45,0.0439548698330755,1
570,759,45,0.0447000990167788,1
570,760,45,0.0527073813695337,1
571,737,45,0.0700156263287051,1
571,738,45,0.0662817893299083,1
571,739,45,0.0587420922177881,1
571,740,45,0.0461423401230677,1
571,758,45,0.0425577181918114,1
571,759,45,0.0501692437760048,1
571,760,45,0.0570732061946129,1
572,738,45,0.0751664387619806,1
572,739,45,0.0713511114559887,1
572,740,45,0.0599560555732752,1
572,741,45,0.0474501373613421,1
572,758,45,0.0469979991620859,1
572,759,45,0.0539230694734281,1
573,738,45,0.0792159750068709,1
573,742,45,0.0521062119317208,1
573,743,45,0.0420443352038906,1
573,756,45,0.0428135648834563,1
573,757,45,0.0466413655266761,1
573,758,45,0.0513063503960368,1
574,743,45,0.0556843620013985,1
574,744,45,0.0460771186809436,1
574,745,45,0.0421869946054628,1
574,749,45,0.0418581759173304,1
574,750,45,0.0427417337080157,1
574,751,45,0.0421388962925111,1
574,752,45,0.0427328369258707,1
574,753,45,0.0449931413406124,1
574,754,45,0.0474533976224381,1
574,755,45,0.049400000579602,1
574,756,45,0.0506294704505506,1
574,757,45,0.0537070325702571,1
575,744,45,0.0593260628321411,1
575,745,45,0.0547567609488759,1
575,746,45,0.0522006027081945,1
575,747,45,0.0502210132618987,1
575,748,45,0.051225152052522,1
575,749,45,0.0539275678767977,1
575,750,45,0.0541583110986771,1
575,751,45,0.0531534261786487,1
575,752,45,0.054926143137292,1
575,753,45,0.059217268514109,1
575,754,45,0.0614096454159496,1
575,755,45,0.0598116254660497,1
576,745,45,0.0659236093683403,1
576,748,45,0.0634840852111788,1
576,749,45,0.0648750380309727,1
576,750,45,0.0637601260573735,1
576,751,45,0.0621195605111813,1
576,752,45,0.0636721638885998,1
576,753,45,0.0671566476842695,1
576,754,45,0.0668044097242678,1
577,747,45,0.06795766085447,1
577,748,45,0.0668682848894219,1
577,749,45,0.0668485935612103,1
577,750,45,0.0661336339823924,1
577,751,45,0.0645833825346202,1
577,753,45,0.0644274198620253,1
578,747,45,0.0688681928451683,1
578,748,45,0.0664013863041092,1
578,749,45,0.0663907242230457,1
539,748,46,0.0540133403179696,1
539,749,46,0.0530057898776754,1
539,750,46,0.0540915865842732,1
539,751,46,0.0553745615029927,1
539,752,46,0.0555531297338667,1
539,753,46,0.0587410324977636,1
539,754,46,0.0643322342955332,1
539,755,46,0.0654574893528415,1
539,762,46,0.101609254063507,1
539,763,46,0.113406230392476,1
540,746,46,0.0416277408793358,1
540,747,46,0.0489676618432537,1
540,748,46,0.0545375124452222,1
540,749,46,0.0540943818661747,1
540,750,46,0.0540639743895515,1
540,751,46,0.0546126930928833,1
540,752,46,0.0546006739213802,1
540,753,46,0.0590533092807165,1
540,754,46,0.0725279467634723,1
540,755,46,0.0813849407469443,1
540,756,46,0.0726253274643011,1
540,757,46,0.0567946836571362,1
540,758,46,0.0492073207708499,1
540,761,46,0.0793883525263769,1
540,762,46,0.141163920348156,1
540,763,46,0.165258320380959,1
540,764,46,0.120020235029465,1
541,743,46,0.0833481423800031,1
541,744,46,0.0566318652447906,1
541,747,46,0.044211670813416,1
541,748,46,0.0494946887264908,1
541,749,46,0.0541003076475366,1
541,750,46,0.0563266442507766,1
541,751,46,0.0534349710808893,1
541,752,46,0.0518576481118774,1
541,753,46,0.0599026856938748,1
541,754,46,0.0843563740688846,1
541,755,46,0.102241031027132,1
541,756,46,0.0862147174868597,1
541,757,46,0.0572933792499207,1
541,758,46,0.0445882661137783,1
541,759,46,0.0428690217624969,1
541,760,46,0.0460957448823957,1
541,762,46,0.113798413309322,1
541,763,46,0.135055326468597,1
541,764,46,0.101929873438286,1
541,765,46,0.0632729792501629,1
542,741,46,0.0671253156559922,1
542,742,46,0.0863491667616089,1
542,743,46,0.0802845566698043,1
542,744,46,0.0558991986094397,1
542,748,46,0.0505668063939959,1
542,749,46,0.0693372487176739,1
542,750,46,0.0714264975595729,1
542,751,46,0.0529929813228887,1
542,752,46,0.0446340233105532,1
542,753,46,0.0527332093417651,1
542,754,46,0.0754380677125628,1
542,755,46,0.0911837284618393,1
542,756,46,0.075248129118364,1
542,757,46,0.0493004571848455,1
542,760,46,0.044568266601682,1
542,761,46,0.0548017125421628,1
542,762,46,0.0723752119115645,1
542,763,46,0.0793399135891316,1
542,764,46,0.0672797157822243,1
543,740,46,0.0437680563316022,1
543,741,46,0.0594082668283324,1
543,742,46,0.0709831777448068,1
543,743,46,0.0632607978766152,1
543,744,46,0.0451842450861648,1
543,748,46,0.0584339786206459,1
543,749,46,0.0889169765158257,1
543,750,46,0.0882061314622052,1
543,751,46,0.0545234495279575,1
543,754,46,0.0474731051708541,1
543,755,46,0.0527080031440379,1
543,756,46,0.0456154754418751,1
543,760,46,0.0423326033808789,1
543,761,46,0.0524759082384538,1
543,762,46,0.0607419136657775,1
544,739,46,0.0416355211707406,1
544,740,46,0.0427334208532312,1
544,741,46,0.0460165145903551,1
544,742,46,0.0475204843880748,1
544,743,46,0.041262329409947,1
544,748,46,0.0466930485048129,1
544,749,46,0.0662248726324665,1
544,750,46,0.0639929941260368,1
544,761,46,0.0479295038771479,1
544,762,46,0.0565187293186986,1
544,763,46,0.0508114773647696,1
544,764,46,0.046890724136538,1
545,739,46,0.0423273426278998,1
545,740,46,0.0424570177558037,1
545,762,46,0.0425376456887951,1
545,764,46,0.042201819872337,1
545,766,46,0.0525963270363472,1
546,765,46,0.0427309824158277,1
547,736,46,0.0421950749706501,1
548,735,46,0.0451385825072491,1
548,736,46,0.0454076081150159,1
548,737,46,0.0436067274746993,1
549,735,46,0.048826286541201,1
549,736,46,0.0468891021160922,1
549,737,46,0.0444959866672515,1
550,734,46,0.049154264482069,1
550,735,46,0.0505955215626208,1
550,736,46,0.0473401103077712,1
550,737,46,0.0445134612341871,1
551,733,46,0.0479519147929735,1
551,734,46,0.0479867611988833,1
551,735,46,0.0479986938626293,1
551,736,46,0.0447222395958634,1
551,737,46,0.0416081063218398,1
552,733,46,0.0502228839921461,1
552,734,46,0.0496365506346771,1
552,735,46,0.0479865070823468,1
552,736,46,0.0436614895883156,1
553,733,46,0.0532646697475539,1
553,734,46,0.0514572037042276,1
553,735,46,0.0473866082272164,1
553,736,46,0.0412149177523174,1
554,733,46,0.0588635274818275,1
554,734,46,0.0549661367547497,1
554,735,46,0.0489408660654897,1
554,736,46,0.0412576120338173,1
555,732,46,0.0626755080189663,1
555,733,46,0.0642153623156812,1
555,734,46,0.059208747500034,1
555,735,46,0.0524593474097026,1
555,736,46,0.0436077736778868,1
556,732,46,0.0655580978743573,1
556,733,46,0.0656668435317761,1
556,734,46,0.0604050308326623,1
556,735,46,0.0547912505102876,1
556,736,46,0.0462182128327856,1
557,732,46,0.0661066273419704,1
557,733,46,0.0645643616415262,1
557,734,46,0.0585197132146741,1
557,735,46,0.053109247748441,1
557,736,46,0.0447549881886634,1
558,732,46,0.0647747809472202,1
558,733,46,0.0638902283173281,1
558,734,46,0.058153428557612,1
558,735,46,0.051811604358157,1
558,736,46,0.0427110315643449,1
559,732,46,0.066755505807828,1
559,733,46,0.0683806729732552,1
559,734,46,0.0621271569736022,1
559,735,46,0.0531960312490241,1
559,736,46,0.0420173285634686,1
560,732,46,0.0704056465516235,1
560,733,46,0.0756475300261937,1
560,734,46,0.068142928029785,1
560,735,46,0.0554094295358418,1
560,736,46,0.0417160031218919,1
561,732,46,0.0703518927940509,1
561,733,46,0.0777096478727699,1
561,734,46,0.070306222105033,1
561,735,46,0.0564130438731876,1
561,736,46,0.0411232952240711,1
561,764,46,0.0417590596546247,1
561,765,46,0.0486543253402761,1
562,732,46,0.0684473488270456,1
562,733,46,0.0731466069884253,1
562,734,46,0.0683145215727422,1
562,736,46,0.0432499857045931,1
562,764,46,0.0466580507103282,1
563,732,46,0.0674803110507518,1
563,733,46,0.0684506253083461,1
564,732,46,0.0672132507910918,1
564,763,46,0.0448284467912846,1
564,764,46,0.0522925063866514,1
565,732,46,0.0663691729780564,1
565,762,46,0.0417693946282316,1
565,763,46,0.0501041196551074,1
566,761,46,0.0421045418994699,1
566,762,46,0.0502002405867233,1
567,761,46,0.0500317396960827,1
567,762,46,0.056551256235371,1
568,760,46,0.0457208418900319,1
568,761,46,0.0552890702120314,1
569,738,46,0.0489864069928719,1
569,759,46,0.0423155262089524,1
569,760,46,0.0507416980451929,1
570,737,46,0.06516804521103,1
570,738,46,0.0594144521329655,1
570,739,46,0.050391617372384,1
570,758,46,0.0415604567678781,1
570,759,46,0.0484318165755264,1
571,737,46,0.0697954370531928,1
571,738,46,0.0691999663138794,1
571,739,46,0.0655921765239228,1
571,740,46,0.0548899072005337,1
571,741,46,0.0420020329106651,1
571,758,46,0.0460311452147758,1
571,759,46,0.0521909949404208,1
572,738,46,0.0744153567878355,1
572,739,46,0.0761928857404679,1
572,741,46,0.0572102831424842,1
572,742,46,0.0431613233636604,1
572,757,46,0.0439886105617148,1
572,758,46,0.0489299012072763,1
573,738,46,0.0754550718935692,1
573,742,46,0.0568856465637346,1
573,743,46,0.0439011214822378,1
573,753,46,0.042605697556597,1
573,754,46,0.0437481217003238,1
573,755,46,0.0447152108405985,1
573,756,46,0.0452596663335253,1
573,757,46,0.047923551062112,1
574,743,46,0.0556622700829272,1
574,744,46,0.0467506194171678,1
574,745,46,0.0443646192313492,1
574,746,46,0.0441985081174986,1
574,747,46,0.0430738748346945,1
574,748,46,0.0444794826092158,1
574,749,46,0.048214444208855,1
574,750,46,0.0483480878801162,1
574,751,46,0.0475731081380702,1
574,752,46,0.0488789589518097,1
574,753,46,0.0519924217907158,1
574,754,46,0.0531162873171756,1
574,755,46,0.0525954078914279,1
575,744,46,0.0593771132223041,1
575,745,46,0.0572584355227841,1
575,748,46,0.0554953641790583,1
575,749,46,0.0574947368680576,1
575,750,46,0.0572554672253684,1
575,751,46,0.0560865041237815,1
575,752,46,0.0583082341889556,1
575,753,46,0.063674969983971,1
575,754,46,0.0648333466987818,1
576,749,46,0.0654586139536839,1
576,750,46,0.0634312397850559,1
576,751,46,0.0611458508241205,1
576,752,46,0.0626170936559796,1
576,753,46,0.0674713142440126,1
577,748,46,0.0669933859196687,1
577,749,46,0.0658393399994481,1
577,750,46,0.0637694797086107,1
539,763,47,0.10111005023765,1
540,748,47,0.0537231716736924,1
540,749,47,0.0550621062977907,1
540,750,47,0.054635460853207,1
540,751,47,0.0538130640467965,1
540,752,47,0.053172857983589,1
540,753,47,0.0563063906221439,1
540,754,47,0.0637185320464093,1
540,755,47,0.0688585310100464,1
540,762,47,0.126388579263208,1
540,763,47,0.140743881933521,1
540,764,47,0.102910990352049,1
541,747,47,0.0411626562535549,1
541,748,47,0.0480564161635592,1
541,749,47,0.0541461567588035,1
541,750,47,0.0573264576535446,1
541,751,47,0.0541297040647486,1
541,752,47,0.0519596948248551,1
541,753,47,0.0557969248135996,1
541,754,47,0.0685692923241581,1
541,755,47,0.0801004140953317,1
541,756,47,0.0745346617983561,1
541,757,47,0.0575797415528852,1
541,758,47,0.0485204924332962,1
541,762,47,0.105623678972482,1
541,763,47,0.119619487844665,1
541,764,47,0.0915731215035187,1
542,743,47,0.0837812704996351,1
542,744,47,0.0547677312138241,1
542,748,47,0.0488354888038633,1
542,749,47,0.0646250035792584,1
542,750,47,0.0681759037054473,1
542,751,47,0.0540677482904553,1
542,752,47,0.0466440526738812,1
542,753,47,0.0500934683875136,1
542,754,47,0.0615579629655101,1
542,755,47,0.070817223426266,1
542,756,47,0.0647116302845318,1
542,757,47,0.0499246106523749,1
542,758,47,0.0430757293447375,1
542,760,47,0.0473537082458415,1
542,763,47,0.0782959596032996,1
543,741,47,0.054953447148129,1
543,742,47,0.0666308319096319,1
543,743,47,0.0625708714800102,1
543,744,47,0.0440902274392744,1
543,748,47,0.0555671007366395,1
543,749,47,0.0781766491860442,1
543,750,47,0.0779760322905775,1
543,751,47,0.0527160699923882,1
543,754,47,0.0439725525593017,1
543,755,47,0.046601534111263,1
543,756,47,0.0435161619631102,1
543,760,47,0.0430997757978459,1
543,761,47,0.0507432443713512,1
544,741,47,0.0422467957959306,1
544,742,47,0.044414553130772,1
544,743,47,0.0414294083293302,1
544,748,47,0.0479887833177057,1
544,749,47,0.0622813624573809,1
544,750,47,0.0597421597370925,1
544,761,47,0.0451976186447401,1
544,762,47,0.0501045251602189,1
545,762,47,0.0421349466727257,1
545,763,47,0.0413819507144546,1
550,735,47,0.0422112843616381,1
550,736,47,0.0419584735515941,1
550,737,47,0.0418824710802405,1
551,734,47,0.0412910905358178,1
551,735,47,0.0426665043997413,1
551,736,47,0.0421318594271439,1
551,737,47,0.0414634275048126,1
552,734,47,0.0443427030317595,1
552,735,47,0.0446811808516464,1
552,736,47,0.0429967666860704,1
553,734,47,0.0471919603669901,1
553,735,47,0.0454364692654808,1
553,736,47,0.0419663890113695,1
554,733,47,0.0520272141292774,1
554,734,47,0.0511358003528997,1
554,735,47,0.0484319463371621,1
554,736,47,0.0437415741444577,1
555,733,47,0.0561512389597719,1
555,734,47,0.0555978758712304,1
555,735,47,0.0527031695231095,1
555,736,47,0.0468228750212917,1
556,733,47,0.0588444525213854,1
556,734,47,0.0575649325062154,1
556,735,47,0.0550407064413762,1
556,736,47,0.0490872047501063,1
557,733,47,0.0595922634209648,1
557,734,47,0.0567762737250768,1
557,735,47,0.0535861055392907,1
557,736,47,0.0479186471536309,1
558,733,47,0.0598789176876096,1
558,734,47,0.0571590110761937,1
558,735,47,0.0532889568003618,1
558,736,47,0.0476265050511447,1
559,733,47,0.0637128820085233,1
559,734,47,0.0614665188595129,1
559,735,47,0.0556645409115513,1
559,736,47,0.0484681390200419,1
560,732,47,0.0645092345733096,1
560,733,47,0.0691433848339964,1
560,734,47,0.0662071872028729,1
560,735,47,0.0576627998131778,1
560,736,47,0.048386162106713,1
561,732,47,0.0645440647590149,1
561,733,47,0.0697268634354808,1
561,734,47,0.0667436218046954,1
561,735,47,0.057906227234943,1
561,736,47,0.0476021585242538,1
561,764,47,0.0419648399818437,1
562,732,47,0.0631352859345221,1
562,733,47,0.0657171153521251,1
562,734,47,0.0645322294164957,1
562,736,47,0.0495212736415968,1
563,732,47,0.0624189908922038,1
563,733,47,0.0626442084310979,1
563,763,47,0.0427191659968804,1
564,732,47,0.061910406381435,1
564,763,47,0.0460960314393411,1
565,732,47,0.0610376836873274,1
565,762,47,0.0444340173761211,1
566,761,47,0.0470483737103964,1
566,762,47,0.0510929573861923,1
567,760,47,0.0464060211734656,1
567,761,47,0.0545444492859953,1
568,759,47,0.0417488490359186,1
568,760,47,0.0513279016410262,1
569,739,47,0.0429893270189591,1
569,759,47,0.0463432489822146,1
570,738,47,0.061706837408757,1
570,739,47,0.0539780343396002,1
570,740,47,0.0446376755599236,1
570,758,47,0.0447819623886764,1
571,737,47,0.0684123888797046,1
571,738,47,0.0678191294949322,1
571,739,47,0.0664691380981287,1
571,741,47,0.0477478700276314,1
572,738,47,0.0718499530306133,1
572,742,47,0.047898279983567,1
572,753,47,0.0432981326781582,1
572,754,47,0.0437975338498365,1
572,755,47,0.0435486888797825,1
572,756,47,0.0431975376734794,1
573,738,47,0.07408491337589,1
573,742,47,0.0592102559790485,1
573,743,47,0.0461310292338259,1
573,748,47,0.0441167339567255,1
573,749,47,0.0476057053422952,1
573,750,47,0.0457336288178793,1
573,751,47,0.0448300850319348,1
573,752,47,0.0472035794401166,1
573,753,47,0.0500774536389791,1
573,754,47,0.0501764347333143,1
573,755,47,0.0489251703143095,1
574,742,47,0.0671010826705325,1
574,743,47,0.0554495961688137,1
574,744,47,0.0483118195029489,1
574,745,47,0.0471444081342552,1
574,746,47,0.0482475712730923,1
574,747,47,0.0484507509608633,1
574,748,47,0.0503439894453616,1
574,749,47,0.0536660441135926,1
574,750,47,0.0533038415413191,1
574,751,47,0.0527635411241008,1
574,752,47,0.0543807225422,1
574,753,47,0.0566778927783065,1
574,754,47,0.0564265282698267,1
575,744,47,0.0592983803498668,1
575,745,47,0.0590870689329277,1
575,749,47,0.0598900988152157,1
575,750,47,0.0593768915461765,1
575,751,47,0.0580002449467142,1
575,752,47,0.0593740908575401,1
575,753,47,0.0626901440501219,1
576,750,47,0.0618386860440582,1
576,751,47,0.0591799998910002,1
576,752,47,0.0597570931386632,1
540,763,48,0.104102905042944,1
541,749,48,0.0498673641441091,1
541,750,48,0.0541622039477469,1
541,751,48,0.0516761169903225,1
541,752,48,0.0504607911376609,1
541,753,48,0.0532181015405561,1
541,754,48,0.0586037176535601,1
541,755,48,0.062177347692929,1
541,763,48,0.0949942113334332,1
542,748,48,0.0439454080471419,1
542,749,48,0.0548903397393193,1
542,750,48,0.060802577230449,1
542,751,48,0.0521205289655221,1
542,752,48,0.0465362694152603,1
542,753,48,0.0474531759463105,1
542,754,48,0.0516448011822496,1
542,755,48,0.0535998927130796,1
542,756,48,0.0520739715719939,1
542,757,48,0.0468959362289037,1
543,748,48,0.0497733464323379,1
543,749,48,0.062883991713595,1
543,750,48,0.0660035155022333,1
543,751,48,0.0507283650371287,1
543,755,48,0.0410563355167026,1
544,748,48,0.0476424495121265,1
544,749,48,0.0546874033546151,1
544,750,48,0.0535588555958018,1
553,735,48,0.0419553700858079,1
554,734,48,0.0471875106242339,1
554,735,48,0.0464412027969342,1
554,736,48,0.0431429837191536,1
555,734,48,0.051716591807179,1
555,735,48,0.0509268733060159,1
555,736,48,0.0463811718202365,1
556,734,48,0.0536256882449021,1
556,735,48,0.0525303108042047,1
556,736,48,0.0478721167937768,1
557,733,48,0.0538592970362356,1
557,734,48,0.0537507135808614,1
557,735,48,0.0514211137493093,1
557,736,48,0.0470490387387792,1
557,737,48,0.0410104404481898,1
558,733,48,0.0558134315750026,1
558,734,48,0.0548871551725107,1
558,735,48,0.0521262871381045,1
558,736,48,0.0483880977177783,1
558,737,48,0.0424574502945892,1
559,733,48,0.0592856366758979,1
559,734,48,0.0587084569204778,1
559,735,48,0.0548228312483666,1
559,736,48,0.0500667537107719,1
559,737,48,0.0431261390368244,1
559,739,48,0.0410418292471827,1
560,733,48,0.061791831280115,1
560,734,48,0.0611336856707773,1
560,735,48,0.0561829170190776,1
560,736,48,0.0500887050541379,1
560,737,48,0.0424806127465547,1
560,738,48,0.0423581474995322,1
560,739,48,0.0433421651265258,1
561,733,48,0.0611125291174297,1
561,734,48,0.0604857641969827,1
561,735,48,0.056401965473543,1
561,736,48,0.0497487836360543,1
562,733,48,0.0593783513645777,1
562,734,48,0.0599617272381006,1
563,733,48,0.0587310084114087,1
564,733,48,0.0579992771411816,1
565,733,48,0.0574256442038029,1
566,760,48,0.0425869686271833,1
566,761,48,0.0486160672846954,1
567,760,48,0.0498190495617647,1
568,759,48,0.0457848305966172,1
569,739,48,0.0460098805267319,1
570,738,48,0.0629868494367956,1
570,739,48,0.0552960557134178,1
570,740,48,0.0462636239985321,1
571,737,48,0.0685767428047389,1
571,738,48,0.0661238477923696,1
571,739,48,0.06403984888998,1
571,740,48,0.0585011032334264,1
571,741,48,0.0486604619842959,1
571,751,48,0.0411906415129791,1
571,752,48,0.0436930081489442,1
571,753,48,0.0442161421831115,1
571,754,48,0.0436393733395377,1
571,755,48,0.0433766627980398,1
571,756,48,0.0433898227905897,1
572,737,48,0.0711111551579774,1
572,738,48,0.0703043946286642,1
572,739,48,0.0718576522209958,1
572,741,48,0.0615838774454986,1
572,742,48,0.0486606782536887,1
572,748,48,0.046792602713039,1
572,749,48,0.0473495180263567,1
572,750,48,0.0435491024949962,1
572,751,48,0.0440750128874931,1
572,752,48,0.0468168789523772,1
572,753,48,0.0489596112151079,1
572,754,48,0.0485766846282723,1
572,755,48,0.0472339382561265,1
573,738,48,0.0748234409117848,1
573,739,48,0.0736144787860055,1
573,741,48,0.0690352176972033,1
573,742,48,0.0571361946552566,1
573,743,48,0.0467890991488761,1
573,744,48,0.0416065491822119,1
573,747,48,0.0451602716239764,1
573,748,48,0.0508906103355835,1
573,749,48,0.0525962405285901,1
573,750,48,0.0498895425703375,1
573,751,48,0.0500493710583281,1
573,752,48,0.0529546475730205,1
573,753,48,0.0556884548996566,1
573,754,48,0.0549420875982739,1
574,739,48,0.0722757820582393,1
574,740,48,0.0731961272726345,1
574,741,48,0.0718144524097904,1
574,742,48,0.0638540572613876,1
574,743,48,0.055026567829824,1
574,744,48,0.0498269542080704,1
574,745,48,0.0489920191836142,1
574,746,48,0.0506982170837768,1
574,748,48,0.0545450764672343,1
574,749,48,0.0570432799173885,1
574,750,48,0.0566383749535129,1
574,751,48,0.0565562736852832,1
574,752,48,0.0581599004191906,1
574,753,48,0.0598160589886015,1
575,743,48,0.0653068306871043,1
575,744,48,0.0595729505641906,1
575,749,48,0.0611793509530603,1
575,750,48,0.060780685361166,1
575,751,48,0.0593346216933599,1
575,752,48,0.0592961689953257,1
576,750,48,0.0617187430388289,1
541,753,49,0.052926521738491,1
542,749,49,0.0442451276884773,1
542,750,49,0.0512596091735248,1
542,751,49,0.0492451246607058,1
542,752,49,0.0467276083537773,1
542,753,49,0.0484715614831824,1
542,754,49,0.0493229275747542,1
542,755,49,0.0478723546901089,1
543,748,49,0.0424598292579096,1
543,749,49,0.0492268715239561,1
543,750,49,0.056137240923325,1
543,751,49,0.0507996149885762,1
543,752,49,0.0423997117734549,1
543,754,49,0.0417624794143978,1
543,755,49,0.0415812862137691,1
544,748,49,0.0448725468238374,1
544,749,49,0.0468879288546364,1
544,750,49,0.0485977060132494,1
544,751,49,0.0431275664148166,1
545,747,49,0.0426679074474269,1
545,748,49,0.0411717071276423,1
546,746,49,0.046226993370132,1
546,747,49,0.0465294947765319,1
554,735,49,0.0433516728697054,1
554,736,49,0.0417887939927629,1
555,735,49,0.0474511159803444,1
555,736,49,0.0449978911571511,1
556,735,49,0.0492001244068055,1
556,736,49,0.0463267260006071,1
556,737,49,0.041845956696639,1
557,734,49,0.0503820852988977,1
557,735,49,0.049191765594775,1
557,736,49,0.046135451942908,1
557,737,49,0.0430489551939128,1
558,734,49,0.0522220350050179,1
558,735,49,0.0509539502339905,1
558,736,49,0.0483204432449856,1
558,737,49,0.045403807180438,1
558,738,49,0.0425034345742266,1
558,739,49,0.0415985418079446,1
559,734,49,0.0547917803702999,1
559,735,49,0.0530980395871608,1
559,736,49,0.049552340739868,1
559,737,49,0.0461408965248709,1
559,738,49,0.0468567374014644,1
559,739,49,0.0506562554148449,1
559,740,49,0.0423298973101018,1
560,734,49,0.0551527285800954,1
560,735,49,0.053585764914997,1
560,736,49,0.0495929399116254,1
560,737,49,0.046440462074264,1
560,738,49,0.0507588644282439,1
560,739,49,0.0564722422127231,1
560,740,49,0.0450465544738914,1
561,734,49,0.0539756553762798,1
561,735,49,0.0535719236738599,1
561,736,49,0.0495353798127401,1
561,737,49,0.0444347202516476,1
561,738,49,0.0431763405696207,1
561,739,49,0.0447016723766112,1
562,733,49,0.0545148311926556,1
562,734,49,0.0551317612624665,1
562,737,49,0.0445400353358235,1
563,733,49,0.0555241442285009,1
564,733,49,0.055529194118822,1
565,733,49,0.0541045303074304,1
566,760,49,0.0468135538104634,1
568,739,49,0.043013211270023,1
569,739,49,0.0484381857091434,1
569,751,49,0.0411339978556457,1
569,752,49,0.0416279165982174,1
570,738,49,0.0628397051486908,1
570,739,49,0.055632311365294,1
570,740,49,0.0482109838985707,1
570,748,49,0.0469375789004812,1
570,749,49,0.0459053737494114,1
570,750,49,0.0425138182084468,1
570,751,49,0.0445790476309115,1
570,752,49,0.0451860914861055,1
570,753,49,0.0421844426266281,1
570,754,49,0.0412748811448298,1
570,755,49,0.0424651494849717,1
570,756,49,0.0436334016009299,1
571,737,49,0.068372065451423,1
571,738,49,0.0643685080794352,1
571,739,49,0.0613802814391465,1
571,740,49,0.0571915542130705,1
571,741,49,0.0498306470079519,1
571,742,49,0.0419854126078308,1
571,747,49,0.0456915806411903,1
571,748,49,0.0569977389900064,1
571,749,49,0.0537500809928876,1
571,750,49,0.0459119807793605,1
571,751,49,0.046126720066175,1
571,752,49,0.0478177358549652,1
571,753,49,0.0473174344619395,1
571,754,49,0.0468686159978622,1
571,755,49,0.0465596102894749,1
572,738,49,0.069076227780807,1
572,739,49,0.0682465318823906,1
572,740,49,0.0666404018302619,1
572,741,49,0.059631224352072,1
572,742,49,0.0494083485781628,1
572,743,49,0.0413248447812941,1
572,747,49,0.0481190531864397,1
572,748,49,0.0577652898784108,1
572,749,49,0.0546357474101524,1
572,750,49,0.0479502819590581,1
572,751,49,0.0484580230191951,1
572,752,49,0.050795105771737,1
572,753,49,0.051810468943845,1
572,754,49,0.051279430263372,1
573,739,49,0.072403397220177,1
573,740,49,0.0716382847691761,1
573,741,49,0.0661625492002055,1
573,742,49,0.0558912236755814,1
573,743,49,0.0475978547633377,1
573,744,49,0.0438180659253125,1
573,745,49,0.0433993062034626,1
573,746,49,0.0453010711087708,1
573,747,49,0.0507040022900333,1
573,748,49,0.056470030858182,1
573,749,49,0.0557646682336682,1
573,750,49,0.052610000668705,1
573,751,49,0.0532747533079918,1
573,752,49,0.0557706048284997,1
573,753,49,0.0579251021461969,1
574,740,49,0.073244587836819,1
574,741,49,0.0706274686610511,1
574,742,49,0.0627879194425925,1
574,743,49,0.055285134109083,1
574,744,49,0.0515830562706143,1
574,745,49,0.051934218290387,1
574,748,49,0.0585258714856332,1
574,749,49,0.0593320102404423,1
574,750,49,0.0579222960508257,1
574,751,49,0.0575029767319221,1
574,752,49,0.0587939265844999,1
575,742,49,0.070756424693224,1
575,743,49,0.0647281154189956,1
575,744,49,0.0605717691277518,1
575,749,49,0.0627305756130999,1
575,750,49,0.0613597250333639,1
542,753,50,0.047661843469923,1
543,749,50,0.0431726693966785,1
543,750,50,0.0508514655754924,1
543,751,50,0.0500707222541292,1
543,752,50,0.0430417155759898,1
543,753,50,0.0414090438626336,1
543,754,50,0.042630295496657,1
543,755,50,0.0423210356717332,1
544,748,50,0.0413275427419689,1
544,749,50,0.0427189740577943,1
544,750,50,0.0460988807885909,1
544,751,50,0.0444888362604531,1
545,746,50,0.0409848287453512,1
545,747,50,0.0420549783613822,1
546,746,50,0.0471295233932979,1
546,747,50,0.045840282068923,1
547,761,50,0.04219821628358,1
555,735,50,0.0428492790703046,1
555,736,50,0.0419109780895748,1
556,735,50,0.0447263541210609,1
556,736,50,0.0433646301096996,1
557,735,50,0.045707438594415,1
557,736,50,0.0436349425203533,1
557,737,50,0.041945992104264,1
558,735,50,0.0482677492074376,1
558,736,50,0.0457615546032205,1
558,737,50,0.0442909092155589,1
558,738,50,0.0430681463991535,1
558,739,50,0.0436058110331474,1
559,734,50,0.0508789804489874,1
559,735,50,0.050066569881788,1
559,736,50,0.0466671989056423,1
559,737,50,0.045189440958326,1
559,738,50,0.0485082029250522,1
559,739,50,0.0546796771305585,1
559,740,50,0.0460835689155829,1
560,734,50,0.0506193220092949,1
560,735,50,0.0505198759357652,1
560,736,50,0.047237360719267,1
560,737,50,0.0461744507211589,1
560,738,50,0.0532630909809867,1
560,739,50,0.0613286038677445,1
560,740,50,0.0494249310338533,1
561,734,50,0.0497526007908366,1
561,735,50,0.0505786201095759,1
561,736,50,0.0476637628607838,1
561,737,50,0.0443735863010468,1
561,738,50,0.0448836603672583,1
561,739,50,0.0477869282799654,1
562,734,50,0.0515258476094922,1
562,735,50,0.0531258085771922,1
562,736,50,0.0507621300960747,1
562,737,50,0.0453144717010202,1
563,734,50,0.0540149353047413,1
565,734,50,0.0512263577543867,1
567,739,50,0.0425989337313382,1
568,739,50,0.0465347447160413,1
569,739,50,0.0507393677424858,1
569,740,50,0.044069019521946,1
569,748,50,0.0429430967328875,1
569,749,50,0.0441449462990122,1
569,750,50,0.0439755019331456,1
569,751,50,0.0468865987978709,1
569,752,50,0.0467796427696773,1
569,753,50,0.0418498927995874,1
569,755,50,0.0420265794867443,1
569,756,50,0.0446858414570605,1
570,738,50,0.0634013081010968,1
570,739,50,0.0569930297239788,1
570,740,50,0.0510319423837576,1
570,741,50,0.0449041275619164,1
570,747,50,0.0466607702979422,1
570,748,50,0.0615963399692569,1
570,749,50,0.0589569882999124,1
570,750,50,0.0504759191816851,1
570,751,50,0.0484172508319235,1
570,752,50,0.0480131406580662,1
570,753,50,0.0447185305757775,1
570,754,50,0.043921226425663,1
570,755,50,0.0453211922724005,1
571,737,50,0.0707738289726071,1
571,738,50,0.0668592934894175,1
571,739,50,0.0627187564907851,1
571,740,50,0.0581796350012807,1
571,741,50,0.0518295493110219,1
571,742,50,0.0441308590514407,1
571,747,50,0.0541843228998923,1
571,748,50,0.070532580464974,1
571,749,50,0.0642599462510004,1
571,750,50,0.0521343810201289,1
571,751,50,0.0490619661119703,1
571,752,50,0.0496153075735725,1
571,753,50,0.0483710232492192,1
571,754,50,0.0481390959524145,1
572,738,50,0.0719505237049854,1
572,739,50,0.0689936344997088,1
572,740,50,0.065648574174822,1
572,741,50,0.0590277354250217,1
572,742,50,0.0497144184295434,1
572,743,50,0.0423734782961121,1
572,746,50,0.0431156445645403,1
572,747,50,0.0537299841595646,1
572,748,50,0.0643279305346171,1
572,749,50,0.0584181477010953,1
572,750,50,0.0513269879028418,1
572,751,50,0.0515655817036786,1
572,752,50,0.0529043973796108,1
572,753,50,0.0525668549248477,1
573,739,50,0.0753609676740409,1
573,740,50,0.0723101094176064,1
573,741,50,0.0646640402046531,1
573,742,50,0.0545758029412118,1
573,743,50,0.0476843787406495,1
573,744,50,0.0455622299173756,1
573,745,50,0.0462621155195176,1
573,746,50,0.0498194929140199,1
573,747,50,0.0557783364592911,1
573,748,50,0.0605136521351801,1
573,749,50,0.057155653493871,1
573,750,50,0.0542048847124097,1
573,751,50,0.0554880650870523,1
573,752,50,0.0568508650386426,1
574,741,50,0.0696697358753811,1
574,742,50,0.0610459019242526,1
574,743,50,0.0550860256926308,1
574,744,50,0.0533775353369049,1
574,745,50,0.0548874146957821,1
574,749,50,0.0609750412577121,1
574,750,50,0.0583416207764642,1
575,742,50,0.0684621038063673,1
547,760,51,0.0443893820768211,1
548,761,51,0.0426917862917559,1
557,736,51,0.0413410055116687,1
558,736,51,0.0435739842886342,1
558,737,51,0.0427947305227136,1
558,738,51,0.043418943464326,1
558,739,51,0.0445928293979657,1
558,740,51,0.0424853463428889,1
559,735,51,0.0471021707218475,1
559,736,51,0.0449558727175036,1
559,737,51,0.0445720486126881,1
559,738,51,0.0490458702624135,1
559,739,51,0.0538763066239768,1
559,740,51,0.048415142205344,1
559,741,51,0.041657983450547,1
560,735,51,0.0489791890018882,1
560,736,51,0.0464013335343774,1
560,737,51,0.0458930680209629,1
560,738,51,0.0526502862498429,1
560,739,51,0.0586793362467416,1
560,740,51,0.0511757993770922,1
560,741,51,0.0419196856360011,1
561,735,51,0.048966126330565,1
561,736,51,0.0466745899121401,1
561,737,51,0.044467471547815,1
561,738,51,0.0463316082821489,1
561,739,51,0.0488735954708691,1
561,740,51,0.0433576932689266,1
562,735,51,0.0511185474620916,1
562,736,51,0.0498442395392874,1
562,737,51,0.046390579538822,1
562,738,51,0.0433503968802881,1
562,739,51,0.0417714491874629,1
563,735,51,0.0535903065722452,1
563,738,51,0.0441962940595902,1
565,739,51,0.0415505408162197,1
566,739,51,0.0433456957243628,1
567,739,51,0.0459110886681153,1
567,755,51,0.0414190841691929,1
567,756,51,0.0420235868590219,1
567,757,51,0.0416593108039451,1
568,738,51,0.059187093527083,1
568,739,51,0.04895954633429,1
568,740,51,0.0424210224187448,1
568,750,51,0.0425126043964799,1
568,751,51,0.0458551614031454,1
568,752,51,0.0456209686844515,1
568,753,51,0.0419112538330506,1
568,755,51,0.041314217844007,1
568,756,51,0.0428085014762981,1
569,738,51,0.0595085887929028,1
569,739,51,0.0521395174182071,1
569,740,51,0.0471780974989137,1
569,741,51,0.0432921095755696,1
569,747,51,0.0414315304727467,1
569,748,51,0.0508879448153176,1
569,749,51,0.0534200322725839,1
569,750,51,0.051016527782788,1
569,751,51,0.0513111948304349,1
569,752,51,0.0503138523054793,1
569,753,51,0.0459876209994812,1
569,754,51,0.043468436714861,1
569,755,51,0.0445145155474769,1
570,737,51,0.0669475422151367,1
570,738,51,0.063252877010105,1
570,739,51,0.057748626321698,1
570,740,51,0.0530506063025918,1
570,741,51,0.0479839064428988,1
570,742,51,0.0418735878149326,1
570,747,51,0.0515430842800959,1
570,748,51,0.0681012583245333,1
570,749,51,0.0674254218788672,1
570,750,51,0.056771813168851,1
570,751,51,0.0520498142808217,1
570,752,51,0.0506438631786393,1
570,753,51,0.0475871223947216,1
570,754,51,0.0459053737494114,1
571,738,51,0.0707902059723744,1
571,739,51,0.0646668192663502,1
571,740,51,0.0593069121774115,1
571,741,51,0.0539371269839581,1
571,742,51,0.0464027176584911,1
571,746,51,0.0438362514778769,1
571,747,51,0.0570855443634703,1
571,748,51,0.0733426281592957,1
571,749,51,0.0694603330358332,1
571,750,51,0.0571397036261543,1
571,751,51,0.0526974816380797,1
571,752,51,0.0517262860827099,1
571,753,51,0.0496251640511479,1
572,739,51,0.0706000348885784,1
572,740,51,0.0646061124478001,1
572,741,51,0.0591224343853801,1
572,742,51,0.0506723026037883,1
572,743,51,0.0441720664808653,1
572,744,51,0.0421419024370706,1
572,745,51,0.0428044572386534,1
572,746,51,0.0458473973319451,1
572,747,51,0.0551552427117863,1
572,748,51,0.0646070910668024,1
572,749,51,0.0607171832607144,1
572,750,51,0.0548474805524074,1
572,751,51,0.0547411354852484,1
572,752,51,0.0543471250920334,1
573,741,51,0.0636763703282892,1
573,742,51,0.0544813094367765,1
573,743,51,0.0490152248894582,1
573,744,51,0.047492099030274,1
573,745,51,0.04893173409038,1
573,746,51,0.0545081755020932,1
573,749,51,0.0595236627695787,1
573,750,51,0.0554881083409309,1
573,751,51,0.0567299326009414,1
574,742,51,0.059029162803014,1
574,743,51,0.0551176713115277,1
574,744,51,0.0544103244153352,1
558,739,52,0.041351164766394,1
559,736,52,0.0419092857815764,1
559,737,52,0.0419372386005917,1
559,738,52,0.0456684506296337,1
559,739,52,0.0478041919842431,1
559,740,52,0.0457384245916639,1
559,741,52,0.0430152928629284,1
560,736,52,0.043717670969822,1
560,737,52,0.0430993459624278,1
560,738,52,0.0477949086205586,1
560,739,52,0.0511791299257409,1
560,740,52,0.0485498347831601,1
560,741,52,0.0447429744238951,1
561,736,52,0.043675774181708,1
561,737,52,0.0421783870836306,1
561,738,52,0.044225860788949,1
561,739,52,0.0462627859546352,1
561,740,52,0.0440922522614642,1
562,736,52,0.0468878369401445,1
562,737,52,0.0453345901612825,1
562,738,52,0.0435438390386497,1
562,739,52,0.042457336753158,1
563,736,52,0.0519361809351264,1
563,737,52,0.0512456706111609,1
563,738,52,0.0459870749192645,1
563,739,52,0.0414446850585619,1
564,738,52,0.0496929482855763,1
564,739,52,0.0424757088380737,1
565,739,52,0.0434540520968745,1
565,755,52,0.0410983620664523,1
566,738,52,0.0534103920644012,1
566,739,52,0.045192820167588,1
566,740,52,0.0413295324203824,1
566,753,52,0.0411529268342478,1
566,754,52,0.0435606242468959,1
566,755,52,0.0438216830309065,1
566,756,52,0.0422336087697066,1
567,738,52,0.0561173008853117,1
567,739,52,0.0474252177205604,1
567,740,52,0.0428966393639534,1
567,750,52,0.0439502903286836,1
567,751,52,0.0466467127874123,1
567,752,52,0.0444806315403649,1
567,753,52,0.0428417204550273,1
567,754,52,0.0433762789198676,1
567,755,52,0.0436800346887455,1
567,756,52,0.0431008679582794,1
568,737,52,0.0609594482344935,1
568,738,52,0.056955582678621,1
568,739,52,0.0493297346538915,1
568,740,52,0.045087207712997,1
568,741,52,0.0434796043256301,1
568,742,52,0.041358147564413,1
568,748,52,0.0422682821601022,1
568,749,52,0.046937346410884,1
568,750,52,0.050616597014946,1
568,751,52,0.0519620413477666,1
568,752,52,0.0485054725239685,1
568,753,52,0.0447730574964292,1
568,754,52,0.0431038497725322,1
568,755,52,0.0430245005323255,1
569,738,52,0.0568882417964478,1
569,739,52,0.0516080516056835,1
569,740,52,0.0488409658262352,1
569,741,52,0.0471042415012833,1
569,742,52,0.044181390395061,1
569,745,52,0.0411635051109215,1
569,746,52,0.0420586711612637,1
569,747,52,0.0467407304991835,1
569,748,52,0.0555434733054796,1
569,749,52,0.059774951583771,1
569,750,52,0.0564982864543472,1
569,751,52,0.0540721331523937,1
569,752,52,0.0511847637434225,1
569,753,52,0.0482235221166164,1
569,754,52,0.0455820618206924,1
570,738,52,0.0624800058946386,1
570,739,52,0.0576653193516036,1
570,740,52,0.0545906930889039,1
570,741,52,0.0511331672730428,1
570,742,52,0.0458119075245918,1
570,745,52,0.0431048932723523,1
570,746,52,0.0450903165855181,1
570,747,52,0.0532655240116554,1
570,748,52,0.0664260572350892,1
570,749,52,0.069023831113674,1
570,750,52,0.0594758726405117,1
570,751,52,0.0539248266622444,1
570,752,52,0.0521254004335942,1
570,753,52,0.0501360680511541,1
571,739,52,0.0656877675955264,1
571,740,52,0.0606659220078935,1
571,741,52,0.0562248895014791,1
571,742,52,0.0489598274845006,1
571,743,52,0.0429942228173379,1
571,744,52,0.042759548899245,1
571,745,52,0.0458416824132412,1
571,746,52,0.0476389729816378,1
571,747,52,0.0556606480624814,1
571,748,52,0.0671440013315274,1
571,749,52,0.0684452077600572,1
571,750,52,0.0596832155140935,1
571,751,52,0.0558660931721417,1
571,752,52,0.0542543293023314,1
572,741,52,0.0583474492365993,1
572,742,52,0.0516768631197275,1
572,743,52,0.0461374956886697,1
572,744,52,0.0450941661807093,1
572,745,52,0.0467572588875258,1
572,746,52,0.0478442775161927,1
572,747,52,0.0537068919951518,1
572,748,52,0.0601504060630865,1
572,749,52,0.0607633027087222,1
572,750,52,0.0577995523569601,1
572,751,52,0.0580980419661241,1
573,743,52,0.0506335363151346,1
573,744,52,0.0491320211750228,1
573,745,52,0.0505581934654289,1
563,737,53,0.050725515687879,1
564,737,53,0.0561175550018482,1
564,738,53,0.0511665863009603,1
565,738,53,0.0516171132932404,1
566,738,53,0.0523959534439473,1
567,738,53,0.053360217565279,1
567,750,53,0.0499030972545293,1
567,751,53,0.0521206911675667,1
568,749,53,0.0524996978716583,1
568,750,53,0.0573642669501353,1
568,751,53,0.0575761082270867,1
568,752,53,0.0510685676054229,1
569,748,53,0.0564055447319933,1
569,749,53,0.0604768863384095,1
569,750,53,0.0586550870410774,1
569,751,53,0.0551915164956884,1
569,752,53,0.0509681645398302,1
570,748,53,0.0610229449282102,1
570,749,53,0.0647189942573556,1
570,750,53,0.0591457752595946,1
570,751,53,0.0543018977552708,1
571,748,53,0.0594472926402574,1
571,749,53,0.0632186145315557,1
571,750,53,0.0590966172266184,1
571,751,53,0.0560680563445784,1
572,748,53,0.0570370081049983,1
567,750,54,0.0547769605101605,1
568,749,54,0.0566150232658287,1
568,750,54,0.0622785888024186,1
568,751,54,0.0614442809592015,1
569,749,54,0.0593337566157889,1
569,750,54,0.0592979424043464,1
568,750,55,0.0623762236197839,1
