x,y,z,signal,cytoplasm.p
498,97,56,0.045166624537389,1
489,120,57,0.0599509299886666,1
489,121,57,0.0583313047264292,1
490,119,57,0.0681887230737037,1
490,120,57,0.12737332950277,1
490,121,57,0.122726716718325,1
490,122,57,0.0626812067174658,1
491,103,57,0.04329942488778,1
491,119,57,0.0762519002510196,1
491,120,57,0.147257764655128,1
491,121,57,0.143284463371188,1
491,122,57,0.0729911038882901,1
492,102,57,0.0496636005289776,1
492,103,57,0.0558744682043767,1
492,104,57,0.0450410909683566,1
492,119,57,0.0547565122390742,1
492,120,57,0.0919476676513845,1
492,121,57,0.0902276393235543,1
492,122,57,0.052769456091993,1
493,101,57,0.0426740008375681,1
493,102,57,0.0574445623689353,1
493,103,57,0.0679108547511401,1
493,104,57,0.0593697708764196,1
493,105,57,0.0451409263267933,1
493,120,57,0.0449975964901035,1
493,121,57,0.0437579565509599,1
494,102,57,0.0507055323959872,1
494,103,57,0.0616022170900054,1
494,104,57,0.060741237823925,1
494,105,57,0.0508249671681435,1
495,103,57,0.0427642635720074,1
495,104,57,0.0439692436375924,1
495,105,57,0.04124504407873,1
495,117,57,0.0523868485025118,1
495,118,57,0.059000512515207,1
496,116,57,0.0447532120762753,1
496,117,57,0.0839197586052943,1
496,118,57,0.0970692512762273,1
496,119,57,0.0574274933071111,1
497,97,57,0.0474004494683536,1
497,117,57,0.0744949331109046,1
497,118,57,0.0874653060640121,1
497,119,57,0.0523018924782976,1
498,96,57,0.0501476600906065,1
498,97,57,0.0504258149701155,1
498,98,57,0.0422625185807849,1
498,117,57,0.0464170184720879,1
498,118,57,0.0522428509340718,1
499,97,57,0.043721334032662,1
489,120,58,0.0442004761689728,1
489,121,58,0.0433232685883327,1
490,119,58,0.0529435205127626,1
490,120,58,0.0849791596325047,1
490,121,58,0.0827942494314494,1
490,122,58,0.0469412230397494,1
491,119,58,0.0618981276866606,1
491,120,58,0.107952997653823,1
491,121,58,0.107787324485493,1
491,122,58,0.0595287288801043,1
492,103,58,0.0474614698775232,1
492,119,58,0.0488504276121688,1
492,120,58,0.0792519838607668,1
492,121,58,0.0805320553628884,1
492,122,58,0.0492859563220604,1
493,102,58,0.0411294697152346,1
493,103,58,0.0519289034700597,1
493,104,58,0.0483909686939673,1
493,120,58,0.0438856474071852,1
493,121,58,0.0448995913114031,1
494,103,58,0.0488074873242346,1
494,104,58,0.0506255505678066,1
494,105,58,0.0469433316663289,1
495,118,58,0.0430705956500266,1
496,95,58,0.0426877447574785,1
496,96,58,0.0442128278546673,1
496,97,58,0.0427661451157245,1
496,117,58,0.0519568616958098,1
496,118,58,0.0587495535118386,1
496,119,58,0.0417183631616405,1
497,97,58,0.0544936908595125,1
497,98,58,0.0440791787766713,1
497,117,58,0.0542056416552844,1
497,118,58,0.0628472745774377,1
497,119,58,0.0440358005432168,1
498,96,58,0.0552654752212804,1
498,97,58,0.0570638201029667,1
498,98,58,0.0468437990850421,1
498,117,58,0.0414621082615168,1
498,118,58,0.0469488627560489,1
499,97,58,0.0480379143170079,1
488,90,59,0.0467264242788519,1
489,90,59,0.0460457704324618,1
489,91,59,0.0413365800992192,1
490,90,59,0.0457309578908786,1
490,91,59,0.0427157921943532,1
490,120,59,0.0470989753415694,1
490,121,59,0.0462170611982691,1
491,91,59,0.0436795615994488,1
491,119,59,0.0418814140635834,1
491,120,59,0.0616524564699454,1
491,121,59,0.0627567982769731,1
491,122,59,0.041749524877771,1
492,91,59,0.0440421453465272,1
492,120,59,0.0557789149799168,1
492,121,59,0.0583834472770256,1
492,122,59,0.0410234625690018,1
496,95,59,0.0422259528332026,1
496,96,59,0.0471595253648097,1
496,97,59,0.0497798723612647,1
496,98,59,0.0426988880379409,1
497,95,59,0.045191533364701,1
497,96,59,0.0548109688721733,1
497,97,59,0.0584454408984626,1
497,98,59,0.0480533235112426,1
498,96,59,0.0552101426971406,1
498,97,59,0.0595561788727814,1
498,98,59,0.050284374787245,1
498,99,59,0.0411945235485793,1
499,97,59,0.0527770417409444,1
499,99,59,0.0445292894503704,1
499,100,59,0.0410683979420843,1
500,100,59,0.0435360668573471,1
487,90,60,0.045942290934757,1
488,89,60,0.0544977783510358,1
488,90,60,0.0487286787575098,1
488,91,60,0.0410465276997406,1
489,89,60,0.0514486826901525,1
489,90,60,0.047642135921507,1
489,91,60,0.0423343443494906,1
490,89,60,0.0486783636832823,1
490,90,60,0.0455962112457143,1
490,91,60,0.0424700533934528,1
491,90,60,0.0446728085227788,1
491,91,60,0.0433098328523069,1
492,90,60,0.0449591113516603,1
492,91,60,0.0440986511321227,1
492,92,60,0.0410764026129841,1
493,91,60,0.0431750645802034,1
493,92,60,0.0410851425998194,1
496,96,60,0.0476001364054314,1
496,97,60,0.0553811955666159,1
496,98,60,0.047677814964579,1
497,95,60,0.0429345757188124,1
497,96,60,0.0523760296261386,1
497,97,60,0.0604308588048936,1
497,98,60,0.051800866582806,1
498,95,60,0.0429774024653154,1
498,96,60,0.0523136413130597,1
498,97,60,0.0610566288861339,1
498,98,60,0.0545681524114427,1
498,99,60,0.0442322218124638,1
499,97,60,0.0586079727538629,1
499,98,60,0.0552900704579729,1
499,99,60,0.0466880472751051,1
499,100,60,0.0419347271722682,1
500,99,60,0.0458593191822214,1
500,100,60,0.0436721949232577,1
478,118,61,0.0510156194513384,1
478,119,61,0.0735406336018448,1
478,120,61,0.0540212125238664,1
479,118,61,0.0516503322719697,1
479,119,61,0.0744490407457592,1
479,120,61,0.0562246678253516,1
480,119,61,0.0413741704230497,1
481,93,61,0.0449257301708866,1
487,89,61,0.0494071645032374,1
487,90,61,0.0436744522350447,1
488,89,61,0.0501212806314236,1
488,90,61,0.0472127060084914,1
488,91,61,0.0410729558195369,1
489,89,61,0.0492409831018343,1
489,90,61,0.0478121074440185,1
489,91,61,0.0425399597712977,1
490,89,61,0.0478842008460978,1
490,90,61,0.0468879288546364,1
490,91,61,0.0430123813362282,1
491,89,61,0.0467246184294223,1
491,90,61,0.0457396248867938,1
491,91,61,0.0438569484587648,1
492,89,61,0.0464989899786819,1
492,90,61,0.0446169380285245,1
492,91,61,0.0442874624221117,1
493,90,61,0.0432479392554641,1
493,91,61,0.0429757507078281,1
493,92,61,0.0411338599839078,1
496,96,61,0.0457891776114118,1
496,97,61,0.0550358187530997,1
496,98,61,0.0483642702374301,1
497,95,61,0.0418511363485958,1
497,96,61,0.0500514526512335,1
497,97,61,0.0603884970375851,1
497,98,61,0.0543892327428054,1
497,99,61,0.042741233585045,1
498,95,61,0.0418391928713802,1
498,96,61,0.0496029585912454,1
498,97,61,0.0610165974215325,1
498,98,61,0.0578603889371458,1
498,99,61,0.0477798130169433,1
499,96,61,0.0487299871873361,1
499,97,61,0.060938199766654,1
499,98,61,0.0584378606562461,1
499,99,61,0.0481115702654499,1
499,100,61,0.0411831667020916,1
500,98,61,0.049052823323391,1
500,99,61,0.0442388072154736,1
500,100,61,0.041762295585414,1
477,119,62,0.045993427832677,1
478,95,62,0.0634790082871836,1
478,96,62,0.0424171322730424,1
478,118,62,0.0569232071505236,1
478,119,62,0.0962808736452993,1
478,120,62,0.0718982676129577,1
479,93,62,0.0526724863030105,1
479,94,62,0.0716450972550483,1
479,95,62,0.0812708532355242,1
479,96,62,0.0527507109423748,1
479,118,62,0.0585124735967512,1
479,119,62,0.101469738678232,1
479,120,62,0.0785379217999288,1
479,121,62,0.0443565010190181,1
480,92,62,0.0765909133376535,1
480,93,62,0.0696433185690544,1
480,94,62,0.0616792630611791,1
480,95,62,0.0583941472052328,1
480,119,62,0.0520401686659042,1
480,120,62,0.0430460409638452,1
481,92,62,0.0574574141776006,1
481,93,62,0.0510494764247763,1
486,89,62,0.0427283709629101,1
487,88,62,0.0523251360312854,1
487,89,62,0.0448683566043525,1
488,88,62,0.0481995702813673,1
488,89,62,0.0457453343987629,1
488,90,62,0.0430952746911089,1
489,88,62,0.0449559835555674,1
489,89,62,0.045937235637701,1
489,90,62,0.045377817006162,1
490,88,62,0.0441702119708223,1
490,89,62,0.0472462764249839,1
490,90,62,0.0485888822220244,1
490,91,62,0.0429180608473071,1
491,89,62,0.0463724399435035,1
491,90,62,0.0482218244018832,1
491,91,62,0.0442245307321835,1
492,89,62,0.0438421610390343,1
492,90,62,0.0442482419677331,1
492,91,62,0.043317231968907,1
493,91,62,0.0412520566137905,1
496,97,62,0.0469607791995904,1
496,98,62,0.0429947067201042,1
497,96,62,0.0456900235015624,1
497,97,62,0.0562065336367679,1
497,98,62,0.0536403945636103,1
497,99,62,0.0430647807067286,1
498,96,62,0.0457731953032862,1
498,97,62,0.0585054394347514,1
498,98,62,0.0589992094921156,1
498,99,62,0.0499466917573765,1
499,96,62,0.0449699167111965,1
499,97,62,0.0563130138722974,1
499,98,62,0.0554145551204504,1
499,99,62,0.0471848613241725,1
500,97,62,0.0481913844848511,1
500,98,62,0.0455591697054679,1
500,99,62,0.041681129682308,1
501,99,62,0.0429655617160613,1
477,119,63,0.0448636959989384,1
478,94,63,0.0669719536228454,1
478,95,63,0.0883428029049651,1
478,96,63,0.0524806499448902,1
478,118,63,0.0523842911169423,1
478,119,63,0.0903036309814383,1
478,120,63,0.0764442664691522,1
479,92,63,0.0469344375875513,1
479,93,63,0.0573401366926372,1
479,94,63,0.0918879664855108,1
479,95,63,0.115594973968518,1
479,96,63,0.0687143333924181,1
479,118,63,0.054815672731466,1
479,119,63,0.101402305881567,1
479,120,63,0.0903787089011378,1
479,121,63,0.0499118237245275,1
480,91,63,0.0483992896588541,1
480,92,63,0.0693337289333066,1
480,93,63,0.070346448212088,1
480,94,63,0.0697427754560538,1
480,95,63,0.0754990773082627,1
480,96,63,0.0449385225054688,1
480,119,63,0.0531057387775433,1
480,120,63,0.0505516350960932,1
481,92,63,0.0546869383754207,1
481,93,63,0.052588438610246,1
486,87,63,0.0585355603544292,1
486,88,63,0.048087434601217,1
487,87,63,0.0567234012652798,1
487,88,63,0.0481559811852549,1
487,89,63,0.0412779954240857,1
488,87,63,0.0500687704228594,1
488,88,63,0.0457705297830204,1
488,89,63,0.0424291190041365,1
489,87,63,0.0449233214705246,1
489,88,63,0.0433471582461313,1
489,89,63,0.0434444118886919,1
489,90,63,0.0425220067083305,1
490,87,63,0.0432226032961013,1
490,88,63,0.0429998350080803,1
490,89,63,0.0468197174881573,1
490,90,63,0.0494205407651801,1
490,91,63,0.042054370103715,1
491,88,63,0.0428421692140173,1
491,89,63,0.0471646401359487,1
491,90,63,0.0511717875798564,1
491,91,63,0.0445328957424948,1
492,88,63,0.0447801592426142,1
492,89,63,0.0438393170965194,1
492,90,63,0.0457922270098499,1
492,91,63,0.0427411957379012,1
493,89,63,0.0423713723729,1
497,97,63,0.0469902729380292,1
497,98,63,0.0473434462631547,1
498,96,63,0.0419714253848535,1
498,97,63,0.0517604620535021,1
498,98,63,0.0544002246346929,1
498,99,63,0.0459158465947562,1
499,96,63,0.0418694976200418,1
499,97,63,0.0487698077892796,1
499,98,63,0.0492394313689411,1
499,99,63,0.0427554614077217,1
500,96,63,0.0431263471961149,1
500,97,63,0.0450349543243368,1
500,98,63,0.042589909890925,1
477,95,64,0.041751484819143,1
478,94,64,0.0660955921962044,1
478,95,64,0.0898535365279437,1
478,96,64,0.0503273961762014,1
478,118,64,0.0444812506115017,1
478,119,64,0.0717210835061975,1
478,120,64,0.0718619289482378,1
479,93,64,0.0516777119770941,1
479,94,64,0.0901760807003184,1
479,95,64,0.118923976290992,1
479,96,64,0.0682762797373659,1
479,118,64,0.0452885842547058,1
479,119,64,0.0843427761308143,1
479,120,64,0.0898599381019696,1
479,121,64,0.0509357944184676,1
480,92,64,0.0519760069438047,1
480,93,64,0.0570213393874922,1
480,94,64,0.0636865403964841,1
480,95,64,0.0751566525719578,1
480,96,64,0.0434614620269442,1
480,119,64,0.046027641650613,1
480,120,64,0.0524179912950704,1
481,92,64,0.0448975556757437,1
481,93,64,0.0454940996519187,1
484,85,64,0.0498277598115584,1
484,86,64,0.0428026432791215,1
485,85,64,0.0514714828908851,1
485,86,64,0.0472566627625716,1
485,87,64,0.0428403065938721,1
486,85,64,0.0532163065045961,1
486,86,64,0.0516614106716142,1
486,87,64,0.0488954657132128,1
486,88,64,0.0413293026341526,1
487,85,64,0.0532265414536089,1
487,86,64,0.0515955890819252,1
487,87,64,0.0492110297909358,1
487,88,64,0.0423549737461933,1
488,86,64,0.0479559428104138,1
488,87,64,0.0453289347166616,1
488,88,64,0.041189584496322,1
489,86,64,0.0445187030635944,1
489,87,64,0.0414192328544004,1
490,89,64,0.043145078828896,1
490,90,64,0.0451900221823191,1
491,89,64,0.0453171318145512,1
491,90,64,0.0496896231436625,1
491,91,64,0.0420738884164124,1
492,87,64,0.048538383318813,1
492,88,64,0.0420758375443147,1
492,89,64,0.0432108355377673,1
492,90,64,0.0462729830565042,1
492,91,64,0.0413205112833365,1
493,88,64,0.0469281982155699,1
493,89,64,0.0412533623402494,1
493,90,64,0.0410731693855622,1
494,89,64,0.041303915310809,1
498,97,64,0.0437381381644801,1
498,98,64,0.0471052904078382,1
499,97,64,0.0418061550182674,1
499,98,64,0.0435693182764852,1
500,97,64,0.0409918953477599,1
478,94,65,0.0529527606225686,1
478,95,65,0.0680813561336638,1
478,96,65,0.0414398271073268,1
478,119,65,0.0496702562195401,1
478,120,65,0.0527101117706174,1
479,93,65,0.0420572437832714,1
479,94,65,0.0694719629224293,1
479,95,65,0.0887336882054545,1
479,96,65,0.0549421038184784,1
479,119,65,0.0558850491844178,1
479,120,65,0.0655452676926314,1
479,121,65,0.0431194725327923,1
480,93,65,0.0416778342774357,1
480,94,65,0.0515275236972862,1
480,95,65,0.0609849463959008,1
480,120,65,0.0426958332327681,1
483,85,65,0.0423635785646581,1
484,84,65,0.0512425833655791,1
484,85,65,0.0465097926348507,1
485,84,65,0.0518322580851664,1
485,85,65,0.0495026258132054,1
485,86,65,0.0443306027592341,1
485,129,65,0.0441919713751022,1
486,84,65,0.0509147405930816,1
486,85,65,0.0497037293148058,1
486,86,65,0.047016657803947,1
486,87,65,0.0426208958881738,1
487,84,65,0.0489325018467243,1
487,85,65,0.0474231901950032,1
487,86,65,0.0464860841026684,1
487,87,65,0.0438050951684812,1
488,85,65,0.0461538024008844,1
488,86,65,0.0442921608746695,1
488,87,65,0.0422825262029834,1
489,85,65,0.0445471614123153,1
489,86,65,0.0414678934677733,1
491,90,65,0.0419802275491392,1
492,87,65,0.0431053636582816,1
492,89,65,0.0411827639003476,1
492,90,65,0.0439668403439652,1
493,87,65,0.050475113578197,1
493,88,65,0.0416221800525742,1
493,90,65,0.0412551654863116,1
494,88,65,0.0458505494583447,1
503,102,65,0.0515399483739007,1
503,103,65,0.0435398029111071,1
478,95,66,0.0452239737736163,1
479,94,66,0.0467259538929226,1
479,95,66,0.0553815902582577,1
479,120,66,0.0412077051680686,1
480,95,66,0.0459461675636223,1
482,84,66,0.0419423128212195,1
483,84,66,0.046332321971145,1
484,84,66,0.0501637991940418,1
484,85,66,0.0444734811335665,1
485,84,66,0.0510411554598895,1
485,85,66,0.0485884875303826,1
485,86,66,0.0422797525480211,1
486,84,66,0.0488302388643539,1
486,85,66,0.048145540780319,1
486,86,66,0.0440088479701431,1
487,84,66,0.0456753604367327,1
487,85,66,0.0449593438412576,1
487,86,66,0.0436142914967114,1
488,84,66,0.0452184291670592,1
488,85,66,0.0431069451282162,1
488,86,66,0.0427265678168479,1
489,84,66,0.0461808036345715,1
489,85,66,0.0417023970737194,1
490,85,66,0.0411773841992025,1
491,127,66,0.0444464880099816,1
492,127,66,0.0552266818989525,1
492,128,66,0.0664725605612693,1
493,87,66,0.0425910371951348,1
493,127,66,0.0467403466210113,1
503,102,66,0.0544538648508342,1
503,103,66,0.0433146232193568,1
504,101,66,0.0582113184673213,1
504,102,66,0.0884065699354228,1
504,103,66,0.0686094048897818,1
482,83,67,0.0456575073983597,1
482,84,67,0.0411995896591049,1
482,127,67,0.0450703387003611,1
482,128,67,0.0680777714684787,1
483,83,67,0.0500642125454068,1
483,84,67,0.0455246368901776,1
483,128,67,0.0449515635498527,1
484,83,67,0.0538937325302991,1
484,84,67,0.0505487478996998,1
484,85,67,0.0439712549429451,1
485,83,67,0.0531247001965543,1
485,84,67,0.0511493928842352,1
485,85,67,0.0474244445574812,1
486,83,67,0.0518742467877723,1
486,84,67,0.049027254874431,1
486,85,67,0.0473518915829423,1
486,86,67,0.0422813205011187,1
487,83,67,0.0503172747686199,1
487,84,67,0.0455442417106321,1
487,85,67,0.0443659033308687,1
487,86,67,0.0418314990877324,1
488,84,67,0.0440383092681729,1
488,85,67,0.0422153961834681,1
488,86,67,0.0417425772235283,1
489,84,67,0.0443345983362655,1
491,85,67,0.0422878653536173,1
491,127,67,0.0509820598483156,1
491,128,67,0.0650572882482586,1
492,127,67,0.0740397346997407,1
492,128,67,0.0967790826319501,1
493,127,67,0.0560707921523969,1
503,102,67,0.0513080264838308,1
503,103,67,0.041474003078119,1
504,101,67,0.0564180396961605,1
504,102,67,0.0824038885842374,1
504,103,67,0.0660810372660711,1
505,101,67,0.0467007152547865,1
505,102,67,0.0690656522075006,1
505,103,67,0.0564934636468885,1
481,128,68,0.0631860659879441,1
482,83,68,0.0419323455055803,1
482,127,68,0.0447299306761438,1
482,128,68,0.0702557394220261,1
482,129,68,0.0568713727838118,1
483,83,68,0.0455672095201441,1
483,84,68,0.0412321436094514,1
483,128,68,0.0431311862237781,1
484,83,68,0.0496973169273102,1
484,84,68,0.0460933767325449,1
485,83,68,0.0494647354155923,1
485,84,68,0.0466751684327658,1
485,85,68,0.0417300254886456,1
486,83,68,0.0479251676758229,1
486,84,68,0.0452160961609847,1
486,85,68,0.0421377500647294,1
486,129,68,0.0555980651069491,1
487,83,68,0.0457956656931949,1
487,84,68,0.042404418336115,1
487,128,68,0.0417522823125288,1
487,129,68,0.0573973345402896,1
491,127,68,0.0443941751472384,1
491,128,68,0.0630103471063199,1
492,127,68,0.0713994584787421,1
492,128,68,0.100614555431878,1
492,129,68,0.0641047134876061,1
493,127,68,0.0500521230863511,1
493,128,68,0.0718714664284589,1
503,102,68,0.041193517895903,1
504,101,68,0.0448236726444392,1
504,102,68,0.0606134280195338,1
504,103,68,0.0530425394542416,1
505,102,68,0.0540809136897401,1
505,103,68,0.0499582783900941,1
481,128,69,0.053283658200239,1
482,128,69,0.0576514997374057,1
482,129,69,0.0501434914980609,1
483,83,69,0.041649759806887,1
484,83,69,0.0455125366176522,1
484,84,69,0.0421990516241096,1
485,83,69,0.046542887258679,1
485,84,69,0.0434314735722695,1
486,83,69,0.0452033849274247,1
486,84,69,0.0425774906210452,1
486,129,69,0.0419208832277636,1
486,130,69,0.0495517568125075,1
487,83,69,0.0430925226630859,1
487,129,69,0.0450019083611218,1
487,130,69,0.0501495254141191,1
488,83,69,0.0424220280714211,1
490,84,69,0.0410921037708991,1
491,128,69,0.0516712347087807,1
492,85,69,0.0420425401679306,1
492,127,69,0.0544696579232411,1
492,128,69,0.0770740970082417,1
492,129,69,0.0534807931584821,1
493,128,69,0.0549760689266126,1
482,128,70,0.0439911192866709,1
492,128,70,0.0482925769337274,1
