x,y,z,signal,cytoplasm.p
667,769,15,0.0410608528436441,1
667,770,15,0.041268922923059,1
667,784,15,0.0582231538098405,1
668,777,15,0.0585693848874582,1
668,784,15,0.0410605122193505,1
668,785,15,0.0594512990307584,1
668,786,15,0.0422003140966899,1
669,760,15,0.0618048885447034,1
669,777,15,0.0463921583053892,1
670,759,15,0.0871065800222273,1
670,760,15,0.0868006183055431,1
670,761,15,0.0558781826311974,1
671,759,15,0.084487828012544,1
671,760,15,0.0812267937534825,1
675,763,15,0.0990812270640902,1
676,776,15,0.0447550665863183,1
676,801,15,0.0419327374938547,1
677,775,15,0.050170492731748,1
677,776,15,0.0740505914232576,1
677,777,15,0.0545255094939236,1
678,776,15,0.0565065317249465,1
678,777,15,0.0420771946347543,1
681,778,15,0.0427269760253267,1
684,779,15,0.0509501114522689,1
684,780,15,0.0458813948804882,1
685,779,15,0.0495702316253847,1
685,780,15,0.0451856886843615,1
666,769,16,0.0524483014504669,1
666,770,16,0.0556325979222394,1
667,769,16,0.0542764590679464,1
667,770,16,0.0553733341741887,1
667,784,16,0.0536309003372678,1
667,785,16,0.0798888431551213,1
667,786,16,0.0527849950478634,1
668,760,16,0.0554427999031459,1
668,776,16,0.0444009470825994,1
668,777,16,0.0441099728348341,1
668,785,16,0.0517649550501369,1
669,758,16,0.0485147396674486,1
669,759,16,0.0619180839448783,1
669,760,16,0.0611797240177628,1
669,761,16,0.0486159321163249,1
670,758,16,0.0715620768418994,1
670,759,16,0.0899250189689884,1
670,760,16,0.0827668643195901,1
670,761,16,0.0587596478857461,1
670,762,16,0.0414360505030556,1
671,758,16,0.0756543803592096,1
671,759,16,0.0929968769834607,1
671,760,16,0.0833174483464345,1
671,761,16,0.0580656718447615,1
672,758,16,0.054216779529012,1
672,759,16,0.063049010667012,1
672,760,16,0.058064968969235,1
672,761,16,0.0473510373188409,1
674,763,16,0.0714874260542506,1
674,792,16,0.0417500114839048,1
675,762,16,0.0748141034807521,1
675,763,16,0.108650390751213,1
675,764,16,0.0694037407424805,1
675,803,16,0.0452571413883647,1
676,763,16,0.0782963272612674,1
676,800,16,0.0411927176991497,1
676,801,16,0.0437509521260017,1
677,776,16,0.0464196515519448,1
681,774,16,0.0413740406614141,1
681,775,16,0.0415378917601102,1
681,799,16,0.0531753342681362,1
682,774,16,0.043601009852628,1
682,775,16,0.0430052147092254,1
682,800,16,0.0445801641216517,1
684,779,16,0.0422900226408102,1
685,779,16,0.0425521168145387,1
685,780,16,0.0413933454080861,1
687,788,16,0.0578142262352594,1
687,789,16,0.0885809371333423,1
665,770,17,0.0460171255513896,1
666,769,17,0.0620140048273059,1
666,770,17,0.0683471187769672,1
666,771,17,0.0429973857572072,1
666,785,17,0.0441134142215465,1
667,769,17,0.0642356375712532,1
667,770,17,0.0672447504281485,1
667,784,17,0.046155429828065,1
667,785,17,0.0608924371631442,1
667,786,17,0.0414999229648423,1
668,759,17,0.0449239567618659,1
668,760,17,0.045679718264997,1
668,769,17,0.0412963512887969,1
668,770,17,0.0413970246911305,1
668,785,17,0.0416901940732324,1
669,758,17,0.0529968092911407,1
669,759,17,0.0642516685399921,1
669,760,17,0.058860461863185,1
669,761,17,0.0490783268915332,1
670,757,17,0.0563206427751273,1
670,758,17,0.0797180552156522,1
670,759,17,0.0913492502415945,1
670,760,17,0.0781260313346668,1
670,761,17,0.0605358684085523,1
670,762,17,0.0459399119714365,1
671,757,17,0.0700984412859309,1
671,758,17,0.0900221131128718,1
671,759,17,0.0965287291828815,1
671,760,17,0.0819598929276189,1
671,761,17,0.0650561960878251,1
671,762,17,0.0513793845699747,1
672,757,17,0.0666961344527783,1
672,758,17,0.0702357453166647,1
672,759,17,0.0676234867954992,1
672,760,17,0.060641624141616,1
672,761,17,0.0561500494781117,1
672,762,17,0.051899436765295,1
673,757,17,0.0535884845026111,1
673,758,17,0.0472799711963772,1
673,759,17,0.042561840827111,1
673,760,17,0.0432376853828794,1
673,761,17,0.0462650081226459,1
674,763,17,0.069507171579572,1
674,792,17,0.0439645505917693,1
675,762,17,0.0768377524090896,1
675,763,17,0.104127581380659,1
675,764,17,0.067971685924591,1
675,802,17,0.0575127467017404,1
675,803,17,0.0450756616307906,1
676,762,17,0.0563795275240433,1
676,763,17,0.0786377463448959,1
676,764,17,0.0532375928195793,1
676,800,17,0.0415368671838619,1
676,801,17,0.0432757947532526,1
676,802,17,0.0410336704843405,1
677,763,17,0.0415078735683939,1
680,799,17,0.0454261207750368,1
681,767,17,0.0548884527888674,1
681,774,17,0.0409851288191336,1
681,800,17,0.0537842028963316,1
681,801,17,0.0494620158279783,1
682,774,17,0.0434558255058952,1
682,775,17,0.0429800977226227,1
687,788,17,0.0447746497798334,1
687,789,17,0.0628766655879149,1
687,790,17,0.0465837297335033,1
688,788,17,0.0540287765458785,1
688,789,17,0.0762060186993438,1
665,770,18,0.0459881184190846,1
666,769,18,0.0617790713859416,1
666,770,18,0.070094878247685,1
666,771,18,0.0425585778626477,1
666,777,18,0.0478625144327379,1
667,769,18,0.0628746380623577,1
667,770,18,0.0677088483248249,1
667,777,18,0.0490059955931218,1
667,785,18,0.0445789746399915,1
668,759,18,0.043802321513519,1
668,760,18,0.0459648316122183,1
668,761,18,0.0427563372987624,1
669,758,18,0.0554938557000437,1
669,759,18,0.0649457635291428,1
669,760,18,0.0607945049753639,1
669,761,18,0.0536972517869691,1
669,762,18,0.0437560479735688,1
670,757,18,0.0612315097238612,1
670,758,18,0.0834388727970043,1
670,759,18,0.0903265285033976,1
670,760,18,0.0771175779696577,1
670,761,18,0.0657505019396337,1
670,762,18,0.0554576630171639,1
670,763,18,0.0412160396497924,1
671,756,18,0.0563225621659881,1
671,757,18,0.0841298372866946,1
671,758,18,0.0979991555977829,1
671,759,18,0.0961606494898594,1
671,760,18,0.0818116510723458,1
671,761,18,0.0731584693646187,1
671,762,18,0.0668557142309672,1
671,763,18,0.0525676172744572,1
672,756,18,0.0769512722133537,1
672,757,18,0.0944568900271003,1
672,758,18,0.0847930435998231,1
672,759,18,0.0720025581208854,1
672,760,18,0.0661107094267589,1
672,761,18,0.0673375191841765,1
672,762,18,0.0679630027084714,1
672,763,18,0.0580862336572789,1
673,756,18,0.0804533765577992,1
673,757,18,0.0873006007012146,1
673,758,18,0.0658940723760229,1
673,759,18,0.0512662053900042,1
673,760,18,0.0520159464939141,1
673,761,18,0.0565370581497358,1
673,762,18,0.0605306563161865,1
674,757,18,0.0638946185860013,1
674,758,18,0.0487336908006872,1
674,759,18,0.0413775955895577,1
674,760,18,0.0442523997468091,1
674,761,18,0.0501949203596612,1
674,763,18,0.0683783264503436,1
675,763,18,0.091678888050052,1
675,764,18,0.0618205140083309,1
675,798,18,0.0418514202021738,1
675,799,18,0.047399930421811,1
675,800,18,0.0556055588414085,1
675,801,18,0.0573170607484288,1
675,802,18,0.0515457389868921,1
675,803,18,0.044962844702053,1
676,762,18,0.0570422742647122,1
676,763,18,0.0730489883912645,1
676,764,18,0.0528931351509824,1
676,802,18,0.0413399971556249,1
677,763,18,0.0434305544273502,1
680,767,18,0.0458165302828622,1
681,766,18,0.0516027313786214,1
681,767,18,0.0602535449364977,1
681,768,18,0.0505065861815796,1
682,767,18,0.063197522859026,1
685,779,18,0.0447076765556279,1
685,780,18,0.0428469595810672,1
686,778,18,0.0417990397552453,1
686,779,18,0.0520025648252366,1
686,780,18,0.0492460492123598,1
687,779,18,0.0473129360585699,1
687,780,18,0.0412126874742045,1
687,787,18,0.0415276324807907,1
687,788,18,0.0449261167524261,1
687,789,18,0.0476874389525572,1
688,786,18,0.0451254062944947,1
688,787,18,0.053422778893872,1
688,788,18,0.0564424240701952,1
688,789,18,0.0577704154630194,1
689,787,18,0.0487089009215412,1
665,770,19,0.0448261300054145,1
665,777,19,0.0413906501507787,1
666,769,19,0.0586238361138224,1
666,770,19,0.0665346623174027,1
666,776,19,0.0459575919942953,1
666,777,19,0.0561553588917041,1
666,778,19,0.0414757602669353,1
667,760,19,0.0418312557846656,1
667,761,19,0.0412602991810224,1
667,769,19,0.055930919922624,1
667,770,19,0.0610615922686979,1
667,776,19,0.0443323193975392,1
667,777,19,0.056182846731525,1
667,778,19,0.0418857178244995,1
668,759,19,0.0428053358330615,1
668,760,19,0.0473822179585432,1
668,761,19,0.0472338463416345,1
669,757,19,0.0423359150059556,1
669,758,19,0.0558617515640819,1
669,759,19,0.0611640120463782,1
669,760,19,0.059831922348561,1
669,761,19,0.0574493797696593,1
669,762,19,0.047042912908229,1
670,757,19,0.0655971399064868,1
670,758,19,0.0819676624055541,1
670,759,19,0.0807396685732111,1
670,760,19,0.0707218756577293,1
670,761,19,0.0691591724996685,1
670,762,19,0.0622849687495053,1
670,763,19,0.0437583188021928,1
671,756,19,0.0708031551022664,1
671,757,19,0.0979290951279956,1
671,758,19,0.101273420136947,1
671,759,19,0.0881990918934705,1
671,760,19,0.0770347630124319,1
671,761,19,0.0824904017480795,1
671,762,19,0.0814914588296175,1
671,763,19,0.0597461012467757,1
672,755,19,0.0575723559531221,1
672,756,19,0.101951175973474,1
672,757,19,0.120749030442685,1
672,758,19,0.0993545483226708,1
672,759,19,0.0756293309567922,1
672,760,19,0.0698535053851511,1
672,761,19,0.0814785042929907,1
672,762,19,0.0847471944885562,1
672,763,19,0.0658233306576484,1
673,755,19,0.0641510546117415,1
673,756,19,0.109744173205139,1
673,757,19,0.119797726264715,1
673,758,19,0.0892047337563736,1
673,759,19,0.0648992980501065,1
673,760,19,0.0606649271686868,1
673,761,19,0.068959177378706,1
673,762,19,0.0727997487295687,1
673,763,19,0.0607617077219506,1
673,797,19,0.0413948295567939,1
674,756,19,0.0823632137181925,1
674,757,19,0.0874961298592164,1
674,758,19,0.0686129192674143,1
674,759,19,0.0556594207336775,1
674,760,19,0.0523081156300745,1
674,761,19,0.0575508966226247,1
674,762,19,0.0668174832090606,1
674,763,19,0.0650306222321302,1
674,764,19,0.0412959484870529,1
674,798,19,0.0444493670962728,1
674,801,19,0.0587599776965701,1
675,758,19,0.0487870606800877,1
675,759,19,0.0447377569247946,1
675,762,19,0.06936667216856,1
675,763,19,0.0778654050894417,1
675,764,19,0.0532945798045738,1
675,800,19,0.0460512690817729,1
675,801,19,0.0472684602579471,1
675,802,19,0.0469121564333613,1
676,762,19,0.0536509106628337,1
676,763,19,0.0631560261692886,1
676,764,19,0.0472649621005191,1
677,763,19,0.043138306893535,1
680,766,19,0.0459883346884774,1
680,767,19,0.0525398590978954,1
681,766,19,0.0643577865242887,1
681,767,19,0.0791777007310857,1
681,768,19,0.0572667997415494,1
682,766,19,0.0661312658325416,1
682,767,19,0.08271662493965,1
682,768,19,0.0603309801925784,1
683,767,19,0.0560346697570698,1
684,779,19,0.0410238140067651,1
685,778,19,0.043517256826911,1
685,779,19,0.0518242561176339,1
685,780,19,0.0459182850321597,1
686,778,19,0.0503667517989504,1
686,779,19,0.0609166160812557,1
686,780,19,0.0537160293769962,1
687,778,19,0.0513675276005162,1
687,779,19,0.0556939211085588,1
687,780,19,0.0453259447923066,1
687,786,19,0.0415258942155464,1
687,787,19,0.0539840844758629,1
687,788,19,0.0467124694962835,1
688,786,19,0.0577406946417182,1
688,787,19,0.0755745066657255,1
688,788,19,0.0626576766075326,1
688,789,19,0.0465960841225652,1
689,787,19,0.0616346088383072,1
689,788,19,0.0509312527612195,1
663,783,20,0.0434613863326568,1
663,784,20,0.0440220485132042,1
666,769,20,0.0520104965052164,1
666,770,20,0.0582346863752099,1
666,776,20,0.0454815289934641,1
666,777,20,0.0540461646050571,1
667,760,20,0.0411066289639909,1
667,761,20,0.0442634267824729,1
667,769,20,0.0465637788820205,1
667,770,20,0.051225000663947,1
667,776,20,0.0426305604266632,1
667,777,20,0.0531435156337251,1
668,758,20,0.0437220747553323,1
668,759,20,0.0472640051084561,1
668,760,20,0.0489025431290911,1
668,761,20,0.049929482120447,1
668,762,20,0.0410528292491724,1
669,757,20,0.047070876540714,1
669,758,20,0.0598083489847493,1
669,759,20,0.0637733779644154,1
669,760,20,0.0650857871474906,1
669,761,20,0.063952973474905,1
669,762,20,0.0501958881651938,1
670,756,20,0.0587377668299328,1
670,757,20,0.0793669634834321,1
670,758,20,0.08375091709036,1
670,759,20,0.0790805362996497,1
670,760,20,0.0808608172803051,1
670,761,20,0.0850307777298236,1
670,762,20,0.0712136452232103,1
670,763,20,0.0441526157523532,1
671,755,20,0.0560208933967504,1
671,756,20,0.102447871074375,1
671,757,20,0.122940639588182,1
671,758,20,0.106774956644475,1
671,759,20,0.0883270368662323,1
671,760,20,0.093304476940795,1
671,761,20,0.10776737363401,1
671,762,20,0.0972455973390906,1
671,763,20,0.0605964292452622,1
672,755,20,0.0752473397350804,1
672,756,20,0.133705102582196,1
672,757,20,0.15047287951537,1
672,758,20,0.118108889390057,1
672,759,20,0.0895779282205346,1
672,760,20,0.091047219221124,1
672,761,20,0.106388861711035,1
672,762,20,0.100721381698436,1
672,763,20,0.0668611858466043,1
672,807,20,0.0435953949585182,1
673,755,20,0.078650511645804,1
673,756,20,0.131229304641133,1
673,757,20,0.146410745578351,1
673,758,20,0.119528687140112,1
673,759,20,0.090721214738465,1
673,760,20,0.079449594611674,1
673,761,20,0.0833501050247425,1
673,762,20,0.081484116483733,1
673,763,20,0.0608675715897107,1
674,756,20,0.0981590651867958,1
674,757,20,0.112419706743894,1
674,758,20,0.101824982782794,1
674,759,20,0.0830733775232258,1
674,760,20,0.0658654220882159,1
674,761,20,0.0631946572895718,1
674,762,20,0.0677491068722887,1
674,763,20,0.0603118944186666,1
674,800,20,0.0471722960724527,1
674,801,20,0.0479723144034464,1
675,757,20,0.073772155393538,1
675,758,20,0.0710559848358822,1
675,759,20,0.0606083727224778,1
675,760,20,0.049254986545016,1
675,761,20,0.0508786236044893,1
675,762,20,0.0636383285421012,1
675,763,20,0.0659392023915588,1
675,764,20,0.0465243043111054,1
675,801,20,0.0414719512222551,1
675,802,20,0.0456632277237984,1
676,762,20,0.0520085771143556,1
676,763,20,0.0563147494341744,1
676,764,20,0.0422710314847577,1
677,762,20,0.0418999861976874,1
677,763,20,0.0448903079477185,1
680,766,20,0.049796611612265,1
680,767,20,0.0598381833474817,1
681,766,20,0.0839546536718174,1
681,767,20,0.10715550426799,1
681,768,20,0.0657649811754795,1
682,766,20,0.0880814683774787,1
682,767,20,0.11259118674542,1
682,768,20,0.0689674496829794,1
683,767,20,0.0698311377232041,1
684,779,20,0.0420366252000384,1
685,777,20,0.0411553923053253,1
685,778,20,0.0626109407917553,1
685,779,20,0.0719050963190344,1
685,780,20,0.052085541984507,1
686,777,20,0.0474986357726704,1
686,778,20,0.0805510816627172,1
686,779,20,0.0928162271596813,1
686,780,20,0.0648948807477592,1
687,778,20,0.074408793011765,1
687,779,20,0.0797133026957461,1
687,780,20,0.0542103563280468,1
687,787,20,0.0574575655661755,1
687,788,20,0.0438664399817399,1
688,779,20,0.0463377287059642,1
688,786,20,0.062100728853806,1
688,787,20,0.0892396828902449,1
688,788,20,0.0659811802806952,1
688,789,20,0.0427457049547404,1
689,786,20,0.0506497565195922,1
689,787,20,0.0716240326161927,1
689,788,20,0.0548929511922369,1
690,787,20,0.0440975535649544,1
660,778,21,0.0475971789214853,1
660,779,21,0.0545940128240829,1
660,780,21,0.0445848896078837,1
661,778,21,0.0490852312918973,1
661,779,21,0.05600027211015,1
661,780,21,0.0454655737190126,1
662,779,21,0.042540278768652,1
662,782,21,0.0469085933951154,1
662,783,21,0.0623188797902914,1
662,784,21,0.0603914815552053,1
662,785,21,0.0469296147800925,1
663,782,21,0.0526476693901904,1
663,783,21,0.0694838685525012,1
663,784,21,0.0627292185226603,1
663,785,21,0.0418081879505594,1
664,782,21,0.0460676028276618,1
664,783,21,0.0575388612309171,1
664,784,21,0.0506643492968693,1
666,769,21,0.0442806256059328,1
666,770,21,0.0488509412519766,1
666,776,21,0.0413470286142573,1
666,777,21,0.0466388946488637,1
667,759,21,0.0414677177488917,1
667,761,21,0.0432726020763419,1
667,770,21,0.0414830566555738,1
667,777,21,0.0472841668225969,1
668,758,21,0.0505065861815796,1
668,759,21,0.0531400607301756,1
668,760,21,0.0502576709239729,1
668,761,21,0.0485198274049135,1
668,762,21,0.0413980492673788,1
669,757,21,0.0493303726486002,1
669,758,21,0.0650925077188709,1
669,759,21,0.0725144137062198,1
669,760,21,0.074928553243405,1
669,761,21,0.069005469842228,1
669,762,21,0.0509820003742326,1
670,756,21,0.0673380977048021,1
670,757,21,0.0829923035346118,1
670,758,21,0.0845973306128374,1
670,759,21,0.0888590595724423,1
670,760,21,0.10197343009399,1
670,761,21,0.101063163033298,1
670,762,21,0.0735077714676136,1
670,800,21,0.0411733832154362,1
671,755,21,0.0651559881923832,1
671,756,21,0.120590202200636,1
671,757,21,0.134413709247601,1
671,758,21,0.109616812159738,1
671,759,21,0.0966483477840216,1
671,760,21,0.114219446563164,1
671,761,21,0.124379317656225,1
671,762,21,0.0968532305932607,1
671,763,21,0.0527923806476265,1
672,755,21,0.0830336218021002,1
672,756,21,0.151210790683495,1
672,757,21,0.170492591172904,1
672,758,21,0.13597423349153,1
672,759,21,0.101632870681198,1
672,760,21,0.101890058243078,1
672,761,21,0.112562585118226,1
672,762,21,0.0971879723593875,1
672,763,21,0.0592603710040878,1
672,807,21,0.0409914817325462,1
673,755,21,0.0874699396357522,1
673,756,21,0.151422194014926,1
673,757,21,0.185115051424104,1
673,758,21,0.166980095084136,1
673,759,21,0.118767494571855,1
673,760,21,0.0869182580417395,1
673,761,21,0.0835487917158788,1
673,762,21,0.0803312978923164,1
673,763,21,0.0590115314407685,1
673,800,21,0.0421464305774817,1
673,807,21,0.0418830631177032,1
674,755,21,0.0770185319945047,1
674,756,21,0.124258477133015,1
674,757,21,0.162306329677429,1
674,758,21,0.161753761378906,1
674,759,21,0.118657921684008,1
674,760,21,0.0754916430478863,1
674,761,21,0.064058480498167,1
674,762,21,0.067943246499442,1
674,763,21,0.0582811302273069,1
674,764,21,0.0420198643220988,1
674,801,21,0.0423642300762038,1
675,756,21,0.0883472959015998,1
675,757,21,0.112268458744061,1
675,758,21,0.112879830690478,1
675,759,21,0.085479233942668,1
675,760,21,0.057459793140921,1
675,761,21,0.0513713826024423,1
675,762,21,0.059442967252402,1
675,763,21,0.0563875727454543,1
675,764,21,0.0412859757646788,1
675,802,21,0.043875812556549,1
676,758,21,0.0614727744516987,1
676,761,21,0.0415648470365513,1
676,762,21,0.0499859284319595,1
676,763,21,0.0500891754400671,1
677,762,21,0.0439623338304934,1
677,763,21,0.0450273389383439,1
680,766,21,0.0484283778921814,1
680,767,21,0.0590767853233015,1
681,765,21,0.0446573155241544,1
681,766,21,0.0939043757959254,1
681,767,21,0.120524358984008,1
681,768,21,0.0667160528638523,1
682,766,21,0.102107517117506,1
682,767,21,0.130371028742462,1
682,768,21,0.0719059235494617,1
683,767,21,0.0788157739022879,1
683,768,21,0.0478524849396483,1
685,777,21,0.050129671883863,1
685,778,21,0.0839123567853268,1
685,779,21,0.0912166879172972,1
685,780,21,0.0550827438045956,1
686,777,21,0.0689749163837647,1
686,778,21,0.128212454746711,1
686,779,21,0.138789920410268,1
686,780,21,0.0796879505161788,1
687,778,21,0.110703154946552,1
687,779,21,0.115512423941299,1
687,780,21,0.0663905458007967,1
687,787,21,0.0525000168690126,1
688,779,21,0.0599880742568746,1
688,786,21,0.0598202059542078,1
688,787,21,0.0885104008708909,1
688,788,21,0.0654329373700275,1
688,789,21,0.0416703378396089,1
689,786,21,0.0517262266086269,1
689,787,21,0.0766973989799178,1
689,788,21,0.059390781447927,1
689,789,21,0.0423047316628858,1
690,787,21,0.0504815205589578,1
690,788,21,0.0456675693318582,1
659,778,22,0.0430121839904073,1
659,779,22,0.0494313217944096,1
660,778,22,0.0629087491523321,1
660,779,22,0.0777422072298512,1
660,780,22,0.0555940695299177,1
661,778,22,0.0632070387123078,1
661,779,22,0.0783380240001931,1
661,780,22,0.0556423462651184,1
661,783,22,0.0455958652146859,1
661,784,22,0.046764579606471,1
662,778,22,0.0439867587550392,1
662,779,22,0.0509975285166333,1
662,782,22,0.0560397899349436,1
662,783,22,0.0917348585689004,1
662,784,22,0.0798654265866193,1
662,785,22,0.0475035450878863,1
663,782,22,0.072672549886212,1
663,783,22,0.119371924270763,1
663,784,22,0.098568171183626,1
663,785,22,0.0468838954304613,1
664,782,22,0.0538800318642672,1
664,783,22,0.0845162241838145,1
664,784,22,0.0682967604488611,1
667,758,22,0.044404158683082,1
667,759,22,0.0436075411882896,1
668,758,22,0.0582022027124161,1
668,759,22,0.0611504032948382,1
668,760,22,0.0527717701744957,1
668,761,22,0.0460971668536532,1
669,757,22,0.0478183143755909,1
669,758,22,0.0704641528291021,1
669,759,22,0.0840664811680831,1
669,760,22,0.0849340728708473,1
669,761,22,0.0712945732299842,1
669,762,22,0.0488639498559516,1
670,757,22,0.0714578241811154,1
670,758,22,0.0829064013318042,1
670,759,22,0.102586218604929,1
670,760,22,0.122729960759216,1
670,761,22,0.112045322798073,1
670,762,22,0.0720536301379877,1
671,756,22,0.107318755219121,1
671,757,22,0.123827463046698,1
671,758,22,0.108903880106477,1
671,759,22,0.109146847955783,1
671,760,22,0.13372920580602,1
671,761,22,0.134403230995522,1
671,762,22,0.0917921375175751,1
671,763,22,0.0442792468885539,1
672,755,22,0.0734869717587641,1
672,756,22,0.148604603925532,1
672,757,22,0.188185536127932,1
672,758,22,0.16389279543502,1
672,759,22,0.120780075914017,1
672,760,22,0.112545370074562,1
672,761,22,0.114974605215362,1
672,762,22,0.0901620610369322,1
672,763,22,0.0512209780532415,1
673,755,22,0.0841402885051001,1
673,756,22,0.172526929215979,1
673,757,22,0.250128701915636,1
673,758,22,0.243098973438399,1
673,759,22,0.160532790895093,1
673,760,22,0.0989179544860198,1
673,761,22,0.0856823811900301,1
673,762,22,0.0776260219053212,1
673,763,22,0.0551663265181657,1
674,755,22,0.081620668978327,1
674,756,22,0.15943744048807,1
674,757,22,0.24501948890006,1
674,758,22,0.254954234368719,1
674,759,22,0.170886104146516,1
674,760,22,0.0918815973518937,1
674,761,22,0.0676134086417962,1
674,762,22,0.0661881663097789,1
674,763,22,0.0534402048001943,1
674,806,22,0.0460535939777452,1
675,756,22,0.115219952027988,1
675,757,22,0.16811519580555,1
675,758,22,0.175916616730064,1
675,759,22,0.124198202853251,1
675,760,22,0.0716801328966768,1
675,761,22,0.0531884023461942,1
675,762,22,0.0530553209753542,1
675,763,22,0.0456326904855395,1
675,805,22,0.0445344772124294,1
676,757,22,0.0872606233039614,1
676,758,22,0.0879321235483025,1
676,759,22,0.0679082649251617,1
676,761,22,0.0435887392679558,1
676,762,22,0.0470942768890115,1
676,763,22,0.0439803409608088,1
677,762,22,0.0444029151340736,1
677,763,22,0.0438833927987656,1
680,766,22,0.044039861001066,1
680,767,22,0.0519399872764391,1
681,765,22,0.0451886461683076,1
681,766,22,0.0899564699454318,1
681,767,22,0.111997808412481,1
681,768,22,0.0605819554161512,1
682,766,22,0.10432072076187,1
682,767,22,0.128677693464434,1
682,768,22,0.0690098709243709,1
683,767,22,0.0780299915040732,1
683,768,22,0.0459885942117487,1
685,777,22,0.0579546121048401,1
685,778,22,0.0945013333873142,1
685,779,22,0.0965348279797575,1
685,780,22,0.0492809713125571,1
686,776,22,0.0492601878239121,1
686,777,22,0.0930895051643833,1
686,778,22,0.168435652978285,1
686,779,22,0.172912072564091,1
686,780,22,0.0858010265789028,1
687,777,22,0.0827729198625876,1
687,778,22,0.141583515410535,1
687,779,22,0.142928516391101,1
687,780,22,0.0716177229566587,1
687,787,22,0.0448692757492718,1
688,778,22,0.0725526555415961,1
688,779,22,0.0710499184794151,1
688,780,22,0.0442220084903903,1
688,786,22,0.0529434231915359,1
688,787,22,0.0776265301383942,1
688,788,22,0.0617803041214804,1
689,786,22,0.0529512305166148,1
689,787,22,0.0786351889593264,1
689,788,22,0.064627198713595,1
689,789,22,0.0452079049577336,1
690,787,22,0.0565123980322254,1
690,788,22,0.0508322121928012,1
659,778,23,0.0455080814681612,1
659,779,23,0.0542210995101325,1
660,778,23,0.0715040517638196,1
660,779,23,0.0931920384834948,1
660,780,23,0.0617911229978537,1
661,778,23,0.0718162474457503,1
661,779,23,0.0944221679760913,1
661,780,23,0.0627868380956286,1
661,783,23,0.0428649640080151,1
661,784,23,0.0441074587031432,1
662,778,23,0.0468527634513723,1
662,779,23,0.0577907393792048,1
662,780,23,0.04152032798205,1
662,782,23,0.0536440549230829,1
662,783,23,0.104034672049525,1
662,784,23,0.086087248306762,1
662,785,23,0.0467527118235429,1
663,782,23,0.0797154491694693,1
663,783,23,0.152368437489105,1
663,784,23,0.123044816554678,1
663,785,23,0.0533529401002123,1
664,782,23,0.0503356252265963,1
664,783,23,0.096352210104504,1
664,784,23,0.0749345709392588,1
667,758,23,0.0476021909646627,1
667,759,23,0.0468835223657588,1
668,757,23,0.0422755271847599,1
668,758,23,0.0616530187703666,1
668,759,23,0.0656813876484397,1
668,760,23,0.0571940467178222,1
668,761,23,0.0478297171793246,1
669,757,23,0.0478331720828741,1
669,758,23,0.0720450442430948,1
669,759,23,0.089428567171154,1
669,760,23,0.0909628417175354,1
669,761,23,0.0740845078707785,1
669,762,23,0.0486337473075542,1
670,757,23,0.0584208456617701,1
670,758,23,0.0780070345080308,1
670,759,23,0.107215108112637,1
670,760,23,0.127471526620556,1
670,761,23,0.111811200366931,1
670,762,23,0.0684430829132733,1
671,756,23,0.0776255677395964,1
671,757,23,0.0972193314213389,1
671,758,23,0.0990424283350276,1
671,759,23,0.112591024543375,1
671,760,23,0.135518489000149,1
671,761,23,0.129535688212894,1
671,762,23,0.0838706384194618,1
671,763,23,0.0414780527224986,1
672,755,23,0.0603167983271476,1
672,756,23,0.126719612009249,1
672,757,23,0.182691255458531,1
672,758,23,0.173778988425003,1
672,759,23,0.130867550827849,1
672,760,23,0.114762250298603,1
672,761,23,0.110333647875538,1
672,762,23,0.08185683515523,1
672,763,23,0.0473433435351931,1
673,755,23,0.0774713838827571,1
673,756,23,0.181538928879983,1
673,757,23,0.29529861915453,1
673,758,23,0.295159125396195,1
673,759,23,0.188360606201378,1
673,760,23,0.107768811825472,1
673,761,23,0.0874341308310446,1
673,762,23,0.0740483097811639,1
673,763,23,0.052035778397231,1
674,755,23,0.0825090279495317,1
674,756,23,0.188855538706728,1
674,757,23,0.316390659342228,1
674,758,23,0.328899334988919,2
674,759,23,0.209389387591691,1
674,760,23,0.104718494242519,1
674,761,23,0.0718184750204958,1
674,762,23,0.0639890472096188,1
674,763,23,0.0492883515055853,1
674,802,23,0.0545399454758908,1
674,806,23,0.0429589546861122,1
675,755,23,0.0722273647479333,1
675,756,23,0.138393639188429,1
675,757,23,0.219076634367265,1
675,758,23,0.230183192286761,1
675,759,23,0.154665640165621,1
675,760,23,0.0814320334072196,1
675,761,23,0.0545264124186384,1
675,762,23,0.0483779222428486,1
675,803,23,0.0420005244316505,1
675,804,23,0.045168057322116,1
676,756,23,0.0797648775391865,1
676,757,23,0.109299252996867,1
676,758,23,0.113858947112358,1
676,759,23,0.0844249152461877,1
676,760,23,0.053741754621266,1
676,761,23,0.0438145272173733,1
676,762,23,0.0435618353554954,1
677,762,23,0.0439117511228923,1
677,763,23,0.0418968178510833,1
680,767,23,0.0432677576419439,1
681,765,23,0.0455735840604959,1
681,766,23,0.0768347084173864,1
681,767,23,0.0886398651361368,1
681,768,23,0.0509511333251497,1
682,765,23,0.0533284151510724,1
682,766,23,0.0955624375359926,1
682,767,23,0.109837850292617,1
682,768,23,0.0626252416053521,1
683,767,23,0.0717500419778891,1
683,768,23,0.0452742726276394,1
685,775,23,0.0427396088612318,1
685,776,23,0.061203940783018,1
685,777,23,0.0835740790146282,1
685,778,23,0.104647406493117,1
685,779,23,0.0941381089421598,1
685,780,23,0.0441821770749772,1
686,775,23,0.0522338487205979,1
686,776,23,0.0839412449694658,1
686,777,23,0.135974471387862,1
686,778,23,0.193735960331695,1
686,779,23,0.179945758771216,1
686,780,23,0.082091892951495,1
687,776,23,0.0755560967336661,1
687,777,23,0.1188705144971,1
687,778,23,0.166799218177494,1
687,779,23,0.155188309220594,1
687,780,23,0.0718882381198681,1
688,778,23,0.0852530107510975,1
688,779,23,0.0799060203516419,1
688,780,23,0.0475536655196603,1
688,786,23,0.0449874723791545,1
688,787,23,0.0611841413201101,1
689,787,23,0.0727173987515373,1
689,788,23,0.0647701095283364,1
659,779,24,0.0479650099047056,1
660,776,24,0.0439113537278831,1
660,777,24,0.0460051928876436,1
660,778,24,0.0656158688359006,1
660,779,24,0.0838467244313564,1
660,780,24,0.0553579628270977,1
661,776,24,0.0417739498023168,1
661,777,24,0.0473843265851227,1
661,778,24,0.0685244002049542,1
661,779,24,0.0871929472042293,1
661,780,24,0.0577376019894016,1
662,778,24,0.0459955310525217,1
662,779,24,0.0539228261703613,1
662,782,24,0.0420013543654453,1
662,783,24,0.0909228751337518,1
662,784,24,0.0749014222480823,1
663,782,24,0.0702036941926564,1
663,783,24,0.145653380978346,1
663,784,24,0.119060323329663,1
663,785,24,0.050531873480329,1
664,783,24,0.0846491757930188,1
664,784,24,0.0659478910144133,1
667,758,24,0.0486475074476691,1
667,759,24,0.0521515636233843,1
667,760,24,0.0497047511876866,1
667,761,24,0.0455530709085918,1
668,757,24,0.0439008889926405,1
668,758,24,0.063357070196806,1
668,759,24,0.0755500898512819,1
668,760,24,0.076522534362395,1
668,761,24,0.0652563047502188,1
668,762,24,0.0463570145290643,1
669,757,24,0.0478856714779686,1
669,758,24,0.0735551344646299,1
669,759,24,0.0989859387696365,1
669,760,24,0.109049851133126,1
669,761,24,0.0920930763776122,1
669,762,24,0.0576880222311094,1
670,757,24,0.052452935022207,1
670,758,24,0.0787233079234098,1
670,759,24,0.113636611363123,1
670,760,24,0.134952187595186,1
670,761,24,0.11870392218385,1
670,762,24,0.0722532900413914,1
670,803,24,0.0446339476162658,1
670,804,24,0.0457432906530012,1
671,757,24,0.0763093197747995,1
671,758,24,0.0959257052350256,1
671,759,24,0.122338815935456,1
671,760,24,0.144609567567619,1
671,761,24,0.133154740231479,1
671,762,24,0.0840142521097296,1
671,763,24,0.0412114925858094,1
671,802,24,0.0446041213636356,1
671,805,24,0.0534862161135058,1
672,756,24,0.095208253151456,1
672,757,24,0.155549414225699,1
672,758,24,0.168328956473362,1
672,759,24,0.150127854139617,1
672,760,24,0.142385215236058,1
672,761,24,0.127506270298505,1
672,762,24,0.0848166926579223,1
672,763,24,0.0451760701031181,1
672,802,24,0.0616311593414926,1
672,806,24,0.0420573113674567,1
673,755,24,0.0682620383978521,1
673,756,24,0.16190316027543,1
673,757,24,0.281714889983327,1
673,758,24,0.294504888856131,2
673,759,24,0.210257622695898,1
673,760,24,0.142775440914899,1
673,761,24,0.1112579940737,1
673,762,24,0.0775355510115914,1
673,763,24,0.0469240350297591,1
673,802,24,0.066018838188711,1
673,806,24,0.0437142214730074,1
674,755,24,0.0791328302388211,1
674,756,24,0.185569519926067,1
674,757,24,0.324846727718651,2
674,758,24,0.343992840791037,2
674,759,24,0.233202464398381,2
674,760,24,0.132152947963767,1
674,761,24,0.089263905062235,1
674,762,24,0.0649925750392075,1
674,763,24,0.0437775289310055,1
674,802,24,0.0471693494019762,1
674,803,24,0.0764789831134263,1
674,805,24,0.0597360879738906,1
675,755,24,0.0724719870580935,1
675,756,24,0.141649218052058,1
675,757,24,0.235741899608267,1
675,758,24,0.25257010220978,2
675,759,24,0.17403387271785,1
675,760,24,0.0936815101866777,1
675,761,24,0.059757158019481,1
675,762,24,0.0468303795692208,1
676,756,24,0.0841339355916875,1
676,757,24,0.123346631305756,1
676,758,24,0.132287564847296,1
676,759,24,0.0964905251946489,1
676,760,24,0.0577401864086452,1
676,761,24,0.0442431488235334,1
676,762,24,0.0419537399552599,1
677,757,24,0.0616035201130968,1
677,758,24,0.0644252842017717,1
677,762,24,0.0431668111995019,1
681,765,24,0.0413009740470673,1
681,766,24,0.056458071160762,1
681,767,24,0.0597876736308006,1
682,765,24,0.0495084164261967,1
682,766,24,0.0736321479953947,1
682,767,24,0.0784659851931593,1
682,768,24,0.0504098164417854,1
683,766,24,0.0555679928478847,1
683,767,24,0.0585364092117958,1
683,768,24,0.0421724315652272,1
684,777,24,0.0444433683239909,1
684,798,24,0.0428741608639426,1
685,775,24,0.0487907426664995,1
685,776,24,0.0818499469750703,1
685,777,24,0.10517694210131,1
685,778,24,0.101689879293131,1
685,779,24,0.0769629669807677,1
686,775,24,0.0635633533503633,1
686,776,24,0.117354195717053,1
686,777,24,0.166914089665463,1
686,778,24,0.182964403701598,1
686,779,24,0.145170948843897,1
686,780,24,0.0635506258965988,1
687,775,24,0.0544100919257379,1
687,776,24,0.0999014179226944,1
687,777,24,0.145086009039888,1
687,778,24,0.164773055117466,1
687,779,24,0.134408583662993,1
687,780,24,0.061087490528482,1
688,777,24,0.075621112719867,1
688,778,24,0.08554003267571,1
688,779,24,0.0748729774161984,1
688,780,24,0.0452065749009681,1
659,775,25,0.0429631394988623,1
659,776,25,0.0437989287874199,1
660,775,25,0.0576567875240589,1
660,776,25,0.0596783494527563,1
660,777,25,0.0495415597106385,1
660,778,25,0.0515989628844524,1
660,779,25,0.0591908187673735,1
660,780,25,0.043191555121402,1
661,775,25,0.048856731864968,1
661,776,25,0.054856942338341,1
661,777,25,0.0523946125737122,1
661,778,25,0.057480160310985,1
661,779,25,0.0637465118990987,1
661,780,25,0.0460164010489239,1
662,777,25,0.0421865323296357,1
662,778,25,0.044322979263139,1
662,779,25,0.0442676115952229,1
662,783,25,0.065232671912324,1
662,784,25,0.0581991370937736,1
663,782,25,0.0529928083073745,1
663,783,25,0.104179302205939,1
663,784,25,0.0897925053053045,1
663,785,25,0.0437107287223142,1
664,783,25,0.0617539895431153,1
664,784,25,0.0514645244231728,1
665,763,25,0.0416830815135778,1
665,764,25,0.0426777774418393,1
666,761,25,0.041700150575402,1
667,758,25,0.0479676808317063,1
667,759,25,0.0624440673282953,1
667,760,25,0.0713320797494251,1
667,761,25,0.0644400662147674,1
667,762,25,0.0470427236725104,1
668,757,25,0.0442893007119502,1
668,758,25,0.0649359611189156,1
668,759,25,0.0926854382444047,1
668,760,25,0.109320241941435,1
668,761,25,0.0978930430202211,1
668,762,25,0.065191732116273,1
669,757,25,0.0491050415682749,1
669,758,25,0.0751012389467957,1
669,759,25,0.110889708924754,1
669,760,25,0.133038344044291,1
669,761,25,0.120757519016351,1
669,762,25,0.0786745986494236,1
669,763,25,0.042844272433862,1
670,757,25,0.0546206842469461,1
670,758,25,0.0808709927552349,1
670,759,25,0.11672385694489,1
670,760,25,0.138919206253265,1
670,761,25,0.125547129123295,1
670,762,25,0.0804579939093348,1
670,763,25,0.0416506438080299,1
670,803,25,0.0413811045604554,1
670,804,25,0.0414816103540096,1
671,756,25,0.0494575282380783,1
671,757,25,0.0724406928769599,1
671,758,25,0.09917573678873,1
671,759,25,0.132516075087695,1
671,760,25,0.154031873523583,1
671,761,25,0.136308780615203,1
671,762,25,0.0855939107881834,1
671,763,25,0.042053756439313,1
671,803,25,0.0548850141055223,1
671,804,25,0.0575951669673244,1
671,805,25,0.0437029862780531,1
672,755,25,0.0458359134271891,1
672,756,25,0.0777932684334838,1
672,757,25,0.126795436058354,1
672,758,25,0.155578870116994,1
672,759,25,0.171543552287062,1
672,760,25,0.18028147374961,1
672,761,25,0.150597688581936,1
672,762,25,0.0901635803294163,1
672,763,25,0.0420692440312027,1
672,802,25,0.0457570724200554,1
672,803,25,0.073553366462344,1
672,805,25,0.0571183686505577,1
673,755,25,0.063899592782035,1
673,756,25,0.130352970248166,1
673,757,25,0.223239041608241,1
673,758,25,0.249700683160409,1
673,759,25,0.219352983397345,1
673,760,25,0.187708921640149,1
673,761,25,0.143749604767685,1
673,762,25,0.0842844482755847,1
673,802,25,0.0496702994734186,1
673,803,25,0.0815510788944689,1
673,805,25,0.0622359512916343,1
674,755,25,0.076461016533622,1
674,756,25,0.159840545009251,1
674,757,25,0.273481579081455,1
674,758,25,0.299228277275009,2
674,759,25,0.230580717057608,1
674,760,25,0.159056773916389,1
674,761,25,0.108880393250423,1
674,762,25,0.0661121259912816,1
674,803,25,0.0601588243492,1
674,804,25,0.0653291010278246,1
674,805,25,0.048010604899436,1
675,755,25,0.071783331244171,1
675,756,25,0.132181809114232,1
675,757,25,0.21675671259104,1
675,758,25,0.235253779588789,1
675,759,25,0.170519559966182,1
675,760,25,0.099901071891666,1
675,761,25,0.0637706908172102,1
675,762,25,0.0450611553612707,1
676,755,25,0.0553020463755975,1
676,756,25,0.0873336520711644,1
676,757,25,0.128592331935108,1
676,758,25,0.136892145675257,1
676,759,25,0.0982801327928675,1
676,760,25,0.0584560975727913,1
676,761,25,0.0434980223677917,1
677,756,25,0.0541423774511649,1
677,757,25,0.0695724957496576,1
677,758,25,0.0710820182640367,1
677,759,25,0.0552250923189157,1
677,760,25,0.0410611718409984,1
682,766,25,0.0476933322935101,1
682,767,25,0.0477181221726562,1
683,766,25,0.0423890064385128,1
683,767,25,0.0431307753119318,1
684,777,25,0.0419793868018748,1
685,775,25,0.0517573639944507,1
685,776,25,0.0904999765563978,1
685,777,25,0.106491762688114,1
685,778,25,0.0824570584144495,1
685,779,25,0.0501983536362714,1
686,775,25,0.0695709332032949,1
686,776,25,0.134826589145335,1
686,777,25,0.169654266125716,1
686,778,25,0.143017251722953,1
686,779,25,0.0890660618217305,1
687,775,25,0.0578958679310294,1
687,776,25,0.113374990278691,1
687,777,25,0.149611489337443,1
687,778,25,0.135716916168014,1
687,779,25,0.0913094999272037,1
687,780,25,0.0452515589346639,1
688,777,25,0.0755970203095126,1
688,778,25,0.074753575084451,1
688,779,25,0.0597367475955385,1
688,780,25,0.0409910491937607,1
659,775,26,0.0459825332620163,1
659,776,26,0.0446236018291892,1
660,774,26,0.0420855939972959,1
660,775,26,0.0663933410826982,1
660,776,26,0.0660428008374297,1
660,777,26,0.0472248062810168,1
661,775,26,0.0548282596101251,1
661,776,26,0.0592828035468526,1
661,777,26,0.0500227050421998,1
661,778,26,0.0423985033682228,1
662,783,26,0.0435249154667825,1
662,784,26,0.0436804807443681,1
663,783,26,0.0614022814431259,1
663,784,26,0.0570932002999743,1
664,764,26,0.0430697035387815,1
664,783,26,0.0415800669950674,1
665,762,26,0.0418876074783188,1
665,763,26,0.0550095420218783,1
665,764,26,0.0602743013914686,1
665,765,26,0.0438026107738318,1
666,759,26,0.0439468840857475,1
666,760,26,0.0567360043641433,1
666,761,26,0.053925794467777,1
666,762,26,0.045920280117308,1
666,763,26,0.0510959364970777,1
666,764,26,0.0543720339193455,1
667,758,26,0.0507166486427755,1
667,759,26,0.0877546582913317,1
667,760,26,0.112545359261092,1
667,761,26,0.0968106255228853,1
667,762,26,0.0614177663316481,1
667,763,26,0.0426634387810988,1
668,757,26,0.0432866298498303,1
668,758,26,0.0708851860829435,1
668,759,26,0.128340983646833,1
668,760,26,0.164057938743338,1
668,761,26,0.14405091128569,1
668,762,26,0.0902273041059955,1
668,763,26,0.0480776051573157,1
669,757,26,0.0494581175721736,1
669,758,26,0.0770291346014852,1
669,759,26,0.131469428547923,1
669,760,26,0.167142243061364,1
669,761,26,0.155766267545828,1
669,762,26,0.105739296589856,1
669,763,26,0.056127011381047,1
670,756,26,0.0461224595591374,1
670,757,26,0.0575322379807636,1
670,758,26,0.0815725274114967,1
670,759,26,0.122820307298045,1
670,760,26,0.14867941150849,1
670,761,26,0.137162860887654,1
670,762,26,0.095230172054413,1
670,763,26,0.0515592990778187,1
671,755,26,0.0427742200741769,1
671,756,26,0.0563921468431113,1
671,757,26,0.0756698922814059,1
671,758,26,0.110054054804567,1
671,759,26,0.156304226846869,1
671,760,26,0.178584786295995,1
671,761,26,0.148017475778044,1
671,762,26,0.0906928996682168,1
671,763,26,0.0444518406774526,1
671,803,26,0.0435421305104468,1
671,804,26,0.0436071140562389,1
672,755,26,0.0495589856169608,1
672,756,26,0.0723577643783029,1
672,757,26,0.107446137891462,1
672,758,26,0.1553247860209,1
672,759,26,0.209155600378108,1
672,760,26,0.232034890827643,1
672,761,26,0.179554538253168,1
672,762,26,0.0955094299078251,1
672,803,26,0.0470849286445091,1
672,804,26,0.0500022513643787,1
673,755,26,0.0599806075560892,1
673,756,26,0.101154958577058,1
673,757,26,0.158541836492207,1
673,758,26,0.203539149128733,1
673,759,26,0.233050448642205,1
673,760,26,0.239527392551526,1
673,761,26,0.180644427858024,1
673,762,26,0.0921860397760937,1
673,803,26,0.0494606425173342,1
673,804,26,0.0536747327364471,1
674,755,26,0.0701742112676873,1
674,756,26,0.126501028533978,1
674,757,26,0.199126064034599,1
674,758,26,0.231099006657377,1
674,759,26,0.212819074129968,1
674,760,26,0.180763116500775,1
674,761,26,0.127971519829697,1
674,762,26,0.0670478263325633,1
674,803,26,0.0430325024998579,1
674,804,26,0.0464782713708547,1
675,755,26,0.0680656225353399,1
675,756,26,0.116838944702252,1
675,757,26,0.178038370861696,1
675,758,26,0.193843792250929,1
675,759,26,0.150550498600434,1
675,760,26,0.101213329686166,1
675,761,26,0.0669529597634255,1
675,762,26,0.0418154924493002,1
676,755,26,0.0560370379069206,1
676,756,26,0.0893543975829041,1
676,757,26,0.125576617454999,1
676,758,26,0.127760743679505,1
676,759,26,0.0901159902495377,1
676,760,26,0.055345246186803,1
676,761,26,0.0413356366239933,1
677,756,26,0.0570679130012249,1
677,757,26,0.0730345524092973,1
677,758,26,0.070772515136046,1
677,759,26,0.0524920851890329,1
685,775,26,0.0495529949547811,1
685,776,26,0.0819608607331515,1
685,777,26,0.0892841478773981,1
685,778,26,0.0586801634771689,1
686,775,26,0.0673226614768933,1
686,776,26,0.125481934714845,1
686,777,26,0.145107268321197,1
686,778,26,0.0986400375028429,1
686,779,26,0.0471765944266339,1
687,775,26,0.0564393962986964,1
687,776,26,0.106511702726128,1
687,777,26,0.130631536039521,1
687,778,26,0.0977534843810677,1
687,779,26,0.0554012383325907,1
688,777,26,0.0687228760334325,1
688,778,26,0.060396634173488,1
688,779,26,0.046899456013271,1
659,775,27,0.0414531655221258,1
660,775,27,0.0584918036495373,1
660,776,27,0.0591258622552555,1
660,777,27,0.041307459425483,1
661,775,27,0.0486371265168162,1
661,776,27,0.0526457824397385,1
661,777,27,0.0421822583057611,1
664,763,27,0.0430203508633517,1
664,764,27,0.0463242226823858,1
665,762,27,0.0434851921860657,1
665,763,27,0.0613934954990447,1
665,764,27,0.0672905184383931,1
665,765,27,0.0465998255830601,1
666,759,27,0.0486668040842388,1
666,760,27,0.0651127289070947,1
666,761,27,0.0608773469662638,1
666,762,27,0.051532881771492,1
666,763,27,0.0570433339847367,1
666,764,27,0.0590954872190412,1
667,758,27,0.0534210595521995,1
667,759,27,0.102613598310054,1
667,760,27,0.138370422669116,1
667,761,27,0.116922759905419,1
667,762,27,0.0725506604564478,1
667,763,27,0.0472438704279893,1
668,755,27,0.0456556745152559,1
668,756,27,0.0489236510218253,1
668,757,27,0.0481351220023224,1
668,758,27,0.0777025704568916,1
668,759,27,0.153376825973297,1
668,760,27,0.202422636761627,1
668,761,27,0.17047118050302,1
668,762,27,0.104809813993616,1
668,763,27,0.05250308789439,1
669,755,27,0.0527261913999697,1
669,756,27,0.0596906822148789,1
669,757,27,0.0581983368970204,1
669,758,27,0.0805345911215186,1
669,759,27,0.144864603249041,1
669,760,27,0.188699284070453,1
669,761,27,0.170315509794105,1
669,762,27,0.11965702139778,1
669,763,27,0.0629695478853741,1
670,755,27,0.0516172214279368,1
670,756,27,0.0614661998621585,1
670,757,27,0.0633915273178088,1
670,758,27,0.080353141100986,1
670,759,27,0.123473538185432,1
670,760,27,0.15108143995968,1
670,761,27,0.137369257582643,1
670,762,27,0.103897481560223,1
670,763,27,0.0579490323545067,1
671,755,27,0.050068813676738,1
671,756,27,0.061415944262014,1
671,757,27,0.0756035786788483,1
671,758,27,0.114086311124975,1
671,759,27,0.169879121413378,1
671,760,27,0.188416057673684,1
671,761,27,0.146485066555175,1
671,762,27,0.0902197995580665,1
671,763,27,0.0453240902822636,1
672,755,27,0.0519970012951076,1
672,756,27,0.0664830279998792,1
672,757,27,0.0928766095741422,1
672,758,27,0.154012149754962,1
672,759,27,0.231172062458255,1
672,760,27,0.253510960576079,1
672,761,27,0.183656487385396,1
672,762,27,0.0906276620058882,1
673,754,27,0.0417742093255881,1
673,755,27,0.0574808739999811,1
673,756,27,0.0790098053947449,1
673,757,27,0.112288301460848,1
673,758,27,0.168436820833006,1
673,759,27,0.233765824539604,1
673,760,27,0.257075750604019,1
673,761,27,0.190188406974359,1
673,762,27,0.0902484444391386,1
674,755,27,0.0633185472112192,1
674,756,27,0.0948509436741938,1
674,757,27,0.132276946020111,1
674,758,27,0.163426810587892,1
674,759,27,0.1796492642472,1
674,760,27,0.177599776533162,1
674,761,27,0.130472145497051,1
674,762,27,0.0640362209709164,1
675,755,27,0.0631920944972675,1
675,756,27,0.0971357216740946,1
675,757,27,0.131027125199303,1
675,758,27,0.139287091303834,1
675,759,27,0.117030883788334,1
675,760,27,0.0931035302345044,1
675,761,27,0.0656548027333337,1
676,756,27,0.0843344821996016,1
676,757,27,0.107777192264442,1
676,758,27,0.102688092302393,1
676,759,27,0.0728841100129528,1
676,760,27,0.0496905206616425,1
677,757,27,0.0694437559868775,1
677,758,27,0.0641596567268389,1
677,759,27,0.0476417844837438,1
685,775,27,0.0457381110010444,1
685,776,27,0.0656971320602333,1
685,777,27,0.0683655178955569,1
685,778,27,0.0434001631709315,1
686,775,27,0.0608450795728628,1
686,776,27,0.0994483335448448,1
686,777,27,0.109113953381143,1
686,778,27,0.0682872121551703,1
687,775,27,0.0533874675087678,1
687,776,27,0.0879998807490568,1
687,777,27,0.10162921572846,1
687,778,27,0.069680057332151,1
688,778,27,0.0493863864213272,1
659,793,28,0.0413522298931534,1
659,794,28,0.0419050333846411,1
660,775,28,0.0431290181231156,1
660,776,28,0.0450050172336428,1
661,776,28,0.0411598393447141,1
661,784,28,0.0490211506708201,1
662,785,28,0.0424428575173122,1
663,759,28,0.0432279911073486,1
664,759,28,0.0433302243526776,1
664,764,28,0.04245577961353,1
665,763,28,0.0570380137576746,1
665,764,28,0.060078734386323,1
666,759,28,0.0503837667934265,1
666,760,28,0.0628816343772138,1
666,761,28,0.0563374631271499,1
666,762,28,0.0493193537230387,1
666,763,28,0.0537660633010132,1
666,764,28,0.0528078655361487,1
667,758,28,0.0517729029503211,1
667,759,28,0.0973228055123089,1
667,760,28,0.1323041959636,1
667,761,28,0.109702790056833,1
667,762,28,0.0702945759982325,1
667,763,28,0.0467261647555806,1
668,755,28,0.0530752339796933,1
668,756,28,0.0587770089112506,1
668,757,28,0.0512037521961076,1
668,758,28,0.0735353890690701,1
668,759,28,0.144868701554034,1
668,760,28,0.196315145855971,1
668,761,28,0.160514310675481,1
668,762,28,0.0989349532602914,1
668,763,28,0.0500691975549101,1
669,755,28,0.0660430495472314,1
669,756,28,0.0768956315053293,1
669,757,28,0.0648006629867997,1
669,758,28,0.0754309578562755,1
669,759,28,0.133994892755036,1
669,760,28,0.179254367149475,1
669,761,28,0.157048150304114,1
669,762,28,0.11137761267484,1
669,763,28,0.0588860681592888,1
670,755,28,0.0614649995670287,1
670,756,28,0.0725075525597343,1
670,757,28,0.0653808326665748,1
670,758,28,0.074538970966007,1
670,759,28,0.114362725035873,1
670,760,28,0.141794832234209,1
670,761,28,0.126913237996595,1
670,762,28,0.099440461338948,1
670,763,28,0.0560226776192408,1
671,755,28,0.0551881913537746,1
671,756,28,0.0638247797923416,1
671,757,28,0.0720601344399752,1
671,758,28,0.110998470802378,1
671,759,28,0.169138182473753,1
671,760,28,0.180836258809409,1
671,761,28,0.133135805846142,1
671,762,28,0.0812802285137007,1
671,763,28,0.041288003290236,1
672,754,28,0.0414027287963648,1
672,755,28,0.0562447646586746,1
672,756,28,0.0655691276133885,1
672,757,28,0.0876352018922361,1
672,758,28,0.156501410465726,1
672,759,28,0.241399204145936,1
672,760,28,0.250883373961701,1
672,761,28,0.167712513009685,1
672,762,28,0.0767490603311154,1
673,754,28,0.043969043588404,1
673,755,28,0.0593400554618532,1
673,756,28,0.071163205794082,1
673,757,28,0.0941109563198977,1
673,758,28,0.156331941769553,1
673,759,28,0.232621456674709,1
673,760,28,0.249204777442791,1
673,761,28,0.172728935642295,1
673,762,28,0.075844659577702,1
674,755,28,0.0579229340455344,1
674,756,28,0.074585236395855,1
674,757,28,0.0934616723489287,1
674,758,28,0.12419673222138,1
674,759,28,0.156927082698042,1
674,760,28,0.164961187862235,1
674,761,28,0.11821169304591,1
674,762,28,0.0540125671548905,1
675,756,28,0.0772933509186302,1
675,757,28,0.0913012492498696,1
675,758,28,0.0948239748809156,1
675,759,28,0.0894002304739665,1
675,760,28,0.0827203393664708,1
675,761,28,0.0592433938567554,1
676,757,28,0.0815432175020418,1
676,758,28,0.0740813124905004,1
676,759,28,0.0569744143359963,1
676,760,28,0.0451494392307661,1
677,758,28,0.0528772177236747,1
677,759,28,0.0425842111924255,1
685,776,28,0.0463850808895108,1
685,777,28,0.0462775139002827,1
686,775,28,0.0494269098987972,1
686,776,28,0.0666869267833812,1
686,777,28,0.0693725438825737,1
686,778,28,0.0459180471358276,1
687,775,28,0.0461031142619543,1
687,776,28,0.0628599371503843,1
687,777,28,0.0679075782698397,1
687,778,28,0.0487355669376695,1
659,793,29,0.0410387122645594,1
662,785,29,0.0422772654500043,1
662,786,29,0.043342773384193,1
663,758,29,0.0429167875612572,1
663,759,29,0.0478239698202118,1
664,758,29,0.0456726516625883,1
664,759,29,0.0485320412188701,1
665,758,29,0.0455375481729259,1
665,759,29,0.0476794369850247,1
665,763,29,0.0456114528311696,1
665,764,29,0.0444640517880418,1
666,758,29,0.050558820646668,1
666,759,29,0.0605773056242067,1
666,760,29,0.0598194436045983,1
666,761,29,0.0486248370085721,1
666,762,29,0.0441197130676109,1
666,763,29,0.0458941872150705,1
666,764,29,0.0412040042580848,1
667,755,29,0.042999305148068,1
667,756,29,0.0435691749980125,1
667,757,29,0.0424175756252975,1
667,758,29,0.0574070936966382,1
667,759,29,0.087945716079638,1
667,760,29,0.105315938440042,1
667,761,29,0.085807271357619,1
667,762,29,0.0601768071492087,1
667,763,29,0.0438596734531137,1
668,755,29,0.056060021936637,1
668,756,29,0.0634566135915624,1
668,757,29,0.0551539450954297,1
668,758,29,0.0674842633739046,1
668,759,29,0.115088168273505,1
668,760,29,0.149751383194155,1
668,761,29,0.123583132700218,1
668,762,29,0.0792246852566646,1
668,763,29,0.0442257066970067,1
669,754,29,0.0413285429879105,1
669,755,29,0.0689113331822908,1
669,756,29,0.0825382189108206,1
669,757,29,0.0695856395220031,1
669,758,29,0.0707855021130817,1
669,759,29,0.109342128403983,1
669,760,29,0.141563175274145,1
669,761,29,0.124540146390157,1
669,762,29,0.0873190863275615,1
669,763,29,0.0479976665830137,1
670,755,29,0.0622982476902213,1
670,756,29,0.0743223663556799,1
670,757,29,0.0675102805818546,1
670,758,29,0.0727052498183986,1
670,759,29,0.100823309463248,1
670,760,29,0.119594195139181,1
670,761,29,0.10717524966355,1
670,762,29,0.08095068802647,1
670,763,29,0.0462375689434384,1
671,755,29,0.0562138813893872,1
671,756,29,0.0637288967570578,1
671,757,29,0.0702600539964118,1
671,758,29,0.103764908422456,1
671,759,29,0.14964924997342,1
671,760,29,0.152548157354496,1
671,761,29,0.110858566132196,1
671,762,29,0.0656521588400071,1
672,754,29,0.0434512297812989,1
672,755,29,0.0593539453636038,1
672,756,29,0.0659061402081394,1
672,757,29,0.0840039252462249,1
672,758,29,0.146285806750148,1
672,759,29,0.216974560750375,1
672,760,29,0.212589655558119,1
672,761,29,0.135314352320315,1
672,762,29,0.0598919425117891,1
673,754,29,0.0446087170882319,1
673,755,29,0.0590555584824013,1
673,756,29,0.0673881316288191,1
673,757,29,0.0877455100960176,1
673,758,29,0.146479703074235,1
673,759,29,0.210838327642421,1
673,760,29,0.210390303968362,1
673,761,29,0.13579541114412,1
673,762,29,0.0575145579579048,1
674,755,29,0.0524996221773708,1
674,756,29,0.0630690966868654,1
674,757,29,0.0781088703583506,1
674,758,29,0.108233693698697,1
674,759,29,0.139048957075456,1
674,760,29,0.139780780260176,1
674,761,29,0.0946883955985891,1
674,762,29,0.043082682405715,1
675,757,29,0.0676147549187662,1
675,758,29,0.0721483669454898,1
675,759,29,0.0744457588577239,1
675,760,29,0.0715029541966513,1
675,761,29,0.0508863876756897,1
676,758,29,0.053690585282937,1
676,759,29,0.0472312078550428,1
676,760,29,0.0422104544278433,1
677,758,29,0.0425899720683754,1
686,776,29,0.0432921555328155,1
686,777,29,0.0432240198606239,1
687,777,29,0.04404879022362,1
660,770,30,0.0422402833838409,1
663,758,30,0.0418157141254278,1
663,759,30,0.0446748279382338,1
664,758,30,0.0542131462032135,1
664,759,30,0.0569023533743259,1
664,760,30,0.0429669647637469,1
665,757,30,0.0459729363077122,1
665,758,30,0.075185924634269,1
665,759,30,0.0803956488501346,1
665,760,30,0.0552053361098863,1
666,757,30,0.055451829150294,1
666,758,30,0.0939499329435121,1
666,759,30,0.104545403034017,1
666,760,30,0.0735712897882697,1
666,761,30,0.0411041580861785,1
667,755,30,0.0448273438173814,1
667,756,30,0.0467294898974944,1
667,757,30,0.0569116691784194,1
667,758,30,0.0853529974981092,1
667,759,30,0.102940359735587,1
667,760,30,0.0872983298725905,1
667,761,30,0.0592129971936019,1
667,762,30,0.043747654017762,1
668,755,30,0.0551054683110407,1
668,756,30,0.061454613229441,1
668,757,30,0.058145534724776,1
668,758,30,0.068195919437748,1
668,759,30,0.0903978108952541,1
668,760,30,0.0977568906240038,1
668,761,30,0.079102628218121,1
668,762,30,0.0541259301638448,1
669,755,30,0.0625688331409833,1
669,756,30,0.0747850098406899,1
669,757,30,0.0671006230980729,1
669,758,30,0.0654527043925265,1
669,759,30,0.0818818250835643,1
669,760,30,0.0952155738704012,1
669,761,30,0.0845101578273473,1
669,762,30,0.0592585651546581,1
670,755,30,0.0590382136771013,1
670,756,30,0.0714578620282591,1
670,757,30,0.0711817941483904,1
670,758,30,0.0774187330990876,1
670,759,30,0.0901311561407056,1
670,760,30,0.0943959128718093,1
670,761,30,0.0805823217765025,1
670,762,30,0.0562829362064982,1
671,755,30,0.0585293804565308,1
671,756,30,0.0678546084888159,1
671,757,30,0.0758341218515394,1
671,758,30,0.102988501302418,1
671,759,30,0.129109096835659,1
671,760,30,0.121505389390014,1
671,761,30,0.0847790239364369,1
671,762,30,0.0467501111840948,1
672,754,30,0.0448537394967688,1
672,755,30,0.0626549245795096,1
672,756,30,0.0692480808470355,1
672,757,30,0.0818552996425413,1
672,758,30,0.128936470606351,1
672,759,30,0.174486556997323,1
672,760,30,0.160522734368329,1
672,761,30,0.0971611657681539,1
672,762,30,0.0413793771086806,1
673,754,30,0.04343572056247,1
673,755,30,0.0577007604983435,1
673,756,30,0.0650608783201785,1
673,757,30,0.0811093756934137,1
673,758,30,0.12852709427278,1
673,759,30,0.172043058890069,1
673,760,30,0.15779442028427,1
673,761,30,0.0937078409852472,1
674,755,30,0.048921655936677,1
674,756,30,0.0568491943575834,1
674,757,30,0.0701976602765982,1
674,758,30,0.0974231545105534,1
674,759,30,0.118849093013746,1
674,760,30,0.107563474850508,1
674,761,30,0.0664700410228435,1
675,757,30,0.0549623250067022,1
675,758,30,0.0627152583333571,1
675,759,30,0.0665754777585529,1
675,760,30,0.0596029255020283,1
676,758,30,0.0426926919198381,1
676,759,30,0.0425820593119675,1
662,793,31,0.0421124843929193,1
664,758,31,0.0549856388472426,1
664,759,31,0.0584854399226551,1
664,760,31,0.0435483239251822,1
665,757,31,0.054966098907606,1
665,758,31,0.0936287945221904,1
665,759,31,0.100964565817135,1
665,760,31,0.0650608080326259,1
666,757,31,0.0705294499655137,1
666,758,31,0.122276822314018,1
666,759,31,0.130506143045594,1
666,760,31,0.0809412911213542,1
667,755,31,0.042207891635539,1
667,756,31,0.048906014252845,1
667,757,31,0.0701851274652873,1
667,758,31,0.10689921422409,1
667,759,31,0.111764345602988,1
667,760,31,0.0742076786966949,1
667,761,31,0.0423239228681266,1
668,755,31,0.0492139764614123,1
668,756,31,0.0549504680372437,1
668,757,31,0.0583411612040046,1
668,758,31,0.0689265855812158,1
668,759,31,0.0709074293899897,1
668,760,31,0.0590779261443484,1
668,761,31,0.046174748091574,1
669,755,31,0.0524421485862427,1
669,756,31,0.060583993755178,1
669,757,31,0.0600048297280793,1
669,758,31,0.0607498994131054,1
669,759,31,0.060737620718331,1
669,760,31,0.0581517957236966,1
669,761,31,0.0507304952906475,1
670,755,31,0.0533210187378397,1
670,756,31,0.0644062200547992,1
670,757,31,0.072764631986918,1
670,758,31,0.0831773003731858,1
670,759,31,0.0822397671488004,1
670,760,31,0.0710855218281996,1
670,761,31,0.0538952247891092,1
671,755,31,0.0575362984386128,1
671,756,31,0.0687659677099416,1
671,757,31,0.083145833176538,1
671,758,31,0.106373322755165,1
671,759,31,0.112028615987481,1
671,760,31,0.0917061055531319,1
671,761,31,0.0586089946267437,1
672,754,31,0.0422274423886453,1
672,755,31,0.0591727278326684,1
672,756,31,0.0683648042065608,1
672,757,31,0.082262237538709,1
672,758,31,0.114043305956223,1
672,759,31,0.13031903758044,1
672,760,31,0.108064960318459,1
672,761,31,0.0624675271506758,1
673,755,31,0.0534470713534147,1
673,756,31,0.0619252262415745,1
673,757,31,0.0758978942887319,1
673,758,31,0.107575272345884,1
673,759,31,0.125252191738907,1
673,760,31,0.103436881820974,1
673,761,31,0.0584588225671402,1
674,755,31,0.0456024722446349,1
674,756,31,0.0530841172450013,1
674,757,31,0.0642108585055768,1
674,758,31,0.0848000291012095,1
674,759,31,0.092639134967413,1
674,760,31,0.074635237879463,1
674,761,31,0.0436755416921108,1
675,757,31,0.0474940508615437,1
675,758,31,0.0562368491988992,1
675,759,31,0.0573614284143552,1
675,760,31,0.0475419761589812,1
661,786,32,0.0449175660013096,1
664,758,32,0.0496069109143982,1
664,759,32,0.0527163781762729,1
665,757,32,0.0564512586748897,1
665,758,32,0.094736310082557,1
665,759,32,0.100670709779711,1
665,760,32,0.0628299243654029,1
666,757,32,0.0752287621942416,1
666,758,32,0.127658459070196,1
666,759,32,0.130885566068267,1
666,760,32,0.0774422361753467,1
667,756,32,0.0472931474091316,1
667,757,32,0.0747021570363204,1
667,758,32,0.112491983974957,1
667,759,32,0.108869460832618,1
667,760,32,0.0660112038791462,1
668,756,32,0.045871922281085,1
668,757,32,0.0538526954130213,1
668,758,32,0.0651192980899001,1
668,759,32,0.0588825808153304,1
668,760,32,0.0421289019431978,1
669,755,32,0.0416104258110773,1
669,756,32,0.0460395580941545,1
669,757,32,0.049539359169567,1
669,758,32,0.0538194385871484,1
669,759,32,0.0488989638706408,1
670,755,32,0.0453314028911065,1
670,756,32,0.053229050178565,1
670,757,32,0.0661228962070414,1
670,758,32,0.0815072140548807,1
670,759,32,0.0768031060523682,1
670,760,32,0.0547812480508721,1
671,755,32,0.0518385353042915,1
671,756,32,0.0627216274669742,1
671,757,32,0.0824532953270153,1
671,758,32,0.106329971555384,1
671,759,32,0.102292027349946,1
671,760,32,0.0700840431511073,1
672,755,32,0.0526909503024181,1
672,756,32,0.0632449345166556,1
672,757,32,0.0797053331686226,1
672,758,32,0.101513652178434,1
672,759,32,0.099754862968685,1
672,760,32,0.0701618730988298,1
673,755,32,0.0492131221973109,1
673,756,32,0.0582284686301678,1
673,757,32,0.0703533904595958,1
673,758,32,0.0878100827299634,1
673,759,32,0.0870134868621102,1
673,760,32,0.0624201425267203,1
674,756,32,0.0495042748673252,1
674,757,32,0.0575466523357916,1
674,758,32,0.0697198671206248,1
674,759,32,0.0674857718529192,1
674,760,32,0.0484677983957482,1
675,758,32,0.0478157191428777,1
675,759,32,0.0465281593130315,1
661,786,33,0.0410797223481631,1
664,758,33,0.0457728060183793,1
664,759,33,0.048511587541049,1
665,757,33,0.0525026012882562,1
665,758,33,0.0809776460062786,1
665,759,33,0.0834720214881808,1
665,760,33,0.0553524641777866,1
666,757,33,0.0698913795625597,1
666,758,33,0.109010695559565,1
666,759,33,0.107000677009707,1
666,760,33,0.0658522404687267,1
667,756,33,0.0431635482350385,1
667,757,33,0.0698115707498934,1
667,758,33,0.0983031654831973,1
667,759,33,0.0906511110147991,1
667,760,33,0.0567212169444128,1
668,756,33,0.0410185505504186,1
668,757,33,0.0519219017484688,1
668,758,33,0.0607829670032597,1
668,759,33,0.0530371867867706,1
669,756,33,0.0412149312691544,1
669,757,33,0.0468602085252184,1
669,758,33,0.0518110042105921,1
669,759,33,0.0471042469080181,1
670,756,33,0.0465038290063451,1
670,757,33,0.0582867370113144,1
670,758,33,0.07239194575583,1
670,759,33,0.0685168361829421,1
670,760,33,0.0466631006006493,1
671,755,33,0.044745699418244,1
671,756,33,0.0549593675227561,1
671,757,33,0.072950137058565,1
671,758,33,0.0923468685100259,1
671,759,33,0.0862573441841743,1
671,760,33,0.0550172358055261,1
672,755,33,0.0466870145887547,1
672,756,33,0.058011588276365,1
672,757,33,0.072709126447264,1
672,758,33,0.0851043309503041,1
672,759,33,0.0762181351920736,1
672,760,33,0.0486702643945231,1
673,755,33,0.0458026511945813,1
673,756,33,0.0559769690830792,1
673,757,33,0.0658696880019883,1
673,758,33,0.0720620754577753,1
673,759,33,0.0628039882584751,1
673,760,33,0.0417134132959135,1
674,756,33,0.0472023467045778,1
674,757,33,0.0528358886427166,1
674,758,33,0.0567727593474443,1
674,759,33,0.0499097042844783,1
664,759,34,0.0443939426576411,1
664,760,34,0.0480585518238128,1
664,761,34,0.0447589891724296,1
665,757,34,0.0454357069158713,1
665,758,34,0.0618741109705937,1
665,759,34,0.0656893139216847,1
665,760,34,0.06307119990671,1
665,761,34,0.0563228325027291,1
666,757,34,0.0590636523644257,1
666,758,34,0.082762052325601,1
666,759,34,0.0797053223551529,1
666,760,34,0.0639364829337064,1
666,761,34,0.0529429960594852,1
667,757,34,0.0587503915557356,1
667,758,34,0.0760009899082646,1
667,759,34,0.0666115731202059,1
667,760,34,0.0470814142668766,1
668,757,34,0.0478619629457864,1
668,758,34,0.0522387904762226,1
668,759,34,0.0434257424333611,1
669,757,34,0.0450123893165688,1
669,758,34,0.0468629497397717,1
669,759,34,0.0421375040582952,1
670,756,34,0.0423413893249601,1
670,757,34,0.0532216483585975,1
670,758,34,0.0621405494557494,1
670,759,34,0.0576334953104577,1
671,756,34,0.05057042349959,1
671,757,34,0.0698391180637972,1
671,758,34,0.0825182193987244,1
671,759,34,0.0704979232947829,1
671,760,34,0.0428245946224875,1
672,756,34,0.0587820479881021,1
672,757,34,0.0797246946860102,1
672,758,34,0.0859164765874974,1
672,759,34,0.0650800073479689,1
673,756,34,0.0572271954089987,1
673,757,34,0.0732266645108934,1
673,758,34,0.0735322856032839,1
673,759,34,0.0531434453461725,1
674,756,34,0.0454275968136425,1
674,757,34,0.0530931843392931,1
674,758,34,0.0522230622846335,1
661,787,35,0.0566741026571982,1
661,789,35,0.0451254549551081,1
664,759,35,0.0490533856238122,1
664,760,35,0.0671148698443215,1
664,761,35,0.0687729315843887,1
664,762,35,0.0431116165471,1
665,758,35,0.0486419114771312,1
665,759,35,0.0658427083952405,1
665,760,35,0.0921985077065868,1
665,761,35,0.0970619413707517,1
665,762,35,0.0593641586856773,1
666,757,35,0.0479098287691408,1
666,758,35,0.060159121719615,1
666,759,35,0.0682645471228082,1
666,760,35,0.0813001631449791,1
666,761,35,0.0831671735588694,1
666,762,35,0.0525747811980926,1
667,757,35,0.049463129615351,1
667,758,35,0.0568292759465095,1
667,759,35,0.0523791601255989,1
667,760,35,0.0481344786008789,1
667,761,35,0.0459497251951334,1
668,757,35,0.0473078699480443,1
668,758,35,0.046502574643867,1
669,756,35,0.0435084925097691,1
669,757,35,0.0502606770685324,1
669,758,35,0.0471164445017703,1
670,756,35,0.0455295840525372,1
670,757,35,0.057151284852137,1
670,758,35,0.0587559929330083,1
670,759,35,0.0489846011434422,1
671,756,35,0.0547894500675928,1
671,757,35,0.0797141894002564,1
671,758,35,0.0850730421759054,1
671,759,35,0.0609923644360728,1
672,756,35,0.0671000770178562,1
672,757,35,0.101272111707121,1
672,758,35,0.103673653552177,1
672,759,35,0.0649153560525196,1
673,756,35,0.0623351486553624,1
673,757,35,0.0896055890758696,1
673,758,35,0.0881170933532024,1
673,759,35,0.0536258180065377,1
674,756,35,0.0451581359637228,1
674,757,35,0.0563511151325684,1
674,758,35,0.0543692116037699,1
658,788,36,0.041974523443905,1
659,789,36,0.0413974031625679,1
660,787,36,0.0523433242872172,1
660,789,36,0.0428452348326598,1
661,787,36,0.0508196685680207,1
661,788,36,0.0540900294446453,1
663,760,36,0.0414563311653624,1
664,759,36,0.0543879189062444,1
664,760,36,0.0803517569768722,1
664,761,36,0.0821443707196503,1
664,762,36,0.0473329680110751,1
665,758,36,0.0437360403513703,1
665,759,36,0.0742668175621474,1
665,760,36,0.117088454700689,1
665,761,36,0.121480529223315,1
665,762,36,0.0667247523001764,1
666,758,36,0.0478356645876257,1
666,759,36,0.0665397392413979,1
666,760,36,0.0947901936017652,1
666,761,36,0.096856690903545,1
666,762,36,0.0538853737182686,1
667,757,36,0.0436405655245653,1
667,758,36,0.0455522815253082,1
667,759,36,0.0458316799538256,1
667,760,36,0.0493332382180544,1
667,761,36,0.0474550628967624,1
668,756,36,0.0412791470586022,1
668,757,36,0.0465790096540062,1
668,758,36,0.0423931101502406,1
669,756,36,0.0451253765574532,1
669,757,36,0.0525875789394097,1
669,758,36,0.0456976524043923,1
670,756,36,0.0461970941265818,1
670,757,36,0.0600769285368934,1
670,758,36,0.0563184963014041,1
671,756,36,0.0554090186239955,1
671,757,36,0.0888278627125355,1
671,758,36,0.0901374766137092,1
671,759,36,0.0539932218577074,1
672,756,36,0.0690158129259372,1
672,757,36,0.119055565403022,1
672,758,36,0.121462178765339,1
672,759,36,0.0661421928436112,1
673,756,36,0.0597702747581524,1
673,757,36,0.0990168652928024,1
673,758,36,0.0990674939576494,1
673,759,36,0.0532305478441099,1
674,757,36,0.0537811264642195,1
674,758,36,0.0524768760439864,1
659,788,37,0.0415993501148001,1
660,787,37,0.0419283850723252,1
660,788,37,0.0435291678637178,1
661,788,37,0.0414513569693288,1
663,760,37,0.0446944354620557,1
663,761,37,0.0444249610952989,1
664,759,37,0.0570533688845612,1
664,760,37,0.0838802948478489,1
664,761,37,0.0829741206854148,1
664,762,37,0.0499071198652348,1
665,758,37,0.0445688424189403,1
665,759,37,0.0783834459794092,1
665,760,37,0.121268163493086,1
665,761,37,0.118211433522638,1
665,762,37,0.0652440206487096,1
666,758,37,0.0440486199114732,1
666,759,37,0.0650173919520276,1
666,760,37,0.094135081170661,1
666,761,37,0.0899967284928956,1
666,762,37,0.0497817593117166,1
667,757,37,0.0421979216165324,1
667,758,37,0.0441454464219829,1
667,759,37,0.0464234849269317,1
667,760,37,0.0514288021262223,1
667,761,37,0.0459864044841469,1
668,756,37,0.0414099711176551,1
668,757,37,0.0478375299111384,1
668,758,37,0.0450770890087829,1
669,756,37,0.045381915311155,1
669,757,37,0.0545456387676555,1
669,758,37,0.0490053089377998,1
670,756,37,0.0478696351024948,1
670,757,37,0.0626111516544133,1
670,758,37,0.0579059190510584,1
671,756,37,0.0564648566129601,1
671,757,37,0.0896242801581396,1
671,758,37,0.0893723695694431,1
671,759,37,0.051236814379527,1
672,756,37,0.0686685491619691,1
672,757,37,0.119120067749415,1
672,758,37,0.122130418748584,1
672,759,37,0.0646869431333473,1
673,756,37,0.0570356347943542,1
673,757,37,0.0955773817510329,1
673,758,37,0.0974036253843864,1
673,759,37,0.0514129225460582,1
674,757,37,0.0498885963917442,1
674,758,37,0.049562716263986,1
659,769,38,0.0444954189600954,1
660,769,38,0.0444800232826977,1
663,760,38,0.0440737531182802,1
663,761,38,0.0433865436059219,1
664,759,38,0.054182057478003,1
664,760,38,0.074720648069402,1
664,761,38,0.0711475100429018,1
664,762,38,0.0454868762542003,1
665,758,38,0.0438721170533001,1
665,759,38,0.0735185687170476,1
665,760,38,0.106343910117748,1
665,761,38,0.0970983827634332,1
665,762,38,0.0545138687938578,1
666,758,38,0.0432834479863892,1
666,759,38,0.0653581946678868,1
666,760,38,0.090594594415734,1
666,761,38,0.0787599277383403,1
666,762,38,0.0420984241790219,1
667,758,38,0.0449315261906127,1
667,759,38,0.0533668624423718,1
667,760,38,0.0614035520258084,1
667,761,38,0.0491388715080387,1
668,757,38,0.0464186134588596,1
668,758,38,0.0469567349619457,1
668,759,38,0.0428323343633812,1
669,756,38,0.0433309677787152,1
669,757,38,0.0513902575136961,1
669,758,38,0.0486873064226733,1
670,756,38,0.0451914549670462,1
670,757,38,0.0573359626933567,1
670,758,38,0.0531908083431887,1
671,756,38,0.0503156743751134,1
671,757,38,0.0759176667179658,1
671,758,38,0.0747158468888826,1
671,759,38,0.0427300605675411,1
672,756,38,0.0583203128345417,1
672,757,38,0.0972475545770951,1
672,758,38,0.0997621188068123,1
672,759,38,0.0531638017027668,1
673,756,38,0.0485575664139516,1
673,757,38,0.0776802244218838,1
673,758,38,0.0800023575526506,1
673,759,38,0.0431557165796528,1
674,757,38,0.0420410938663665,1
674,758,38,0.0418052493901852,1
659,768,39,0.0422084674527973,1
659,769,39,0.0587896228235838,1
659,770,39,0.0488092553265205,1
660,768,39,0.0414036155008752,1
660,769,39,0.0588160779770542,1
660,770,39,0.0486858303840676,1
664,759,39,0.0470553808387221,1
664,760,39,0.0566025715555401,1
664,761,39,0.0528677937848848,1
665,758,39,0.0423888280162638,1
665,759,39,0.0609355991272059,1
665,760,39,0.0776646097717259,1
665,761,39,0.067675829395284,1
666,758,39,0.0451116623745843,1
666,759,39,0.0667786520395891,1
666,760,39,0.0845951030380919,1
666,761,39,0.0667761216876937,1
667,758,39,0.0481322942800119,1
667,759,39,0.0664534099065396,1
667,760,39,0.077730042076508,1
667,761,39,0.0565884221305182,1
668,757,39,0.0438336400249592,1
668,758,39,0.0469969394420613,1
668,759,39,0.0509944791181953,1
668,760,39,0.0510399930119034,1
669,757,39,0.044973147235251,1
669,758,39,0.0438032866156842,1
670,757,39,0.0470994781679076,1
670,758,39,0.0437975176296321,1
671,756,39,0.041740344242048,1
671,757,39,0.0550789374632829,1
671,758,39,0.0527790692665016,1
672,756,39,0.0447195416351887,1
672,757,39,0.0648587961995758,1
672,758,39,0.0646889814723741,1
673,757,39,0.0530984450922722,1
673,758,39,0.0532854748631382,1
659,768,40,0.0434519083265187,1
659,769,40,0.0613789243487069,1
659,770,40,0.0510126024933093,1
660,768,40,0.0414833242889473,1
660,769,40,0.0595455924860054,1
660,770,40,0.0493423755998989,1
665,759,40,0.048551543311363,1
665,760,40,0.0547055645768728,1
665,761,40,0.045580012668196,1
666,758,40,0.0447151162227391,1
666,759,40,0.0649363287768833,1
666,760,40,0.0776204854088664,1
666,761,40,0.0551974584972547,1
667,758,40,0.0492376309262463,1
667,759,40,0.0745227183211405,1
667,760,40,0.0880439888917119,1
667,761,40,0.0583660646245819,1
668,758,40,0.0435113932229996,1
668,759,40,0.0541138839586676,1
668,760,40,0.058325838517527,1
659,769,41,0.0489507225430651,1
659,770,41,0.0427460293588296,1
660,769,41,0.0455806885100484,1
665,759,41,0.0418136865998706,1
665,760,41,0.0424422276327057,1
666,758,41,0.0455609377077538,1
666,759,41,0.059056315425276,1
666,760,41,0.064658779451674,1
666,761,41,0.0434593642138344,1
667,758,41,0.0509892508056251,1
667,759,41,0.0712482753597274,1
667,760,41,0.0796481785748487,1
667,761,41,0.050451069828456,1
668,758,41,0.0417487003507111,1
668,759,41,0.0509222992083589,1
668,760,41,0.0542689166728736,1
666,758,42,0.0455859654832319,1
666,759,42,0.0516824428700609,1
666,760,42,0.0499983206681652,1
667,758,42,0.0508231342850398,1
667,759,42,0.0607995224252761,1
667,760,42,0.0599917021759383,1
668,758,42,0.0413194921138231,1
668,759,42,0.0454479531702368,1
668,760,42,0.043941217827657,1
666,758,43,0.0415084872327959,1
666,759,43,0.0426128722937021,1
667,758,43,0.0459587652557511,1
667,759,43,0.0469196015072074,1
667,760,43,0.0421650054149531,1
682,785,44,0.0420373361856671,1
662,784,45,0.0431348573967203,1
663,784,45,0.0461023519123448,1
662,783,46,0.0462753998669684,1
662,784,46,0.0562365247948101,1
662,785,46,0.046017352634252,1
663,783,46,0.0471257603058637,1
663,784,46,0.0645103862078261,1
663,785,46,0.0537463124987186,1
662,783,47,0.0493631807154832,1
662,784,47,0.059979747885253,1
662,785,47,0.0500367463325253,1
663,783,47,0.0516919911637517,1
663,784,47,0.0690698424269855,1
663,785,47,0.0579436634668312,1
664,784,47,0.043931423527532,1
667,760,47,0.042523204300093,1
662,783,48,0.046512085090414,1
662,784,48,0.0532654699443072,1
662,785,48,0.0470207669224096,1
663,783,48,0.047812150697897,1
663,784,48,0.0591952306629859,1
663,785,48,0.051905297665839,1
666,760,48,0.0456728246781025,1
666,761,48,0.0449887321483674,1
667,760,48,0.0508315579778881,1
667,761,48,0.0510849283849858,1
668,760,48,0.0435357181229512,1
668,761,48,0.0425494702178447,1
662,784,49,0.0412466796160128,1
663,784,49,0.0436169678304469,1
666,760,49,0.0484313461895972,1
666,761,49,0.0502075288652596,1
667,760,49,0.0572300123178395,1
667,761,49,0.0609297706670708,1
667,762,49,0.0434457500555596,1
668,760,49,0.047893495023252,1
668,761,49,0.0498014073860496,1
666,760,50,0.0458644826139738,1
666,761,50,0.0480205370712989,1
667,760,50,0.0559220636909901,1
667,761,50,0.0599425062958183,1
667,762,50,0.04301449807291,1
668,760,50,0.0470081962639549,1
668,761,50,0.049657577426389,1
667,760,51,0.0463449142565389,1
667,761,51,0.0487272135323738,1
668,760,51,0.0410847262812383,1
668,761,51,0.0429669161031335,1
682,782,51,0.0426909969084723,1
681,782,52,0.0418669834883509,1
682,782,52,0.0482933717237458,1
682,783,52,0.0414540089727576,1
683,782,52,0.041714848784008,1
681,782,53,0.0433730727261198,1
682,781,53,0.0450513205106345,1
682,782,53,0.0506365586798985,1
682,783,53,0.0421306618353814,1
683,782,53,0.0415910778105267,1
679,776,54,0.0497190844416923,1
679,777,54,0.0448741364038743,1
680,776,54,0.0442276477148068,1
682,781,54,0.0434973357124697,1
682,782,54,0.0451616827817642,1
677,776,55,0.0420046713972569,1
678,774,55,0.0414086599844615,1
678,775,55,0.0680915964894114,1
678,776,55,0.0867636957134628,1
678,777,55,0.0715712412574179,1
679,774,55,0.0484301080473235,1
679,775,55,0.0856978714852872,1
679,776,55,0.112756708525175,1
679,777,55,0.0933764946485869,1
679,778,55,0.0505445684936845,1
680,775,55,0.0668917501185372,1
680,776,55,0.0860528344396378,1
680,777,55,0.0729331436910282,1
680,778,55,0.0428654100636377,1
677,775,56,0.0531576542452773,1
677,776,56,0.0633795514001843,1
677,777,56,0.0511070905910097,1
678,774,56,0.0613993563995887,1
678,775,56,0.111497166395162,1
678,776,56,0.141075422912635,1
678,777,56,0.109592200702841,1
678,778,56,0.0553786652147205,1
679,774,56,0.074283816336419,1
679,775,56,0.142351379889559,1
679,776,56,0.183651837593451,1
679,777,56,0.14230380062315,1
679,778,56,0.0692906156298582,1
680,774,56,0.0595169638251377,1
680,775,56,0.10701614027129,1
680,776,56,0.135750145960213,1
680,777,56,0.105893096568523,1
680,778,56,0.0547955488644689,1
674,767,57,0.0431117300885312,1
677,775,57,0.0574153335605027,1
677,776,57,0.0685116186838416,1
677,777,57,0.0551576919626594,1
678,774,57,0.0675103238357332,1
678,775,57,0.125054640462083,1
678,776,57,0.156296830433637,1
678,777,57,0.118884528753751,1
678,778,57,0.0588323630623296,1
679,774,57,0.0832965729432975,1
679,775,57,0.160975862000058,1
679,776,57,0.203288341513939,1
679,777,57,0.15272867741664,1
679,778,57,0.0726157683571407,1
680,775,57,0.122770197679741,1
680,776,57,0.152327724775917,1
680,777,57,0.114858976784519,1
666,774,58,0.0455080219940782,1
666,775,58,0.0541363056879629,1
667,775,58,0.0443171075491254,1
670,769,58,0.0423485018846147,1
678,774,58,0.0642122696633646,1
678,775,58,0.114224442386137,1
678,776,58,0.140113391772784,1
678,777,58,0.105317225242929,1
679,774,58,0.0808282579232238,1
679,775,58,0.149340979580969,1
679,776,58,0.18348141731195,1
679,777,58,0.135216014627424,1
679,778,58,0.0662750957922021,1
680,775,58,0.11495524910471,1
680,776,58,0.138135013435087,1
680,777,58,0.102494736651788,1
678,776,59,0.0994131248877021,1
679,775,59,0.109324415940715,1
679,776,59,0.129976488489235,1
679,777,59,0.0983020408823549,1
680,776,59,0.100821222463608,1
679,776,60,0.0819096805813529,1
