x,y,z,signal,cytoplasm.p
1,127,1,0.0753053756266298,1
1,128,1,0.0715229807424217,1
1,129,1,0.0622900835206443,1
1,130,1,0.0522815901890515,1
1,131,1,0.0468569158237135,1
1,132,1,0.0417442154641786,1
2,127,1,0.0781650247061829,1
2,128,1,0.0716579760973877,1
2,129,1,0.0618186162444093,1
2,130,1,0.0505322086978878,1
2,131,1,0.043393045204542,1
3,127,1,0.0772561201426651,1
3,128,1,0.0648731294535815,1
3,129,1,0.0554684386396586,1
3,130,1,0.0459228104692034,1
4,128,1,0.0617253284418387,1
4,129,1,0.053536423053037,1
4,130,1,0.0455753412493122,1
5,128,1,0.0538318848907022,1
5,129,1,0.0496679962043856,1
5,130,1,0.0434391078818342,1
6,129,1,0.0459983966219759,1
6,130,1,0.0412400239254504,1
9,134,1,0.041263827075492,1
9,135,1,0.0422796984806729,1
9,136,1,0.0436513384436926,1
9,137,1,0.0457074656280891,1
9,138,1,0.0446190493584714,1
9,139,1,0.0422107517982584,1
10,133,1,0.0413736459697723,1
10,134,1,0.0432096947167204,1
10,135,1,0.047083555333865,1
10,136,1,0.0544022197198412,1
10,137,1,0.0620168920236993,1
10,138,1,0.0607686175290495,1
10,139,1,0.0553634344427348,1
10,140,1,0.0474752246109032,1
10,141,1,0.0415529927704602,1
11,133,1,0.0430255224052063,1
11,134,1,0.0456230773110309,1
11,135,1,0.051706216283061,1
11,136,1,0.0639709346479744,1
11,137,1,0.076944865232593,1
11,138,1,0.0776008157075941,1
11,139,1,0.0706182826185933,1
11,140,1,0.0582064578127188,1
11,141,1,0.0487771609486337,1
11,142,1,0.042305234489224,1
12,135,1,0.0519226370644042,1
12,136,1,0.062409415564839,1
12,137,1,0.077183842911602,1
12,138,1,0.0847342345451945,1
12,139,1,0.0817883318250706,1
12,140,1,0.067388223543311,1
12,141,1,0.0549548420857124,1
12,142,1,0.0477760174891002,1
12,143,1,0.0461522020073779,1
12,144,1,0.0443540355479406,1
13,136,1,0.0625375173329105,1
13,137,1,0.077937320069272,1
13,138,1,0.0875375130075226,1
13,139,1,0.0841235762877739,1
13,140,1,0.069260716386308,1
13,141,1,0.0580012884465344,1
13,142,1,0.0518467265075426,1
13,143,1,0.0503321919499861,1
13,144,1,0.0482986432901945,1
13,145,1,0.0451183045483097,1
14,137,1,0.074928942528312,1
14,138,1,0.0792280212120481,1
14,139,1,0.0722768850321424,1
14,140,1,0.0614858965971049,1
14,141,1,0.0559321310312235,1
14,145,1,0.0477293898080194,1
14,146,1,0.0447816542047917,1
14,147,1,0.0438539233906335,1
14,148,1,0.0425162917896266,1
15,139,1,0.0573092047627365,1
15,140,1,0.052804567427909,1
15,146,1,0.0461872592759456,1
15,147,1,0.0446729490978841,1
15,148,1,0.0430317482603506,1
15,149,1,0.0417137539202071,1
16,147,1,0.0460448242538684,1
16,148,1,0.0449229375923524,1
16,149,1,0.0447017453675312,1
16,150,1,0.0447814811892775,1
16,151,1,0.0450713497597723,1
16,152,1,0.0439184852111096,1
16,153,1,0.0417193120436013,1
17,150,1,0.0492902114223631,1
17,151,1,0.0520789295478231,1
17,152,1,0.0554580685222754,1
17,153,1,0.0559077304369844,1
17,154,1,0.0498636713442276,1
17,155,1,0.0435441850696781,1
18,151,1,0.060873302728619,1
18,152,1,0.0743003717584354,1
18,153,1,0.0813599562253448,1
1,126,2,0.0748985458651585,1
1,127,2,0.0749677088169658,1
1,128,2,0.068661763709771,1
1,129,2,0.0596528837317578,1
1,130,2,0.0500154275771331,1
1,131,2,0.0449683000974856,1
2,126,2,0.0815083765028668,1
2,127,2,0.0744527173254362,1
2,128,2,0.0625768351085158,1
2,129,2,0.0531385522511611,1
2,130,2,0.0436489216332284,1
3,126,2,0.0946501916103566,1
3,127,2,0.0799436350057792,1
3,128,2,0.0623371761809196,1
3,129,2,0.0535434896554457,1
3,130,2,0.0454151126629449,1
4,127,2,0.0772323088825213,1
4,128,2,0.0613080312417574,1
4,129,2,0.0543831393526642,1
4,130,2,0.0474378857002418,1
4,131,2,0.0411712908090612,1
5,128,2,0.0546925451594282,1
5,129,2,0.0524993085867513,1
5,130,2,0.0466265564800063,1
6,129,2,0.0498916836373259,1
6,130,2,0.0446165108964738,1
7,129,2,0.0473987355334159,1
7,130,2,0.0423924234949186,1
8,130,2,0.0410840044821399,1
9,134,2,0.042388671220954,1
9,135,2,0.0442869758159779,1
9,136,2,0.0449229429990873,1
9,137,2,0.0458555831284613,1
9,138,2,0.0440067285300939,1
9,139,2,0.0418997996653361,1
10,133,2,0.042289625245801,1
10,134,2,0.0449307314005943,1
10,135,2,0.0488654475214965,1
10,136,2,0.0533822662298717,1
10,137,2,0.0602600276115459,1
10,138,2,0.0599391703404348,1
10,139,2,0.055577611429128,1
10,140,2,0.0481805223545993,1
10,141,2,0.0417721899101331,1
11,133,2,0.0440640399191775,1
11,134,2,0.0469331399711946,1
11,135,2,0.0526762223567706,1
11,136,2,0.0629722620662534,1
11,137,2,0.080066162430252,1
11,138,2,0.0839566811973746,1
11,139,2,0.0748924470682824,1
11,140,2,0.0585793873468737,1
11,141,2,0.0480194178771913,1
12,134,2,0.0487796318264461,1
12,135,2,0.0529085551586868,1
12,136,2,0.0628961244265293,1
12,137,2,0.0848783348415961,1
12,138,2,0.0960814948921062,1
12,139,2,0.0874521947320755,1
12,140,2,0.066917956562206,1
12,141,2,0.0539406467683254,1
12,142,2,0.0458089230069716,1
12,143,2,0.0436044350191359,1
12,144,2,0.0420563084181477,1
13,136,2,0.0649877630452184,1
13,137,2,0.0860653402172746,1
13,138,2,0.0962458596306102,1
13,139,2,0.0869337537437313,1
13,140,2,0.0683592514899015,1
13,141,2,0.0571203150750926,1
13,144,2,0.0454165887015506,1
13,145,2,0.0428793486260016,1
14,137,2,0.0773891582596266,1
14,138,2,0.0808593304282298,1
14,139,2,0.07181536074124,1
14,140,2,0.0615613692084462,1
14,146,2,0.0440412424218123,1
14,147,2,0.0429159711442995,1
15,138,2,0.060160349048419,1
15,139,2,0.0566820127102387,1
15,147,2,0.044021110444713,1
15,148,2,0.0418932548128374,1
16,150,2,0.0456633845191081,1
16,151,2,0.0449958338945524,1
16,152,2,0.0423519919319405,1
17,151,2,0.0496160591097123,1
17,152,2,0.0515127795314342,1
17,153,2,0.0538567342439313,1
17,154,2,0.0475536547061907,1
18,152,2,0.0805484269559209,1
18,153,2,0.0970647636863274,1
1,125,3,0.0719284101595748,1
1,126,3,0.0748092374194148,1
1,127,3,0.071246193766822,1
1,128,3,0.0628072539263059,1
1,129,3,0.056608167526078,1
1,130,3,0.0487925160755202,1
1,131,3,0.0435878660802825,1
2,125,3,0.0877090470763968,1
2,126,3,0.094462340015798,1
2,127,3,0.0810274420339635,1
2,128,3,0.0623876696773961,1
2,129,3,0.0536856867811908,1
2,130,3,0.0459658588918339,1
3,125,3,0.101034031546092,1
3,126,3,0.108164184715861,1
3,127,3,0.086233905988733,1
3,128,3,0.0622946197711576,1
3,129,3,0.0537830404483455,1
3,130,3,0.0470139922836811,1
4,126,3,0.100842027579192,1
4,127,3,0.0794233773545357,1
4,128,3,0.0618568580797856,1
4,129,3,0.0550141215262702,1
4,130,3,0.0491160659005713,1
4,131,3,0.0419052280270946,1
5,127,3,0.0600234829632056,1
5,128,3,0.0561194095118912,1
5,129,3,0.0542272037137434,1
5,130,3,0.0491058525784978,1
5,131,3,0.042762479349517,1
6,128,3,0.0525141122266863,1
6,129,3,0.0534557816032085,1
6,130,3,0.0481388796830217,1
6,131,3,0.0420834448202053,1
6,164,3,0.0415063975297883,1
7,129,3,0.0505168373507968,1
7,130,3,0.0450664539613935,1
7,163,3,0.0416579023495247,1
7,164,3,0.0436133155810765,1
8,130,3,0.0420451948747268,1
8,163,3,0.0439544291841877,1
8,164,3,0.0444112388023278,1
9,134,3,0.0422771708321449,1
9,135,3,0.0457234371227451,1
9,136,3,0.0466410194956477,1
9,137,3,0.0462713610360584,1
9,138,3,0.04385918684698,1
9,163,3,0.0434135880934875,1
10,133,3,0.041514883400087,1
10,134,3,0.0450591819030617,1
10,135,3,0.0501704711048087,1
10,136,3,0.0536628541400493,1
10,137,3,0.060197612264793,1
10,138,3,0.0621629225244313,1
10,139,3,0.0551295445011906,1
10,140,3,0.0475562337186994,1
11,133,3,0.0439747693205776,1
11,134,3,0.0473305566073457,1
11,135,3,0.0529463374216034,1
11,136,3,0.0632455022238117,1
11,137,3,0.0897113934695467,1
11,138,3,0.102234867349438,1
11,139,3,0.0821551409354101,1
11,140,3,0.0577593100297007,1
11,141,3,0.046517945990958,1
11,162,3,0.0415859981831641,1
12,134,3,0.0490354082305383,1
12,135,3,0.0532558675832683,1
12,136,3,0.0681103146053555,1
12,137,3,0.110234866830391,1
12,139,3,0.101384128439105,1
12,140,3,0.0654970233978396,1
12,141,3,0.0527008067799936,1
12,142,3,0.0442738320436324,1
12,161,3,0.0414590615664461,1
12,162,3,0.0424329091252448,1
13,135,3,0.0545582202395798,1
13,136,3,0.0695482735776676,1
13,137,3,0.105901574328719,1
13,140,3,0.066874951393454,1
13,161,3,0.0411435218190297,1
14,136,3,0.062714782540693,1
14,137,3,0.081428313573664,1
14,138,3,0.085379468871784,1
14,139,3,0.0737715444325035,1
14,146,3,0.0409903571317038,1
15,138,3,0.0603682271887479,1
15,139,3,0.058867101333543,1
15,147,3,0.0428257138165951,1
16,150,3,0.04624365152011,1
16,151,3,0.0445438714141778,1
16,152,3,0.0411852672185689,1
17,151,3,0.0472181884375981,1
17,152,3,0.0477441556008106,1
17,153,3,0.0504406834908683,1
17,154,3,0.0442674088426672,1
18,152,3,0.0948988797851009,1
1,124,4,0.0615051607932658,1
1,125,4,0.0691363777056707,1
1,126,4,0.0764751497384395,1
1,127,4,0.0703160569556692,1
1,128,4,0.0605746617308801,1
1,129,4,0.0530571538584579,1
1,130,4,0.0459987750934132,1
1,131,4,0.041067194943587,1
2,124,4,0.0672461994330801,1
2,125,4,0.0928924404936928,1
2,126,4,0.110547257154775,1
2,127,4,0.0887377378498341,1
2,128,4,0.0632910755916028,1
2,129,4,0.0516390376029323,1
2,130,4,0.0441185830600337,1
3,125,4,0.108005843079946,1
3,126,4,0.124985899235592,1
3,127,4,0.0930534098027303,1
3,128,4,0.0603988671549684,1
3,129,4,0.0496368750387663,1
3,130,4,0.0430531751504392,1
4,126,4,0.108308133623688,1
4,127,4,0.082295132113349,1
4,128,4,0.060743362670709,1
4,129,4,0.0525126632217548,1
4,130,4,0.0459996888315977,1
5,127,4,0.0606345629459421,1
5,128,4,0.0558804372396171,1
5,129,4,0.052807616826347,1
5,130,4,0.0467447314829497,1
5,131,4,0.0410412804635985,1
6,128,4,0.0546820074332655,1
6,129,4,0.05594883243508,1
6,130,4,0.0489944846546917,1
6,131,4,0.0423078189084676,1
7,129,4,0.0526265182435776,1
7,130,4,0.0461638535209133,1
7,163,4,0.0436933136294615,1
8,130,4,0.0425040536453634,1
8,163,4,0.0452264824985724,1
9,135,4,0.0445512732341453,1
9,136,4,0.0449935441423565,1
9,137,4,0.0423678336649608,1
10,134,4,0.0430171608898084,1
10,135,4,0.0477004799969411,1
10,136,4,0.0494495965580986,1
10,137,4,0.0542135679285294,1
10,138,4,0.0583326888505429,1
10,139,4,0.0495190028129727,1
10,140,4,0.042654833962634,1
11,133,4,0.0413221549307216,1
11,134,4,0.0444738785285757,1
11,135,4,0.0474548898812482,1
11,136,4,0.0578243746765151,1
11,137,4,0.0950314096689893,1
11,139,4,0.0841756269238784,1
11,140,4,0.0514202324515338,1
11,141,4,0.041839303709444,1
12,134,4,0.0457242427262331,1
12,135,4,0.0470247516859713,1
12,136,4,0.069141362715174,1
12,140,4,0.0601555694948388,1
12,161,4,0.0439355434594642,1
13,135,4,0.048482639882827,1
13,136,4,0.0694215667471794,1
14,136,4,0.0588880145838237,1
14,137,4,0.0857273868506652,1
15,138,4,0.0615642834385138,1
15,147,4,0.041409316902742,1
16,150,4,0.0448590948676072,1
16,151,4,0.0416690131895782,1
17,151,4,0.0426409710945576,1
17,152,4,0.0427883397621573,1
17,153,4,0.04545503599285,1
18,152,4,0.104077158171735,1
1,124,5,0.0595214514150377,1
1,125,5,0.0631304415001241,1
1,126,5,0.0724151568684088,1
1,127,5,0.0681746439362344,1
1,128,5,0.0588647818443056,1
1,129,5,0.0490456593997555,1
1,130,5,0.0427275437324827,1
2,124,5,0.0663476595802107,1
2,125,5,0.0942596955947741,1
2,126,5,0.118914287422196,1
2,127,5,0.0910500631636389,1
2,128,5,0.0610657608612435,1
2,129,5,0.0468118506889954,1
3,124,5,0.0708603096960403,1
3,125,5,0.118812803009639,1
3,126,5,0.146907073021284,1
3,127,5,0.103168696960472,1
3,128,5,0.0595769677681613,1
3,129,5,0.0453715343803021,1
4,125,5,0.101729424151599,1
4,126,5,0.116623237609905,1
4,127,5,0.085149163595425,1
4,128,5,0.0593497064835055,1
4,129,5,0.0498596757671962,1
4,130,5,0.0443863299750157,1
5,126,5,0.0714189227240912,1
5,127,5,0.0614137815680863,1
5,128,5,0.0569579724554111,1
5,129,5,0.0527295543890273,1
5,130,5,0.0464300270760629,1
6,127,5,0.0571557994757111,1
6,128,5,0.0577621053116022,1
6,129,5,0.0574570573331025,1
6,130,5,0.0493434515401279,1
6,131,5,0.0420270742029802,1
7,128,5,0.0534167936384272,1
7,129,5,0.0544605692020101,1
7,130,5,0.0473565738152957,1
7,131,5,0.0412145230606756,1
7,162,5,0.0412785523177721,1
8,129,5,0.0482843370698629,1
8,130,5,0.0434328549930158,1
8,162,5,0.0412383667612283,1
9,135,5,0.0428888996230598,1
9,136,5,0.0428582515467371,1
10,134,5,0.0428880129185494,1
10,135,5,0.0463499533333904,1
10,136,5,0.0463608046501726,1
10,137,5,0.0466724596586214,1
10,138,5,0.0499578566647782,1
10,139,5,0.0422291509168481,1
11,133,5,0.0412342738629702,1
11,134,5,0.0444370073004761,1
11,135,5,0.0451258739770566,1
11,136,5,0.0550940546938374,1
11,137,5,0.0952336756185759,1
11,140,5,0.0470664592383667,1
11,141,5,0.041089146286953,1
12,134,5,0.044683032658322,1
12,135,5,0.0441419807049638,1
12,136,5,0.0736992942351144,1
12,142,5,0.041988172745956,1
12,160,5,0.0425936891985636,1
13,135,5,0.0454397349333116,1
14,136,5,0.0586083836657091,1
15,138,5,0.0646577900192021,1
15,146,5,0.0441820716436482,1
15,147,5,0.04322600683567,1
15,148,5,0.0415939217530416,1
16,149,5,0.0475364072221174,1
16,150,5,0.0467250509682078,1
16,151,5,0.0416276003042305,1
17,150,5,0.0472851562550688,1
17,151,5,0.0424396405100947,1
17,152,5,0.0412715316726093,1
17,153,5,0.0434052887555401,1
18,151,5,0.0538999394618716,1
18,152,5,0.0960246160418082,1
1,124,6,0.0575859809248665,1
1,125,6,0.0605488175384443,1
1,126,6,0.067798054042607,1
1,127,6,0.0645907897613225,1
1,128,6,0.0536769711246623,1
1,129,6,0.0439350379297586,1
2,124,6,0.0665186637890726,1
2,125,6,0.0992606874062094,1
2,126,6,0.127675447030998,1
2,127,6,0.0928996530779417,1
2,128,6,0.055530691784367,1
3,124,6,0.0744230776051573,1
3,125,6,0.140730311029125,1
3,126,6,0.183973084149469,1
3,127,6,0.125001351683705,1
3,128,6,0.0595200835111284,1
4,125,6,0.109197346858994,1
4,126,6,0.140199542685393,1
4,127,6,0.0989439608805002,1
4,128,6,0.0587400755057006,1
4,129,6,0.0466013719092184,1
4,130,6,0.0430304182035851,1
5,126,6,0.0780200701456799,1
5,127,6,0.0657802443878741,1
5,128,6,0.0557834025698167,1
5,129,6,0.0506491996259059,1
5,130,6,0.045835886393515,1
5,161,6,0.0442390613320101,1
6,127,6,0.0598433305590296,1
6,128,6,0.0582344646990823,1
6,129,6,0.0545546950484777,1
6,130,6,0.0473577146363426,1
6,161,6,0.0440330377017242,1
6,162,6,0.0528318173713978,1
7,128,6,0.0577248258750238,1
7,129,6,0.0533661325331712,1
7,130,6,0.0463415783011555,1
7,161,6,0.041182258370642,1
8,129,6,0.04766672034473,1
8,130,6,0.0433134121107573,1
10,134,6,0.0418226834066097,1
10,135,6,0.043415802151396,1
10,136,6,0.0415738898005365,1
11,134,6,0.0437558938816264,1
11,135,6,0.0422273126270096,1
11,136,6,0.0487585617808556,1
11,140,6,0.0411063883642914,1
12,134,6,0.0434120688010034,1
13,135,6,0.0416726924726227,1
14,136,6,0.0535795363564853,1
15,146,6,0.0438796432281684,1
15,147,6,0.0424878902116213,1
16,148,6,0.0474059156772558,1
16,149,6,0.0471569030984224,1
16,150,6,0.0459152031933127,1
17,150,6,0.0460270577232525,1
18,151,6,0.0505800258606289,1
1,124,7,0.0564248413685631,1
1,125,7,0.0586914743664107,1
1,126,7,0.063809932898528,1
1,127,7,0.0594174420573206,1
1,128,7,0.0483138740621802,1
1,152,7,0.044233443734533,1
1,153,7,0.0454010118985364,1
1,158,7,0.04158731742646,1
1,159,7,0.0412641622930507,1
1,160,7,0.041708882452135,1
2,124,7,0.0686290962179933,1
2,125,7,0.09883660475393,1
2,126,7,0.127939090234252,1
2,127,7,0.0906688288848017,1
2,128,7,0.0527688505376933,1
2,152,7,0.044576476728505,1
2,153,7,0.0468113857098009,1
2,154,7,0.0415858738282632,1
2,158,7,0.0411871866094297,1
2,159,7,0.0417287359823912,1
2,160,7,0.0425920022973,1
2,161,7,0.0425650767579003,1
3,124,7,0.0805569533767308,1
3,125,7,0.152770428222914,1
3,126,7,0.207380763979416,1
3,127,7,0.141647931249171,1
3,128,7,0.0637804283466196,1
3,159,7,0.0410138034372473,1
3,160,7,0.0415865118229719,1
3,161,7,0.0419066554050868,1
4,125,7,0.116479667173516,1
4,126,7,0.163111641201811,1
4,127,7,0.115622483435278,1
4,128,7,0.0632775263141458,1
4,129,7,0.0465510406147864,1
4,130,7,0.0425792856570052,1
4,158,7,0.0411533458561963,1
4,159,7,0.0427160273873178,1
4,160,7,0.0439806356278564,1
4,161,7,0.0487575561281792,1
5,126,7,0.0894115089227994,1
5,127,7,0.0737482954727809,1
5,128,7,0.0575363146588173,1
5,129,7,0.0507059757482424,1
5,130,7,0.0462219759202198,1
5,159,7,0.0430088426282891,1
5,160,7,0.045416637362164,1
5,161,7,0.0589615948379783,1
6,127,7,0.0625858805758683,1
6,128,7,0.0587930128463154,1
6,129,7,0.0529125399222486,1
6,130,7,0.0469367408565842,1
6,160,7,0.0439936144947899,1
6,161,7,0.062429512398162,1
6,162,7,0.08143710492448,1
7,128,7,0.0618197246250473,1
7,129,7,0.0528404465201692,1
7,130,7,0.0465409516476138,1
7,161,7,0.0530501196964581,1
7,162,7,0.0672179438369149,1
8,129,7,0.0481233947944995,1
8,130,7,0.0442999411660744,1
8,161,7,0.0433413919634467,1
9,130,7,0.0418152058923548,1
10,134,7,0.0420476170919258,1
10,135,7,0.0432744755099567,1
10,136,7,0.0410233192905291,1
11,133,7,0.041911078114169,1
11,134,7,0.0441486499123633,1
11,135,7,0.0435107606350258,1
11,136,7,0.0472457249380323,1
11,140,7,0.0410657783790644,1
11,159,7,0.0417100313832841,1
11,160,7,0.0436735952675758,1
12,134,7,0.0438285063302484,1
12,135,7,0.0430776108884546,1
12,159,7,0.0425063704312334,1
13,134,7,0.0436629142629405,1
13,135,7,0.0432203189506401,1
14,136,7,0.0511587357220028,1
14,145,7,0.0424440875494835,1
15,146,7,0.0464598289983864,1
15,147,7,0.0451202131257009,1
15,148,7,0.0434317655359497,1
15,149,7,0.0415579912968006,1
16,147,7,0.0517654849101492,1
16,148,7,0.0511288040380437,1
16,149,7,0.0494240659562823,1
16,150,7,0.0466417764385224,1
17,149,7,0.0476810103448571,1
17,150,7,0.0458019537257896,1
17,151,7,0.0414385186775005,1
1,124,8,0.0556440872337302,1
1,125,8,0.0581745256368766,1
1,126,8,0.0612912865840223,1
1,127,8,0.0545742674285232,1
1,128,8,0.0442457656831859,1
1,151,8,0.0518339990537782,1
1,152,8,0.0689338900799565,1
1,153,8,0.0690179215525167,1
1,154,8,0.0536856110869034,1
1,155,8,0.0443246337239937,1
1,156,8,0.0453037095953626,1
1,157,8,0.0476205954899873,1
1,158,8,0.0476737112528512,1
1,159,8,0.0457328448413305,1
1,160,8,0.0461161553063382,1
1,161,8,0.0458322584744513,1
2,124,8,0.0704600815577832,1
2,125,8,0.093515642375894,1
2,126,8,0.118095113029738,1
2,127,8,0.0845650037453533,1
2,128,8,0.0509392385085474,1
2,151,8,0.0476430983203048,1
2,152,8,0.0619903395490022,1
2,153,8,0.0628326277328125,1
2,154,8,0.0507836975612685,1
2,155,8,0.0439976262920258,1
2,156,8,0.0443686553588917,1
2,157,8,0.0463812096673803,1
2,158,8,0.0472987109392606,1
2,159,8,0.0466647496547692,1
2,160,8,0.0467544581988895,1
2,161,8,0.0461808631086545,1
2,162,8,0.0440436538255417,1
3,124,8,0.0837515388648642,1
3,125,8,0.144538858289653,1
3,126,8,0.197946314497048,1
3,127,8,0.139184687746358,1
3,128,8,0.0646606015213081,1
3,152,8,0.042432573907686,1
3,153,8,0.0447697323545154,1
3,154,8,0.0422502750297868,1
3,156,8,0.0410410452706339,1
3,157,8,0.0429453891884508,1
3,158,8,0.044868491772723,1
3,159,8,0.0457828355114689,1
3,160,8,0.044438953725011,1
3,161,8,0.0432539218075415,1
3,162,8,0.0435802344740852,1
4,125,8,0.116833689356008,1
4,126,8,0.16919031421088,1
4,127,8,0.124479839669983,1
4,128,8,0.0674964123070434,1
4,129,8,0.0479994994661174,1
4,130,8,0.0430596632322222,1
4,153,8,0.0430355978555419,1
4,154,8,0.042877780672904,1
4,155,8,0.0420298748916166,1
4,156,8,0.0419881403055471,1
4,157,8,0.0439792785374168,1
4,158,8,0.0461007839592472,1
4,159,8,0.0466080654469246,1
4,160,8,0.0460721607051143,1
4,161,8,0.0555853863137981,1
4,162,8,0.0689896983967604,1
5,126,8,0.0960750176237928,1
5,127,8,0.0792381642465689,1
5,128,8,0.0585666707065789,1
5,129,8,0.0512983970891178,1
5,130,8,0.047005200932865,1
5,153,8,0.0413209032716109,1
5,157,8,0.0429637342396924,1
5,158,8,0.0456781503118994,1
5,159,8,0.046325920397119,1
5,160,8,0.0495663279628453,1
5,161,8,0.0827912973542381,1
5,162,8,0.118762888033789,1
6,127,8,0.0648327249242776,1
6,128,8,0.0576160477771962,1
6,129,8,0.0516449309438853,1
6,130,8,0.0471270308885463,1
6,158,8,0.0434574096791972,1
6,159,8,0.0441265552905246,1
6,160,8,0.0499166411252514,1
6,161,8,0.0911653996308022,1
6,162,8,0.132966704807937,1
6,163,8,0.115076327524251,1
7,128,8,0.0625609987822303,1
7,129,8,0.0514351982935134,1
7,130,8,0.0466359750120613,1
7,131,8,0.0415464154775527,1
7,158,8,0.0412634161636457,1
7,159,8,0.0412975083300482,1
7,160,8,0.0446298547180076,1
7,161,8,0.0657195970434071,1
7,162,8,0.0894603209247472,1
7,163,8,0.0792387806143383,1
8,129,8,0.0479049464875991,1
8,130,8,0.0448917461391804,1
8,131,8,0.0418124268306577,1
8,158,8,0.0416428662199925,1
8,159,8,0.0414721864152198,1
8,160,8,0.0419078097429707,1
8,161,8,0.0459029893793561,1
8,162,8,0.0507737167287922,1
9,130,8,0.0420101943768747,1
9,157,8,0.0412908715630576,1
9,158,8,0.0423619862812538,1
9,159,8,0.0421317891395913,1
9,160,8,0.0416088389344078,1
9,161,8,0.0437579160004488,1
10,134,8,0.0410753050458158,1
10,135,8,0.0416724843133321,1
10,157,8,0.0473801255521682,1
10,158,8,0.0497192844908807,1
10,159,8,0.0476833568677687,1
10,160,8,0.0444035558321497,1
10,161,8,0.0465978413113815,1
11,133,8,0.0414099819311248,1
11,134,8,0.0430852884518978,1
11,135,8,0.0435134207485568,1
11,136,8,0.0441636725250585,1
11,137,8,0.0578481913433937,1
11,156,8,0.0430557649764176,1
11,157,8,0.054372439424457,1
11,158,8,0.0579598836712889,1
11,159,8,0.0535240902909143,1
11,160,8,0.0482880677168881,1
12,134,8,0.0424398946266312,1
12,135,8,0.0444669497979049,1
12,156,8,0.0419973804153532,1
12,157,8,0.053714899369419,1
12,158,8,0.0574243952480597,1
12,159,8,0.0527023639196215,1
13,134,8,0.0414808507077675,1
13,157,8,0.046261715421141,1
13,158,8,0.0478665478569131,1
14,145,8,0.0424639383763722,1
15,146,8,0.0459289579266928,1
15,147,8,0.0454400323037267,1
15,148,8,0.0452547975688206,1
15,149,8,0.0436585077740628,1
16,147,8,0.0521642261963309,1
16,148,8,0.0513533943956988,1
16,149,8,0.0486865548865334,1
16,150,8,0.0439318560663175,1
17,148,8,0.0477872364638501,1
17,149,8,0.0452003733761304,1
1,124,9,0.0545577282267112,1
1,125,9,0.05594464762233,1
1,126,9,0.0570938869552963,1
1,127,9,0.0502409370797075,1
1,128,9,0.0414580802440764,1
1,150,9,0.0425550661883826,1
1,151,9,0.0609741978070803,1
1,152,9,0.0877907482462499,1
1,153,9,0.0890947499566812,1
1,154,9,0.0667629779153482,1
1,155,9,0.0521494549968048,1
1,156,9,0.0533889057002297,1
1,157,9,0.0563399826655756,1
1,158,9,0.0542299557417664,1
1,159,9,0.0499738551931082,1
1,160,9,0.0492326945773564,1
1,161,9,0.0492810524135794,1
2,124,9,0.0673533014431138,1
2,125,9,0.0800427026078715,1
2,126,9,0.095710192785132,1
2,127,9,0.072375795838925,1
2,128,9,0.0476883635042112,1
2,150,9,0.0417466376813776,1
2,151,9,0.0539403331777059,1
2,152,9,0.0729067155712319,1
2,153,9,0.0734339803508011,1
2,154,9,0.0582776807304923,1
2,155,9,0.0496411139188645,1
2,156,9,0.05069124239586,1
2,157,9,0.054070062372958,1
2,158,9,0.0542542914551876,1
2,159,9,0.0519598678403693,1
2,160,9,0.0501090289703233,1
2,161,9,0.049191435783951,1
3,124,9,0.082149253001192,1
3,125,9,0.119258296331803,1
3,126,9,0.155942764997266,1
3,127,9,0.115183380873671,1
3,128,9,0.0599787476393114,1
3,151,9,0.0429392228073895,1
3,152,9,0.0493030902647025,1
3,153,9,0.0496772903815399,1
3,154,9,0.0471866725803369,1
3,155,9,0.0451761187637315,1
3,156,9,0.045305745231022,1
3,157,9,0.0477455559451288,1
3,158,9,0.0502809577308392,1
3,159,9,0.050136760113211,1
3,160,9,0.0467552097350293,1
3,161,9,0.0443291321273633,1
3,162,9,0.0444349743681841,1
4,125,9,0.109960550732604,1
4,126,9,0.150259367557359,1
4,127,9,0.11646726412384,1
4,128,9,0.0672442205681362,1
4,129,9,0.047167770635409,1
4,152,9,0.0458181144561642,1
4,153,9,0.046193201277512,1
4,154,9,0.0457918106912688,1
4,155,9,0.0449993617890219,1
4,156,9,0.0447926947572925,1
4,157,9,0.0464505888885803,1
4,158,9,0.0491172607889663,1
4,159,9,0.0486536981590371,1
4,160,9,0.0480643316233345,1
4,161,9,0.0593623906833914,1
4,162,9,0.0786088257203479,1
5,126,9,0.096003237812333,1
5,127,9,0.0803306274571988,1
5,128,9,0.059079402182954,1
5,129,9,0.0507668285486325,1
5,130,9,0.0461248979965409,1
5,152,9,0.0437312283573812,1
5,153,9,0.0437671777371941,1
5,154,9,0.0425049863071197,1
5,155,9,0.0420328053418886,1
5,156,9,0.0429091748786318,1
5,157,9,0.0448508820374169,1
5,158,9,0.0479055412284292,1
5,159,9,0.0474826426510752,1
5,160,9,0.0538667583302861,1
5,161,9,0.0979982364528636,1
5,162,9,0.153120016882854,1
6,127,9,0.067015299415891,1
6,128,9,0.0565682550096426,1
6,129,9,0.0506591047640946,1
6,130,9,0.0474990088373729,1
6,157,9,0.0424906287228073,1
6,158,9,0.0452012844109475,1
6,159,9,0.0449427505720974,1
6,160,9,0.0546922315688087,1
6,161,9,0.108981293735619,1
6,162,9,0.172483058969656,1
7,128,9,0.0597979085798134,1
7,129,9,0.0495362124499023,1
7,130,9,0.0468899077195803,1
7,131,9,0.0425290570905348,1
7,157,9,0.0420818336132292,1
7,158,9,0.0437760042317865,1
7,159,9,0.0433831373629858,1
7,160,9,0.0475803747896672,1
7,161,9,0.0691110038991641,1
7,162,9,0.100931022434316,1
8,129,9,0.0464535679994657,1
8,130,9,0.0447150216048798,1
8,131,9,0.0428133486140636,1
8,157,9,0.0419388660277723,1
8,158,9,0.0431725964057584,1
8,159,9,0.0437136321389121,1
8,160,9,0.0448903160578207,1
8,161,9,0.0462995895985495,1
9,130,9,0.0412861758138671,1
9,157,9,0.0420519073360049,1
9,158,9,0.0448274276217711,1
9,159,9,0.0438977720100173,1
9,160,9,0.0439518366548419,1
9,161,9,0.0451244303788599,1
10,156,9,0.0432803661475423,1
10,157,9,0.060621765204625,1
10,158,9,0.0729159178338942,1
10,159,9,0.0597098436830781,1
10,160,9,0.0469671267062682,1
11,133,9,0.0410108946139146,1
11,134,9,0.0423379884887588,1
11,135,9,0.0427923353391887,1
11,136,9,0.0427337587741574,1
11,137,9,0.0477657014390652,1
11,138,9,0.0555947724054442,1
11,156,9,0.0475330280128554,1
11,157,9,0.0815752307789063,1
11,158,9,0.100627120683598,1
11,159,9,0.076505578842002,1
12,134,9,0.0415021667597923,1
12,135,9,0.0445486590778602,1
12,156,9,0.046076686142158,1
12,157,9,0.0747135382131148,1
12,158,9,0.0895559444367597,1
13,157,9,0.0498976905197101,1
14,145,9,0.0421534133755007,1
15,146,9,0.0447942518969205,1
15,147,9,0.0452392559095828,1
15,148,9,0.0476915751046939,1
15,149,9,0.0467991881160488,1
15,150,9,0.0422795146516891,1
16,147,9,0.0492357115353855,1
16,148,9,0.0496957868213564,1
16,149,9,0.0468511414309265,1
16,150,9,0.0417102125089006,1
1,124,10,0.0552946391488952,1
1,125,10,0.0560683807486675,1
1,126,10,0.0543122462457147,1
1,127,10,0.0472159824897919,1
1,149,10,0.0411994598974693,1
1,150,10,0.0468540502542593,1
1,151,10,0.0661235774556287,1
1,152,10,0.0960744769503109,1
1,153,10,0.104344867239573,1
1,154,10,0.0827583054583713,1
1,155,10,0.0649864762423314,1
1,156,10,0.0627363986665002,1
1,157,10,0.0648228630399674,1
1,158,10,0.0602538423069127,1
1,159,10,0.0539357266396399,1
1,160,10,0.0518153998860001,1
2,124,10,0.062573569440685,1
2,125,10,0.0674810571801568,1
2,126,10,0.0737845854768874,1
2,127,10,0.059380346449726,1
2,128,10,0.0432089891378265,1
2,149,10,0.0411660084291428,1
2,150,10,0.0463039149864049,1
2,151,10,0.0585155121817196,1
2,152,10,0.078230186674224,1
2,153,10,0.0822371502891479,1
2,154,10,0.0683383814934993,1
2,155,10,0.0581996074797029,1
2,156,10,0.0577745624286257,1
2,157,10,0.0615112325564677,1
2,158,10,0.0610696212699045,1
2,159,10,0.0570141484301827,1
2,160,10,0.0534095864609132,1
3,124,10,0.0833825562471274,1
3,125,10,0.100623119699832,1
3,126,10,0.114941656573374,1
3,127,10,0.0884206869200358,1
3,128,10,0.0549871148858483,1
3,150,10,0.0433435979112529,1
3,151,10,0.0524498802170341,1
3,152,10,0.0604921711777434,1
3,153,10,0.0585467090416264,1
3,154,10,0.0544505613358597,1
3,155,10,0.0506053293795828,1
3,156,10,0.0500951390685727,1
3,157,10,0.0527476453237324,1
3,158,10,0.055770415592781,1
3,159,10,0.0538045754731304,1
3,160,10,0.0489326424218296,1
3,161,10,0.0458324260832307,1
4,125,10,0.116132857575272,1
4,126,10,0.133050444316817,1
4,127,10,0.10517395758369,1
4,128,10,0.0691267483109577,1
4,129,10,0.0462178613950224,1
4,150,10,0.0436270351706802,1
4,151,10,0.0537738814395617,1
4,152,10,0.0598987712178657,1
4,153,10,0.0553636561188623,1
4,154,10,0.052332116125937,1
4,155,10,0.0500345079443101,1
4,156,10,0.0489554534360319,1
4,157,10,0.0499157165735973,1
4,158,10,0.0529001963466563,1
4,159,10,0.0513774813993183,1
4,160,10,0.0508219772437885,1
4,161,10,0.0612937682753044,1
5,126,10,0.106866081753118,1
5,127,10,0.0880336566214724,1
5,128,10,0.0650482860347846,1
5,129,10,0.0509341399576129,1
5,130,10,0.0452453006391107,1
5,151,10,0.0505956296973171,1
5,152,10,0.0562536695509218,1
5,153,10,0.0515792337090971,1
5,154,10,0.0482325297368252,1
5,155,10,0.0467198983499251,1
5,156,10,0.0463679523536036,1
5,157,10,0.0470409827038986,1
5,158,10,0.0499340345911648,1
5,159,10,0.0490746881589999,1
5,160,10,0.0566684093654336,1
5,161,10,0.100494493478483,1
6,127,10,0.0804693318322507,1
6,128,10,0.0609615406408685,1
6,129,10,0.0513579090192728,1
6,130,10,0.0485215845937297,1
6,151,10,0.0425361318030457,1
6,152,10,0.0473928584126674,1
6,153,10,0.0453816233474748,1
6,154,10,0.0431093511252107,1
6,155,10,0.0427894292192234,1
6,156,10,0.0432287588636929,1
6,157,10,0.0439758668877459,1
6,158,10,0.0463044015925386,1
6,159,10,0.0459363435264558,1
6,160,10,0.0568612513762303,1
6,161,10,0.11133664043838,1
7,128,10,0.0582369842375081,1
7,129,10,0.0490542452946484,1
7,130,10,0.0481265901747777,1
7,131,10,0.0431827583638511,1
7,152,10,0.0411318162381462,1
7,153,10,0.0409894028430082,1
7,156,10,0.0418360785921243,1
7,157,10,0.0431011518118574,1
7,158,10,0.044622142010788,1
7,159,10,0.0446417089840987,1
7,160,10,0.048432546484727,1
7,161,10,0.0666827635975704,1
8,129,10,0.0452329786904577,1
8,130,10,0.0445106875792249,1
8,131,10,0.0426457155043614,1
8,156,10,0.0411781898026905,1
8,157,10,0.0421078886683229,1
8,158,10,0.0430801736807589,1
8,159,10,0.0444432088253138,1
8,160,10,0.0462732101393666,1
9,157,10,0.0413728403662842,1
9,158,10,0.0450146547384581,1
9,159,10,0.0430816551260993,1
9,160,10,0.0440560298415429,1
10,156,10,0.0457937625225385,1
10,157,10,0.0737813900966093,1
10,158,10,0.0985322704644264,1
10,159,10,0.0682372268917668,1
11,134,10,0.0420388716983558,1
11,135,10,0.0421965969665017,1
11,136,10,0.0411838668742507,1
11,137,10,0.0416193577369986,1
11,138,10,0.0439360787262113,1
11,139,10,0.0420316807410462,1
11,150,10,0.0444269588838146,1
11,151,10,0.0425885528004853,1
11,154,10,0.0411099676227417,1
11,156,10,0.0534143119471451,1
11,157,10,0.11618166957722,1
11,158,10,0.15756233078542,1
12,149,10,0.0424632841614591,1
12,150,10,0.0473333086353687,1
12,151,10,0.0452469253629238,1
12,152,10,0.0413808504439189,1
12,156,10,0.0497025344264107,1
12,157,10,0.0985875381077484,1
13,149,10,0.0414968303125257,1
13,150,10,0.0435484185430415,1
13,151,10,0.0423420976072214,1
14,145,10,0.0431495393851219,1
14,148,10,0.0415802454173164,1
14,149,10,0.0423774982034502,1
15,145,10,0.0459037030683523,1
15,146,10,0.0440136113035188,1
15,147,10,0.0445593671161696,1
15,148,10,0.0480539128453379,1
15,149,10,0.0475094384288392,1
15,150,10,0.0423786741682733,1
1,123,11,0.0533626019353342,1
1,124,11,0.0557820941399905,1
1,125,11,0.0566438627893544,1
1,126,11,0.0537194788738109,1
1,127,11,0.0467860335302336,1
1,140,11,0.0429779188084906,1
1,141,11,0.0450069474379733,1
1,142,11,0.0438557806040439,1
1,148,11,0.0425235449243866,1
1,149,11,0.0457871176454457,1
1,150,11,0.0524713179205923,1
1,151,11,0.0692583157960483,1
1,152,11,0.0950627795444104,1
2,123,11,0.0535920853880007,1
2,124,11,0.0597052263315425,1
2,125,11,0.0634141274693531,1
2,126,11,0.0633663373402861,1
2,127,11,0.0540042786304126,1
2,128,11,0.04177108693623,1
2,142,11,0.0411894736582582,1
2,148,11,0.0433701206489085,1
2,149,11,0.0473537352795156,1
2,150,11,0.0540991235726112,1
2,151,11,0.0658316408090655,1
2,152,11,0.0825938974659888,1
3,124,11,0.0915910934900577,1
3,125,11,0.105897627412301,1
3,126,11,0.0944391126830147,1
3,127,11,0.0705654912598185,1
3,128,11,0.0507325282229395,1
3,149,11,0.0440081126542076,1
3,150,11,0.0521985319287588,1
3,151,11,0.0647923798690567,1
3,152,11,0.0730847485353588,1
4,124,11,0.134181284531193,1
4,125,11,0.157273967990573,1
4,126,11,0.137696029821646,1
4,127,11,0.0996242578823922,1
4,128,11,0.0720993548943537,1
4,129,11,0.0448817869336434,1
4,149,11,0.0442811906097214,1
4,150,11,0.054935237265258,1
4,151,11,0.0701423601928673,1
4,152,11,0.0754154080869354,1
5,125,11,0.139019122712724,1
5,126,11,0.12876246025293,1
5,127,11,0.100835777393741,1
5,128,11,0.0767326400774694,1
5,129,11,0.0513632887204179,1
5,130,11,0.0416624656337121,1
5,149,11,0.0420254792162086,1
5,150,11,0.051581061185466,1
5,151,11,0.0653647097833439,1
5,152,11,0.0691648874183724,1
6,126,11,0.109003147757758,1
6,127,11,0.0950930788863372,1
6,128,11,0.0708382826583868,1
6,129,11,0.0532875943031874,1
6,130,11,0.0473108814993386,1
6,150,11,0.0443423407805266,1
6,151,11,0.0527638276810462,1
6,152,11,0.0560474134310387,1
7,127,11,0.0751295269833698,1
7,128,11,0.0579239829520893,1
7,129,11,0.0503868594457431,1
7,130,11,0.0490956554766288,1
7,131,11,0.0435078815487345,1
8,129,11,0.0447816109509132,1
8,130,11,0.0447355726039276,1
8,131,11,0.0422262556103525,1
11,134,11,0.0419343487008308,1
11,135,11,0.0415727570895918,1
11,149,11,0.0444800232826977,1
11,150,11,0.0495494265098004,1
11,151,11,0.0457959360299358,1
12,145,11,0.0419697682206315,1
12,146,11,0.0413677066715734,1
12,149,11,0.0465948513870265,1
12,150,11,0.050309316054966,1
12,151,11,0.0458843361442299,1
13,145,11,0.0456872065927216,1
13,146,11,0.0441816472149649,1
13,147,11,0.0411016088107113,1
13,149,11,0.0428136108407023,1
13,150,11,0.0430163552863203,1
14,145,11,0.0451484714252335,1
1,123,12,0.0515893334897394,1
1,124,12,0.0549783343485019,1
1,125,12,0.0557270481727961,1
1,126,12,0.052450929123589,1
1,127,12,0.0444714563113767,1
1,140,12,0.0454889632538405,1
1,141,12,0.0476505596143553,1
1,142,12,0.0466475508313093,1
1,143,12,0.0437884856791166,1
1,144,12,0.0410071261197456,1
1,147,12,0.0440137032180107,1
1,148,12,0.0469818708721202,1
1,149,12,0.0505678066399375,1
1,150,12,0.058756420065059,1
1,151,12,0.0716023732365069,1
1,152,12,0.0925167048641668,1
1,153,12,0.122046289954797,1
2,123,12,0.0513658298857829,1
2,124,12,0.0556456335598885,1
2,125,12,0.0587380804205523,1
2,126,12,0.0550642041109005,1
2,127,12,0.0470193827982958,1
2,141,12,0.042306296912616,1
2,142,12,0.0443191729218263,1
2,143,12,0.0440049118671947,1
2,144,12,0.0419042656282968,1
2,146,12,0.0418182552907928,1
2,147,12,0.0445366993804401,1
2,148,12,0.0480405365833952,1
2,149,12,0.0530882425836684,1
2,150,12,0.0637746539538327,1
2,151,12,0.075414256452419,1
2,152,12,0.0889809706291458,1
2,153,12,0.0991301472007344,1
3,123,12,0.0566420893803337,1
3,124,12,0.0905122065905589,1
3,125,12,0.109766124548505,1
3,126,12,0.0784852277623808,1
3,127,12,0.0563731908308352,1
3,128,12,0.0416179033253322,1
3,148,12,0.0446569559762889,1
3,149,12,0.0524238089417359,1
3,150,12,0.0671864279796537,1
3,151,12,0.0840595983946582,1
3,152,12,0.0900857503816938,1
3,153,12,0.0791722128952442,1
4,124,12,0.159779740869474,1
4,125,12,0.198631023394552,1
4,126,12,0.142617672392875,1
4,127,12,0.0956671227355621,1
4,128,12,0.0671662392318388,1
4,148,12,0.046201424921172,1
4,149,12,0.0571621632025933,1
4,150,12,0.0771953051894187,1
4,151,12,0.100328495906064,1
4,152,12,0.10253415174862,1
4,153,12,0.0820067909454407,1
5,125,12,0.187140544049015,1
5,126,12,0.153246404715988,1
5,127,12,0.122287041042827,1
5,128,12,0.088702750868819,1
5,129,12,0.0518012288340389,1
5,148,12,0.0466884527802166,1
5,149,12,0.056573445475069,1
5,150,12,0.0732949840120689,1
5,151,12,0.0931168740560382,1
5,152,12,0.0930619200033357,1
6,126,12,0.122772630710409,1
6,127,12,0.114552933966812,1
6,128,12,0.0840706065067502,1
6,129,12,0.057075266160579,1
6,130,12,0.0455389863643878,1
6,148,12,0.0462229112853435,1
6,149,12,0.0535196567683626,1
6,150,12,0.0618464014546452,1
6,151,12,0.0727044496216454,1
7,127,12,0.077436186039084,1
7,128,12,0.062227289702454,1
7,129,12,0.0552746991108819,1
7,130,12,0.0522410558981119,1
7,131,12,0.0450710659061943,1
7,138,12,0.0425140101475329,1
7,139,12,0.0425978956382529,1
7,148,12,0.0427997912265044,1
7,149,12,0.0481948123547264,1
7,150,12,0.05259205571584,1
8,128,12,0.0450625611123237,1
8,129,12,0.0464435168794368,1
8,130,12,0.0478050354348749,1
8,131,12,0.044026403638101,1
8,138,12,0.0415879040571879,1
8,139,12,0.0423466825183481,1
8,149,12,0.0411272367337543,1
8,150,12,0.0448873423536702,1
11,135,12,0.0411549949103161,1
11,142,12,0.0412732402008122,1
11,144,12,0.0416935327319833,1
11,145,12,0.0442774491492265,1
11,146,12,0.0434937510472845,1
12,144,12,0.0456462181360572,1
12,145,12,0.0496805398291662,1
12,146,12,0.0477902155747355,1
12,147,12,0.0435991120887064,1
13,145,12,0.0535487017478114,1
13,146,12,0.0493289344571383,1
1,123,13,0.0501927792926728,1
1,124,13,0.0544479228492679,1
1,125,13,0.0563110890747018,1
1,126,13,0.0516656657719169,1
1,127,13,0.0414194464204258,1
1,140,13,0.0474820587237147,1
1,141,13,0.0504197972742617,1
1,142,13,0.0492815876803265,1
1,143,13,0.047013008257944,1
1,144,13,0.0452636159533107,1
1,145,13,0.0452959833713059,1
1,146,13,0.0471738586188154,1
1,147,13,0.0494774628693568,1
1,148,13,0.0512497851363583,1
1,149,13,0.0547796909112442,1
1,150,13,0.0632512009223111,1
1,151,13,0.0739014358298001,1
1,152,13,0.0902156958463387,1
1,153,13,0.123280528565856,1
1,154,13,0.158486190377448,1
2,123,13,0.0517872091706527,1
2,124,13,0.0562575678067264,1
2,125,13,0.0596490827971799,1
2,126,13,0.0535327897272384,1
2,127,13,0.0434275077322796,1
2,140,13,0.0417813002583035,1
2,141,13,0.0461206861501167,1
2,142,13,0.0478777289845192,1
2,143,13,0.0475217333438181,1
2,144,13,0.045769134845437,1
2,145,13,0.0452139118401177,1
2,146,13,0.0475908422282772,1
2,147,13,0.0500861530753032,1
2,148,13,0.0520813355448176,1
2,149,13,0.0598108144558268,1
2,150,13,0.0801716586400444,1
2,151,13,0.0949453777045461,1
2,152,13,0.0981866070939648,1
2,153,13,0.100381914446077,1
2,154,13,0.117860547246341,1
3,123,13,0.0553083614418663,1
3,124,13,0.0826447261800242,1
3,125,13,0.104166217907677,1
3,126,13,0.069048296588731,1
3,127,13,0.0502074207305632,1
3,142,13,0.0419338783149016,1
3,143,13,0.0422346847099356,1
3,144,13,0.0410002000924422,1
3,146,13,0.0427654206132587,1
3,147,13,0.0460735015753495,1
3,148,13,0.0505199570367875,1
3,149,13,0.0669866112809403,1
3,150,13,0.100519267137425,1
3,151,13,0.121296689425992,1
3,152,13,0.110494627998045,1
3,153,13,0.0841012843201143,1
4,124,13,0.153302158965443,1
4,125,13,0.202833548607887,1
4,126,13,0.133679377337926,1
4,127,13,0.0892528861366734,1
4,128,13,0.0601416741863535,1
4,146,13,0.0415333906533732,1
4,147,13,0.0463897306814553,1
4,148,13,0.0551334589771998,1
4,149,13,0.0797324425370061,1
4,150,13,0.118158393454062,1
4,151,13,0.143597167286192,1
4,152,13,0.131634269079091,1
4,153,13,0.0970789833989019,1
5,125,13,0.208465571253542,1
5,126,13,0.16011240644943,1
5,127,13,0.134524341855472,1
5,128,13,0.0971332345760778,1
5,129,13,0.0555670196356172,1
5,147,13,0.0475756006428218,1
5,148,13,0.0603960394326579,1
5,149,13,0.0858044382285737,1
5,150,13,0.113134747423734,1
5,151,13,0.129912224039173,1
5,152,13,0.120665226052988,1
5,153,13,0.0954935881748048,1
6,126,13,0.122681235265026,1
6,127,13,0.128144546157382,1
6,128,13,0.0992395578865359,1
6,129,13,0.0660037858389743,1
6,130,13,0.044815513881597,1
6,138,13,0.0414843542719304,1
6,147,13,0.0488607923228172,1
6,148,13,0.0629653846995633,1
6,149,13,0.0841232843240937,1
6,150,13,0.0986584744685764,1
6,151,13,0.103509040103872,1
6,152,13,0.0933831341189449,1
7,127,13,0.0834359693804064,1
7,128,13,0.072781646981394,1
7,129,13,0.0642078848014262,1
7,130,13,0.0552291149296212,1
7,131,13,0.0458492896891318,1
7,138,13,0.0448922895160298,1
7,139,13,0.0436068599397024,1
7,147,13,0.0458098151182167,1
7,148,13,0.0571712140766806,1
7,149,13,0.070596639459112,1
7,150,13,0.0785766015808255,1
7,151,13,0.0800838424531108,1
8,128,13,0.0475301516299316,1
8,129,13,0.0522144872032103,1
8,130,13,0.0531959014873884,1
8,131,13,0.0474424111372855,1
8,138,13,0.0419709522955569,1
8,139,13,0.0420560705218157,1
8,148,13,0.0463461145516688,1
8,149,13,0.0533337732252782,1
8,150,13,0.0579702051280587,1
9,130,13,0.0418967286399588,1
9,131,13,0.0419489847319864,1
9,149,13,0.0424664552114306,1
10,133,13,0.0415106445199888,1
10,134,13,0.0421531862926383,1
10,143,13,0.0428008752768356,1
10,144,13,0.0451560246337759,1
10,145,13,0.0452688226389416,1
10,146,13,0.0420518316417174,1
11,141,13,0.0413804611590119,1
11,142,13,0.0451971888093219,1
11,143,13,0.0469035543182639,1
11,144,13,0.048721406699178,1
11,145,13,0.0504612885572643,1
11,146,13,0.0482429214811478,1
11,147,13,0.0439914653176993,1
12,138,13,0.043859814028219,1
12,139,13,0.0458061223183352,1
12,140,13,0.0477453775228798,1
12,141,13,0.0490538235693325,1
12,144,13,0.0548943515365551,1
12,145,13,0.0570373216956178,1
12,146,13,0.052210399711687,1
13,145,13,0.0610820135061101,1
1,123,14,0.0499666101684505,1
1,124,14,0.0542023489537795,1
1,125,14,0.0566130011470064,1
1,126,14,0.050329261499714,1
1,140,14,0.0482262092638216,1
1,141,14,0.0539729195684612,1
1,142,14,0.0553118812262336,1
1,143,14,0.0535869652101269,1
1,144,14,0.0514580255279201,1
1,145,14,0.0524921879169944,1
1,146,14,0.0536855948666989,1
1,147,14,0.0540353673556231,1
1,148,14,0.0542460515913232,1
1,149,14,0.0580152594493072,1
1,150,14,0.067223112675402,1
1,151,14,0.0798055794389055,1
1,152,14,0.0924213949427738,1
1,153,14,0.120373208305402,1
1,154,14,0.156827696098595,1
2,123,14,0.0519185441661461,1
2,124,14,0.0557601319831549,1
2,125,14,0.0586764057964696,1
2,126,14,0.0516008714618435,1
2,140,14,0.0437061465145549,1
2,141,14,0.0494978084124814,1
2,142,14,0.0528656743448357,1
2,143,14,0.0525948185573326,1
2,144,14,0.0509017752429851,1
2,145,14,0.0511161198381578,1
2,146,14,0.0529189090558656,1
2,147,14,0.0539735143092914,1
2,148,14,0.054119285286752,1
2,149,14,0.0661017450604287,1
2,150,14,0.100998466044451,1
2,151,14,0.124336777466667,1
2,152,14,0.110010454894985,1
2,153,14,0.0976503779480654,1
2,154,14,0.114010292433417,1
3,124,14,0.0702295113514181,1
3,125,14,0.0852415214396067,1
3,126,14,0.059997422501377,1
3,127,14,0.0452611991428465,1
3,141,14,0.0416517062314219,1
3,142,14,0.0457030861728856,1
3,143,14,0.0460942634370553,1
3,144,14,0.0453859973959435,1
3,145,14,0.0447708082947444,1
3,146,14,0.0473479987338725,1
3,147,14,0.0517441769682267,1
3,148,14,0.0569064895264626,1
3,149,14,0.0862103866922695,1
3,150,14,0.152690300412893,1
3,151,14,0.183170119147999,1
3,152,14,0.139946583190141,1
3,153,14,0.0858722386832066,1
3,154,14,0.0685889512119607,1
4,124,14,0.123731677332641,1
4,125,14,0.167200030243112,1
4,126,14,0.11347579344266,1
4,127,14,0.0788240191728872,1
4,128,14,0.0527670609084681,1
4,142,14,0.0444181323892223,1
4,143,14,0.0447412550822226,1
4,144,14,0.0441994732196639,1
4,145,14,0.0428414311947145,1
4,146,14,0.0461714986439477,1
4,147,14,0.0565097433254291,1
4,148,14,0.072685677438353,1
4,149,14,0.114138442862102,1
4,150,14,0.179699676642655,1
4,151,14,0.204502348123305,1
4,152,14,0.164275765275734,1
4,153,14,0.108115437594731,1
4,154,14,0.0716224754765648,1
5,125,14,0.197129075715655,1
5,126,14,0.154295819503987,1
5,127,14,0.129705762463367,1
5,128,14,0.0965430462166827,1
5,129,14,0.0541670213484708,1
5,142,14,0.04171456493043,1
5,143,14,0.0422547680264215,1
5,144,14,0.041943913214726,1
5,146,14,0.0464095193308936,1
5,147,14,0.0653289928931282,1
5,148,14,0.0955358796545607,1
5,149,14,0.144775143414722,1
5,150,14,0.184977244567032,1
5,151,14,0.184415225296045,1
5,152,14,0.153750972022786,1
5,153,14,0.117334612523538,1
6,126,14,0.12334442535795,1
6,127,14,0.134565768257657,1
6,128,14,0.114091425896114,1
6,129,14,0.0740249256530709,1
6,130,14,0.0439628636905057,1
6,138,14,0.0430955044773387,1
6,143,14,0.0410046390217288,1
6,144,14,0.0410194723987053,1
6,146,14,0.0483855781793526,1
6,147,14,0.072452593100297,1
6,148,14,0.108288874834262,1
6,149,14,0.158251440765068,1
6,150,14,0.180400432729103,1
6,151,14,0.157286187211264,1
6,152,14,0.119359445526801,1
7,127,14,0.0892451058452686,1
7,128,14,0.0864950404670312,1
7,129,14,0.0736609118246329,1
7,130,14,0.0596567765808276,1
7,131,14,0.0472923093652346,1
7,137,14,0.0426894749126207,1
7,138,14,0.0458298038168434,1
7,139,14,0.0439296366016743,1
7,146,14,0.0464739135425904,1
7,147,14,0.0652621764642325,1
7,148,14,0.0917199359807994,1
7,149,14,0.126170331005496,1
7,150,14,0.140340885547037,1
7,151,14,0.122037011997847,1
8,128,14,0.0545852701338803,1
8,129,14,0.0611219476494848,1
8,130,14,0.062487440155015,1
8,131,14,0.0535530920164846,1
8,132,14,0.0427242104804667,1
8,138,14,0.0418463108377697,1
8,139,14,0.0413397754794974,1
8,144,14,0.0410001622452985,1
8,146,14,0.0426975309475013,1
8,147,14,0.0516921749927355,1
8,148,14,0.0634245895012283,1
8,149,14,0.0776373544215023,1
8,150,14,0.0843764006146549,1
9,130,14,0.0491046468766331,1
9,131,14,0.0474263423214028,1
9,132,14,0.0428401552052972,1
9,143,14,0.0423359609632016,1
9,144,14,0.0449579353868372,1
9,145,14,0.0440800817013861,1
9,146,14,0.0419384794462327,1
9,147,14,0.042228556176018,1
9,148,14,0.045983382119383,1
9,149,14,0.0507087548099394,1
10,132,14,0.0420962425615224,1
10,133,14,0.0435033993655694,1
10,134,14,0.0445661796020418,1
10,135,14,0.04390980199499,1
10,142,14,0.0434309464156246,1
10,143,14,0.0500742636654357,1
10,144,14,0.0558812482498399,1
10,145,14,0.0554182911742104,1
10,146,14,0.049030753031859,1
10,147,14,0.0423974625717701,1
11,136,14,0.0426304360717623,1
11,141,14,0.0412096461858687,1
11,142,14,0.0503192644470333,1
11,143,14,0.0622294199559727,1
11,144,14,0.0708649378610455,1
11,145,14,0.0682330258588122,1
11,146,14,0.0573594765830855,1
11,147,14,0.0474392427906814,1
12,138,14,0.0422601882780778,1
12,139,14,0.0426916808604269,1
12,140,14,0.0447075873445034,1
12,141,14,0.0484935128265484,1
12,145,14,0.0737516043944903,1
12,146,14,0.0585202160410123,1
13,139,14,0.0506769037351195,1
13,140,14,0.054639077958801,1
13,145,14,0.0703867662336348,1
1,123,15,0.0505179024775562,1
1,124,15,0.053351096403639,1
1,125,15,0.0550648150719351,1
1,126,15,0.0482077831115577,1
1,140,15,0.0470256600174209,1
1,141,15,0.056202824616682,1
1,142,15,0.0624957340862276,1
1,143,15,0.059968145032331,1
1,144,15,0.0557296650324486,1
1,145,15,0.0565399453461292,1
1,146,15,0.0585681737788587,1
1,147,15,0.0568078436496861,1
1,148,15,0.0552504607186874,1
1,149,15,0.0589296572554013,1
1,150,15,0.0701983198982461,1
1,151,15,0.085530554669572,1
1,152,15,0.0956546656185387,1
1,153,15,0.113326946033087,1
1,154,15,0.13805596697203,1
2,123,15,0.0527605836401547,1
2,124,15,0.0550192795512877,1
2,125,15,0.0567263425290214,1
2,126,15,0.0494712991916629,1
2,140,15,0.0440875132583951,1
2,141,15,0.0504619698058515,1
2,142,15,0.0564456518908822,1
2,143,15,0.0551760424206358,1
2,144,15,0.0532738557900118,1
2,145,15,0.0545926665471129,1
2,146,15,0.0577710696779325,1
2,147,15,0.0577566228824956,1
2,148,15,0.0565521861937599,1
2,149,15,0.0708333192758228,1
2,150,15,0.115739420295948,1
2,151,15,0.145324154081734,1
2,152,15,0.115866186600519,1
2,153,15,0.0937708943267088,1
2,154,15,0.103804334332757,1
3,123,15,0.0540562535722297,1
3,124,15,0.0615763350504258,1
3,125,15,0.067440560736361,1
3,126,15,0.0532758995357734,1
3,127,15,0.0422695446326824,1
3,141,15,0.0434938781055528,1
3,142,15,0.0476323010708709,1
3,143,15,0.0479475623714441,1
3,144,15,0.0481650590930163,1
3,145,15,0.0488885342791745,1
3,146,15,0.0528787478296285,1
3,147,15,0.0588250910039978,1
3,148,15,0.0646754159747127,1
3,149,15,0.104379600104052,1
3,150,15,0.198508831187638,1
3,151,15,0.238280166963432,1
3,152,15,0.163184015754101,1
3,153,15,0.0876851547152307,1
3,154,15,0.0674924491704209,1
4,124,15,0.0926774903442204,1
4,125,15,0.119419784687383,1
4,126,15,0.0894919232897654,1
4,127,15,0.0652802565854679,1
4,128,15,0.0469034245566283,1
4,141,15,0.0417819598799515,1
4,142,15,0.0459258869013155,1
4,143,15,0.0471272579714087,1
4,144,15,0.0471705767307802,1
4,145,15,0.0466494810356397,1
4,146,15,0.0526274914558451,1
4,147,15,0.070418579461311,1
4,148,15,0.0961422557780045,1
4,149,15,0.148625127890905,1
4,150,15,0.233100558260509,1
4,151,15,0.253176110675256,1
4,152,15,0.181738112990723,1
4,153,15,0.110360173316561,1
4,154,15,0.0701693722400241,1
5,125,15,0.161985039867532,1
5,126,15,0.133161909561849,1
5,127,15,0.105632902862083,1
5,128,15,0.0841776922965794,1
5,129,15,0.0492433134045413,1
5,142,15,0.0439411853872481,1
5,143,15,0.0455191166139272,1
5,144,15,0.0454912178622601,1
5,145,15,0.0445188760791086,1
5,146,15,0.0547021258935278,1
5,147,15,0.0891041252348578,1
5,148,15,0.144835298746321,1
5,149,15,0.214381490731083,1
5,150,15,0.260738143008915,1
5,151,15,0.233293989605401,1
5,152,15,0.178729167742607,1
5,153,15,0.133226985022133,1
6,126,15,0.11724242769487,1
6,127,15,0.121457258636653,1
6,128,15,0.114581881625034,1
6,129,15,0.0741458743109765,1
6,130,15,0.044324952721348,1
6,138,15,0.0412010332573017,1
6,142,15,0.0416824408155017,1
6,143,15,0.043444617344615,1
6,144,15,0.0436352425941358,1
6,145,15,0.0443034176965631,1
6,146,15,0.0583355544199971,1
6,147,15,0.102050054339848,1
6,148,15,0.17487360351609,1
6,149,15,0.258694440501132,2
6,150,15,0.284918164094315,2
6,151,15,0.216797219848305,1
6,152,15,0.146660136628621,1
7,127,15,0.0884246933105368,1
7,128,15,0.0960039839417381,1
7,129,15,0.0765038270599206,1
7,130,15,0.0606727453072353,1
7,131,15,0.0474622971079505,1
7,137,15,0.0417868421614932,1
7,138,15,0.0431608529777311,1
7,139,15,0.041740495630623,1
7,143,15,0.0410967697830481,1
7,144,15,0.0416790507927701,1
7,145,15,0.0433402295154605,1
7,146,15,0.0551026243685258,1
7,147,15,0.0866815295644153,1
7,148,15,0.139983662577532,1
7,149,15,0.203291174642985,1
7,150,15,0.224565010882243,1
7,151,15,0.172898307017241,1
8,128,15,0.0644242082615427,1
8,129,15,0.0659735189374564,1
8,130,15,0.066493084526643,1
8,131,15,0.0562123729103727,1
8,132,15,0.0459278279191156,1
8,144,15,0.04227754119348,1
8,145,15,0.0436905102374577,1
8,146,15,0.0494116683133418,1
8,147,15,0.063343612833841,1
8,148,15,0.0849242055798022,1
8,149,15,0.11034674298727,1
8,150,15,0.121076278474353,1
9,130,15,0.0541899945647176,1
9,131,15,0.0511546968910929,1
9,132,15,0.0462028468924294,1
9,133,15,0.0430123651160238,1
9,134,15,0.041170325706896,1
9,135,15,0.0412058939119041,1
9,143,15,0.0441906845722152,1
9,144,15,0.0467004989853938,1
9,145,15,0.046866766894554,1
9,146,15,0.0464333468112419,1
9,147,15,0.0481299856042441,1
9,148,15,0.0533722583637213,1
9,149,15,0.0590029617660801,1
10,131,15,0.0432310053620103,1
10,132,15,0.0441116732529348,1
10,133,15,0.0443134201559787,1
10,134,15,0.0446451260405045,1
10,135,15,0.0451610799308319,1
10,136,15,0.0429627069600768,1
10,142,15,0.0450976535246677,1
10,143,15,0.0583988780981996,1
10,144,15,0.0707932229304036,1
10,145,15,0.0681438579881739,1
10,146,15,0.0545380368984997,1
10,147,15,0.0452260040025409,1
10,148,15,0.0441883650829778,1
11,135,15,0.0459042221148949,1
11,136,15,0.0443442196208763,1
11,137,15,0.0415964764352437,1
11,141,15,0.0414975196712152,1
11,142,15,0.0567422869900032,1
11,145,15,0.10065578719161,1
11,146,15,0.0674099856509583,1
11,147,15,0.0487150537857654,1
12,137,15,0.0436005962374143,1
12,138,15,0.041813016164753,1
12,139,15,0.0422335303720517,1
12,140,15,0.0449481654170189,1
12,141,15,0.0495981411905215,1
12,146,15,0.0668429381165895,1
13,139,15,0.0483930448801379,1
13,140,15,0.0535009710928274,1
13,141,15,0.0598375345393034,1
13,145,15,0.0862379934802564,1
14,140,15,0.0555616831883507,1
14,141,15,0.0618551603650524,1
14,142,15,0.0704267976982362,1
1,123,16,0.0510023567308269,1
1,124,16,0.0519206473859908,1
1,125,16,0.0525823614403092,1
1,126,16,0.0466457233549404,1
1,140,16,0.0445831297157,1
1,141,16,0.0588123202963548,1
1,142,16,0.0753712999442804,1
1,143,16,0.0739744267498594,1
1,144,16,0.0630194304208161,1
1,145,16,0.0590369593146233,1
1,146,16,0.0615705444374344,1
1,147,16,0.058671069349203,1
1,148,16,0.0553580655550593,1
1,149,16,0.0582277008738235,1
1,150,16,0.071146547644104,1
1,151,16,0.0889676322143469,1
1,152,16,0.0993193288520585,1
1,153,16,0.106208525477875,1
1,154,16,0.11226909673877,1
2,123,16,0.0520105613860342,1
2,124,16,0.0526623594886942,1
2,125,16,0.053426758250699,1
2,126,16,0.0477735303910834,1
2,140,16,0.042786001349348,1
2,141,16,0.0508777693403879,1
2,142,16,0.0630589428388749,1
2,143,16,0.0623023568086839,1
2,144,16,0.0566122982714799,1
2,145,16,0.0562911111895448,1
2,146,16,0.0608950702430012,1
2,147,16,0.060906408165917,1
2,148,16,0.0591127509233189,1
2,149,16,0.0736098722479395,1
2,150,16,0.117943464931529,1
2,151,16,0.147197922914149,1
2,152,16,0.114624605643576,1
2,153,16,0.0917637089058957,1
2,154,16,0.0911984455940172,1
3,124,16,0.0543568301810339,1
3,125,16,0.0549824813141082,1
3,126,16,0.0480123458680478,1
3,141,16,0.0432998385029936,1
3,142,16,0.0479654802906349,1
3,143,16,0.0492071423486008,1
3,144,16,0.0500295661886854,1
3,145,16,0.0518870715627635,1
3,146,16,0.0572766399989204,1
3,147,16,0.0646269824442023,1
3,148,16,0.070980479784132,1
3,149,16,0.11451561668309,1
3,150,16,0.212053285837114,1
3,151,16,0.251273718588709,1
3,152,16,0.164310508953683,1
3,153,16,0.0873591664527762,1
3,154,16,0.0656589713258793,1
4,124,16,0.0699634188972908,1
4,125,16,0.0823110279137175,1
4,126,16,0.0686680301154264,1
4,127,16,0.0540901105456676,1
4,128,16,0.0423314895935061,1
4,141,16,0.0412604370527603,1
4,142,16,0.0453578661546792,1
4,143,16,0.0482506368917348,1
4,144,16,0.0497418197616071,1
4,145,16,0.0503924662297506,1
4,146,16,0.0588822996651198,1
4,147,16,0.0832065940624363,1
4,148,16,0.115553125841018,1
4,149,16,0.169084212446788,1
4,150,16,0.251259293420211,1
4,151,16,0.264130285180607,1
4,152,16,0.178522262814545,1
4,153,16,0.106277677616213,1
5,125,16,0.119128502255733,1
5,126,16,0.102813420415502,1
5,127,16,0.0797055115908716,1
5,128,16,0.06729808786714,1
5,129,16,0.0425070192394117,1
5,142,16,0.0442347305374199,1
5,143,16,0.0475699560116706,1
5,144,16,0.0485765007992884,1
5,145,16,0.0479847228598565,1
5,146,16,0.0628442522126738,1
5,147,16,0.113707201692922,1
5,148,16,0.192959315315325,1
5,149,16,0.266516580033473,2
5,150,16,0.299669250566864,2
5,151,16,0.246601823912249,1
5,152,16,0.180616907577794,1
5,153,16,0.133670640054458,1
6,127,16,0.0971573702403108,1
6,128,16,0.098470525552791,1
6,129,16,0.0654350189629329,1
6,130,16,0.0427385707681465,1
6,142,16,0.0428419826816661,1
6,143,16,0.0449651750047601,1
6,144,16,0.0455341689636639,1
6,145,16,0.0469352594112438,1
6,146,16,0.0672290222365594,1
6,147,16,0.133531978933285,1
6,148,16,0.244298295355995,2
6,149,16,0.342620762882497,2
6,150,16,0.352422740570936,2
6,151,16,0.242478150519518,2
6,152,16,0.157594241334323,1
7,127,16,0.0804415844691586,1
7,128,16,0.0939347940860183,1
7,129,16,0.0730593260682389,1
7,130,16,0.0575387422827511,1
7,131,16,0.046221970513485,1
7,143,16,0.0412035419822578,1
7,144,16,0.0420566328222369,1
7,145,16,0.044861733354199,1
7,146,16,0.0605946774631808,1
7,147,16,0.107370292215418,1
7,148,16,0.18970002743161,1
7,149,16,0.267927283655562,2
7,150,16,0.279344793707979,2
7,151,16,0.193524903031292,1
8,128,16,0.067130495307949,1
8,129,16,0.0642518091150975,1
8,130,16,0.063356324067401,1
8,131,16,0.0550120237131604,1
8,132,16,0.0471925388876158,1
8,133,16,0.0420416237263787,1
8,145,16,0.0431816391697435,1
8,146,16,0.0509663316567265,1
8,147,16,0.0697372011124552,1
8,148,16,0.101202937941844,1
8,149,16,0.132768364147829,1
8,150,16,0.141414262983755,1
9,129,16,0.0473361579846184,1
9,130,16,0.0540349185966331,1
9,131,16,0.0518134750884044,1
9,132,16,0.0479916975477733,1
9,133,16,0.0454948241543845,1
9,134,16,0.0436300818657509,1
9,135,16,0.0429492198600702,1
9,136,16,0.0426000583321806,1
9,143,16,0.0424071000765853,1
9,144,16,0.0447119830199114,1
9,145,16,0.0444977627796396,1
9,146,16,0.0449110860296287,1
9,147,16,0.0479543856707859,1
9,148,16,0.0546790553560543,1
10,130,16,0.0422909607093013,1
10,131,16,0.0447193226624285,1
10,132,16,0.0457809701879563,1
10,133,16,0.0462403750388095,1
10,134,16,0.0462407913573906,1
10,135,16,0.0466107201537208,1
10,136,16,0.0451988243466048,1
10,142,16,0.0440511691869404,1
10,143,16,0.0667714556755447,1
10,145,16,0.0831502721058246,1
10,146,16,0.0562169794484387,1
10,147,16,0.0426630738264985,1
10,148,16,0.0434055212451373,1
11,135,16,0.0465593832066124,1
11,136,16,0.0452677791391215,1
11,142,16,0.0614591440732195,1
11,146,16,0.0789457031467283,1
11,147,16,0.0458937925234287,1
12,136,16,0.0442939532072621,1
12,137,16,0.0417149758422763,1
12,140,16,0.0431426836453711,1
12,141,16,0.0495504537894161,1
13,140,16,0.0508923458974605,1
1,124,17,0.0520600708567737,1
1,125,17,0.0516970410540728,1
1,126,17,0.0462404561398318,1
1,140,17,0.0437164490477529,1
1,141,17,0.0623873506800418,1
1,142,17,0.0900638909528198,1
1,143,17,0.0939109287585263,1
1,144,17,0.0754498543944686,1
1,145,17,0.064533175595089,1
1,146,17,0.0653419636499595,1
1,147,17,0.0623778564536993,1
1,148,17,0.0572338673197656,1
1,149,17,0.0583464165502489,1
1,150,17,0.0700399566353915,1
1,151,17,0.0870101184663178,1
1,152,17,0.096908844267611,1
1,153,17,0.097369844105236,1
2,124,17,0.0534006923821356,1
2,125,17,0.053177821366153,1
2,126,17,0.0478887749437548,1
2,140,17,0.0439719388948997,1
2,141,17,0.0540191741848396,1
2,142,17,0.0725863394995198,1
2,143,17,0.0757295393799314,1
2,144,17,0.0651153565802169,1
2,145,17,0.0615863158829021,1
2,146,17,0.0654550725423773,1
2,147,17,0.0664492305005244,1
2,148,17,0.0652402143073968,1
2,149,17,0.0775563615339106,1
2,150,17,0.110504868353793,1
2,151,17,0.129379141612939,1
2,152,17,0.105071218808655,1
2,153,17,0.0881705551470948,1
3,124,17,0.0545275370194808,1
3,125,17,0.0539690429395959,1
3,126,17,0.0484971299321425,1
3,127,17,0.0415118312982816,1
3,140,17,0.0435448609115305,1
3,141,17,0.0454848541353779,1
3,142,17,0.0506448904582549,1
3,143,17,0.0538401301613015,1
3,144,17,0.0552477249108689,1
3,145,17,0.0572066930705643,1
3,146,17,0.0626256579239332,1
3,147,17,0.0709387992654107,1
3,148,17,0.0805355156731727,1
3,149,17,0.11964956010373,1
3,150,17,0.192643410613308,1
3,151,17,0.212924613593639,1
3,152,17,0.140427858283338,1
3,153,17,0.0822901200701716,1
4,125,17,0.0677104811587403,1
4,126,17,0.0595871594632955,1
4,127,17,0.0493090106393295,1
4,140,17,0.0433302189459428,1
4,141,17,0.0433900039162062,1
4,142,17,0.0470589168432939,1
4,143,17,0.0516822806680164,1
4,144,17,0.0554612260554098,1
4,145,17,0.0573115458789132,1
4,146,17,0.0664692083856813,1
4,147,17,0.0928655473947021,1
4,148,17,0.126959930558493,1
4,149,17,0.173124351786563,1
4,150,17,0.232385398632503,1
4,151,17,0.229789755007437,1
4,152,17,0.153069853197201,1
4,153,17,0.0942501256741441,1
5,127,17,0.0627993168395913,1
5,128,17,0.0529759230745341,1
5,140,17,0.0424412598271731,1
5,141,17,0.0426696619328757,1
5,142,17,0.0466342881107977,1
5,143,17,0.0505514783007835,1
5,144,17,0.0532882593315701,1
5,145,17,0.0545853242012285,1
5,146,17,0.072494700751069,1
5,147,17,0.130108856171078,1
5,148,17,0.21254865088125,1
5,149,17,0.274313805331767,2
5,150,17,0.285806923163897,2
5,151,17,0.224103838029104,1
5,152,17,0.159040110359676,1
6,128,17,0.0727770620702673,1
6,129,17,0.0549396221271963,1
6,130,17,0.0419734123598996,1
6,141,17,0.0421764379557283,1
6,142,17,0.0465586641108815,1
6,143,17,0.0483350792761412,1
6,144,17,0.0497279298598566,1
6,145,17,0.0527755386686646,1
6,146,17,0.0771065266036873,1
6,147,17,0.154308806481023,1
6,148,17,0.273028581211363,2
6,149,17,0.358691568443597,2
6,150,17,0.344527220833629,2
6,151,17,0.229572101490555,2
7,127,17,0.0681123583511172,1
7,128,17,0.0803462096669477,1
7,129,17,0.066825009383929,1
7,130,17,0.0532825660398055,1
7,131,17,0.0453545599363372,1
7,137,17,0.0411988164960258,1
7,141,17,0.0415707133438302,1
7,142,17,0.044230586275181,1
7,143,17,0.0449281848284945,1
7,144,17,0.046725672742712,1
7,145,17,0.0504451548605638,1
7,146,17,0.0681342664406046,1
7,147,17,0.123335677261012,1
7,148,17,0.214553100494245,1
7,149,17,0.286166946822038,2
7,150,17,0.277708715751687,2
7,151,17,0.184026502689483,1
8,128,17,0.0632763746796293,1
8,129,17,0.0600729221463924,1
8,130,17,0.0561050546309462,1
8,131,17,0.0510342943134039,1
8,132,17,0.0473141687941087,1
8,133,17,0.0438936547814524,1
8,136,17,0.0410401261257146,1
8,137,17,0.0421352845936519,1
8,143,17,0.0420991162410788,1
8,144,17,0.0442234358683826,1
8,145,17,0.0472985000766026,1
8,146,17,0.0553231813020058,1
8,147,17,0.0767709522003983,1
8,148,17,0.112432704534399,1
8,149,17,0.143465697122328,1
8,150,17,0.144725379827446,1
9,129,17,0.0476223959326821,1
9,130,17,0.0509807568252241,1
9,131,17,0.0499232805956094,1
9,132,17,0.0483815663821167,1
9,133,17,0.047395145461496,1
9,134,17,0.0456423793543355,1
9,135,17,0.0443496777196763,1
9,136,17,0.0441712825043165,1
9,137,17,0.0423352229438988,1
9,143,17,0.0441936231325895,1
9,144,17,0.0476696291680627,1
9,145,17,0.0473968215492899,1
9,146,17,0.0472630264894538,1
9,147,17,0.0503621939214978,1
10,134,17,0.0463727697543275,1
10,135,17,0.0462741671314296,1
10,136,17,0.0460657375041491,1
10,137,17,0.0417114668713786,1
10,142,17,0.047687325411126,1
10,146,17,0.0620005853114846,1
10,147,17,0.0439731716304385,1
11,135,17,0.0454724943395812,1
11,136,17,0.0452544920883033,1
11,141,17,0.0435678152042055,1
12,140,17,0.0445630734328882,1
12,141,17,0.056953549746329,1
1,141,18,0.0664626770500197,1
1,142,18,0.0985064046450513,1
1,143,18,0.109705893522619,1
1,144,18,0.0905526868141503,1
1,145,18,0.075898548503645,1
1,146,18,0.0706914249272275,1
2,125,18,0.0534543758521555,1
2,140,18,0.0485092518316071,1
2,141,18,0.0589881202790014,1
2,142,18,0.0785265892837478,1
2,143,18,0.0863570551877102,1
2,144,18,0.0752087194282668,1
2,145,18,0.0704274789468234,1
2,146,18,0.0705552454973361,1
3,125,18,0.0542508635853123,1
3,140,18,0.0482020141255056,1
3,141,18,0.0509462726705472,1
3,142,18,0.0558576640725586,1
3,143,18,0.0608707237161103,1
3,144,18,0.0628214466052064,1
3,145,18,0.0645240328065097,1
3,146,18,0.068936955698599,1
3,150,18,0.153066176617524,1
3,151,18,0.152126453665537,1
4,140,18,0.0483346142969467,1
4,141,18,0.0488412145360368,1
4,142,18,0.0524045988129233,1
4,143,18,0.0586674252099349,1
4,144,18,0.0639610565434597,1
4,145,18,0.0661548662300274,1
4,146,18,0.0744837898304422,1
4,147,18,0.0982410961674728,1
4,148,18,0.128270382503564,1
4,149,18,0.161982249992366,1
4,150,18,0.191854827526457,1
4,151,18,0.174720279330087,1
4,152,18,0.11883491655505,1
5,140,18,0.0467326528373636,1
5,141,18,0.047171268792837,1
5,142,18,0.0509258189927262,1
5,143,18,0.0552621933332451,1
5,144,18,0.0589966737334853,1
5,145,18,0.0621511034021165,1
5,146,18,0.0804233799930223,1
5,147,18,0.133196307208769,1
5,148,18,0.201459718917265,1
5,149,18,0.244443109341393,1
5,150,18,0.239562774224183,1
5,151,18,0.186410548340664,1
6,128,18,0.0547126311792815,1
6,129,18,0.0487065273649556,1
6,142,18,0.0511525450106348,1
6,143,18,0.0526630785844251,1
6,146,18,0.0835824486401283,1
6,147,18,0.155514194755087,1
6,148,18,0.254692050983866,1
6,149,18,0.311797508351675,2
6,150,18,0.282602827229216,2
6,151,18,0.194181799684887,1
7,127,18,0.0571266085144222,1
7,128,18,0.0651229043820245,1
7,129,18,0.0602542964726376,1
7,130,18,0.049691283011252,1
7,147,18,0.124580696901301,1
7,148,18,0.202850979920944,1
7,149,18,0.252570491494687,1
7,150,18,0.229453672371075,1
7,151,18,0.155777427046495,1
8,128,18,0.0574009137987399,1
8,129,18,0.0570873826533088,1
8,130,18,0.0511695545983761,1
8,132,18,0.0463085377446753,1
8,133,18,0.0445459854474921,1
8,134,18,0.0425358155090588,1
8,148,18,0.109483536146444,1
8,149,18,0.134642684467195,1
8,150,18,0.130352148424473,1
9,129,18,0.0478312364718088,1
9,134,18,0.0460562811249503,1
9,135,18,0.0442286425540135,1
10,135,18,0.0444683771758972,1
1,142,19,0.0988693371265255,1
1,143,19,0.114531025877325,1
1,144,19,0.103134050603751,1
1,145,19,0.0877449045417178,1
2,142,19,0.0810066693587881,1
2,143,19,0.0911188584574785,1
2,144,19,0.085041504691705,1
2,145,19,0.0795111556943255,1
3,143,19,0.0676816740756235,1
3,144,19,0.0701809318390675,1
5,148,19,0.16850608110604,1
5,149,19,0.191883526474877,1
6,147,19,0.141055028708897,1
6,148,19,0.207841720563162,1
6,149,19,0.235390375337261,1
6,150,19,0.206323509425928,1
7,128,19,0.0569063651715618,1
7,129,19,0.0559183708911086,1
7,148,19,0.170220491836393,1
7,149,19,0.195610951086178,1
7,150,19,0.170590052974755,1
8,129,19,0.0550138674097337,1
8,149,19,0.116270134572332,1
1,142,20,0.0959568804679931,1
1,143,20,0.113682276645406,1
1,144,20,0.109408436599806,1
1,145,20,0.0919530311323251,1
2,142,20,0.0829204912827431,1
2,143,20,0.0944755432622266,1
2,144,20,0.0920308448598432,1
2,145,20,0.0828898945704012,1
3,143,20,0.0734937788379015,1
3,144,20,0.0748869808593802,1
6,148,20,0.156925568812293,1
6,149,20,0.163168671440684,1
7,149,20,0.14140722341502,1
1,142,21,0.0939748363640893,1
1,143,21,0.112086327474942,1
1,144,21,0.108435678498073,1
1,145,21,0.0901139519105108,1
2,142,21,0.0854551253121092,1
2,143,21,0.0984605230933755,1
2,144,21,0.0953392583361254,1
2,145,21,0.0833952134133392,1
3,143,21,0.0785597541951288,1
3,144,21,0.0787719469098434,1
1,143,22,0.108808256594465,1
1,144,22,0.103307195879601,1
2,142,22,0.0842459252899978,1
2,143,22,0.0988100144320891,1
2,144,22,0.0944039472797506,1
3,143,22,0.0789582359580392,1
2,143,23,0.0940035244990401,1
