x,y,z,signal,cytoplasm.p
709,978,11,0.208309316617266,1
709,979,11,0.17618618571468,1
710,978,11,0.238802544054724,1
710,979,11,0.207937441396401,1
708,978,12,0.134463537715695,1
708,979,12,0.112003755820783,1
709,977,12,0.172274413072983,1
709,978,12,0.254378395483534,1
709,979,12,0.226023574920951,1
709,980,12,0.126201646813569,1
710,977,12,0.195951380737335,1
710,978,12,0.305713006882471,1
710,979,12,0.285198319465707,1
710,980,12,0.166389420118607,1
711,978,12,0.22666838211549,1
711,979,12,0.223796865253009,1
708,978,13,0.120710156019335,1
708,979,13,0.101747709728758,1
709,977,13,0.148025045206791,1
709,978,13,0.23007674449164,1
709,979,13,0.221214651957234,1
709,980,13,0.145772350771307,1
710,977,13,0.173499200711578,1
710,978,13,0.297948178739213,1
710,979,13,0.311727804726386,1
710,980,13,0.217916349075063,1
710,981,13,0.106323851131569,1
711,978,13,0.258657480061908,1
711,979,13,0.289735694579865,1
711,980,13,0.211507984190188,1
712,979,13,0.176961381726119,1
708,978,14,0.0879015376494303,1
708,979,14,0.0805987474368833,1
709,977,14,0.101449917588385,1
709,978,14,0.17286664517814,1
709,979,14,0.191240449435481,1
709,980,14,0.150877811512919,1
710,977,14,0.127630625199346,1
710,978,14,0.252855253404145,1
710,979,14,0.304654865624473,1
710,980,14,0.251310419504662,1
710,981,14,0.137013580939296,1
711,978,14,0.253650713857686,1
711,979,14,0.316885959505546,1
711,980,14,0.260946280672515,1
711,981,14,0.141676954601681,1
712,979,14,0.205400060745747,1
712,980,14,0.168288979076109,1
708,979,15,0.0643268816280621,1
708,980,15,0.0543247736502908,1
709,978,15,0.122018780488037,1
709,979,15,0.159419295486017,1
709,980,15,0.1438995767781,1
709,981,15,0.0880904273370741,1
710,977,15,0.0919328423845102,1
710,978,15,0.200058617656216,1
710,979,15,0.276887065074682,1
710,980,15,0.255367395416663,1
710,981,15,0.154370594646537,1
710,982,15,0.0641393922847365,1
711,978,15,0.219962127769016,1
711,979,15,0.302706278395631,1
711,980,15,0.2728689743995,1
711,981,15,0.163940742359397,1
711,982,15,0.0690530545153719,1
712,979,15,0.201112044241451,1
712,980,15,0.176847980870021,1
712,981,15,0.108220544519617,1
718,983,15,0.0420336731228271,1
719,982,15,0.0445971466757188,1
719,983,15,0.0425069029946131,1
706,987,16,0.0442288912638152,1
708,979,16,0.0522718688798465,1
708,980,16,0.0510877020399481,1
709,978,16,0.0886158538268047,1
709,979,16,0.133173631362938,1
709,980,16,0.130506943242347,1
709,981,16,0.0851100080218643,1
710,978,16,0.155910530044274,1
710,979,16,0.237503608454818,1
710,980,16,0.231171348769258,1
710,981,16,0.146349011480185,1
710,982,16,0.0621057571171878,1
711,978,16,0.17448094480658,1
711,979,16,0.258071195365053,1
711,980,16,0.245784650011674,1
711,981,16,0.155925084974407,1
711,982,16,0.0667393667043927,1
712,979,16,0.165535491234731,1
712,980,16,0.153330447002017,1
712,981,16,0.0998336282815312,1
705,985,17,0.0520676024383768,1
705,986,17,0.0688114978238541,1
705,987,17,0.0620915590315526,1
706,985,17,0.0533438405655116,1
706,986,17,0.0658512510362548,1
706,987,17,0.0572745746262194,1
708,980,17,0.0493811472952874,1
709,979,17,0.111890830757349,1
709,980,17,0.113624597598354,1
709,981,17,0.0742792206118227,1
709,982,17,0.0411386719778969,1
710,979,17,0.194151435462142,1
710,980,17,0.191668597952344,1
710,981,17,0.119175140750284,1
710,982,17,0.0539705784522845,1
711,979,17,0.207743144973938,1
711,980,17,0.202860214624015,1
711,981,17,0.127825905647546,1
711,982,17,0.0578191571774145,1
712,980,17,0.124038163502602,1
712,982,17,0.0454881846840265,1
704,985,18,0.0426955142354137,1
705,983,18,0.0461536618257791,1
705,984,18,0.0541946281364577,1
705,985,18,0.0667686387667039,1
705,986,18,0.0752854950626995,1
706,983,18,0.0487548635742393,1
706,984,18,0.0547034829839674,1
706,985,18,0.0656121435956101,1
706,986,18,0.0732364128537724,1
706,987,18,0.0535015496134531,1
707,984,18,0.0413683338528124,1
707,985,18,0.0417899158902379,1
707,986,18,0.041682581390607,1
708,980,18,0.0446790478947602,1
709,979,18,0.0892563951075711,1
709,980,18,0.0924095541935198,1
709,981,18,0.06088583553993,1
710,980,18,0.145333810510122,1
710,981,18,0.0888443965076126,1
710,982,18,0.0442488664456047,1
711,980,18,0.150503319432402,1
711,981,18,0.0927934539926228,1
711,982,18,0.0459494278247183,1
712,981,18,0.0616610261446339,1
714,982,18,0.050068754202655,1
715,982,18,0.0465801450683182,1
693,970,19,0.0417841820479622,1
693,971,19,0.0434473882962098,1
700,980,19,0.0525349984432929,1
701,981,19,0.0529874988937821,1
704,983,19,0.0459247082331249,1
704,984,19,0.0525230495593425,1
704,985,19,0.04687541226353,1
705,982,19,0.0410788221268157,1
705,983,19,0.0604580654945039,1
705,984,19,0.072613875999954,1
705,985,19,0.072118067603563,1
705,986,19,0.0661429119393421,1
706,983,19,0.0578541874123082,1
706,984,19,0.0685007944007335,1
706,985,19,0.0702479753508257,1
706,986,19,0.0665232973608127,1
707,983,19,0.0425929809163023,1
707,984,19,0.0467490676842747,1
707,985,19,0.0434964219742852,1
709,978,19,0.0484867273743503,1
709,979,19,0.0697658946541407,1
709,980,19,0.073252843920888,1
709,981,19,0.0526902636470961,1
710,978,19,0.0731537276581822,1
710,979,19,0.108994313153063,1
710,980,19,0.107326086751536,1
710,981,19,0.0687433026775794,1
711,978,19,0.0765551045329459,1
711,979,19,0.11363280502181,1
711,980,19,0.109726601316977,1
711,981,19,0.0693344209953634,1
712,978,19,0.0495830888407848,1
712,979,19,0.0703493137815421,1
712,980,19,0.0693891749988776,1
712,981,19,0.0497818241925344,1
714,981,19,0.0451547946016045,1
714,982,19,0.0556282455007099,1
714,983,19,0.0433017551904871,1
715,981,19,0.0512060879055494,1
715,982,19,0.0603150789854751,1
715,983,19,0.0426869364506231,1
716,981,19,0.0439820170486027,1
716,982,19,0.0479666697722951,1
718,977,19,0.0421495827038813,1
719,977,19,0.0465749924500355,1
719,978,19,0.0422848186585467,1
693,970,20,0.0470652913836457,1
693,971,20,0.0453207408100431,1
694,970,20,0.0439962989386277,1
694,971,20,0.0434319358480965,1
698,966,20,0.0415465614593928,1
699,980,20,0.0459533098603185,1
700,980,20,0.0595752213928147,1
700,981,20,0.0816300010026249,1
701,980,20,0.0446617409366039,1
701,981,20,0.0517391270779055,1
704,982,20,0.0417480434324306,1
704,983,20,0.053902377899275,1
704,984,20,0.0586567955692803,1
704,985,20,0.0459885455511353,1
705,982,20,0.0476061973551637,1
705,983,20,0.0734535797645207,1
705,984,20,0.0831999113381997,1
705,985,20,0.068215659426573,1
705,986,20,0.0472109380062056,1
706,982,20,0.0424926913921408,1
706,983,20,0.0677720422413918,1
706,984,20,0.0768098860978314,1
706,985,20,0.06567898705818,1
707,983,20,0.0457619384813927,1
707,984,20,0.0486743086321679,1
709,979,20,0.0520551831684971,1
709,980,20,0.0557975736217779,1
709,981,20,0.0451242519566108,1
710,978,20,0.0512377010840374,1
710,979,20,0.0763148562712544,1
710,980,20,0.0760388424587339,1
710,981,20,0.0530786348158946,1
711,978,20,0.0530674753152278,1
711,979,20,0.0789204266614485,1
711,980,20,0.0766991615754689,1
711,981,20,0.0513249603772846,1
712,979,20,0.0513402398098836,1
712,980,20,0.0515587746245412,1
714,981,20,0.0484299999126272,1
714,982,20,0.0605288558734918,1
714,983,20,0.0427124237985608,1
715,981,20,0.0681951570881385,1
715,982,20,0.0819252627911018,1
715,983,20,0.0516268346024454,1
716,981,20,0.0531569027091375,1
716,982,20,0.0623024541299106,1
716,983,20,0.0410262659610056,1
693,970,21,0.0448617820148124,1
693,971,21,0.0426843439212772,1
694,970,21,0.0418648775651388,1
694,971,21,0.0411982920427483,1
698,964,21,0.0418151788586807,1
698,965,21,0.0421846426758164,1
698,966,21,0.0419676704075216,1
699,965,21,0.0419356976811682,1
699,966,21,0.0419734880541871,1
699,980,21,0.0458513712820372,1
699,981,21,0.0518338692921425,1
700,980,21,0.0554269960172694,1
700,981,21,0.0614812197714863,1
700,982,21,0.0479734498177584,1
701,980,21,0.0412359472473967,1
704,982,21,0.0473523944092805,1
704,983,21,0.0574732288769468,1
704,984,21,0.0570981312421294,1
704,985,21,0.0419518719283799,1
705,982,21,0.0556491046836424,1
705,983,21,0.0798437293597898,1
705,984,21,0.0822368529187328,1
705,985,21,0.0592552291992747,1
706,982,21,0.0482580387117023,1
706,983,21,0.0730376558750835,1
706,984,21,0.076939361176547,1
706,985,21,0.0572866262381315,1
707,983,21,0.0467848007946949,1
707,984,21,0.0480319128413585,1
710,979,21,0.0495716698168466,1
710,980,21,0.0511437049992054,1
710,981,21,0.0416117910116191,1
711,979,21,0.0521758398627226,1
711,980,21,0.0521956987997135,1
714,981,21,0.0445985983840178,1
714,982,21,0.0600265323616436,1
715,981,21,0.0774745954832397,1
715,982,21,0.099350147240528,1
715,983,21,0.0579472481320164,1
716,981,21,0.0580539176032645,1
716,982,21,0.0758851560214979,1
716,983,21,0.0453358039732494,1
721,966,21,0.0475355799916901,1
725,971,21,0.0527214496935333,1
727,974,21,0.0468965363764686,1
694,966,22,0.0492162797304453,1
694,967,22,0.0435985714152245,1
695,965,22,0.0473844239063495,1
695,966,22,0.05786878559632,1
695,967,22,0.049113741004599,1
696,965,22,0.0433205057468401,1
696,966,22,0.047941404100485,1
697,962,22,0.0422643244302145,1
697,963,22,0.0424553443713771,1
697,964,22,0.0410310563280554,1
698,962,22,0.0412380288403021,1
698,963,22,0.0425703050704705,1
698,964,22,0.0428277494522545,1
698,965,22,0.0434347879007137,1
699,965,22,0.0449696328576185,1
699,966,22,0.0427256027146826,1
699,980,22,0.0425450312885581,1
700,965,22,0.0425966629027142,1
700,966,22,0.0413093490793023,1
700,980,22,0.0439221617907867,1
704,982,22,0.0546794608611657,1
704,983,22,0.0573246950579935,1
704,984,22,0.0476711646807513,1
705,982,22,0.062006224535901,1
705,983,22,0.0764443583836441,1
705,984,22,0.0680227633484281,1
705,985,22,0.0435826134374056,1
706,982,22,0.0469654668386787,1
706,983,22,0.0648211653252341,1
706,984,22,0.0627589447506963,1
706,985,22,0.0416406278317774,1
714,982,22,0.0549768258694873,1
715,981,22,0.0737665107623868,1
715,982,22,0.103569552279968,1
715,983,22,0.0600719543408598,1
716,981,22,0.0555078753634299,1
716,982,22,0.081199803333265,1
716,983,22,0.0470989483078953,1
725,971,22,0.0502831690853803,1
726,971,22,0.0719602071670466,1
726,972,22,0.0426315768928092,1
727,972,22,0.0554052609432962,1
727,973,22,0.0435279864921598,1
729,970,22,0.0655351030311713,1
730,970,22,0.0430835555933883,1
732,961,22,0.0463913527019011,1
733,960,22,0.0522294692653943,1
733,972,22,0.0610732383754985,1
743,966,22,0.0418407716379474,1
744,965,22,0.0420024032720002,1
744,966,22,0.0452766218539183,1
694,966,23,0.0511337079465247,1
694,967,23,0.0411723694526576,1
695,965,23,0.0478369838309216,1
695,966,23,0.0646227489708388,1
695,967,23,0.0509805351490966,1
696,965,23,0.0423674606002583,1
696,966,23,0.050520211153324,1
698,965,23,0.0417017050116625,1
699,965,23,0.0434412732791293,1
700,965,23,0.0438833684684589,1
700,966,23,0.0427936140319734,1
704,982,23,0.0538045971000697,1
704,983,23,0.0510737256304404,1
705,982,23,0.0558978685526742,1
705,983,23,0.0606651326246099,1
705,984,23,0.0509530581227453,1
706,983,23,0.0473981299791162,1
706,984,23,0.0459146679265656,1
713,946,23,0.0411020981202124,1
714,947,23,0.0418168170993309,1
714,982,23,0.0478428501382005,1
715,981,23,0.0609174811588268,1
715,982,23,0.0903558762599963,1
715,983,23,0.058763270398075,1
716,945,23,0.0425517383431014,1
716,981,23,0.048595473031769,1
716,982,23,0.0746350810841533,1
716,983,23,0.0490785918215393,1
721,943,23,0.0410843342929639,1
722,943,23,0.0414506135432911,1
725,970,23,0.059623898226392,1
725,971,23,0.0452281748065708,1
726,970,23,0.0928854225518975,1
726,971,23,0.0667911686306955,1
727,970,23,0.105295144137927,1
727,971,23,0.0783619758354422,1
727,972,23,0.0497622139653452,1
728,970,23,0.0906988795169268,1
728,971,23,0.0744366431028187,1
728,972,23,0.0544443165571435,1
729,969,23,0.0576230170583781,1
729,970,23,0.06474413016753,1
729,971,23,0.0566257394142404,1
730,969,23,0.0412443601267754,1
730,970,23,0.0456861739063711,1
730,971,23,0.0419062417898732,1
732,960,23,0.0616361876048744,1
732,972,23,0.0450064851621462,1
732,973,23,0.0457165273156461,1
733,971,23,0.0513770488605328,1
733,972,23,0.0676388094819768,1
733,973,23,0.0728171638224214,1
734,971,23,0.0517538604302879,1
734,972,23,0.0756545425612542,1
743,965,23,0.0448295362483506,1
743,966,23,0.0451756591912719,1
744,964,23,0.0425398137894576,1
744,965,23,0.0513787195415919,1
744,966,23,0.0507842382347504,1
745,965,23,0.04168077283781,1
694,966,24,0.0464845972505932,1
695,965,24,0.0453696582433199,1
695,966,24,0.0608751247982531,1
695,967,24,0.0480171686755065,1
696,966,24,0.0479767857731419,1
697,961,24,0.044091941374212,1
697,962,24,0.041295540278574,1
698,961,24,0.0441146172200438,1
698,962,24,0.0416006396210545,1
700,965,24,0.041890143236949,1
700,966,24,0.0416059517380144,1
704,982,24,0.0429455703140673,1
713,946,24,0.0437623954802465,1
714,947,24,0.0433489857225002,1
714,948,24,0.0435004581018278,1
715,945,24,0.0433812504125339,1
715,981,24,0.0412707936533065,1
715,982,24,0.0610327473384375,1
715,983,24,0.0471995946765549,1
716,944,24,0.0434886497929826,1
716,945,24,0.0502608176436377,1
716,982,24,0.0536555388278389,1
716,983,24,0.042655626049285,1
717,944,24,0.0429676541224363,1
717,945,24,0.0466101578532996,1
725,970,24,0.0462223706118616,1
726,969,24,0.0656013896000547,1
726,970,24,0.0748568653464372,1
726,971,24,0.0550383328847906,1
727,969,24,0.0815393787203202,1
727,970,24,0.09218645068794,1
727,971,24,0.068371735640599,1
727,972,24,0.0422236711911089,1
728,970,24,0.0845164674868813,1
728,971,24,0.0680619675826021,1
728,972,24,0.046576890213957,1
729,969,24,0.0535467336963372,1
729,970,24,0.0621261080670473,1
729,971,24,0.053675332884012,1
729,972,24,0.0418661616646584,1
730,969,24,0.0433934507096534,1
730,970,24,0.0486384079129684,1
730,971,24,0.0426939165452747,1
731,970,24,0.0422786090236068,1
732,971,24,0.0433806097144578,1
732,972,24,0.0470831768624277,1
732,973,24,0.0475709832912862,1
733,970,24,0.04153176592956,1
733,971,24,0.0539935192281224,1
733,972,24,0.0675912410290374,1
733,973,24,0.0724639904972959,1
733,974,24,0.0580679372666507,1
734,971,24,0.0534546407821616,1
734,972,24,0.0720262071789846,1
734,973,24,0.082911251172937,1
735,971,24,0.0427555479154788,1
735,972,24,0.0557318493533156,1
736,967,24,0.048552408388934,1
737,966,24,0.0496391242404511,1
737,967,24,0.0454390699049288,1
737,968,24,0.0434480587313274,1
738,967,24,0.0412407132841398,1
738,968,24,0.0428541748686834,1
739,968,24,0.0429344621773812,1
743,963,24,0.0412086567533968,1
743,964,24,0.0515996982003878,1
743,965,24,0.0501480061216349,1
743,966,24,0.0441057393614707,1
744,963,24,0.0456006339547964,1
744,964,24,0.0588270428352675,1
744,965,24,0.0588640140879613,1
744,966,24,0.0507338474662354,1
745,964,24,0.0469312908678865,1
745,965,24,0.0467658339689491,1
695,966,25,0.0460362221387711,1
697,961,25,0.0454597020049989,1
698,961,25,0.0471799087550781,1
698,962,25,0.0427171492847928,1
699,981,25,0.0430128841625664,1
700,981,25,0.04180248925206,1
704,955,25,0.0440144060935372,1
705,953,25,0.0431864809007741,1
706,955,25,0.0422912607830838,1
713,946,25,0.0459351540447956,1
714,947,25,0.0444854948983348,1
714,948,25,0.0433104140763,1
715,945,25,0.0443087514404623,1
716,944,25,0.044467887866396,1
716,945,25,0.0517329093328634,1
717,944,25,0.0427454346179995,1
717,945,25,0.0475977195949672,1
726,969,25,0.046093522714385,1
726,970,25,0.0535402402078193,1
726,971,25,0.0422228250371097,1
727,969,25,0.0611144160678816,1
727,970,25,0.0710172888347812,1
727,971,25,0.0543441676080873,1
728,969,25,0.060028554480466,1
728,970,25,0.0701305951379007,1
728,971,25,0.0566946752831853,1
729,970,25,0.0545666817795718,1
729,971,25,0.0479998076500021,1
730,969,25,0.042704419127661,1
730,970,25,0.0467643579303434,1
730,971,25,0.0426816838077462,1
731,970,25,0.0424849678714515,1
732,970,25,0.0417139539693955,1
732,971,25,0.0450484116873018,1
732,972,25,0.0496391026135118,1
732,973,25,0.0482090104403617,1
733,968,25,0.0446624167784563,1
733,970,25,0.0441669057524804,1
733,971,25,0.0534983704533794,1
733,972,25,0.0635295936981521,1
733,973,25,0.0645457300333392,1
733,974,25,0.0516787662903839,1
734,968,25,0.0441990947482265,1
734,970,25,0.0444654413188903,1
734,971,25,0.0541626689269413,1
734,972,25,0.0646309023269462,1
734,973,25,0.0679021931619597,1
735,971,25,0.0444885064496291,1
735,972,25,0.0513690036391218,1
736,966,25,0.0635876890637845,1
736,967,25,0.0522390932533725,1
736,968,25,0.0442876489544629,1
737,965,25,0.0553747453319765,1
737,966,25,0.0539540933178208,1
737,967,25,0.0498870987261992,1
737,968,25,0.0456314415297963,1
738,965,25,0.0435024045263627,1
738,966,25,0.0440309101515728,1
738,967,25,0.0441198049821028,1
738,968,25,0.04325337032059,1
739,968,25,0.0410554839559686,1
743,963,25,0.0548985741964489,1
743,964,25,0.0624645750734645,1
743,965,25,0.0516064133650332,1
744,963,25,0.0600794426685844,1
744,964,25,0.0702971550107412,1
744,965,25,0.0594955964091322,1
744,966,25,0.0426495678029201,1
745,963,25,0.0436259159765727,1
745,964,25,0.0513639213083918,1
745,965,25,0.0458356971577963,1
697,960,26,0.0427845928949276,1
697,961,26,0.046697979446968,1
697,962,26,0.0416992800910961,1
698,961,26,0.0463307918651912,1
698,962,26,0.0414345717610825,1
699,981,26,0.0451757429956616,1
700,981,26,0.0442485961088638,1
713,946,26,0.0493728371438703,1
714,946,26,0.0436528982866879,1
714,947,26,0.0463486394968294,1
715,945,26,0.0444815614987538,1
715,946,26,0.0411413429048976,1
715,957,26,0.0501933199661547,1
716,944,26,0.0414026125515662,1
716,945,26,0.0479970934691228,1
716,957,26,0.0459951850214933,1
717,945,26,0.0445019692193289,1
717,967,26,0.0481828418438367,1
725,985,26,0.0435097306520427,1
726,984,26,0.0418574027542513,1
726,985,26,0.0441594579752669,1
727,969,26,0.0441613773661277,1
727,970,26,0.0517291138050203,1
728,969,26,0.0474868923446431,1
728,970,26,0.0552824469618778,1
728,971,26,0.0441007759789066,1
729,970,26,0.0452163827179301,1
731,971,26,0.0422043313006606,1
731,972,26,0.0449648370838339,1
732,971,26,0.0476140100869775,1
732,972,26,0.0574393881237134,1
732,973,26,0.0528379377952131,1
733,967,26,0.0745621388247073,1
733,968,26,0.047473705318419,1
733,969,26,0.0428660804987553,1
733,970,26,0.0452136063596005,1
733,971,26,0.0506871062437233,1
733,972,26,0.060998398352131,1
733,973,26,0.0577084975358698,1
733,974,26,0.0452590418556537,1
734,967,26,0.0688278531966822,1
734,968,26,0.0499122995171916,1
734,969,26,0.0463374313355491,1
734,970,26,0.0484113791179098,1
734,971,26,0.0502122273178175,1
734,972,26,0.0540793781770514,1
734,973,26,0.051172847299881,1
735,968,26,0.047465930433749,1
735,969,26,0.0420802061860486,1
735,970,26,0.0420401017305271,1
735,971,26,0.0425945948266458,1
735,972,26,0.0434940186806581,1
736,964,26,0.0674506172631247,1
736,966,26,0.0587554738864657,1
736,967,26,0.0532817496228478,1
736,968,26,0.0459768670039258,1
737,963,26,0.0691353233923809,1
737,964,26,0.0585439137597249,1
737,965,26,0.0521644478724585,1
737,966,26,0.0530078552503764,1
737,967,26,0.052030782574258,1
737,968,26,0.0467837681083444,1
738,964,26,0.0480821738482379,1
738,965,26,0.0448306175953145,1
738,966,26,0.0474422056813623,1
738,967,26,0.0476077869352006,1
738,968,26,0.0446479970166935,1
739,967,26,0.0420587738892253,1
743,963,26,0.0617140824334148,1
743,964,26,0.0656822094721323,1
743,965,26,0.0494212868945852,1
744,963,26,0.0664817033498485,1
744,964,26,0.0727057850851457,1
744,965,26,0.054949711094369,1
745,963,26,0.0471045875323117,1
745,964,26,0.0518352642297258,1
745,965,26,0.0421654487672082,1
696,963,27,0.0410197427354462,1
697,961,27,0.043433912009673,1
697,962,27,0.0446077114355556,1
697,963,27,0.0417202744423991,1
714,945,27,0.0438130809158092,1
714,946,27,0.0515861543296657,1
714,947,27,0.0490100073903577,1
715,945,27,0.0447038269604366,1
715,946,27,0.0448109911479207,1
715,957,27,0.0519693945071208,1
716,945,27,0.0433145150846604,1
716,957,27,0.0480019108698467,1
717,967,27,0.0492372632682786,1
718,967,27,0.0441018735460749,1
724,984,27,0.0476110904501751,1
724,985,27,0.0517355153790463,1
724,986,27,0.0422029742102209,1
724,989,27,0.0415964142577933,1
725,983,27,0.0447060977890607,1
725,984,27,0.0693355131557969,1
725,985,27,0.0745858906107681,1
725,986,27,0.0555859107670755,1
726,983,27,0.0481614419874223,1
726,984,27,0.0735265598711104,1
726,985,27,0.0789688439717545,1
726,986,27,0.0592213722258368,1
727,984,27,0.0538073491280926,1
727,985,27,0.0571867476258162,1
727,986,27,0.0464920423244392,1
731,971,27,0.0412919150628777,1
731,972,27,0.045652652150492,1
732,971,27,0.0472803983284279,1
732,972,27,0.0572008159498158,1
732,973,27,0.0504553789961069,1
733,967,27,0.0829799329253454,1
733,968,27,0.0494111654870036,1
733,969,27,0.0454094518115892,1
733,970,27,0.0443088217280149,1
733,971,27,0.0480001428675609,1
733,972,27,0.0553501176548751,1
733,973,27,0.0495706533507006,1
734,967,27,0.0740148745330419,1
734,968,27,0.0512207455636443,1
734,969,27,0.0497384892129585,1
734,970,27,0.0488457994471635,1
734,971,27,0.0463383721074077,1
734,972,27,0.0441830935165291,1
735,964,27,0.0629523598753838,1
735,968,27,0.0464692529371762,1
735,969,27,0.045221483972232,1
735,970,27,0.0453631485345975,1
735,971,27,0.042509687463045,1
736,963,27,0.0586189051716673,1
736,964,27,0.0593711550005333,1
736,965,27,0.0560619413274979,1
736,966,27,0.0523930716542887,1
736,967,27,0.0498240507914724,1
736,968,27,0.0428745690724214,1
737,962,27,0.0620627789821099,1
737,963,27,0.0594121867110763,1
737,964,27,0.054942233580114,1
737,965,27,0.0492566085654618,1
737,966,27,0.0490186851997425,1
737,967,27,0.0490759263012735,1
737,968,27,0.0431292425026106,1
738,963,27,0.0504157151894732,1
738,964,27,0.0469117022676365,1
738,965,27,0.0442530836987637,1
738,966,27,0.0458143351485256,1
738,967,27,0.046529938128787,1
738,968,27,0.0418164467379958,1
739,966,27,0.042005458077173,1
739,967,27,0.0414689612979001,1
742,963,27,0.0418151058677606,1
742,964,27,0.0411792387092454,1
743,963,27,0.060448133322641,1
743,964,27,0.0606791522879961,1
743,965,27,0.0438798892346027,1
744,963,27,0.0616236331666242,1
744,964,27,0.0639418247877078,1
744,965,27,0.0465261588211484,1
745,963,27,0.0455226201780901,1
745,964,27,0.0469506145381303,1
696,962,28,0.0458771181532462,1
696,963,28,0.0438045247579578,1
697,961,28,0.0426894208452725,1
697,962,28,0.0486012203908818,1
697,963,28,0.0457887937332397,1
712,949,28,0.0417174250931494,1
713,946,28,0.056617348161801,1
713,948,28,0.0430922874701213,1
714,945,28,0.0445954246306789,1
714,946,28,0.0548460477676803,1
714,947,28,0.0470747261359052,1
715,945,28,0.0432355172822169,1
715,946,28,0.0479080121062416,1
724,984,28,0.0577362340854923,1
724,985,28,0.0654562241768938,1
724,986,28,0.0511339188091827,1
725,983,28,0.0556165831737049,1
725,984,28,0.0894730483785116,1
725,985,28,0.0991155273897833,1
725,986,28,0.0715168603186063,1
725,987,28,0.0465721268805813,1
726,983,28,0.061045501825876,1
726,984,28,0.0983940635089778,1
726,985,28,0.107985730026419,1
726,986,28,0.077480386096231,1
726,987,28,0.0491246193550553,1
727,983,28,0.0462173423484797,1
727,984,28,0.0694801108718018,1
727,985,28,0.0756406580662385,1
727,986,28,0.0576840482810173,1
731,972,28,0.0441724044017915,1
732,967,28,0.0607474988228457,1
732,971,28,0.0478942249324526,1
732,972,28,0.0554958183447831,1
732,973,28,0.0458745283272678,1
733,966,28,0.140700974085996,1
733,967,28,0.0825920699896199,1
733,968,28,0.0494324247683128,1
733,969,28,0.0458759232648512,1
733,970,28,0.0438663832110243,1
733,971,28,0.0473889763770672,1
733,972,28,0.0513673762119412,1
733,973,28,0.0432333897320656,1
734,967,28,0.0708726262379584,1
734,968,28,0.0499924111070078,1
734,969,28,0.0500842012440335,1
734,970,28,0.0483029632713151,1
734,971,28,0.044881546333944,1
735,963,28,0.046380349996544,1
735,964,28,0.0543191614595485,1
735,965,28,0.0621901508409808,1
735,968,28,0.0438483490470349,1
735,969,28,0.045903443545081,1
735,970,28,0.0477160838336293,1
735,971,28,0.0443437303113752,1
736,962,28,0.0482866781860396,1
736,963,28,0.0529676940241393,1
736,964,28,0.0549704459224006,1
736,965,28,0.0516334794795382,1
736,966,28,0.0496874388227955,1
736,970,28,0.0441713365716647,1
736,971,28,0.0431614017613152,1
737,962,28,0.0497800670037182,1
737,963,28,0.0536065105564983,1
737,964,28,0.0519548017298437,1
737,965,28,0.0458256298175629,1
737,966,28,0.0447132427891243,1
737,967,28,0.0447775423829617,1
738,963,28,0.0466102876149353,1
738,964,28,0.0436250454922668,1
738,966,28,0.0417543233549231,1
738,967,28,0.0435477427011891,1
742,963,28,0.0433546519805908,1
743,963,28,0.053180811290508,1
743,964,28,0.051016917067695,1
744,963,28,0.0512640535095462,1
744,964,28,0.0510439885889348,1
696,962,29,0.0449028515724991,1
697,961,29,0.0412161450811213,1
697,962,29,0.046363724286975,1
697,963,29,0.0422589203987627,1
711,946,29,0.0493306213584019,1
712,946,29,0.059007092511482,1
712,948,29,0.0503152580565323,1
713,946,29,0.0533884515345049,1
713,947,29,0.0521257680915619,1
714,945,29,0.0417774128159685,1
714,946,29,0.0522172554514377,1
714,947,29,0.0447104042533442,1
715,946,29,0.0465919750041026,1
724,984,29,0.0620073437300086,1
724,985,29,0.0715712791045617,1
724,986,29,0.0567302570050305,1
725,983,29,0.0563105970618332,1
725,984,29,0.0941273819802785,1
725,985,29,0.104811641469985,1
725,986,29,0.0770813095924905,1
725,987,29,0.0488842629586674,1
725,988,29,0.0414114579697304,1
726,983,29,0.0637985841621425,1
726,984,29,0.105910798218321,1
726,985,29,0.115458756691483,1
726,986,29,0.0830698631455933,1
726,987,29,0.0520367083556199,1
726,988,29,0.041623815589857,1
727,983,29,0.0467702674915008,1
727,984,29,0.0734581646756474,1
727,985,29,0.0803490265757885,1
727,986,29,0.0606314000060728,1
727,987,29,0.0411163827136047,1
728,985,29,0.0417724142896281,1
728,986,29,0.0410226434486767,1
732,967,29,0.0590011234762416,1
732,971,29,0.042985174646618,1
732,972,29,0.0460773890176845,1
733,967,29,0.076602862221604,1
733,968,29,0.0478807351290787,1
733,969,29,0.0430151712113949,1
733,970,29,0.0420104836371875,1
733,971,29,0.0430122623880622,1
733,972,29,0.043657485901182,1
734,964,29,0.0648731132333771,1
734,965,29,0.0961068416649387,1
734,967,29,0.064738031370654,1
734,968,29,0.0472776300802005,1
734,969,29,0.0459986074846338,1
734,970,29,0.0453650625187235,1
734,971,29,0.0419745153338027,1
735,963,29,0.0488999262694386,1
735,964,29,0.0558814050451497,1
735,965,29,0.062094386753863,1
735,966,29,0.0609406922714056,1
735,967,29,0.0500473976001191,1
735,968,29,0.0418231024285582,1
735,969,29,0.0430148251803665,1
735,970,29,0.0454017796548808,1
735,971,29,0.041611315218955,1
736,962,29,0.0457747362227097,1
736,963,29,0.0566112115177812,1
736,964,29,0.0578409084715922,1
736,965,29,0.0535163424399184,1
736,966,29,0.0495495076108227,1
736,967,29,0.0426677803891586,1
736,970,29,0.0436081818863657,1
737,962,29,0.0453034933259698,1
737,963,29,0.0556429031588048,1
737,964,29,0.0537708374478585,1
737,965,29,0.0462091295182893,1
737,966,29,0.0427183630967597,1
738,963,29,0.0460208561984149,1
738,964,29,0.0437708489101363,1
742,963,29,0.0418703816211848,1
743,963,29,0.044085109964768,1
700,949,30,0.0474095057491758,1
702,949,30,0.0428054466711253,1
711,947,30,0.0442619183034583,1
712,946,30,0.0478967174372042,1
712,947,30,0.0496994525875638,1
713,946,30,0.0471927389368041,1
713,947,30,0.0450301612539196,1
714,946,30,0.0468102286685496,1
714,947,30,0.0416680210537389,1
715,946,30,0.0428470650123961,1
724,984,30,0.0570449505984477,1
724,985,30,0.0652825436342964,1
724,986,30,0.0525848539450608,1
725,983,30,0.0495332657794258,1
725,984,30,0.0812102653651402,1
725,985,30,0.0891898706423556,1
725,986,30,0.0675817630228994,1
725,987,30,0.0443341441705407,1
725,988,30,0.0415052053447607,1
726,983,30,0.0551347565935564,1
726,984,30,0.0901135464053994,1
726,985,30,0.0962828741371825,1
726,986,30,0.0710714480974652,1
726,987,30,0.0469680945118008,1
726,988,30,0.043063483090372,1
727,963,30,0.0428120591078092,1
727,984,30,0.0632161058065996,1
727,985,30,0.0679713453002974,1
727,986,30,0.0528061137540673,1
731,966,30,0.0443174833171953,1
732,967,30,0.0513981946004107,1
733,964,30,0.068442104294271,1
733,965,30,0.100012872354258,1
733,967,30,0.0631051758283139,1
733,968,30,0.044893716894022,1
734,963,30,0.0527904558500308,1
734,964,30,0.071210125438843,1
734,965,30,0.0870732420953321,1
734,966,30,0.0786662614643324,1
734,967,30,0.0565033741918121,1
734,968,30,0.0457286492151108,1
734,969,30,0.0423419840657902,1
735,962,30,0.0436454910599856,1
735,963,30,0.0598222064460909,1
735,964,30,0.0692701457318327,1
735,965,30,0.0691722730181354,1
735,966,30,0.0596778628466225,1
735,967,30,0.0471539618346807,1
735,968,30,0.0416539824667808,1
736,962,30,0.0447856551885579,1
736,963,30,0.0627462821777497,1
736,964,30,0.0654251895190316,1
736,965,30,0.0596362039548405,1
736,966,30,0.0497186194624979,1
737,962,30,0.0430280797907758,1
737,963,30,0.0577185810963076,1
737,964,30,0.0570061897165288,1
737,965,30,0.0500626878461878,1
737,966,30,0.0427474026694737,1
738,963,30,0.0435660228716129,1
738,964,30,0.0434000334092958,1
738,965,30,0.0415340664952256,1
724,984,31,0.0417900375417714,1
724,985,31,0.0476314468067694,1
725,984,31,0.054949559705794,1
725,985,31,0.0605897248940864,1
725,986,31,0.0477720921996215,1
726,984,31,0.0589777015010047,1
726,985,31,0.0632817543807744,1
726,986,31,0.0487679316522973,1
727,962,31,0.0467617951380391,1
727,963,31,0.0478532472892578,1
727,985,31,0.0470545211678859,1
728,963,31,0.041176681323676,1
732,966,31,0.0538954897191154,1
732,967,31,0.0445376834061772,1
733,963,31,0.0468258162850334,1
733,964,31,0.0661437175428302,1
733,965,31,0.0808805356421908,1
733,968,31,0.0410568951137564,1
734,962,31,0.0440943581846762,1
734,963,31,0.066618688383228,1
734,964,31,0.0854522381157157,1
734,965,31,0.0892588119180353,1
734,966,31,0.0691700886972684,1
734,967,31,0.051026486988325,1
734,968,31,0.044158006266968,1
735,962,31,0.0449139218620414,1
735,963,31,0.0697728477151182,1
735,964,31,0.0827031026958672,1
735,965,31,0.078482951527022,1
735,966,31,0.0585542946905778,1
735,967,31,0.04496099019201,1
736,962,31,0.0424026962910751,1
736,963,31,0.0622903268237111,1
736,964,31,0.0671987661485112,1
736,965,31,0.0625823283510921,1
736,966,31,0.0489816923201095,1
737,963,31,0.0532863291272397,1
737,964,31,0.0537634194076866,1
737,965,31,0.049724658785291,1
737,966,31,0.0414198573322721,1
738,965,31,0.0411939639515256,1
700,949,32,0.0531361841013103,1
701,950,32,0.0425562259330013,1
702,949,32,0.0434753248950207,1
726,962,32,0.0522412072866868,1
726,963,32,0.0435325254460405,1
727,961,32,0.0487720029236162,1
727,962,32,0.0611314959431755,1
727,963,32,0.0514475472758405,1
728,962,32,0.045336936684194,1
732,964,32,0.0414281945173633,1
732,965,32,0.046914259653206,1
732,966,32,0.042879951476934,1
733,962,32,0.0415447474998609,1
733,963,32,0.059607721275813,1
733,964,32,0.074892549796244,1
733,965,32,0.075775366864259,1
733,966,32,0.0555199810426901,1
733,967,32,0.0423214465835794,1
734,962,32,0.0535100490005889,1
734,963,32,0.0873847511219407,1
734,964,32,0.107464985769041,1
734,965,32,0.0989533794125552,1
734,966,32,0.0640689587502467,1
735,962,32,0.0496969114221988,1
735,963,32,0.0809874646367102,1
735,964,32,0.0970176818395217,1
735,965,32,0.0870834229769966,1
735,966,32,0.0573097021823398,1
735,967,32,0.0433904986324421,1
736,963,32,0.0584450191731467,1
736,964,32,0.0664725227141255,1
736,965,32,0.062221845120491,1
736,966,32,0.0465470071906113,1
737,963,32,0.0451128897033883,1
737,964,32,0.0477506166489196,1
737,965,32,0.0464680093881678,1
700,949,33,0.041113817217933,1
726,961,33,0.0416223990253344,1
726,962,33,0.0534200214591142,1
726,963,33,0.0415666745129202,1
727,961,33,0.0501090560039974,1
727,962,33,0.0614140410913576,1
727,963,33,0.0460212454833219,1
728,962,33,0.0422749027068883,1
732,964,33,0.0421173964115025,1
732,965,33,0.0419660186500343,1
733,962,33,0.044521195568346,1
733,963,33,0.0611259594467206,1
733,964,33,0.074015052955291,1
733,965,33,0.0660094575037996,1
734,962,33,0.0588591912805025,1
734,963,33,0.0883899388191189,1
734,964,33,0.107033528330469,1
734,965,33,0.0907592024573047,1
734,966,33,0.0570648149421735,1
735,962,33,0.0527305708551733,1
735,963,33,0.0777255220461991,1
735,964,33,0.0937312413335448,1
735,965,33,0.0798902975667877,1
735,966,33,0.05335600031212,1
736,963,33,0.0541976234675475,1
736,964,33,0.0621026320244623,1
736,965,33,0.0561755097923753,1
736,966,33,0.0436963441043277,1
737,964,33,0.0424889499316459,1
737,965,33,0.0411805038851931,1
719,954,34,0.0483962564806205,1
719,955,34,0.0417456590623753,1
726,962,34,0.0467215582175146,1
727,961,34,0.0458961823002188,1
727,962,34,0.051260739181102,1
732,963,34,0.0417759394807303,1
732,964,34,0.0432285750347091,1
733,962,34,0.0453018929324633,1
733,963,34,0.0561487140146113,1
733,964,34,0.0638928776173895,1
733,965,34,0.0518143401659755,1
734,962,34,0.0581272545543523,1
734,963,34,0.0758738505389909,1
734,964,34,0.0878176089048317,1
734,965,34,0.0701961301706443,1
735,962,34,0.0546921883149301,1
735,963,34,0.0672505410411399,1
735,964,34,0.0774819702695331,1
735,965,34,0.0632548720952534,1
735,966,34,0.0469987344780213,1
736,962,34,0.0459758667579843,1
736,963,34,0.0513514804115728,1
736,964,34,0.054895011158203,1
736,965,34,0.0479104126965013,1
736,966,34,0.0411520212061655,1
739,963,34,0.0428592815297201,1
739,964,34,0.041907996275322,1
740,963,34,0.0412480394098199,1
740,964,34,0.0436942571046874,1
718,954,35,0.0432961997704603,1
719,954,35,0.0509778263749521,1
719,955,35,0.0444146531553661,1
720,955,35,0.0433155693979501,1
732,963,35,0.0444382643663216,1
732,964,35,0.0415602783456291,1
733,962,35,0.0424303274093686,1
733,963,35,0.0498407900424727,1
733,964,35,0.0507675097972198,1
734,962,35,0.0523712446658236,1
734,963,35,0.0606590500479383,1
734,964,35,0.064084768042858,1
734,965,35,0.0512633506340197,1
735,962,35,0.052330618460392,1
735,963,35,0.0557163320243845,1
735,964,35,0.0591628497281537,1
735,965,35,0.0490210966034719,1
736,962,35,0.0487394057193912,1
736,963,35,0.0488609004575136,1
736,964,35,0.0487317714098264,1
736,965,35,0.0426196847795743,1
738,963,35,0.0433639164207035,1
739,963,35,0.0492870376690243,1
739,964,35,0.0453638297831847,1
740,963,35,0.0453617373768097,1
740,964,35,0.0447238616163092,1
695,948,36,0.0476538631293299,1
695,949,36,0.0523154039086108,1
696,948,36,0.0516448930967415,1
696,949,36,0.0590191062762502,1
696,950,36,0.0444823238483633,1
697,949,36,0.0410264849337658,1
719,954,36,0.0455220308439948,1
719,955,36,0.044463822001812,1
720,955,36,0.0482452517838548,1
720,956,36,0.0425286705089952,1
732,963,36,0.042869992271397,1
733,963,36,0.0427000667061315,1
734,962,36,0.0460464570877838,1
734,963,36,0.0479722008620152,1
734,964,36,0.0454635083463117,1
735,961,36,0.042660054165102,1
735,962,36,0.0505665901246032,1
735,963,36,0.0484931235416414,1
735,964,36,0.0456179949803009,1
736,961,36,0.0421968456763034,1
736,962,36,0.0516407461311352,1
736,963,36,0.0493719882865037,1
736,964,36,0.0441000812134824,1
737,962,36,0.0479870801962377,1
737,963,36,0.047834102041263,1
737,964,36,0.0421318756473484,1
738,962,36,0.0483902117510926,1
738,963,36,0.0517689830675772,1
738,964,36,0.0446958817636198,1
739,962,36,0.0494209733039657,1
739,963,36,0.0577654142333116,1
739,964,36,0.0514422703026569,1
740,962,36,0.0436604001312496,1
740,963,36,0.0537490537132719,1
740,964,36,0.049036165173413,1
741,963,36,0.0430716337431119,1
695,948,37,0.0610281894609849,1
695,949,37,0.0680400594931147,1
695,950,37,0.0439238054381717,1
696,948,37,0.0663997102163152,1
696,949,37,0.0748098267535101,1
696,950,37,0.0495589261428778,1
697,948,37,0.0432317596015176,1
697,949,37,0.0479948658943773,1
719,955,37,0.0416484703006326,1
719,956,37,0.0416473294795858,1
720,954,37,0.0436215284112669,1
720,955,37,0.0482388015492155,1
720,956,37,0.0474523703428225,1
721,955,37,0.0434614836538835,1
735,961,37,0.0428308177742644,1
735,962,37,0.0438355350855133,1
735,963,37,0.0419443917107575,1
736,961,37,0.0430399205400299,1
736,962,37,0.0489003912486331,1
736,963,37,0.0476632113738323,1
737,961,37,0.0416377595589558,1
737,962,37,0.0537228959302166,1
737,963,37,0.0537077841063969,1
737,964,37,0.042178343829752,1
738,961,37,0.0414954272648401,1
738,962,37,0.0546320870506798,1
738,963,37,0.0562690841518914,1
738,964,37,0.0460257006328129,1
739,962,37,0.052772716353089,1
739,963,37,0.0591595732468533,1
739,964,37,0.05170774098228,1
740,962,37,0.0493330543890705,1
740,963,37,0.0583306018509027,1
740,964,37,0.0501693194702922,1
741,963,37,0.0429902110201021,1
695,948,38,0.0615052473010229,1
695,949,38,0.0712404896615877,1
695,950,38,0.0426899020446714,1
696,948,38,0.069295854755898,1
696,949,38,0.0794585319443302,1
696,950,38,0.0474812909673704,1
697,948,38,0.0433518242582803,1
697,949,38,0.0487276676980987,1
719,955,38,0.0427091013600144,1
719,956,38,0.0440000241789181,1
720,954,38,0.0425579155376323,1
720,955,38,0.0503847400056939,1
720,956,38,0.0508406466991192,1
721,955,38,0.0414436388553743,1
727,956,38,0.0414181515074366,1
728,956,38,0.0422765409475385,1
736,961,38,0.0421844831771392,1
736,962,38,0.048881224373699,1
736,963,38,0.0471913764396297,1
737,961,38,0.0451134249701354,1
737,962,38,0.0605417725629748,1
737,963,38,0.0585677250198687,1
737,964,38,0.0437743173305229,1
738,961,38,0.0436941327497866,1
738,962,38,0.0582994752785485,1
738,963,38,0.0584945394573559,1
738,964,38,0.0480780160691619,1
739,962,38,0.0529294143416193,1
739,963,38,0.0588590831458061,1
739,964,38,0.0513527347740508,1
740,962,38,0.052364232130763,1
740,963,38,0.0605467683859478,1
740,964,38,0.0488888911236726,1
695,948,39,0.0509182387505096,1
695,949,39,0.060758885406375,1
696,948,39,0.0593640397375112,1
696,949,39,0.0691870388109267,1
696,950,39,0.043016603996122,1
697,949,39,0.0437547233235381,1
720,955,39,0.0464578933873211,1
720,956,39,0.0458420500712089,1
726,955,39,0.0484431004310941,1
726,956,39,0.0474859137256408,1
727,955,39,0.0510662373027158,1
727,956,39,0.0539650852097082,1
727,957,39,0.0421147281878692,1
728,956,39,0.046338691104762,1
728,957,39,0.0410488498923454,1
736,962,39,0.0470038330289558,1
736,963,39,0.0449976586675539,1
737,961,39,0.0462728532948685,1
737,962,39,0.0612333966743131,1
737,963,39,0.0583889513330716,1
737,964,39,0.0460852179697027,1
738,961,39,0.0437816299393658,1
738,962,39,0.0605742075651553,1
738,963,39,0.0630785314391249,1
738,964,39,0.0538653958331117,1
739,962,39,0.0565490773212389,1
739,963,39,0.0646284692962776,1
739,964,39,0.0553754752411771,1
740,962,39,0.0549790696644373,1
740,963,39,0.0623215399038224,1
740,964,39,0.0485070783242098,1
695,949,40,0.043401268848202,1
696,948,40,0.0435176758488595,1
696,949,40,0.0488954332728039,1
700,946,40,0.0414801748659151,1
725,955,40,0.045192760693505,1
725,956,40,0.0461943204716195,1
725,957,40,0.0416303658490905,1
726,955,40,0.0597169481326306,1
726,956,40,0.0589076356244826,1
726,957,40,0.0447117045730682,1
727,955,40,0.0591949224791012,1
727,956,40,0.0604314697659282,1
727,957,40,0.0451245763607,1
728,955,40,0.0411419106120536,1
728,956,40,0.0444260992129784,1
730,962,40,0.0433342118196068,1
731,961,40,0.0411641512157324,1
731,962,40,0.0436287950628639,1
732,962,40,0.0418072552888031,1
736,962,40,0.0430954531133579,1
736,963,40,0.0422775466002149,1
737,961,40,0.0442759839240905,1
737,962,40,0.0559932812020287,1
737,963,40,0.056999934124343,1
737,964,40,0.0482263714658662,1
738,961,40,0.0431928175939822,1
738,962,40,0.0603495252930083,1
738,963,40,0.0690215278446411,1
738,964,40,0.0584707552308862,1
739,962,40,0.058816710565028,1
739,963,40,0.0705865180515304,1
739,964,40,0.057412332822678,1
740,962,40,0.0507988093850882,1
740,963,40,0.0566254420438254,1
740,964,40,0.0426355265125946,1
700,946,41,0.0423041936927713,1
724,956,41,0.0436848223524279,1
724,957,41,0.0421739751880181,1
725,955,41,0.0487912833399815,1
725,956,41,0.0531909272913548,1
725,957,41,0.0460785676858751,1
726,955,41,0.0594248546907577,1
726,956,41,0.0620130370217732,1
726,957,41,0.0479420853490722,1
726,958,41,0.0415873444601341,1
726,959,41,0.0426281922768124,1
727,955,41,0.0537513029149567,1
727,956,41,0.0556046721368982,1
727,957,41,0.0437651096611258,1
727,959,41,0.0415953356141969,1
730,961,41,0.0412654517993051,1
730,962,41,0.0422811393755022,1
731,961,41,0.044058135764755,1
731,962,41,0.0485712454530441,1
731,963,41,0.041816184511357,1
732,962,41,0.0466639818984248,1
732,963,41,0.0432248146506423,1
733,963,41,0.0413521406820289,1
733,964,41,0.0425591239428644,1
734,964,41,0.0414880416650771,1
737,962,41,0.0467933975030574,1
737,963,41,0.0516759169411342,1
737,964,41,0.0463119169539373,1
738,961,41,0.0417066494706547,1
738,962,41,0.054504293466493,1
738,963,41,0.0658642812671691,1
738,964,41,0.0544562330006851,1
739,962,41,0.0544784006134438,1
739,963,41,0.0661890530142893,1
739,964,41,0.0516441415606017,1
740,962,41,0.041564903807267,1
740,963,41,0.045247606611511,1
723,953,42,0.0432605829048388,1
723,954,42,0.0413509349801642,1
724,953,42,0.0449943632626816,1
724,954,42,0.0455534926339077,1
724,955,42,0.0461959533055349,1
724,956,42,0.048627502528838,1
724,957,42,0.0435770012466633,1
725,955,42,0.0521447781711862,1
725,956,42,0.0605501475952098,1
725,957,42,0.0518661799394221,1
725,958,42,0.0417527986557041,1
726,955,42,0.0530886048349012,1
726,956,42,0.0606533837898477,1
726,957,42,0.0508676100856626,1
726,958,42,0.0454039315353388,1
726,959,42,0.0431053717683838,1
727,955,42,0.0436243128796988,1
727,956,42,0.0472165285700086,1
727,957,42,0.042105315062549,1
727,958,42,0.0426681074966152,1
727,959,42,0.0426589376743618,1
730,961,42,0.041130072566167,1
731,961,42,0.0465339012654095,1
731,962,42,0.0520778211671852,1
731,963,42,0.0432293752314623,1
732,961,42,0.0420272796589034,1
732,962,42,0.0502685222407551,1
732,963,42,0.0446934379194815,1
732,964,42,0.0411648594979938,1
733,963,42,0.0419749884230994,1
733,964,42,0.0468137214192428,1
733,965,42,0.0471933715247779,1
734,964,42,0.0474969542781416,1
734,965,42,0.0511192449308833,1
734,966,42,0.0449235296298151,1
737,963,42,0.0455589101821966,1
738,962,42,0.047188824460795,1
738,963,42,0.0566599316052371,1
738,964,42,0.0480299447898843,1
739,962,42,0.0464564551958592,1
739,963,42,0.0538164378493237,1
723,953,43,0.0525770195863078,1
723,954,43,0.0463474067612906,1
724,953,43,0.056435671058406,1
724,954,43,0.0542123081593165,1
724,955,43,0.0493701932505437,1
724,956,43,0.0498818704136291,1
724,957,43,0.0439282119270494,1
725,954,43,0.0432580552563108,1
725,955,43,0.0543971968631941,1
725,956,43,0.0641718110667125,1
725,957,43,0.0574651620285965,1
725,958,43,0.0439149248762312,1
726,955,43,0.0484066428182082,1
726,956,43,0.0592191284308868,1
726,957,43,0.0555544814175715,1
726,958,43,0.0476606810219369,1
726,959,43,0.0413480315635663,1
727,956,43,0.0437038162118478,1
727,957,43,0.0441442893807316,1
727,958,43,0.0435656173665014,1
727,959,43,0.0409848855160668,1
730,961,43,0.0413976059151236,1
731,961,43,0.0480434832538716,1
731,962,43,0.051734266423303,1
731,963,43,0.0432667573960023,1
732,961,43,0.0431496340029812,1
732,962,43,0.0499220478600706,1
732,963,43,0.0448573430855258,1
732,964,43,0.0421452410958214,1
732,965,43,0.0423161669070285,1
733,963,43,0.0414429332764804,1
733,964,43,0.0461492499301666,1
733,965,43,0.0512889947772672,1
733,966,43,0.0435708591959087,1
734,964,43,0.0496222498210803,1
734,965,43,0.0599820890014297,1
734,966,43,0.0505184269308337,1
735,965,43,0.043822656243174,1
738,963,43,0.0447645608126608,1
723,953,44,0.0542444025372033,1
723,954,44,0.045869348675311,1
724,953,44,0.0597263288175419,1
724,954,44,0.0559431391433154,1
724,955,44,0.0468222045861741,1
724,956,44,0.045689407133793,1
724,957,44,0.0412046341426913,1
725,954,44,0.042747318865084,1
725,955,44,0.0505270668930748,1
725,956,44,0.0624797355578976,1
725,957,44,0.06082303090827,1
725,958,44,0.0470355651556097,1
726,955,44,0.0441595417796566,1
726,956,44,0.0605168637356627,1
726,957,44,0.0637750270185352,1
726,958,44,0.0526452850201351,1
727,956,44,0.0459706925127623,1
727,957,44,0.0510985317297909,1
727,958,44,0.0473470525552791,1
730,960,44,0.0445881282420404,1
730,961,44,0.0465679366610964,1
730,962,44,0.042543374124336,1
731,960,44,0.0462715989323905,1
731,961,44,0.0556170103057556,1
731,962,44,0.0537148939626842,1
731,963,44,0.0438909946679214,1
731,964,44,0.0448494087021786,1
731,965,44,0.0472465846088686,1
731,966,44,0.0422445195605717,1
732,961,44,0.0472206971625542,1
732,962,44,0.0504312217049347,1
732,963,44,0.0438969826267336,1
732,964,44,0.044929752781592,1
732,965,44,0.0504112438197777,1
732,966,44,0.0471620394965006,1
733,964,44,0.0442893142287872,1
733,965,44,0.054116744121387,1
733,966,44,0.0484924368863194,1
734,964,44,0.0454095275058767,1
734,965,44,0.0576736349097555,1
734,966,44,0.0492464060568579,1
723,953,45,0.0438000506848949,1
724,953,45,0.0479706923830006,1
724,954,45,0.0459130837532636,1
724,955,45,0.0411202025717545,1
724,956,45,0.0410215377714062,1
725,955,45,0.0431471198712903,1
725,956,45,0.0542595522081667,1
725,957,45,0.0570958441933009,1
725,958,45,0.045776882696433,1
726,956,45,0.0576410809594091,1
726,957,45,0.064693112217776,1
726,958,45,0.0527439200834419,1
727,956,45,0.0463371988459519,1
727,957,45,0.0530053357119506,1
727,958,45,0.0470995700823995,1
730,960,45,0.0470401284397971,1
730,961,45,0.0490595493015061,1
730,962,45,0.0432792523601695,1
730,964,45,0.0420897139292282,1
730,965,45,0.0427139160573709,1
731,960,45,0.051843455432977,1
731,961,45,0.0587446225696835,1
731,962,45,0.0516587127109394,1
731,963,45,0.0435550390898277,1
731,964,45,0.0468733739245031,1
731,965,45,0.054947348351253,1
731,966,45,0.0505651573398761,1
732,961,45,0.047285929418148,1
732,962,45,0.0459054494436989,1
732,963,45,0.0417816706196386,1
732,964,45,0.0493138334467883,1
732,965,45,0.0666008731919987,1
732,966,45,0.064580635913332,1
732,967,45,0.044686874143411,1
733,964,45,0.044480704531285,1
733,965,45,0.0616995923840993,1
733,966,45,0.059129765917795,1
734,965,45,0.0499603491695299,1
734,966,45,0.0452614154122393,1
725,956,46,0.0446477591203614,1
725,957,46,0.0495861382392228,1
725,958,46,0.0412111438514136,1
726,956,46,0.0505373450959661,1
726,957,46,0.05925177970246,1
726,958,46,0.0494435950824492,1
727,956,46,0.0436900560717329,1
727,957,46,0.051307750740355,1
727,958,46,0.0457514223821693,1
730,960,46,0.0449614362476326,1
730,961,46,0.0460803248746914,1
730,964,46,0.0423260882654217,1
730,965,46,0.0422951347085818,1
731,960,46,0.050699049720939,1
731,961,46,0.0548384783389334,1
731,962,46,0.0461508016630597,1
731,963,46,0.0423445387479923,1
731,964,46,0.0458389520121575,1
731,965,46,0.0565654651344759,1
731,966,46,0.0537877605278426,1
732,961,46,0.0421921823675218,1
732,964,46,0.0496620974566979,1
732,965,46,0.0750089243564926,1
732,966,46,0.0747665188076082,1
732,967,46,0.0475723025345821,1
733,964,46,0.0426283842158985,1
733,965,46,0.0651719434668347,1
733,966,46,0.0651195197660277,1
734,965,46,0.0425060081800005,1
726,957,47,0.0470332672933116,1
726,958,47,0.042078697707034,1
727,957,47,0.0440597388616289,1
730,960,47,0.041174034726982,1
730,961,47,0.0414583154370411,1
730,965,47,0.0418643477051265,1
731,960,47,0.0438947388317837,1
731,961,47,0.0458151731924226,1
731,964,47,0.0451412155871061,1
731,965,47,0.0544151580362635,1
731,966,47,0.0526799313768566,1
732,964,47,0.0488606030870985,1
732,965,47,0.0706176175902105,1
732,966,47,0.070992682784619,1
732,967,47,0.0438078958571176,1
733,964,47,0.0431898168561576,1
733,965,47,0.0630669285862029,1
733,966,47,0.063762353632119,1
699,952,48,0.0443460227669385,1
703,979,48,0.0446917131710742,1
707,984,48,0.0456124152299675,1
707,985,48,0.0458941872150705,1
708,984,48,0.0436901804266338,1
708,985,48,0.0433537193188345,1
730,965,48,0.0415009556511928,1
730,966,48,0.0414667931972376,1
731,964,48,0.0424057456895131,1
731,965,48,0.0514760569885421,1
731,966,48,0.050966374910605,1
732,964,48,0.0470111104940224,1
732,965,48,0.0637205541652317,1
732,966,48,0.0625007569428747,1
733,964,48,0.0451305967599212,1
733,965,48,0.0611430176950752,1
733,966,48,0.0590871716608892,1
698,952,49,0.0469255813559174,1
699,951,49,0.043820174551892,1
699,952,49,0.0522749777523676,1
703,979,49,0.0455109740712895,1
706,984,49,0.0413359150708364,1
707,984,49,0.0524064046623529,1
707,985,49,0.0491086154199904,1
708,984,49,0.0491312750456177,1
708,985,49,0.0437064438849699,1
731,965,49,0.0451586333833262,1
731,966,49,0.0450282932270395,1
732,964,49,0.04229339373997,1
732,965,49,0.0515882899899193,1
732,966,49,0.0473482852908179,1
733,965,49,0.0524026469816535,1
733,966,49,0.0458495275854638,1
698,952,50,0.0448027702076281,1
699,951,50,0.0420284367001547,1
699,952,50,0.0503500558018287,1
703,979,50,0.0423595154034415,1
707,984,50,0.0521976938848618,1
707,985,50,0.0478234075197906,1
708,984,50,0.0477887827900084,1
732,965,50,0.0431805497126775,1
699,952,51,0.0421852455267488,1
707,984,51,0.0446859117446132,1
729,965,51,0.0435614136301795,1
729,966,51,0.0420008353189026,1
728,965,52,0.0410349086266141,1
729,965,52,0.049152858731016,1
729,966,52,0.0495337145384158,1
729,967,52,0.0419262764457458,1
730,965,52,0.0441574737035883,1
730,966,52,0.0446800319204973,1
702,978,53,0.0439870209816779,1
703,978,53,0.0467173950317038,1
703,979,53,0.0417735956611861,1
704,978,53,0.041815992572271,1
729,965,53,0.0459425774917024,1
729,966,53,0.0481946231190078,1
730,965,53,0.0427611871398952,1
730,966,53,0.0446801265383566,1
702,978,54,0.0453224817786549,1
703,977,54,0.0420858967744458,1
703,978,54,0.0525686499608077,1
703,979,54,0.044317626595668,1
704,978,54,0.0431777517274085,1
727,968,54,0.0417454346828803,1
728,962,54,0.0419448377663801,1
728,968,54,0.0413668334839001,1
729,961,54,0.0412235144606799,1
729,962,54,0.0415282921024387,1
729,966,54,0.0427096312200267,1
702,978,55,0.0434323927171888,1
703,977,55,0.0437096635955548,1
703,978,55,0.0540782427627394,1
703,979,55,0.0458285927082439,1
704,978,55,0.0438114805223027,1
705,980,55,0.0435262860740591,1
706,980,55,0.0410819039656627,1
727,965,55,0.0421375473121737,1
727,966,55,0.0479224589016785,1
727,967,55,0.0463360580249051,1
727,968,55,0.0450074016036981,1
728,966,55,0.0462524699046001,1
728,967,55,0.0438000858286712,1
728,968,55,0.0419051766631138,1
729,961,55,0.0417220532581546,1
703,978,56,0.0471748750849614,1
705,980,56,0.0445756927519562,1
706,980,56,0.042933510592053,1
707,982,56,0.0423883305966604,1
726,966,56,0.0414325631590972,1
726,967,56,0.041016236467916,1
727,965,56,0.0434201329459862,1
727,966,56,0.0536034665647951,1
727,967,56,0.0525603398093905,1
727,968,56,0.0473803688552351,1
728,965,56,0.0416062761421035,1
728,966,56,0.0504723561434392,1
728,967,56,0.047647639977553,1
728,968,56,0.0419342946334826,1
706,980,57,0.0418413474552056,1
720,971,57,0.0433065617777413,1
726,965,57,0.0410090590274435,1
726,966,57,0.0455627273369789,1
726,967,57,0.0443089325660787,1
727,965,57,0.0457313255488463,1
727,966,57,0.0562533992141808,1
727,967,57,0.0546683067672337,1
727,968,57,0.0445361478934885,1
728,965,57,0.0432358173559994,1
728,966,57,0.0522287447629285,1
728,967,57,0.0496183623787453,1
706,980,58,0.0417904808940265,1
717,975,58,0.0455881822445078,1
719,970,58,0.0428435181943547,1
719,971,58,0.0435630383539927,1
720,970,58,0.0475438631094331,1
720,971,58,0.0514832641660561,1
720,972,58,0.0429778971815513,1
721,971,58,0.0428935980756176,1
723,969,58,0.0420560570049786,1
723,970,58,0.041435274636609,1
724,970,58,0.0409972588287005,1
726,965,58,0.0432676089567363,1
726,966,58,0.0479441290948339,1
726,967,58,0.0449118645994427,1
727,965,58,0.0477856360703436,1
727,966,58,0.0570241833300071,1
727,967,58,0.053811166282875,1
727,968,58,0.0420736721470196,1
728,965,58,0.045107291029483,1
728,966,58,0.0512913196732394,1
728,967,58,0.0480056847707506,1
700,961,59,0.0457874853034134,1
700,962,59,0.0441258605251004,1
702,954,59,0.0442354469297835,1
717,974,59,0.0437379218950874,1
719,969,59,0.0447131806116739,1
719,970,59,0.0467448233974416,1
719,971,59,0.0431997544347553,1
720,969,59,0.0453818990909505,1
720,970,59,0.0500481761699331,1
720,971,59,0.0492694820010663,1
721,970,59,0.0419060985114005,1
721,971,59,0.0431167961990568,1
723,968,59,0.0412008737586245,1
723,969,59,0.0474261422722145,1
723,970,59,0.0444149856695575,1
724,969,59,0.0417796647210207,1
726,966,59,0.043735853819019,1
727,965,59,0.0443242930997001,1
727,966,59,0.0500772589965256,1
727,967,59,0.04677746926228,1
728,965,59,0.0445671122637981,1
728,966,59,0.0459583543439048,1
728,967,59,0.0419818766032591,1
729,965,59,0.0422582013030317,1
700,961,60,0.041359447884137,1
702,954,60,0.0461315104332248,1
702,955,60,0.0416639092319089,1
711,972,60,0.0434507107347562,1
711,973,60,0.0471901599242953,1
712,972,60,0.0467928189824317,1
712,973,60,0.0495829807060884,1
719,969,60,0.0475519353645182,1
719,970,60,0.0480709116196095,1
719,971,60,0.0411955616416646,1
720,969,60,0.0495577474746872,1
720,970,60,0.0517248587047176,1
720,971,60,0.0458774263371309,1
721,969,60,0.043840509281547,1
721,970,60,0.0444890876736221,1
722,968,60,0.0413756167246139,1
722,969,60,0.0440176879815725,1
723,968,60,0.045113898059432,1
723,969,60,0.0498705054570391,1
723,970,60,0.0436164785209457,1
724,969,60,0.0424746896685602,1
727,965,60,0.0416699431479671,1
727,966,60,0.0441618261251177,1
727,967,60,0.0419684003167222,1
728,965,60,0.0458032837825551,1
728,966,60,0.0456110473260582,1
728,967,60,0.0421342167635251,1
729,964,60,0.0418919734166853,1
729,965,60,0.0476756198302424,1
729,966,60,0.0443722238038724,1
711,972,61,0.0448044598122591,1
711,973,61,0.0456068300728992,1
712,972,61,0.048004862947058,1
712,973,61,0.0478615736608794,1
713,965,61,0.0425367238405084,1
713,966,61,0.0426144051030234,1
719,969,61,0.0425690128608487,1
719,970,61,0.0430885135692175,1
720,969,61,0.0452577577561341,1
720,970,61,0.0463512239160729,1
721,970,61,0.0415751036125034,1
723,968,61,0.0428195285119619,1
723,969,61,0.0440003756166814,1
728,965,61,0.0438009509062423,1
728,966,61,0.0453199865705358,1
729,965,61,0.046656920702751,1
711,972,62,0.0430203778970258,1
712,972,62,0.0445980604139033,1
712,973,62,0.0415171704489156,1
713,966,62,0.0416954683430486,1
