x,y,z,signal,cytoplasm.p
533,864,17,0.0409937336375984,1
533,865,17,0.0462801415734048,1
532,865,18,0.0416796725672743,1
533,864,18,0.044037979457349,1
533,865,18,0.0448736281708013,1
534,864,18,0.0447001963380055,1
534,865,18,0.0447225477797481,1
535,864,18,0.0410217972946775,1
532,864,19,0.0415873606803385,1
533,863,19,0.0447062545843705,1
533,864,19,0.047534028258797,1
533,865,19,0.044721339374516,1
534,862,19,0.0411102568830546,1
534,863,19,0.0460246895734017,1
534,864,19,0.0497395975935964,1
534,865,19,0.0482221163655634,1
534,866,19,0.0413530895639897,1
535,863,19,0.043591096604337,1
535,864,19,0.0445602457105777,1
535,865,19,0.0440616095918763,1
532,863,20,0.0445655983780488,1
532,864,20,0.0418656966854639,1
533,862,20,0.0418135433213979,1
533,863,20,0.0514903469886693,1
533,864,20,0.0489654180483037,1
533,865,20,0.043247060661056,1
534,862,20,0.045228182916673,1
534,863,20,0.0491856289507552,1
534,864,20,0.0498933975722636,1
534,865,20,0.0478677048981644,1
535,863,20,0.0439930657112058,1
535,864,20,0.0437844549583089,1
535,865,20,0.0440652266974704,1
532,863,21,0.0481154739279894,1
532,864,21,0.043291320192286,1
533,862,21,0.044623474770921,1
533,863,21,0.056259762941063,1
533,864,21,0.0508579049966621,1
533,865,21,0.0442283614038029,1
534,862,21,0.0451425456438716,1
534,863,21,0.0493516211164397,1
534,864,21,0.047948908648414,1
534,865,21,0.0492109919437921,1
534,866,21,0.0462980432723912,1
535,863,21,0.0422184239549668,1
535,864,21,0.0416892749283132,1
535,865,21,0.0480275387928898,1
535,866,21,0.0475304760340207,1
530,863,22,0.043051042193553,1
531,863,22,0.0446017883575611,1
532,863,22,0.0508431608308101,1
532,864,22,0.0467494461557121,1
532,865,22,0.0410456274783932,1
533,862,22,0.0451446569738185,1
533,863,22,0.0588909234071565,1
533,864,22,0.0547727432570015,1
533,865,22,0.0475510054061293,1
533,866,22,0.0417640095203517,1
534,863,22,0.0481229946961229,1
534,864,22,0.0483629888412779,1
534,865,22,0.055634344297586,1
534,866,22,0.0597306487986625,1
534,867,22,0.0456173515788574,1
535,864,22,0.0413299406288612,1
535,865,22,0.0603729094211013,1
535,866,22,0.0709968838175735,1
535,867,22,0.0530291199384203,1
536,865,22,0.0478195146707208,1
536,866,22,0.0545238982869474,1
529,863,23,0.0493689551082701,1
530,862,23,0.0707958668237302,1
530,863,23,0.0706093506926719,1
530,864,23,0.0422265502774001,1
531,862,23,0.0571695704292956,1
531,863,23,0.061111323415565,1
531,864,23,0.0466596889509784,1
532,863,23,0.0516729756773925,1
532,864,23,0.054918011408124,1
532,865,23,0.046036643864087,1
533,862,23,0.0418286470351153,1
533,863,23,0.0568557310999799,1
533,864,23,0.0618344850111037,1
533,865,23,0.0521609010544171,1
533,866,23,0.0416269731229915,1
534,863,23,0.0454172104760548,1
534,864,23,0.0506854247491945,1
534,865,23,0.0551117941907792,1
534,866,23,0.0618531490596996,1
534,867,23,0.0425391595745445,1
535,862,23,0.0425606810824923,1
535,864,23,0.0427894454394278,1
535,865,23,0.0632626469799234,1
535,866,23,0.0811093702866789,1
535,867,23,0.0555283074143117,1
536,862,23,0.0463543490087984,1
536,865,23,0.0475174403963716,1
536,866,23,0.058686262274045,1
540,866,23,0.0453243714324742,1
541,866,23,0.0486075462706203,1
541,867,23,0.0428544668323636,1
547,876,23,0.0541727092335006,1
547,877,23,0.0878025511483602,1
547,878,23,0.0543676706843464,1
548,876,23,0.0818246758965253,1
548,877,23,0.126005998707401,1
548,878,23,0.0805114989571057,1
521,870,24,0.0445660471370388,1
529,862,24,0.0549517007727824,1
529,863,24,0.0538207037630961,1
530,861,24,0.0480866235909941,1
530,862,24,0.0888357186982278,1
530,863,24,0.0873734510461686,1
530,864,24,0.0454283861969261,1
531,862,24,0.0636811661020738,1
531,863,24,0.0667244116758828,1
531,864,24,0.0477646200921013,1
532,863,24,0.0509070576229035,1
532,864,24,0.0603803815286215,1
532,865,24,0.0471175907295519,1
533,863,24,0.0524641431834872,1
533,864,24,0.0649875900297042,1
533,865,24,0.0526384887544674,1
534,863,24,0.0431953452425102,1
534,864,24,0.0497796182447282,1
534,865,24,0.0493980595618019,1
534,866,24,0.0525582149626066,1
535,861,24,0.0430257873352125,1
535,865,24,0.056281357439931,1
535,866,24,0.0717463059241291,1
535,867,24,0.0474486288823276,1
536,861,24,0.0459607008668164,1
536,862,24,0.0413536978216568,1
536,865,24,0.042751371212831,1
536,866,24,0.0516430277732289,1
540,866,24,0.0468033350816551,1
541,865,24,0.0424422384461753,1
541,866,24,0.0512072611670052,1
541,867,24,0.0417848362628753,1
547,876,24,0.0452869865645667,1
547,877,24,0.0771268991804861,1
547,878,24,0.0451228705358645,1
548,876,24,0.0752958219262042,1
548,877,24,0.117919675298324,1
548,878,24,0.0730368502715954,1
549,876,24,0.0432051260257982,1
549,877,24,0.067824341587298,1
549,878,24,0.041583265078713,1
529,862,25,0.0511870940461296,1
529,863,25,0.0495305948524251,1
530,861,25,0.0469313557487043,1
530,862,25,0.0874097572704796,1
530,863,25,0.0845645171392196,1
530,864,25,0.0433148151584428,1
531,862,25,0.061739823897889,1
531,863,25,0.0623085853671956,1
531,864,25,0.0437621440670774,1
532,863,25,0.0483415673579242,1
532,864,25,0.0578487320168756,1
532,865,25,0.0425630789693846,1
533,863,25,0.0469344862481646,1
533,864,25,0.060536592911018,1
533,865,25,0.047145100196312,1
534,864,25,0.0451237004696593,1
535,865,25,0.042141740235026,1
535,866,25,0.0463554357624971,1
538,860,25,0.0470055469638935,1
539,859,25,0.0431319350565506,1
539,860,25,0.0514492990579219,1
539,861,25,0.0431338544474114,1
540,860,25,0.0445748952585704,1
547,877,25,0.0509330694241187,1
548,869,25,0.0417354944009152,1
548,876,25,0.0539436258792108,1
548,877,25,0.0781662574417217,1
548,878,25,0.0512429023629334,1
549,877,25,0.0487704782243971,1
522,868,26,0.0528904155633684,1
522,869,26,0.0440339108893975,1
523,867,26,0.0444753140166702,1
523,868,26,0.0643866422680189,1
523,869,26,0.0530025350233143,1
524,868,26,0.0476972575829888,1
530,862,26,0.0646415698147445,1
530,863,26,0.06184267080762,1
531,862,26,0.0508183006641114,1
531,863,26,0.0490060064065915,1
532,864,26,0.0444674877680194,1
533,864,26,0.0471123786371862,1
537,860,26,0.0437385788133679,1
538,859,26,0.0604459111546303,1
538,860,26,0.0728448030508172,1
538,861,26,0.0522642561972211,1
539,859,26,0.0681161809126343,1
539,860,26,0.0818575920981046,1
539,861,26,0.0566787578558776,1
540,860,26,0.0567573393397399,1
540,861,26,0.0428310610773313,1
548,869,26,0.0461710715118969,1
548,877,26,0.0424708779205127,1
549,869,26,0.0502610825736438,1
522,867,27,0.0460224295582473,1
522,868,27,0.0747099859883386,1
522,869,27,0.0533068909397571,1
523,867,27,0.0650058323529842,1
523,868,27,0.101830540906188,1
523,869,27,0.0723715893992356,1
524,867,27,0.0441429944677424,1
524,868,27,0.0681141155399334,1
524,869,27,0.0486216848821725,1
534,889,27,0.0414158806788125,1
534,890,27,0.0530374895639205,1
535,890,27,0.0430341758842845,1
537,860,27,0.04995825135642,1
538,859,27,0.072358002274635,1
538,860,27,0.0913750187397429,1
538,861,27,0.0635641859875254,1
539,859,27,0.0826859254993466,1
539,860,27,0.101811887671062,1
539,861,27,0.0683364404756992,1
540,860,27,0.0624775836774396,1
540,861,27,0.0458160598969329,1
548,869,27,0.0446952951328919,1
549,869,27,0.048845215519803,1
522,867,28,0.0453382315971832,1
522,868,28,0.0799671218618338,1
522,869,28,0.0511686787073353,1
523,867,28,0.0732400786199798,1
523,868,28,0.121233798286575,1
523,869,28,0.0787101263039206,1
524,867,28,0.0454007956291437,1
524,868,28,0.0761298810596197,1
524,869,28,0.0477915185978269,1
533,889,28,0.0505840538780692,1
533,890,28,0.0700635516261425,1
534,889,28,0.0549723977536704,1
534,890,28,0.0760953698712687,1
534,891,28,0.0526620621182791,1
535,890,28,0.0498621304248041,1
538,860,28,0.0856112447800138,1
538,861,28,0.0610632088824089,1
539,859,28,0.0752880362280646,1
539,860,28,0.095635547404218,1
539,861,28,0.0660113877081301,1
540,860,28,0.0574835503337166,1
540,861,28,0.0441123896452983,1
542,863,28,0.0416299441237746,1
522,868,29,0.0639678528091275,1
522,869,29,0.0410479767046721,1
523,867,29,0.0649590532833284,1
523,868,29,0.105389383525826,1
523,869,29,0.0679017173692956,1
524,859,29,0.0431487013412249,1
524,860,29,0.0432071292210487,1
524,867,29,0.0418896539274478,1
524,868,29,0.068140024613187,1
524,869,29,0.0417814083929999,1
532,890,29,0.04211515531992,1
533,889,29,0.0577949944795075,1
533,890,29,0.0802451469797071,1
534,889,29,0.062890869080285,1
534,890,29,0.0868147406968909,1
534,891,29,0.0573226350920274,1
535,890,29,0.0507553933044899,1
538,860,29,0.0608561850061814,1
538,861,29,0.0480128378809164,1
539,860,29,0.068547822180191,1
539,861,29,0.0544385637912959,1
540,860,29,0.0471880675179203,1
540,861,29,0.0433301162179812,1
523,859,30,0.0443400104778195,1
523,860,30,0.0439150032738861,1
523,867,30,0.0445622326856238,1
523,868,30,0.0658080998856627,1
523,869,30,0.0432726750672619,1
524,858,30,0.0485643843065586,1
524,859,30,0.0570830572654535,1
524,860,30,0.0581806839078357,1
524,861,30,0.0487499596657582,1
524,868,30,0.045340929557858,1
525,858,30,0.0552910328567707,1
525,859,30,0.0583496011170574,1
525,860,30,0.0592052223089318,1
525,861,30,0.0538645686026843,1
533,889,30,0.0492488066471176,1
533,890,30,0.0663834954185924,1
533,891,30,0.0462438840097072,1
534,889,30,0.0540249053237479,1
534,890,30,0.0727640156191486,1
534,891,30,0.0506542873633707,1
535,890,30,0.0426100580882287,1
539,860,30,0.0457143051476354,1
539,861,30,0.0467598216798301,1
540,860,30,0.0416866364417214,1
540,861,30,0.0476154807188483,1
542,890,30,0.0460494578256085,1
543,890,30,0.0445895529166653,1
523,860,31,0.0411792062688365,1
524,858,31,0.0598101710543834,1
524,859,31,0.0570005450853775,1
524,860,31,0.065721813804683,1
524,861,31,0.0638041693192108,1
525,857,31,0.0596413079125099,1
525,858,31,0.0756542776312481,1
525,859,31,0.0667279368669849,1
525,860,31,0.0747060228517161,1
525,861,31,0.0747884971846483,1
525,862,31,0.0438746230748888,1
526,858,31,0.0518311983651418,1
526,859,31,0.0446276622870384,1
526,860,31,0.050204674109275,1
526,861,31,0.0493844994708753,1
533,890,31,0.043737365001401,1
534,890,31,0.0485835619949623,1
539,861,31,0.04549286691638,1
540,861,31,0.0498934516396118,1
541,891,31,0.0628436358449044,1
542,890,31,0.0565150311120823,1
542,891,31,0.0895077379891116,1
543,890,31,0.0564843911458619,1
524,859,32,0.0488405873547978,1
524,860,32,0.0619851004229624,1
524,861,32,0.0687075587536897,1
524,862,32,0.0430636128520076,1
525,858,32,0.0834270698948939,1
525,859,32,0.0640562421099519,1
525,860,32,0.0743670800526348,1
525,861,32,0.081437764546128,1
525,862,32,0.0483247145654927,1
526,860,32,0.0465753276675943,1
526,861,32,0.0483263690263474,1
539,861,32,0.0457130670053618,1
540,861,32,0.0476665581426854,1
541,891,32,0.0640122150683191,1
542,890,32,0.0607218871200071,1
542,891,32,0.0990294305445222,1
543,890,32,0.0628289457464006,1
516,884,33,0.0411531863575191,1
524,859,33,0.0419927684705524,1
524,860,33,0.0535068049596973,1
524,861,33,0.0608274644308218,1
525,859,33,0.0528696320747233,1
525,860,33,0.0611403575815442,1
525,861,33,0.0686857155450201,1
525,862,33,0.0437316473793297,1
526,861,33,0.0422819314621532,1
541,891,33,0.0572730499270004,1
542,890,33,0.0572538884588012,1
542,891,33,0.0873945967860465,1
543,890,33,0.0600417252864856,1
543,891,33,0.0890124486392633,1
544,890,33,0.0425433173536204,1
515,884,34,0.0536678607764919,1
516,884,34,0.0514070940859231,1
516,885,34,0.0637522430380071,1
517,885,34,0.0431793953747936,1
517,886,34,0.0538584806192779,1
524,861,34,0.0444875737878728,1
525,860,34,0.0443874329489188,1
525,861,34,0.0478459644174563,1
541,891,34,0.0453717236160208,1
542,890,34,0.0466195547584154,1
542,891,34,0.0649992036960958,1
543,890,34,0.0498885693580701,1
543,891,34,0.069426005676466,1
508,881,35,0.0419764779785421,1
508,882,35,0.0424057619097176,1
509,881,35,0.0430015246127113,1
509,882,35,0.044823064386772,1
515,884,35,0.0568144128324915,1
516,884,35,0.0531564593568823,1
516,885,35,0.0732484698724192,1
517,885,35,0.0453066724860435,1
517,886,35,0.0630499244051965,1
542,891,35,0.0435244694111599,1
508,881,36,0.0432489232812012,1
509,881,36,0.0430423670875356,1
509,882,36,0.0419487279120825,1
515,884,36,0.0512407450757406,1
515,885,36,0.0872245333490431,1
516,884,36,0.0467932082673387,1
516,885,36,0.0757123784036153,1
516,886,36,0.125292525980658,1
517,885,36,0.0453324869414378,1
517,886,36,0.0670988496890522,1
515,884,37,0.0460472735047415,1
515,885,37,0.0884272561028411,1
516,885,37,0.0708097729456851,1
516,886,37,0.124924565235802,1
517,885,37,0.04395862210704,1
517,886,37,0.0686358492297825,1
517,887,37,0.0736159223842022,1
514,885,38,0.0646355034582774,1
515,885,38,0.0782829618127943,1
515,886,38,0.124600626125844,1
516,885,38,0.0613134001294329,1
516,886,38,0.104798546358253,1
516,887,38,0.115810399910655,1
517,885,38,0.0421733128630028,1
517,886,38,0.0658257582815822,1
517,887,38,0.0767195774061462,1
518,887,38,0.0417093068808184,1
514,885,39,0.0533865808042574,1
514,886,39,0.0608809640718578,1
515,885,39,0.0591929436141574,1
515,886,39,0.0790694849336793,1
515,887,39,0.0802825399577167,1
516,885,39,0.0475937943054885,1
516,886,39,0.072496555261112,1
516,887,39,0.0868624659451401,1
517,886,39,0.0549045161980152,1
517,887,39,0.0698134577003453,1
517,888,39,0.0552833012259793,1
518,887,39,0.0417201230538242,1
514,886,40,0.0416705405921646,1
515,886,40,0.0481028546089214,1
515,887,40,0.0510947524221523,1
516,886,40,0.0506863601143183,1
516,887,40,0.065411359091364,1
516,888,40,0.0575651271486689,1
517,886,40,0.045687671571916,1
517,887,40,0.062065049810734,1
517,888,40,0.0559476483601546,1
552,872,40,0.0414172404726196,1
515,887,41,0.0415301249855424,1
516,887,41,0.0501882160084854,1
516,888,41,0.0516400540690783,1
517,887,41,0.0504278695293468,1
517,888,41,0.0509463537715695,1
512,860,42,0.0519388356419226,1
512,861,42,0.0510287686304187,1
513,860,42,0.0512480441677465,1
513,861,42,0.0509734847668923,1
514,887,42,0.0521859072029559,1
515,887,42,0.0455068487326224,1
515,888,42,0.0607415784482187,1
516,888,42,0.0469949930175264,1
517,888,42,0.0424261480033534,1
545,864,42,0.0481000322933457,1
511,860,43,0.0420260928806106,1
512,859,43,0.0448537719371777,1
512,860,43,0.0627583716368055,1
512,861,43,0.0584876242435221,1
513,859,43,0.0444951080728433,1
513,860,43,0.0625110459592356,1
513,861,43,0.0588455663087581,1
513,887,43,0.0551377951785248,1
514,887,43,0.066382132921418,1
514,888,43,0.113901184524766,1
515,887,43,0.0512201940766928,1
515,888,43,0.0814556932787885,1
515,889,43,0.0754510871300074,1
516,888,43,0.0448606790409093,1
544,864,43,0.0468614196338179,1
545,863,43,0.0460911113106557,1
545,864,43,0.06826404429647,1
545,865,43,0.0527456610520537,1
546,864,43,0.0502578385327523,1
506,877,44,0.045699425813413,1
506,878,44,0.0418068173432828,1
512,859,44,0.0432597773013507,1
512,860,44,0.0594571274908935,1
512,861,44,0.0522117189549828,1
513,859,44,0.0430057743062792,1
513,860,44,0.0593509121853702,1
513,861,44,0.052784140783762,1
513,887,44,0.0543094347436087,1
513,888,44,0.0972359409107035,1
514,887,44,0.0709360526441226,1
514,888,44,0.128605535181537,1
514,889,44,0.122612385903838,1
515,887,44,0.0544459926449375,1
515,888,44,0.0876361751045035,1
515,889,44,0.080175437947683,1
516,888,44,0.0420038090230532,1
518,858,44,0.0428225562834607,1
518,859,44,0.0433737485679722,1
519,859,44,0.0410076451662882,1
544,864,44,0.0511070905910097,1
545,863,44,0.0506630030198993,1
545,864,44,0.0755475054320383,1
545,865,44,0.0559932109144761,1
546,864,44,0.051822639503923,1
505,877,45,0.0410779408290402,1
506,877,45,0.058275236886354,1
506,878,45,0.050543297911002,1
507,877,45,0.0467878339729284,1
507,878,45,0.0411362794977394,1
512,860,45,0.0465468395818319,1
513,860,45,0.0460266414046714,1
513,887,45,0.0482792547391328,1
513,888,45,0.0787196962245506,1
514,887,45,0.065453017983146,1
514,888,45,0.10732747087565,1
514,889,45,0.105051246330233,1
515,887,45,0.0540890616391126,1
515,888,45,0.0756544398332926,1
515,889,45,0.0687178477700506,1
518,859,45,0.0426731763105082,1
544,864,45,0.0422895279245742,1
545,863,45,0.0457409279098852,1
545,864,45,0.0608749734096782,1
545,865,45,0.0456387244015977,1
546,864,45,0.0433832968616629,1
506,877,46,0.0569379783500497,1
506,878,46,0.0493034092620568,1
507,877,46,0.0426520765278762,1
513,888,46,0.0527922616994605,1
514,887,46,0.0519795213214371,1
514,888,46,0.0709103652469965,1
514,889,46,0.068407236261422,1
515,887,46,0.0457322501005004,1
515,888,46,0.0545131334779224,1
515,889,46,0.0476889744652458,1
527,859,46,0.0485701695128151,1
527,860,46,0.0416897831613862,1
528,859,46,0.0458084526210423,1
506,877,47,0.0442088295742685,1
527,859,47,0.0548899828948212,1
527,860,47,0.0437737009627535,1
528,859,47,0.0520422556655444,1
528,860,47,0.0412765112753778,1
527,859,48,0.0493564493306333,1
528,859,48,0.0459401444610337,1
506,888,49,0.0499658964794544,1
506,889,49,0.0424165699726212,1
507,888,49,0.0435569476672188,1
506,888,50,0.0511321670271012,1
506,889,50,0.0436927405155707,1
507,888,50,0.0436869769362534,1
506,888,51,0.0428544965694051,1
544,886,51,0.0492617828106837,1
543,886,52,0.043022959612902,1
506,873,55,0.0431667652422559,1
506,874,55,0.0541243838376865,1
506,875,55,0.0462427269684559,1
507,873,55,0.041426826613454,1
507,874,55,0.0512464005203615,1
507,875,55,0.0421526807629327,1
506,873,56,0.0477357967887801,1
506,874,56,0.0630488430582326,1
507,873,56,0.0479000858329966,1
507,874,56,0.061956460948625,1
507,875,56,0.0469179037924741,1
545,880,56,0.0608667389525485,1
545,881,56,0.0580298846669931,1
546,880,56,0.0666783625154276,1
507,873,57,0.0459214425652941,1
507,874,57,0.0618163886696638,1
507,875,57,0.0488148512970584,1
544,880,57,0.0502194399020663,1
545,880,57,0.077594895332967,1
507,874,58,0.0521516879782852,1
507,875,58,0.0464306001899537,1
543,879,58,0.0581700164200374,1
543,880,58,0.0523576413210184,1
544,878,58,0.0523892004321582,1
544,879,58,0.0845535522810063,1
544,880,58,0.0831590796768451,1
545,878,58,0.0462756053228915,1
543,878,59,0.0480333564395553,1
543,879,59,0.0756199070180023,1
543,880,59,0.0655487334096505,1
544,878,59,0.0722096576914004,1
509,866,60,0.0410191182575746,1
510,866,60,0.0427233399961608,1
515,864,60,0.0442168288384335,1
543,878,60,0.0507799452873039,1
509,866,61,0.0534068073992161,1
509,867,61,0.0443837671827114,1
510,866,61,0.0521149329949842,1
510,867,61,0.0412832318467581,1
509,865,62,0.044877988702433,1
509,866,62,0.060320074808448,1
509,867,62,0.0481774351090175,1
510,865,62,0.0415367076851848,1
510,866,62,0.0551086150307055,1
510,867,62,0.0432961429997447,1
515,866,62,0.0413099951841132,1
516,865,62,0.041127558434476,1
536,871,62,0.0529831518789874,1
536,872,62,0.0624246625570292,1
537,871,62,0.0821929826724097,1
537,872,62,0.0979421577993188,1
537,873,62,0.0611786859246775,1
538,871,62,0.0735900727850316,1
538,872,62,0.0861815255418046,1
538,873,62,0.054482612459868,1
539,871,62,0.0418894376580551,1
539,872,62,0.0458393953644126,1
509,866,63,0.0519099150173747,1
510,866,63,0.0462548326477161,1
515,866,63,0.0490574514883962,1
516,866,63,0.0447697458713524,1
536,871,63,0.0760682118422718,1
536,872,63,0.0945162884158241,1
536,873,63,0.0584209646099361,1
537,870,63,0.0568074327378399,1
537,871,63,0.127642693031463,1
537,872,63,0.157400107113905,1
537,873,63,0.0935044071809397,1
538,870,63,0.0542979508388527,1
538,871,63,0.114605768579466,1
538,872,63,0.136901120855057,1
538,873,63,0.0802668550200062,1
539,871,63,0.0607034934081522,1
539,872,63,0.0675118323147477,1
539,873,63,0.0430570923298157,1
515,866,64,0.047463897501457,1
515,867,64,0.0422507508224509,1
516,866,64,0.0414000930131404,1
535,872,64,0.0410808388389033,1
536,870,64,0.048752241307852,1
536,871,64,0.0961273656303124,1
536,872,64,0.117325323753118,1
536,873,64,0.0704550208539925,1
537,870,64,0.0752142505179868,1
537,871,64,0.165160134076643,1
537,872,64,0.198969398486478,1
537,873,64,0.113858871418071,1
538,870,64,0.0705378033708094,1
538,871,64,0.147205243633094,1
538,872,64,0.171645826082902,1
538,873,64,0.095968429253567,1
539,870,64,0.0458247971804008,1
539,871,64,0.0746967989621145,1
539,872,64,0.0819734584252803,1
539,873,64,0.0499374894947142,1
535,871,65,0.0436939651410072,1
535,872,65,0.0454541168479307,1
536,870,65,0.0601219179773241,1
536,871,65,0.105568249127115,1
536,872,65,0.119000816806243,1
536,873,65,0.0729849726510051,1
537,870,65,0.0882841938995249,1
537,871,65,0.173743130959682,1
537,872,65,0.195610042754729,1
537,873,65,0.112454915401037,1
537,874,65,0.0414182704556026,1
538,870,65,0.080485562850178,1
538,871,65,0.152925363615893,1
538,872,65,0.168549994606241,1
538,873,65,0.0955362797529373,1
537,871,66,0.148045082566031,1
537,872,66,0.152833470750906,1
