x,y,z,signal,cytoplasm.p
466,106,10,0.0449600277932122,1
467,106,10,0.0434654657140778,1
477,105,10,0.0466733842102754,1
478,105,10,0.0539009559280176,1
488,113,10,0.0420993919845546,1
466,106,11,0.0501776134015049,1
466,107,11,0.042725545943967,1
467,106,11,0.0462934583612645,1
486,113,11,0.0469555454802854,1
487,112,11,0.0450103266472353,1
487,113,11,0.0577714535561046,1
488,112,11,0.0434418004357742,1
488,113,11,0.0563371981971437,1
488,114,11,0.0570796564292522,1
488,115,11,0.0449536532528604,1
466,106,12,0.0504556601463175,1
466,107,12,0.0431937448490037,1
467,106,12,0.045087253670243,1
486,112,12,0.047376243516568,1
486,113,12,0.0563330404180678,1
486,114,12,0.0541314720670345,1
487,112,12,0.057436587435077,1
487,113,12,0.0737535832594341,1
487,114,12,0.0692189926137082,1
487,115,12,0.0482643591847059,1
488,112,12,0.0530765532229892,1
488,113,12,0.0704756475473277,1
488,114,12,0.0708687279821538,1
488,115,12,0.0533194291578029,1
489,114,12,0.0482098863314024,1
489,115,12,0.0419071230876487,1
485,116,13,0.0424028368661804,1
486,112,13,0.0452217434955034,1
486,113,13,0.0547391836539787,1
486,114,13,0.0492393340477144,1
487,112,13,0.054191270554135,1
487,113,13,0.0719184022934244,1
487,114,13,0.0652713138460769,1
487,115,13,0.04635175918282,1
488,112,13,0.0479178577703473,1
488,113,13,0.0658717425612196,1
488,114,13,0.0670185975241307,1
488,115,13,0.0528339584383862,1
486,113,14,0.0471727015775641,1
486,114,14,0.0419304828854351,1
487,112,14,0.0475261344259609,1
487,113,14,0.0619252803089227,1
487,114,14,0.0558256616091637,1
471,99,25,0.0487637143991383,1
472,98,25,0.0829360572722876,1
472,99,25,0.0531620985812987,1
473,99,25,0.0496116634343043,1
469,98,26,0.0448735281462071,1
470,98,26,0.0469864395630424,1
471,97,26,0.0647415187146124,1
471,98,26,0.0539025725417285,1
471,99,26,0.0428610143882297,1
472,97,26,0.0758335487376485,1
472,98,26,0.0647747214731371,1
472,99,26,0.0475259451902422,1
473,99,26,0.0477798670842915,1
468,97,27,0.04896044385227,1
468,98,27,0.0420752509135868,1
469,97,27,0.0507786638911518,1
469,98,27,0.0426024859561144,1
470,96,27,0.0577103520459128,1
470,97,27,0.0514264393831063,1
470,98,27,0.0438045112411207,1
471,96,27,0.0547461150880169,1
471,97,27,0.0511742260172599,1
471,98,27,0.0455224039086973,1
472,96,27,0.0539045135595286,1
472,97,27,0.0537952001949539,1
472,98,27,0.0500021972970305,1
472,99,27,0.0422408348707924,1
473,99,27,0.0458906998711121,1
464,99,28,0.0441029467829366,1
465,98,28,0.0431497962050258,1
466,97,28,0.0539492164430138,1
467,97,28,0.0507472345416477,1
468,96,28,0.0643635717305453,1
468,97,28,0.0467715921415315,1
469,96,28,0.0551993400409718,1
469,97,28,0.0469004238188036,1
470,95,28,0.0562356867509131,1
470,96,28,0.0508330826771071,1
470,97,28,0.0457450424350826,1
471,95,28,0.0527956517221921,1
471,96,28,0.0479016213456853,1
471,97,28,0.0444341525444916,1
472,95,28,0.0520520256353627,1
472,96,28,0.0460937065433689,1
472,97,28,0.0434416436404644,1
472,98,28,0.0410641076980052,1
473,95,28,0.053099050646572,1
473,96,28,0.0485981223318304,1
473,97,28,0.0469727010498668,1
473,98,28,0.0457469618259434,1
473,99,28,0.0423246392604902,1
474,95,28,0.0548338015133148,1
474,99,28,0.0467793021453837,1
475,99,28,0.0478518685718789,1
476,99,28,0.0436716055891624,1
478,95,28,0.0591726251047068,1
478,98,28,0.0454442333366812,1
479,98,28,0.0438364163832889,1
464,98,29,0.0453016550361313,1
464,99,29,0.0425001148390476,1
465,97,29,0.0550220640197196,1
465,98,29,0.0439263520102716,1
466,96,29,0.110621383489147,1
466,97,29,0.0578802262471975,1
466,98,29,0.0419632801388484,1
467,96,29,0.092807771026424,1
467,97,29,0.0544555301251586,1
467,98,29,0.0416410928109718,1
468,95,29,0.0998266752205537,1
468,96,29,0.0655136220737345,1
468,97,29,0.0483522780996011,1
469,95,29,0.0641322986486537,1
469,96,29,0.0532743315826759,1
469,97,29,0.0452634186074898,1
470,94,29,0.0593310586551141,1
470,95,29,0.0520634284390964,1
470,96,29,0.0467273542372408,1
470,97,29,0.0421885490417233,1
471,94,29,0.0545508076061426,1
471,95,29,0.0492448272902907,1
471,96,29,0.0449868614181199,1
471,97,29,0.0418196475250087,1
472,94,29,0.0536788688885838,1
472,95,29,0.0486671987758806,1
472,96,29,0.0434069594365992,1
473,94,29,0.0542341946218646,1
473,95,29,0.048766715136963,1
473,96,29,0.0440031060177651,1
473,97,29,0.0416101419574993,1
474,94,29,0.0546687068656103,1
474,95,29,0.0499495573268307,1
474,96,29,0.0475643924815416,1
474,97,29,0.0463445465985712,1
474,98,29,0.0444812343912973,1
474,99,29,0.0411171045127031,1
475,94,29,0.0555438085230384,1
475,95,29,0.0524533891879318,1
475,98,29,0.0474417298886983,1
475,99,29,0.0419186799833248,1
476,94,29,0.058238541377136,1
476,95,29,0.0551264085949955,1
476,98,29,0.0462341356668282,1
477,94,29,0.0576384695064914,1
477,95,29,0.0554669247539092,1
477,98,29,0.0447368458899775,1
478,95,29,0.0551925870291826,1
478,96,29,0.0528542120670189,1
478,97,29,0.0494867137926324,1
478,98,29,0.0427158678886406,1
479,96,29,0.0525019362598735,1
479,97,29,0.0472095430686222,1
479,98,29,0.0413667713064497,1
464,97,30,0.0458406605403603,1
464,98,30,0.0412521404181802,1
465,96,30,0.0724753067932725,1
465,97,30,0.0493244630874428,1
466,95,30,0.143523213967335,1
466,96,30,0.087201630420349,1
466,97,30,0.0525634216482375,1
467,95,30,0.132897790565931,1
467,96,30,0.0779069882869362,1
467,97,30,0.0496794963293461,1
468,94,30,0.12371346744977,1
468,95,30,0.0870391904794407,1
468,96,30,0.0586991086759754,1
468,97,30,0.0440201696728545,1
469,94,30,0.0724305876895828,1
469,95,30,0.0579346558466224,1
469,96,30,0.0476246072872231,1
470,93,30,0.065310966839241,1
470,94,30,0.0543351924282875,1
470,95,30,0.0462308754057322,1
470,96,30,0.0413691259394634,1
471,93,30,0.068477513000602,1
471,94,30,0.0509691053116887,1
471,95,30,0.0441216459753088,1
472,93,30,0.0665063634673589,1
472,94,30,0.0495835808536534,1
472,95,30,0.0434356664951218,1
473,93,30,0.0605340247119789,1
473,94,30,0.0491438619242768,1
473,95,30,0.0434444929897141,1
474,93,30,0.0577537140591628,1
474,94,30,0.050065942700549,1
474,95,30,0.0447569265030961,1
474,96,30,0.0412000032743186,1
475,93,30,0.0583332619644337,1
475,94,30,0.0516544305769626,1
475,95,30,0.0465696884431779,1
475,96,30,0.0443211977440161,1
475,97,30,0.042548534852721,1
476,93,30,0.0614014379924941,1
476,94,30,0.0549908347194039,1
476,95,30,0.048950306224484,1
476,96,30,0.0466983471049357,1
476,97,30,0.0451068855243715,1
477,93,30,0.0595429864398226,1
477,94,30,0.0549540959563074,1
477,95,30,0.0503068830242973,1
477,96,30,0.047918555239139,1
477,97,30,0.0461051796346552,1
478,94,30,0.0523110190466724,1
478,95,30,0.0508843547433977,1
478,96,30,0.0476349665911367,1
478,97,30,0.0446331609363496,1
479,95,30,0.0533703173459213,1
479,96,30,0.0472584686120012,1
479,97,30,0.0424189164955327,1
464,96,31,0.0478329828471554,1
464,97,31,0.0412213679869567,1
465,95,31,0.0714938546619506,1
465,96,31,0.0550673400170957,1
465,97,31,0.0429273306941547,1
466,94,31,0.122456704381454,1
466,95,31,0.0892945504351902,1
466,96,31,0.0619050266802899,1
466,97,31,0.0454465366057142,1
467,93,31,0.148131730898244,1
467,94,31,0.134740070574758,1
467,95,31,0.0912735235137167,1
467,96,31,0.0588995255222538,1
467,97,31,0.0434266453580759,1
468,93,31,0.105538328256626,1
468,94,31,0.0955705584516911,1
468,95,31,0.0676884324941475,1
468,96,31,0.048414125739198,1
469,92,31,0.0719989680489655,1
469,93,31,0.0680136692204622,1
469,94,31,0.0603532289063594,1
469,95,31,0.0489581622101763,1
469,96,31,0.0411615289493451,1
470,92,31,0.0743092009563952,1
470,93,31,0.057749583313761,1
470,94,31,0.0471889974763092,1
471,92,31,0.094093752089703,1
471,93,31,0.0604793139623433,1
471,94,31,0.0453215220832244,1
472,92,31,0.0905944159934849,1
472,93,31,0.0588569204518785,1
472,94,31,0.0436914726362556,1
473,92,31,0.0718723963868478,1
473,93,31,0.0537795639178567,1
473,94,31,0.0426462696946804,1
474,92,31,0.0610988176379282,1
474,93,31,0.0512427780080326,1
474,94,31,0.0432396588410884,1
475,92,31,0.0584009705045747,1
475,93,31,0.0524276963840709,1
475,94,31,0.0451875783381808,1
476,92,31,0.059584304707311,1
476,93,31,0.0572484871307168,1
476,94,31,0.0495416840655393,1
476,95,31,0.043274991853132,1
477,92,31,0.0571939223629213,1
477,93,31,0.0584643104029817,1
477,94,31,0.0527657903257856,1
477,95,31,0.0464582934856977,1
477,96,31,0.0418784106223913,1
478,92,31,0.053810447187144,1
478,93,31,0.0557646033528503,1
478,94,31,0.0523378472648453,1
478,95,31,0.047745820875135,1
478,96,31,0.0425826026888168,1
479,94,31,0.0537345906976306,1
479,95,31,0.0488953305448423,1
479,96,31,0.0424672797384905,1
480,95,31,0.0502350707724286,1
480,96,31,0.0435090548101903,1
481,98,31,0.041348742549195,1
482,98,31,0.0428723306842063,1
483,95,31,0.0576596530935131,1
483,96,31,0.0501184096552346,1
483,97,31,0.0437328665980314,1
484,96,31,0.046739789727325,1
461,98,32,0.0411644404760453,1
464,95,32,0.0470109699189171,1
464,96,32,0.0417332749362719,1
465,94,32,0.059013699541431,1
465,95,32,0.050947775742827,1
465,96,32,0.0433386912994045,1
466,93,32,0.0861026953481405,1
466,94,32,0.0735166385127171,1
466,95,32,0.0567158048028588,1
466,96,32,0.0451456761433319,1
467,92,32,0.085025922481956,1
467,93,32,0.0954502477884941,1
467,94,32,0.0832533569118876,1
467,95,32,0.0602282143838697,1
467,96,32,0.0442081429189465,1
467,113,32,0.0421096647807111,1
467,114,32,0.0452059639399335,1
468,92,32,0.0721989523564583,1
468,93,32,0.0757725445486834,1
468,94,32,0.0667835559480701,1
468,95,32,0.0505830265984536,1
468,114,32,0.0418500225612231,1
469,91,32,0.0693477972573062,1
469,92,32,0.061329755502261,1
469,93,32,0.0560937167080304,1
469,94,32,0.049041847651708,1
469,95,32,0.0411911875931959,1
470,90,32,0.0729744619585166,1
470,91,32,0.0705383656712306,1
470,92,32,0.0587942726155283,1
470,93,32,0.0494751271599149,1
470,94,32,0.0414535737306046,1
471,90,32,0.0787170685514285,1
471,91,32,0.0768667919818036,1
471,92,32,0.0625450543212485,1
471,93,32,0.0496111389810269,1
472,90,32,0.0838034651460679,1
472,91,32,0.0759339355830368,1
472,92,32,0.0605338571031995,1
472,93,32,0.0473350874511242,1
473,90,32,0.0846542148698703,1
473,91,32,0.0684855528152782,1
473,92,32,0.0552416693678714,1
473,93,32,0.0445440065825483,1
474,90,32,0.0870870887432041,1
474,91,32,0.0628037990227565,1
474,92,32,0.05199483860118,1
474,93,32,0.0435632194796091,1
475,90,32,0.0748487714644128,1
475,91,32,0.057877668861628,1
475,92,32,0.0520134702093669,1
475,93,32,0.0456554312121891,1
476,90,32,0.0574365495879333,1
476,91,32,0.053969875576758,1
476,92,32,0.0552505904803231,1
476,93,32,0.0524711394983432,1
476,94,32,0.044373402472063,1
477,91,32,0.0498652284838555,1
477,92,32,0.0568842191857423,1
477,93,32,0.0597481341790678,1
477,94,32,0.052493755870092,1
477,95,32,0.0418601520789068,1
478,91,32,0.0478881477625158,1
478,92,32,0.0554163447496755,1
478,93,32,0.0608501889372669,1
478,94,32,0.0552801004389663,1
478,95,32,0.0439405500959068,1
479,92,32,0.0531642342415523,1
479,93,32,0.0573457272564402,1
479,94,32,0.0524372608979661,1
479,95,32,0.0432173560599592,1
480,92,32,0.0524196025020466,1
480,94,32,0.0512199724005652,1
480,95,32,0.0441699875913273,1
481,93,32,0.0552371709645018,1
481,94,32,0.053748183228966,1
481,95,32,0.0487549122348526,1
481,96,32,0.0421104757909339,1
482,93,32,0.0550654963205223,1
482,94,32,0.0558783502399768,1
482,95,32,0.0525300729078726,1
482,96,32,0.0461788085494232,1
482,97,32,0.0417189146485921,1
483,94,32,0.0551960365259973,1
483,95,32,0.0520590111367491,1
483,96,32,0.0453377585078865,1
484,95,32,0.0499403496574336,1
484,96,32,0.0432709584289568,1
485,96,32,0.0412373313715104,1
460,98,33,0.041278208990111,1
461,99,33,0.0418850473893819,1
464,94,33,0.0435105146285915,1
465,93,33,0.0514004600223,1
465,94,33,0.046196580486774,1
465,95,33,0.0414465557888093,1
466,92,33,0.0602927978312851,1
466,93,33,0.05890173147006,1
466,94,33,0.0514244983653062,1
466,95,33,0.0426165029161332,1
467,91,33,0.061663296973258,1
467,92,33,0.0635138222526845,1
467,93,33,0.0645741532382838,1
467,94,33,0.0562085016882421,1
467,95,33,0.0442282073118605,1
468,91,33,0.0602615414972953,1
468,92,33,0.0586717505977902,1
468,93,33,0.0573852126408249,1
468,94,33,0.0504733672028504,1
469,90,33,0.062187452880306,1
469,91,33,0.0585107164079349,1
469,92,33,0.053558341955994,1
469,93,33,0.0492647727350388,1
469,94,33,0.043413544839609,1
470,89,33,0.070820543161445,1
470,90,33,0.0615626343843939,1
470,91,33,0.0565234061443173,1
470,92,33,0.0498102960580924,1
470,93,33,0.0440390337706387,1
471,90,33,0.0614433401873429,1
471,91,33,0.0546396943265704,1
471,92,33,0.0471714958756994,1
472,89,33,0.079401507112192,1
472,90,33,0.0642256459253073,1
472,91,33,0.0536244284756892,1
472,92,33,0.0444814858044663,1
473,89,33,0.0813055969134724,1
473,90,33,0.0673986531347773,1
473,91,33,0.0538496784549922,1
473,92,33,0.0436896316430496,1
474,89,33,0.08423045662168,1
474,90,33,0.0675840662919324,1
474,91,33,0.0535131470596403,1
474,92,33,0.043782508533774,1
475,89,33,0.0768996108621562,1
475,90,33,0.0614861669338459,1
475,91,33,0.0512005568158294,1
475,92,33,0.0445875956786607,1
476,89,33,0.0605828529341312,1
476,90,33,0.0514940019414071,1
476,91,33,0.0485639463610382,1
476,92,33,0.048401625368296,1
476,93,33,0.0461615015912669,1
477,90,33,0.0451501285894556,1
477,91,33,0.0462825043165208,1
477,92,33,0.0539165165108273,1
477,93,33,0.0581682754514256,1
477,94,33,0.0508095309402346,1
478,90,33,0.0437005262137103,1
478,91,33,0.0457542014438664,1
478,92,33,0.0564440460906409,1
478,93,33,0.0647895467400114,1
478,94,33,0.0574895139622222,1
478,95,33,0.0421673492344972,1
479,91,33,0.0448790349056205,1
479,92,33,0.0509793889213149,1
479,93,33,0.056850016181276,1
479,94,33,0.0513737129051493,1
480,91,33,0.0456427632325077,1
480,92,33,0.0471922252969963,1
480,93,33,0.0497192520504717,1
480,94,33,0.0460520260246476,1
481,92,33,0.0472943044503829,1
481,93,33,0.0492912981760618,1
481,94,33,0.0474687094954461,1
481,95,33,0.042602872537654,1
482,93,33,0.0497892368259716,1
482,94,33,0.049448417889908,1
482,95,33,0.0459228699432864,1
483,94,33,0.0493042689328931,1
483,95,33,0.0463354524706053,1
484,94,33,0.0483045744782912,1
484,95,33,0.0450823984223753,1
485,95,33,0.0432292914270726,1
458,101,34,0.042317272584299,1
461,99,34,0.0423311246389058,1
465,92,34,0.0454638489706053,1
466,91,34,0.0522617853194087,1
466,92,34,0.0479970177748354,1
466,93,34,0.04306929803367,1
467,90,34,0.054152482638542,1
467,91,34,0.0534679305363472,1
467,92,34,0.0508928433170638,1
467,93,34,0.0461483848525955,1
468,90,34,0.0543618260040069,1
468,91,34,0.0528033833529836,1
468,92,34,0.0502284853694188,1
468,93,34,0.04524173219413,1
469,89,34,0.0598009363513122,1
469,90,34,0.0549315066182327,1
469,91,34,0.0516292243792355,1
469,92,34,0.0488757527580619,1
469,93,34,0.0442247551116785,1
470,89,34,0.0672458263683775,1
470,90,34,0.0553485064478989,1
470,91,34,0.0492133817205822,1
470,92,34,0.0453506454603281,1
471,90,34,0.0550762395026081,1
471,91,34,0.0460137463421276,1
472,89,34,0.0708993625416394,1
472,90,34,0.0551160709180212,1
472,91,34,0.044814794785866,1
473,88,34,0.0784092144775576,1
473,89,34,0.0654648154785216,1
473,90,34,0.0563946231276585,1
473,91,34,0.0460895055104144,1
474,88,34,0.0656405992409636,1
474,89,34,0.0618959217388544,1
474,90,34,0.0560089823599437,1
474,91,34,0.0470127649548771,1
475,88,34,0.0625449840336958,1
475,89,34,0.0580196983785938,1
475,90,34,0.0520341725969897,1
475,91,34,0.0453175346162953,1
476,88,34,0.058996235787965,1
476,89,34,0.0524943181705132,1
476,90,34,0.0461444649698516,1
476,91,34,0.0430202265084509,1
477,89,34,0.0473923015189811,1
477,90,34,0.0415388568622754,1
477,91,34,0.0417121643401703,1
477,92,34,0.0461161607130731,1
477,93,34,0.0502448785893907,1
477,94,34,0.0445576369610275,1
478,91,34,0.0423391428266427,1
478,92,34,0.0511641694904961,1
478,93,34,0.0601367486509332,1
478,94,34,0.0536221414268607,1
479,90,34,0.0426972579073929,1
479,91,34,0.0417381437009766,1
479,92,34,0.0463736077982245,1
479,93,34,0.0531942848736775,1
479,94,34,0.0485732946055406,1
480,90,34,0.0449789108145683,1
480,91,34,0.0426755336468893,1
480,92,34,0.0424341688944577,1
480,93,34,0.0446372213941988,1
480,94,34,0.0417858500256539,1
481,91,34,0.0441890382214628,1
481,92,34,0.0428906216680997,1
481,93,34,0.043530297871295,1
481,94,34,0.0419112295027439,1
482,92,34,0.0446476563923999,1
482,93,34,0.0448073794490615,1
482,94,34,0.044352256732185,1
483,93,34,0.0443665764693537,1
483,94,34,0.044143651386023,1
484,94,34,0.0432074401083008,1
457,101,35,0.0423438223556287,1
458,100,35,0.0434474558803951,1
458,101,35,0.0428330913062559,1
464,91,35,0.047551821823087,1
464,92,35,0.0422137038754697,1
465,90,35,0.0525267747996329,1
465,91,35,0.0482620126617944,1
465,92,35,0.042855802295864,1
466,90,35,0.0516915964721099,1
466,91,35,0.0487171840392842,1
466,92,35,0.0444254531081675,1
467,89,35,0.051758250698961,1
467,90,35,0.0489138053577195,1
467,91,35,0.0479841281190264,1
467,92,35,0.0452916417632461,1
468,89,35,0.0511740151546019,1
468,90,35,0.0475976439006798,1
468,91,35,0.0469863963091638,1
468,92,35,0.0451985702300682,1
469,88,35,0.0651814809470558,1
469,89,35,0.0551348322878438,1
469,90,35,0.0486931348828084,1
469,91,35,0.0466986769157597,1
469,92,35,0.0452455331287079,1
469,93,35,0.0413918801829501,1
470,89,35,0.0628787796212292,1
470,90,35,0.0505345011534512,1
470,91,35,0.0446270026653905,1
470,92,35,0.0415732139586841,1
471,90,35,0.0514234170183423,1
471,91,35,0.0412126766607348,1
472,89,35,0.0644548049738846,1
472,90,35,0.0493077292431774,1
473,87,35,0.0835328526616317,1
473,88,35,0.0681301248817331,1
473,89,35,0.0558109444769858,1
473,90,35,0.0475162833551203,1
474,87,35,0.0611224342556185,1
474,88,35,0.0552549050547088,1
474,89,35,0.0500358974751587,1
474,90,35,0.0458799134351478,1
475,88,35,0.0523549487670785,1
475,89,35,0.047613993866773,1
475,90,35,0.0436392625014739,1
476,87,35,0.0569460343849303,1
476,88,35,0.0531568162013804,1
476,89,35,0.046643760710201,1
476,90,35,0.0410188344039966,1
477,88,35,0.0511336592859113,1
477,89,35,0.0446491405411078,1
478,89,35,0.0427222370222577,1
478,92,35,0.0431594418199433,1
478,93,35,0.0487960304531527,1
478,94,35,0.0445342987901804,1
479,92,35,0.0420177097382734,1
479,93,35,0.047261793753915,1
479,94,35,0.0438098368749177,1
480,93,35,0.0413137123143014,1
481,91,35,0.0415961195907456,1
459,95,36,0.044858189239525,1
460,94,36,0.042741682344035,1
464,90,36,0.0486846625293467,1
464,91,36,0.0437401035125869,1
465,89,36,0.0563274282273254,1
465,90,36,0.0511300043331736,1
465,91,36,0.045447769341253,1
466,89,36,0.0539649932952163,1
466,90,36,0.0496839514788371,1
466,91,36,0.0451546729500711,1
467,88,36,0.051369744361792,1
467,89,36,0.0478787130102563,1
467,90,36,0.0442980352920506,1
467,91,36,0.0419051820698486,1
468,88,36,0.0527310736815115,1
468,89,36,0.0460098372728533,1
468,90,36,0.0414342825007697,1
469,87,36,0.0704824654399348,1
469,88,36,0.0604792869286693,1
469,89,36,0.0501025787356839,1
469,90,36,0.0425424279457427,1
470,87,36,0.0850511881537662,1
470,89,36,0.0570658692554632,1
470,90,36,0.0446474076825982,1
471,86,36,0.0914726103032296,1
471,90,36,0.0451525886537983,1
472,86,36,0.0840885784932892,1
472,87,36,0.0930178443010896,1
472,89,36,0.0568469775963076,1
472,90,36,0.0411887059019139,1
473,86,36,0.0660285649046507,1
473,87,36,0.0691702779329871,1
473,88,36,0.0590702269539658,1
473,89,36,0.0464052696373257,1
474,86,36,0.0562525990174276,1
474,87,36,0.0536722780788392,1
474,88,36,0.0466621598287908,1
475,87,36,0.0510767263682651,1
475,88,36,0.0450625530022214,1
476,87,36,0.0531959609614714,1
476,88,36,0.0482402073002685,1
477,87,36,0.0515741243446929,1
477,88,36,0.0480133298937849,1
477,117,36,0.0412789551195161,1
478,88,36,0.0449631177421614,1
459,94,37,0.0460099237806104,1
459,95,37,0.0437890669031097,1
460,93,37,0.0411637700409277,1
460,94,37,0.0419863344561175,1
463,90,37,0.0411316594428364,1
464,89,37,0.0508720003543358,1
464,90,37,0.0480986860163757,1
464,91,37,0.0414716565552075,1
465,88,37,0.0525295808950041,1
465,89,37,0.0559085738876162,1
465,90,37,0.0523450706625638,1
465,91,37,0.0447880936259614,1
466,88,37,0.0515860786353782,1
466,89,37,0.0526964976123427,1
466,90,37,0.0487020343683208,1
466,91,37,0.0431136278524527,1
467,87,37,0.0504595584021221,1
467,88,37,0.0483778141081522,1
467,89,37,0.0456342205914933,1
467,90,37,0.0414555931460596,1
468,87,37,0.0553723771821257,1
468,88,37,0.0498046135797974,1
468,89,37,0.0428742122279234,1
469,86,37,0.0635507664717041,1
469,87,37,0.0632637823942354,1
469,88,37,0.0567164698312415,1
469,89,37,0.0472748510185034,1
470,86,37,0.0670389646941947,1
470,87,37,0.0693085822096624,1
470,88,37,0.0655083829476947,1
470,89,37,0.0546498103274172,1
470,90,37,0.042127325879998,1
471,86,37,0.0657237386022786,1
471,87,37,0.0737753021132028,1
471,89,37,0.0593573083526613,1
471,90,37,0.0413440062494934,1
472,86,37,0.063181313468038,1
472,87,37,0.0723290654298826,1
472,88,37,0.0702296519265234,1
472,89,37,0.0544038633672262,1
473,85,37,0.0528839491085246,1
473,86,37,0.056109936912488,1
473,87,37,0.0602960959395248,1
473,88,37,0.0557998768908109,1
473,89,37,0.0435746466136495,1
474,86,37,0.0511107671706868,1
474,87,37,0.0495261451096689,1
474,88,37,0.0437138132645285,1
475,86,37,0.0504704043121695,1
475,87,37,0.0471896354710179,1
475,88,37,0.0413898067001469,1
476,87,37,0.049984090142121,1
476,88,37,0.0450951637232835,1
477,87,37,0.0500139028779141,1
477,88,37,0.0460040412531271,1
478,88,37,0.0444322385603656,1
464,88,38,0.0430662891857431,1
464,89,38,0.0453229954184627,1
464,90,38,0.0438910595487392,1
465,87,38,0.0417412120229865,1
465,88,38,0.0452009086428776,1
465,89,38,0.0499244917042089,1
465,90,38,0.0486832892187026,1
466,87,38,0.0436186033677297,1
466,88,38,0.0452365903893169,1
466,89,38,0.0467322419255173,1
466,90,38,0.0437575915963596,1
467,86,38,0.0469815680949703,1
467,87,38,0.0458931599354548,1
467,88,38,0.044049014603115,1
467,89,38,0.0410048904348978,1
468,86,38,0.0517717350956002,1
468,87,38,0.0506121040183113,1
468,88,38,0.0452406319235943,1
469,86,38,0.0560412497533448,1
469,87,38,0.0558222499594927,1
469,88,38,0.0508834680388873,1
469,89,38,0.042934691963611,1
470,86,38,0.0568041075959261,1
470,87,38,0.0587688123012646,1
470,88,38,0.0587354905945739,1
470,89,38,0.0502646780522986,1
471,85,38,0.052769666954651,1
471,86,38,0.0534033849360755,1
471,87,38,0.0592031947833746,1
471,88,38,0.0634160090130702,1
471,89,38,0.0530380086104631,1
472,85,38,0.0510545803824456,1
472,86,38,0.0521337376186854,1
472,87,38,0.0595846345181349,1
472,88,38,0.062322778046096,1
472,89,38,0.0491791787161159,1
473,85,38,0.0490575379961533,1
473,86,38,0.0492810686337839,1
473,87,38,0.0526021446830127,1
473,88,38,0.0508483567029714,1
474,86,38,0.046622706884815,1
474,87,38,0.0452713638043067,1
475,86,38,0.0453583852012218,1
475,87,38,0.0422977623817039,1
476,86,38,0.0475554929960292,1
476,87,38,0.0443880790537297,1
477,87,38,0.0464405972426344,1
477,88,38,0.0416796752706417,1
477,118,38,0.0429741449075868,1
478,87,38,0.0479603168588826,1
478,88,38,0.0420254629960041,1
479,88,38,0.0431409507868616,1
482,89,38,0.0414804019487775,1
465,89,39,0.0413928425817479,1
467,85,39,0.0448682457662887,1
467,86,39,0.0437387923793933,1
467,87,39,0.0423229280289199,1
468,85,39,0.0480434508134627,1
468,86,39,0.0479555859659158,1
468,87,39,0.0456996907434191,1
469,85,39,0.0491784704338546,1
469,86,39,0.0501964558723498,1
469,87,39,0.0489254298375808,1
469,88,39,0.0447436286388082,1
470,85,39,0.0493311620318838,1
470,86,39,0.0497151213050699,1
470,87,39,0.0507172379768708,1
470,88,39,0.050842955374887,1
470,89,39,0.0450589115663207,1
471,85,39,0.0482720637818233,1
471,86,39,0.0470114943721946,1
471,87,39,0.049952449929959,1
471,88,39,0.052960405745603,1
471,89,39,0.0459479625995823,1
472,85,39,0.0466163215309935,1
472,86,39,0.0454915584865537,1
472,87,39,0.0494652923092787,1
472,88,39,0.051946599713123,1
472,89,39,0.0433541194172111,1
473,85,39,0.0451784247361319,1
473,86,39,0.0442360768143899,1
473,87,39,0.04583199895118,1
473,88,39,0.0450807061143769,1
474,85,39,0.0446385541543317,1
474,86,39,0.0434522516541797,1
474,87,39,0.0423000196934909,1
475,85,39,0.045433922693381,1
475,86,39,0.0421277530120487,1
476,86,39,0.0436664502675123,1
477,86,39,0.0474873789507768,1
477,87,39,0.043905300888253,1
478,87,39,0.0462369850160779,1
478,88,39,0.0415829244544194,1
479,87,39,0.0480899973935213,1
479,88,39,0.0425179219201746,1
480,88,39,0.0434916045735613,1
467,84,40,0.0424593642787152,1
467,85,40,0.0417964715562062,1
468,84,40,0.0462442408542053,1
468,85,40,0.0453364122309165,1
468,86,40,0.0432893656576488,1
469,84,40,0.0472357711392302,1
469,85,40,0.045660967708644,1
469,86,40,0.0436224935134321,1
470,84,40,0.0458083336728763,1
470,85,40,0.0450657754161737,1
470,86,40,0.0434965084820423,1
470,87,40,0.0422670710515027,1
470,88,40,0.0410765431880894,1
471,84,40,0.0442495206605179,1
471,85,40,0.044545496137991,1
471,86,40,0.0429517448052308,1
471,87,40,0.0424392647420248,1
471,88,40,0.0418009294090646,1
472,84,40,0.0426891423984293,1
472,85,40,0.0436120179647199,1
472,86,40,0.0417761746736949,1
472,87,40,0.041447418163013,1
473,84,40,0.0415506002903027,1
473,85,40,0.0427103313921858,1
473,86,40,0.0409982617780095,1
474,84,40,0.0418316748066141,1
474,85,40,0.0418761208701954,1
477,86,40,0.0434396945125621,1
478,86,40,0.0475242528822438,1
478,87,40,0.0441726936621043,1
478,88,40,0.043177484094035,1
479,87,40,0.045421541270645,1
479,88,40,0.0431044445133623,1
480,88,40,0.0421831774506804,1
467,83,41,0.0417226020417388,1
467,84,41,0.0417621658237783,1
467,85,41,0.0410490823819426,1
468,83,41,0.0444493535794358,1
468,84,41,0.0454889956942494,1
468,85,41,0.0443126253659602,1
469,83,41,0.0452844562126714,1
469,84,41,0.0458353889739116,1
469,85,41,0.043462008107161,1
470,83,41,0.0443919583859625,1
470,84,41,0.0435742302950684,1
470,85,41,0.0420164553757953,1
471,83,41,0.0419784487333837,1
471,85,41,0.0415192223047795,1
472,85,41,0.041070858006427,1
477,86,41,0.0419913951599083,1
477,87,41,0.0424014770723733,1
477,88,41,0.0454998199773575,1
477,89,41,0.0425974333624259,1
478,86,41,0.0458676725875171,1
478,87,41,0.0467438285582349,1
478,88,41,0.0536481748550152,1
478,89,41,0.0521932982094538,1
479,87,41,0.0465407137512817,1
479,88,41,0.0507998745118475,1
479,89,41,0.0497571478548196,1
480,88,41,0.0438740796980395,1
468,83,42,0.0424871305653792,1
468,84,42,0.0439335402642137,1
468,85,42,0.0423455822478124,1
469,82,42,0.042327304780756,1
469,83,42,0.0436722949478518,1
469,84,42,0.0432357795088557,1
470,82,42,0.0440226838045454,1
470,83,42,0.0436903453320458,1
475,87,42,0.0419127974558415,1
476,86,42,0.0411827639003476,1
476,87,42,0.0439661482819084,1
476,88,42,0.041496522128641,1
477,85,42,0.042767488689327,1
477,86,42,0.0424119120705744,1
477,87,42,0.0457828409182037,1
477,88,42,0.0513515723260647,1
477,89,42,0.0489939061340661,1
478,86,42,0.0450308938664876,1
478,87,42,0.0492623775515139,1
478,88,42,0.0643600843865869,1
478,89,42,0.0686598767593191,1
478,90,42,0.049672381066324,1
479,87,42,0.0474800690453013,1
479,88,42,0.059888087509863,1
479,89,42,0.0651165028079985,1
479,90,42,0.0500211695295111,1
480,87,42,0.045799818065536,1
480,88,42,0.0472096025427052,1
480,89,42,0.0474052019882597,1
481,88,42,0.0412746432484978,1
467,84,43,0.0422927449317917,1
468,83,43,0.0422018360925415,1
468,84,43,0.0443690635673706,1
468,85,43,0.0412839049852431,1
469,82,43,0.0423368882182231,1
469,83,43,0.0424586181493101,1
469,84,43,0.0418265221883314,1
470,82,43,0.044457123057371,1
470,83,43,0.0423741027739837,1
475,86,43,0.0413889929865566,1
475,87,43,0.0465545928395626,1
476,86,43,0.0466569261094858,1
476,87,43,0.0542014784694736,1
476,88,43,0.0488214529202726,1
477,85,43,0.0426819027805064,1
477,86,43,0.0471330648046045,1
477,87,43,0.0540014941619808,1
477,88,43,0.0557399864892185,1
477,89,43,0.0496234771498843,1
478,86,43,0.0459370464019823,1
478,87,43,0.0521330131162196,1
478,88,43,0.0659710534663788,1
478,89,43,0.0717902302378003,1
478,90,43,0.0531486358115989,1
479,87,43,0.0484059994167647,1
479,88,43,0.0623496657383519,1
479,89,43,0.0717407694276742,1
479,90,43,0.0554481363504125,1
480,88,43,0.0491163470507819,1
480,89,43,0.0524433596948422,1
480,90,43,0.0430748561570642,1
467,84,44,0.0426214122313491,1
468,83,44,0.0419974155591295,1
468,84,44,0.0444673093457704,1
469,83,44,0.0415653228292154,1
469,84,44,0.0410048363675497,1
470,82,44,0.0413957676252851,1
475,87,44,0.0447712949008781,1
476,86,44,0.0477369267963574,1
476,87,44,0.0593297826656967,1
476,88,44,0.052555181784373,1
477,85,44,0.0414571962429335,1
477,86,44,0.0480782431520243,1
477,87,44,0.0603100399086236,1
477,88,44,0.0593075988327335,1
477,89,44,0.0466488862948096,1
478,86,44,0.0438227103105222,1
478,87,44,0.0530408471462432,1
478,88,44,0.0625505745974989,1
478,89,44,0.062754738311007,1
478,90,44,0.0481775053965702,1
479,86,44,0.0425269971245687,1
479,87,44,0.0460189854681674,1
479,88,44,0.0576414053634982,1
479,89,44,0.0655661863496469,1
479,90,44,0.0537327794414661,1
480,87,44,0.0427428934526344,1
480,88,44,0.0469397740348178,1
480,89,44,0.0512762511032983,1
480,90,44,0.0443501345887685,1
467,84,45,0.0421647918489277,1
468,83,45,0.0423408026942322,1
468,84,45,0.0448401037115548,1
469,83,45,0.0410991433396337,1
469,84,45,0.0416566479870467,1
476,86,45,0.0439793163845605,1
476,87,45,0.0536428221875441,1
476,88,45,0.0493665599247452,1
477,86,45,0.0456728354915721,1
477,87,45,0.0581367758143689,1
477,88,45,0.0594086398930349,1
477,89,45,0.0450292123719588,1
478,86,45,0.043368552695811,1
478,87,45,0.052600879507065,1
478,88,45,0.0593637045199525,1
478,89,45,0.052975777092694,1
479,86,45,0.0417600761207707,1
479,87,45,0.0450951420963442,1
479,88,45,0.0519063141319851,1
479,89,45,0.0533570329984705,1
479,90,45,0.0451497960752642,1
480,87,45,0.0417047652235702,1
480,88,45,0.0438782915444636,1
480,89,45,0.0462258795827592,1
480,90,45,0.0415924294942315,1
458,89,46,0.0418596870997124,1
467,84,46,0.0419997242348973,1
468,83,46,0.0429116187227701,1
468,84,46,0.0454043911077984,1
469,84,46,0.0421544109180748,1
476,87,46,0.0416558559003957,1
477,87,46,0.0485580259864112,1
477,88,46,0.0526789095039758,1
477,89,46,0.04230341241959,1
478,86,46,0.0414303139574124,1
478,87,46,0.0481572788016115,1
478,88,46,0.0542810439790731,1
478,89,46,0.0473201270158794,1
479,87,46,0.0425823026150343,1
479,88,46,0.0455421276773178,1
479,89,46,0.0432212894595402,1
468,84,47,0.0425064785659298,1
478,87,47,0.0414018610154263,1
478,88,47,0.0436143401573247,1
467,85,51,0.0414618622550825,1
467,86,51,0.0411916931229015,1
467,85,52,0.0462230518604488,1
467,86,52,0.0524554545606327,1
467,87,52,0.0409995458775291,1
468,85,52,0.0450071718174683,1
468,86,52,0.0512744452538687,1
466,86,53,0.041555241972145,1
467,85,53,0.047731763364605,1
467,86,53,0.0585125871381824,1
467,87,53,0.0483643945923309,1
468,85,53,0.0477366402394119,1
468,86,53,0.0585430540888886,1
468,87,53,0.0481373712040072,1
469,86,53,0.0435638601776852,1
467,84,54,0.0422901037418325,1
467,85,54,0.0459491250475684,1
467,86,54,0.0543689466737638,1
467,87,54,0.0474070619050375,1
468,84,54,0.0411891708811083,1
468,85,54,0.0470699573957947,1
468,86,54,0.0561904702276201,1
468,87,54,0.048888312603047,1
469,86,54,0.0444512540467247,1
480,90,54,0.0416140293998343,1
467,85,55,0.0410406532823595,1
467,86,55,0.0447541744750731,1
467,87,55,0.0421311132977389,1
468,85,55,0.0425638061752178,1
468,86,55,0.0475186136578274,1
468,87,55,0.0447958468836921,1
469,86,55,0.0424848813636944,1
472,88,58,0.041478847512517,1
467,89,59,0.0421294534301494,1
467,89,60,0.0434379616540525,1
479,93,61,0.0450866048620647,1
479,94,61,0.0430473980542848,1
480,94,61,0.0440178420735148,1
