x,y,z,signal,cytoplasm.p
780,813,12,0.0454546034540644,1
781,814,12,0.0452898169902446,1
782,815,12,0.041865650728218,1
782,816,12,0.044210192071443,1
778,810,13,0.0440004432008666,1
778,811,13,0.0459224698449098,1
779,810,13,0.0453944481224659,1
779,811,13,0.0473710043905282,1
779,812,13,0.0418260139552584,1
779,813,13,0.048354521894551,1
780,811,13,0.0421539648624522,1
780,812,13,0.0425327417803141,1
780,813,13,0.0606285614702928,1
780,814,13,0.0734620304910431,1
781,813,13,0.0510643070983854,1
781,814,13,0.064231068880331,1
781,815,13,0.0576751487955049,1
781,816,13,0.0486055890326158,1
782,815,13,0.046964439559063,1
782,816,13,0.0506561418734137,1
796,793,13,0.0438156977754617,1
796,794,13,0.0481622259639711,1
797,793,13,0.0525356148110623,1
797,794,13,0.061134172276911,1
797,795,13,0.0432155421004274,1
798,793,13,0.0422147527820246,1
798,794,13,0.0498214663722289,1
809,812,13,0.0510337157927783,1
809,813,13,0.0481535427478514,1
810,812,13,0.0555904253906496,1
810,813,13,0.05296677487922,1
779,810,14,0.0449600818605604,1
779,811,14,0.0449027164041286,1
779,813,14,0.0434315006059436,1
780,813,14,0.0609810697670355,1
780,814,14,0.0795112043549389,1
781,813,14,0.0535583798031378,1
781,814,14,0.0722592590766318,1
781,815,14,0.057486080685612,1
781,816,14,0.0454352851905554,1
782,814,14,0.0432680469022567,1
782,815,14,0.0444323196613879,1
782,816,14,0.0478053652456989,1
788,797,14,0.0452299292920197,1
789,796,14,0.0458182604380043,1
789,797,14,0.0505074512591507,1
796,793,14,0.0423113440995697,1
796,794,14,0.0496936187206939,1
797,793,14,0.0553756861038351,1
797,794,14,0.0670700804530792,1
797,795,14,0.0441261200483717,1
798,793,14,0.0423242040183372,1
798,794,14,0.0516816588935122,1
807,806,14,0.0434217820001061,1
809,812,14,0.0682246940804559,1
809,813,14,0.061452309960408,1
810,811,14,0.0431617586058133,1
810,812,14,0.0769821608893759,1
810,813,14,0.0707715743641874,1
811,812,14,0.0468207015138944,1
811,813,14,0.0447979284765975,1
777,810,15,0.0526453282740137,1
777,811,15,0.0506641384342113,1
780,813,15,0.0502226947564275,1
780,814,15,0.0686125840498555,1
780,815,15,0.0481621610831532,1
781,813,15,0.0480787676053018,1
781,814,15,0.0678941425338139,1
781,815,15,0.0505817235753621,1
788,797,15,0.0487419901386347,1
789,796,15,0.0481464220780945,1
789,797,15,0.0577808450544856,1
797,793,15,0.0445250776039462,1
797,794,15,0.0530396198174392,1
806,806,15,0.0506359152784551,1
807,805,15,0.0462000353903234,1
807,806,15,0.0613388658504314,1
807,807,15,0.0437036107559247,1
808,806,15,0.0429603252933889,1
809,812,15,0.0671613623570319,1
809,813,15,0.0577343795754493,1
810,812,15,0.0776628796165838,1
810,813,15,0.0688851808059703,1
811,812,15,0.0420378741557816,1
777,810,16,0.046642084622407,1
780,814,16,0.0491402340052131,1
781,814,16,0.0545887034104905,1
781,815,16,0.0419340567371506,1
788,797,16,0.044265592179768,1
789,796,16,0.0437759366476012,1
789,797,16,0.0555913877894474,1
806,806,16,0.056421673021959,1
807,805,16,0.0469098369441239,1
807,806,16,0.0701097197347638,1
807,807,16,0.0457679561772464,1
808,806,16,0.0442767138332911,1
809,812,16,0.0524620075232336,1
809,813,16,0.0437020644297664,1
810,812,16,0.0615450570894967,1
810,813,16,0.0529578159196246,1
776,809,17,0.0500827468323671,1
777,810,17,0.0438524013947819,1
781,814,17,0.0418418016209305,1
789,797,17,0.0441483768722549,1
806,806,17,0.0537548064791196,1
807,805,17,0.0427554776279262,1
807,806,17,0.0663689945558073,1
807,807,17,0.0434795826986908,1
809,812,17,0.0428761721692953,1
810,812,17,0.0449589383361461,1
811,799,17,0.0452863918237366,1
811,800,17,0.0428181308710111,1
812,799,17,0.0452704906166333,1
812,800,17,0.0430223621687045,1
777,810,18,0.0422344738472776,1
803,823,18,0.0433763086569091,1
803,824,18,0.0440618907420869,1
804,822,18,0.0452119708223176,1
804,823,18,0.0508097363961578,1
804,824,18,0.0522477386223484,1
804,825,18,0.0459194799205547,1
805,822,18,0.0415398327779103,1
805,823,18,0.0478296847389157,1
805,824,18,0.0500624066959772,1
805,825,18,0.0432316541701886,1
806,806,18,0.0479841335257612,1
806,823,18,0.0419651400556262,1
806,824,18,0.0413587558220802,1
807,806,18,0.0568992823489486,1
809,812,18,0.0429934226205847,1
811,799,18,0.041598201183651,1
812,799,18,0.0412462416704925,1
819,805,18,0.0443424218815489,1
776,809,19,0.0446696645064815,1
790,791,19,0.0550849821928107,1
791,791,19,0.0542025003423545,1
803,822,19,0.0424896852475813,1
803,823,19,0.0528793047233149,1
803,824,19,0.064090509995236,1
803,825,19,0.0570203607684899,1
804,790,19,0.0663910540338697,1
804,822,19,0.0534358037180515,1
804,823,19,0.065416144051679,1
804,824,19,0.0795200443663683,1
804,825,19,0.069944662934203,1
804,826,19,0.0432602963478934,1
805,790,19,0.0510617388993462,1
805,822,19,0.0510168900340209,1
805,823,19,0.0599888906738323,1
805,824,19,0.0694704220030058,1
805,825,19,0.0602581893217074,1
806,823,19,0.0488920324366026,1
806,824,19,0.0481495742044941,1
807,806,19,0.0475367099992673,1
774,809,20,0.0419260061090048,1
790,790,20,0.0501502120694412,1
790,791,20,0.0550936978493393,1
791,790,20,0.0509795403098898,1
791,791,20,0.0565896818997311,1
802,824,20,0.045492326242898,1
803,794,20,0.0466162944973194,1
803,822,20,0.0425698346845412,1
803,823,20,0.0604924036673406,1
803,824,20,0.0787607171216239,1
803,825,20,0.0667742942113248,1
804,789,20,0.0556136635369025,1
804,790,20,0.0579740493165152,1
804,793,20,0.0518070627009089,1
804,794,20,0.0591929057670137,1
804,795,20,0.0446136966910004,1
804,821,20,0.0420050850124705,1
804,822,20,0.0581869016528778,1
804,823,20,0.0780309809365451,1
804,824,20,0.099566395006357,1
804,825,20,0.0832894630870103,1
804,826,20,0.0445869522772172,1
805,789,20,0.0446899424654209,1
805,790,20,0.0462174396697065,1
805,793,20,0.050688133523339,1
805,794,20,0.0557580395767798,1
805,795,20,0.0420553892732284,1
805,821,20,0.0441504909055693,1
805,822,20,0.058085395613382,1
805,823,20,0.0689656870874283,1
805,824,20,0.080986934776698,1
805,825,20,0.0671160755461862,1
806,794,20,0.0430910736581544,1
806,822,20,0.051223297542479,1
806,823,20,0.0519976825436948,1
806,824,20,0.049716521649388,1
807,806,20,0.0410815579346342,1
818,815,20,0.0411503721520457,1
772,808,21,0.0454394429696314,1
772,809,21,0.0470407880614451,1
773,808,21,0.0556602804045137,1
773,809,21,0.0580898237291989,1
773,810,21,0.0439885564943666,1
774,808,21,0.0513606826742351,1
774,809,21,0.0546995306608146,1
774,810,21,0.0450670595156932,1
775,809,21,0.0449376952750415,1
779,797,21,0.0411989976216422,1
790,791,21,0.049074655718591,1
791,790,21,0.0499254324760674,1
791,791,21,0.0523744941134499,1
803,793,21,0.0467475375783209,1
803,794,21,0.0550244429830401,1
803,795,21,0.0421318567237765,1
803,823,21,0.0570827490815688,1
803,824,21,0.0742435361620159,1
804,789,21,0.0463115655161741,1
804,790,21,0.0463223411386687,1
804,792,21,0.0412359445440293,1
804,793,21,0.0688162179033513,1
804,794,21,0.0829699250591951,1
804,795,21,0.057628434606667,1
804,821,21,0.0420352221523528,1
804,822,21,0.0578038344909369,1
804,823,21,0.0780839507175689,1
804,824,21,0.0972198829082905,1
804,825,21,0.0758740181477703,1
805,789,21,0.0416532985148262,1
805,790,21,0.0411439056972019,1
805,792,21,0.0422463200032665,1
805,793,21,0.0700676877782792,1
805,794,21,0.0840578303923724,1
805,795,21,0.0587881035310996,1
805,821,21,0.0469917597901045,1
805,822,21,0.0612771858196139,1
805,823,21,0.071147385688001,1
805,824,21,0.0794365211268812,1
805,825,21,0.0613881644585129,1
806,793,21,0.0538008340126355,1
806,794,21,0.0626131359260919,1
806,795,21,0.0478371406262314,1
806,821,21,0.0434057375145301,1
806,822,21,0.053788706706436,1
806,823,21,0.0531517771245289,1
806,824,21,0.0495730431274907,1
818,815,21,0.047426455862834,1
819,814,21,0.0449493467885769,1
819,815,21,0.0681543092065794,1
820,814,21,0.0509889696554145,1
772,808,22,0.0539219286523813,1
772,809,22,0.0585857889208996,1
772,810,22,0.0416324609588329,1
773,807,22,0.046804475902702,1
773,808,22,0.0721983792425675,1
773,809,22,0.0790769191940557,1
773,810,22,0.0536438062132812,1
774,807,22,0.04223373042124,1
774,808,22,0.0640695643045464,1
774,809,22,0.069693125410209,1
774,810,22,0.0500189689884397,1
775,808,22,0.0450498796158052,1
775,809,22,0.0481773702281997,1
778,797,22,0.0420943366874986,1
779,796,22,0.0499651503500493,1
779,797,22,0.0489139026789463,1
780,796,22,0.0440029059685767,1
780,797,22,0.0444502727243551,1
782,794,22,0.0441887678847218,1
782,795,22,0.0438540612623714,1
783,794,22,0.0448137458793111,1
783,795,22,0.042746929580177,1
791,790,22,0.0453945562571623,1
791,791,22,0.0441567816415314,1
803,793,22,0.0444539655242366,1
803,794,22,0.0520106533005261,1
803,823,22,0.0483462279633384,1
804,793,22,0.0702432498645937,1
804,794,22,0.0877013154456053,1
804,795,22,0.0596882924380888,1
804,821,22,0.0423921585649124,1
804,822,22,0.054563864870731,1
804,823,22,0.0678796632979681,1
804,824,22,0.0775606328544177,1
805,792,22,0.0425356100531357,1
805,793,22,0.0756635555881978,1
805,794,22,0.096017652167361,1
805,795,22,0.06540863950375,1
805,821,22,0.0465511757831569,1
805,822,22,0.0583326996640125,1
805,823,22,0.0650774715893387,1
805,824,22,0.0671288462538292,1
805,825,22,0.0488874583389455,1
806,793,22,0.05735680024935,1
806,794,22,0.070273057193652,1
806,795,22,0.0512884649172549,1
806,823,22,0.0494107816088315,1
806,824,22,0.045527318630648,1
807,794,22,0.0416522063543927,1
819,814,22,0.0455850895921912,1
820,814,22,0.0506909990927931,1
772,808,23,0.0557342391301057,1
772,809,23,0.0623332779251149,1
772,810,23,0.0445958301357904,1
773,807,23,0.0495148125934879,1
773,808,23,0.0802835023565146,1
773,809,23,0.0927757523428247,1
773,810,23,0.063434078320836,1
774,807,23,0.0462752701053327,1
774,808,23,0.0755413417543444,1
774,809,23,0.0871345544681819,1
774,810,23,0.0620158106767355,1
775,808,23,0.0544348980250885,1
775,809,23,0.060366340238296,1
775,810,23,0.0478886127417102,1
778,796,23,0.0471872565076974,1
778,797,23,0.0440831797604375,1
779,795,23,0.0500878832304453,1
779,796,23,0.0581172575016715,1
779,797,23,0.0539048812174963,1
780,795,23,0.0470669350310308,1
780,796,23,0.0521852908351865,1
780,797,23,0.0500710304380139,1
781,794,23,0.0507790207356499,1
781,795,23,0.0506687017183987,1
781,796,23,0.0450036168893247,1
782,793,23,0.0559842952087592,1
782,794,23,0.0726424830338824,1
782,795,23,0.0664935116586937,1
782,796,23,0.0469615307357303,1
783,793,23,0.0640150698243036,1
783,794,23,0.0860129597703461,1
783,795,23,0.0767843392758107,1
783,796,23,0.0497214742184824,1
784,793,23,0.054799403866395,1
784,794,23,0.0710264478435649,1
784,795,23,0.0619262427077205,1
785,794,23,0.0445969466265305,1
791,790,23,0.0422224600825094,1
794,789,23,0.0423496805528053,1
795,788,23,0.0727300937648929,1
795,789,23,0.0448387249941759,1
796,788,23,0.0684977450022955,1
797,788,23,0.048820247218408,1
802,822,23,0.0419830174243059,1
803,794,23,0.0459496062469674,1
803,822,23,0.0501541157319806,1
803,823,23,0.0497559800000986,1
804,793,23,0.0635735017916189,1
804,794,23,0.0797997996393838,1
804,795,23,0.0537143424757326,1
804,821,23,0.0451504827305862,1
804,822,23,0.057344927059687,1
804,823,23,0.0616213407110609,1
805,788,23,0.0425192600870424,1
805,792,23,0.0437924407056369,1
805,793,23,0.0738274284435948,1
805,794,23,0.0948850277304941,1
805,795,23,0.0630401165882344,1
805,821,23,0.0444785715743988,1
805,822,23,0.0560483217624883,1
805,823,23,0.0599282271091608,1
805,824,23,0.0558637142088212,1
806,788,23,0.042633482766833,1
806,789,23,0.041135498224558,1
806,793,23,0.0562014134588942,1
806,794,23,0.0687535105929181,1
806,795,23,0.0474823831278039,1
806,822,23,0.0459508173555669,1
809,792,23,0.0413940780206541,1
819,814,23,0.0435481076557894,1
820,814,23,0.0468282871628457,1
821,814,23,0.0463631403596145,1
772,808,24,0.0492018924090914,1
772,809,24,0.055236208565704,1
772,810,24,0.0426784803173658,1
773,807,24,0.0459780997394646,1
773,808,24,0.0726594169273362,1
773,809,24,0.087232432588614,1
773,810,24,0.06378311008709,1
774,807,24,0.0450736016648245,1
774,808,24,0.0746082474592455,1
774,809,24,0.090052461115412,1
774,810,24,0.0674548453297533,1
774,811,24,0.0415618030448481,1
775,808,24,0.0570024861031776,1
775,809,24,0.0656010003151478,1
775,810,24,0.0527663255925327,1
776,809,24,0.0437077171710199,1
778,796,24,0.0440700278779898,1
778,797,24,0.0413444604152182,1
779,795,24,0.048773203218746,1
779,796,24,0.0561782293799894,1
779,797,24,0.0502301506437432,1
780,795,24,0.0494573984764427,1
780,796,24,0.0533967076185738,1
780,797,24,0.0481561163536254,1
781,793,24,0.0518430120807218,1
781,794,24,0.0618979438576767,1
781,795,24,0.0592240377461027,1
781,796,24,0.048305088118099,1
781,797,24,0.041004647131831,1
782,792,24,0.0467910185397369,1
782,793,24,0.082523074646592,1
782,794,24,0.109206192277158,1
782,795,24,0.0935320680362748,1
782,796,24,0.0570347967504572,1
783,792,24,0.0538693914101431,1
783,793,24,0.105720881251061,1
783,794,24,0.147056234021477,1
783,795,24,0.12474551580553,1
783,796,24,0.0684880831671736,1
784,792,24,0.046954691216184,1
784,793,24,0.0877507708489966,1
784,794,24,0.122071388017828,1
784,795,24,0.103633373377774,1
784,796,24,0.0564654621672598,1
785,793,24,0.0533992109367951,1
785,794,24,0.0682169894833385,1
785,795,24,0.058149811452018,1
791,790,24,0.0430712039076938,1
793,789,24,0.044883057516326,1
794,789,24,0.0445552471842374,1
795,788,24,0.106136129298646,1
797,788,24,0.0554662651322613,1
802,822,24,0.0550832790713427,1
802,823,24,0.0446598972400306,1
803,821,24,0.045654295797877,1
803,822,24,0.0596477743673536,1
803,823,24,0.0503788196310669,1
804,793,24,0.0506862357594174,1
804,794,24,0.0593048522114454,1
804,821,24,0.0433492263221997,1
804,822,24,0.0545988031911327,1
804,823,24,0.0516823725825083,1
804,824,24,0.0429814737366342,1
805,788,24,0.0426097715312833,1
805,792,24,0.0420432781872334,1
805,793,24,0.0622056519497075,1
805,794,24,0.0751269533775959,1
805,795,24,0.0494410971709628,1
805,822,24,0.0493030578242936,1
805,823,24,0.0504699879935884,1
806,788,24,0.0449646911019938,1
806,789,24,0.0423036854596983,1
806,793,24,0.0503194590894868,1
806,794,24,0.0571557778487718,1
806,822,24,0.0429809736136635,1
806,823,24,0.0447217070324838,1
772,808,25,0.0420302047024406,1
772,809,25,0.0446053405823373,1
773,807,25,0.0415001067938261,1
773,808,25,0.0588759034978287,1
773,809,25,0.0680572258761657,1
773,810,25,0.0540545180103527,1
774,797,25,0.0505535058263407,1
774,798,25,0.0569355561328507,1
774,799,25,0.0439453323528544,1
774,807,25,0.0428452456461295,1
774,808,25,0.0661260267065018,1
774,809,25,0.077629320013561,1
774,810,25,0.0618471962446637,1
775,797,25,0.0484798013470469,1
775,798,25,0.0558417953058642,1
775,799,25,0.046499135960522,1
775,808,25,0.0561538936665681,1
775,809,25,0.0640011474821442,1
775,810,25,0.0532678272806883,1
776,808,25,0.0434957028785543,1
776,809,25,0.0470405555718479,1
776,810,25,0.0421726045807415,1
779,795,25,0.043254776071643,1
779,796,25,0.0485880009242489,1
779,797,25,0.0434572988411334,1
780,795,25,0.0484775953992407,1
780,796,25,0.0507452016093557,1
780,797,25,0.04377485259727,1
781,793,25,0.0550451129302539,1
781,794,25,0.0645501581491562,1
781,795,25,0.0618761330894161,1
781,796,25,0.0485802422597833,1
782,792,25,0.0533153416662795,1
782,793,25,0.0976258313719862,1
782,794,25,0.126089608454645,1
782,795,25,0.106113615654859,1
782,796,25,0.0601638796462559,1
783,792,25,0.0638304676773714,1
783,793,25,0.133373799499414,1
783,794,25,0.182170478760745,1
783,795,25,0.151574793698464,1
783,796,25,0.0754670802516026,1
784,792,25,0.0547634707067865,1
784,793,25,0.111562977171381,1
784,794,25,0.155726517231437,1
784,795,25,0.13217531021898,1
784,796,25,0.0660308735804185,1
785,793,25,0.063921392736826,1
785,794,25,0.0842573821610797,1
785,795,25,0.0734606734006035,1
785,796,25,0.0416803159687178,1
791,790,25,0.0434598670401726,1
792,790,25,0.0417396413665215,1
793,789,25,0.0451953910699946,1
794,788,25,0.0718520995043365,1
794,789,25,0.0410240275727904,1
795,788,25,0.111454637019074,1
802,822,25,0.0539268866282105,1
802,823,25,0.0414241908302296,1
803,821,25,0.0430817767776328,1
803,822,25,0.0587116739276953,1
803,823,25,0.0465129015073717,1
804,822,25,0.0503239034255082,1
804,823,25,0.0439023488110417,1
805,793,25,0.0454180863670955,1
805,794,25,0.0486086492445234,1
805,822,25,0.0448227778298266,1
805,823,25,0.0426942869066098,1
806,788,25,0.0418209289211609,1
806,794,25,0.0415638603074468,1
812,789,25,0.0434632219191279,1
773,797,26,0.0416924649018565,1
773,798,26,0.0445049212965402,1
773,808,26,0.044007804470323,1
773,809,26,0.0477215932964101,1
773,810,26,0.0416558018330475,1
774,797,26,0.0608632786422642,1
774,798,26,0.070806247754583,1
774,799,26,0.0509131618265144,1
774,808,26,0.0522683599089489,1
774,809,26,0.0583310452031578,1
774,810,26,0.0494872003987662,1
775,797,26,0.0580652825598545,1
775,798,26,0.0695203802327353,1
775,799,26,0.0542899813117292,1
775,808,26,0.0494949374362924,1
775,809,26,0.0554648593812083,1
775,810,26,0.0477631764939046,1
776,798,26,0.0458218775435984,1
776,799,26,0.0417447182905167,1
776,808,26,0.0416689483087604,1
776,809,26,0.0459345538972307,1
776,810,26,0.0415354316957674,1
777,813,26,0.0417947441044315,1
777,814,26,0.0470736177552673,1
777,815,26,0.0429735880139004,1
778,814,26,0.0458801783651539,1
778,815,26,0.042476998344328,1
780,795,26,0.0429144437417131,1
780,796,26,0.0429102318952889,1
781,793,26,0.0529830978116392,1
781,794,26,0.0602708410811843,1
781,795,26,0.0577117902373747,1
781,796,26,0.0450616041202607,1
782,792,26,0.0571380113181559,1
782,793,26,0.0957304788541736,1
782,794,26,0.120748230245932,1
782,795,26,0.100711444119838,1
782,796,26,0.0572968179332657,1
783,792,26,0.0663247890919255,1
783,793,26,0.134082773822787,1
783,794,26,0.180635593253329,1
783,795,26,0.148257805140758,1
783,796,26,0.0731201248012809,1
784,792,26,0.0567429790520601,1
784,793,26,0.116031513737821,1
784,794,26,0.161419992825047,1
784,795,26,0.137348365959301,1
784,796,26,0.0688014737374993,1
785,792,26,0.0415647118681809,1
785,793,26,0.0669801448260965,1
785,794,26,0.0888007371239475,1
785,795,26,0.0799216566287391,1
785,796,26,0.0459257733598843,1
786,794,26,0.0415292166540928,1
790,790,26,0.041639232894194,1
790,791,26,0.0410728341680034,1
791,790,26,0.0435279378315464,1
795,788,26,0.0989260862151879,1
802,822,26,0.0429788974274929,1
803,822,26,0.047425260974439,1
804,822,26,0.0415014692910006,1
811,789,26,0.0426680561326344,1
812,788,26,0.0428716737659258,1
812,789,26,0.0465397621659535,1
812,819,26,0.0415408870912,1
813,789,26,0.0411972917968068,1
815,791,26,0.0416091849654363,1
815,818,26,0.0427273950472752,1
816,790,26,0.0434783121160083,1
816,791,26,0.0441208106347792,1
817,791,26,0.0433988763680445,1
773,797,27,0.0422793902967882,1
773,798,27,0.04623871517122,1
774,796,27,0.0425453016252991,1
774,797,27,0.0640138370887648,1
774,798,27,0.0759328380158685,1
774,799,27,0.0559795589090576,1
775,796,27,0.0416838871170658,1
775,797,27,0.0642398277907381,1
775,798,27,0.0778599280670698,1
775,799,27,0.0606512319093897,1
775,809,27,0.043530357345378,1
776,797,27,0.0466365643461566,1
776,798,27,0.0524994599753263,1
776,799,27,0.0458259380014476,1
777,813,27,0.0451458599723158,1
777,814,27,0.0505720292998313,1
777,815,27,0.0450307857317912,1
778,813,27,0.0455923292101141,1
778,814,27,0.0517061135550994,1
778,815,27,0.0457959792838144,1
779,814,27,0.0415753523223051,1
781,791,27,0.0480101182933023,1
781,792,27,0.0481149062208334,1
781,794,27,0.0507772256996899,1
781,795,27,0.0495397160140651,1
782,791,27,0.0485427087066684,1
782,792,27,0.058436189975187,1
782,793,27,0.0781843645966312,1
782,794,27,0.0954567466837468,1
782,795,27,0.0816448262694992,1
782,796,27,0.0517382728138041,1
783,792,27,0.0613569459716668,1
783,793,27,0.106984500059128,1
783,794,27,0.141364737292811,1
783,795,27,0.116839474562264,1
783,796,27,0.0638482288012525,1
784,792,27,0.0535708206999568,1
784,793,27,0.098570085167752,1
784,794,27,0.13443288152927,1
784,795,27,0.115502756699442,1
784,796,27,0.0641720003024311,1
785,792,27,0.0417946332663677,1
785,793,27,0.0623791000027077,1
785,794,27,0.0809436106105916,1
785,795,27,0.074409030908097,1
785,796,27,0.0469668671829969,1
786,794,27,0.0432881221086404,1
786,795,27,0.0420648159153857,1
789,791,27,0.0414889094460156,1
790,791,27,0.0446967522479257,1
790,792,27,0.0441770190499597,1
791,790,27,0.0427367486985124,1
791,791,27,0.0425135127279296,1
791,792,27,0.0432611425018926,1
794,789,27,0.0414455122889892,1
808,789,27,0.0415402572065936,1
809,789,27,0.041356517433865,1
810,789,27,0.0411399560774165,1
811,788,27,0.0411046122519033,1
811,789,27,0.0433548817668206,1
812,788,27,0.0428345592347593,1
812,789,27,0.0462083833888843,1
812,819,27,0.0424612485257997,1
813,789,27,0.0421214839030258,1
815,790,27,0.0410633399416609,1
815,791,27,0.0429800274350701,1
816,790,27,0.0439347378559762,1
816,791,27,0.0456154105610573,1
816,792,27,0.04135532254547,1
817,791,27,0.0451880027668641,1
817,792,27,0.041703978543654,1
818,791,27,0.0428650207787307,1
819,794,27,0.0411858889930731,1
773,798,28,0.0441336489266074,1
774,796,28,0.0413131797509217,1
774,797,28,0.0591102692320369,1
774,798,28,0.0679774657241127,1
774,799,28,0.0526535951715522,1
775,796,28,0.0431325892714637,1
775,797,28,0.0641040538659581,1
775,798,28,0.0738696604492677,1
775,799,28,0.0583137490584712,1
775,800,28,0.0410150172492142,1
776,797,28,0.0511090207953402,1
776,798,28,0.055187012685584,1
776,799,28,0.0474577770776417,1
777,800,28,0.0412705179098307,1
777,813,28,0.044820358315995,1
777,814,28,0.0478936680387662,1
777,815,28,0.0418495765056005,1
778,813,28,0.0470922980240677,1
778,814,28,0.0528787424228937,1
778,815,28,0.0457729952540979,1
779,813,28,0.0415631493218181,1
779,814,28,0.0482357034901641,1
779,815,28,0.0447032889903221,1
781,791,28,0.0576776629271959,1
781,792,28,0.0503127114844325,1
781,794,28,0.0411928231304787,1
781,795,28,0.041156716955356,1
782,790,28,0.0460310533002839,1
782,791,28,0.0576765004792097,1
782,792,28,0.055847813001718,1
782,793,28,0.0572387063474288,1
782,794,28,0.0650587318464553,1
782,795,28,0.0598964030680149,1
782,796,28,0.0455229770225881,1
783,791,28,0.0428608765164918,1
783,792,28,0.0512316022871613,1
783,793,28,0.0715209640303341,1
783,794,28,0.0901100158075625,1
783,795,28,0.0792401485182476,1
783,796,28,0.0529006937662597,1
784,792,28,0.0453255906511759,1
784,793,28,0.0702395570647122,1
784,794,28,0.0915624810493945,1
784,795,28,0.082664531049667,1
784,796,28,0.0550245511177365,1
785,793,28,0.0521547806306018,1
785,794,28,0.0647321218094966,1
785,795,28,0.0614552674443541,1
785,796,28,0.0443898740896897,1
786,794,28,0.0413182674883866,1
790,791,28,0.0443748136298508,1
790,792,28,0.0440078693511408,1
791,791,28,0.0429714496502794,1
791,792,28,0.0437669587644339,1
793,790,28,0.0416686941922239,1
794,789,28,0.0477704161118275,1
808,788,28,0.0412216437304325,1
808,789,28,0.041626521660634,1
809,788,28,0.0420628100167678,1
809,789,28,0.0416951196086527,1
810,788,28,0.0411507560302179,1
811,788,28,0.041055948935163,1
811,789,28,0.0424077407746614,1
811,821,28,0.0425208118199355,1
812,788,28,0.0422726508018361,1
812,789,28,0.0451135222913621,1
812,820,28,0.0516860113150416,1
812,821,28,0.0520481976671107,1
813,789,28,0.0439498064259173,1
813,819,28,0.0613169145070654,1
814,790,28,0.0410520317557865,1
814,791,28,0.0420151847931128,1
814,818,28,0.0434307652900082,1
815,790,28,0.0420364440744219,1
815,791,28,0.0443466904986887,1
815,792,28,0.0439191096889813,1
815,818,28,0.0438135458950036,1
816,790,28,0.0436118395424709,1
816,791,28,0.0471161795717641,1
816,792,28,0.0493467766820417,1
816,793,28,0.048481980261179,1
816,794,28,0.0412798742644354,1
817,791,28,0.0467344424665888,1
817,792,28,0.0512944555794346,1
817,793,28,0.0535711180703718,1
817,794,28,0.0482707445385274,1
818,791,28,0.0436223718618987,1
818,792,28,0.0476740032165314,1
818,793,28,0.0516024394149411,1
818,794,28,0.0506093141431446,1
818,795,28,0.04178701247364,1
819,792,28,0.0425074058209513,1
819,793,28,0.0466659607633687,1
819,794,28,0.0495727727907498,1
819,795,28,0.044483575507474,1
820,794,28,0.0434180243194067,1
820,795,28,0.0422480447516739,1
774,797,29,0.0501225890612498,1
774,798,29,0.054161571359773,1
774,799,29,0.0451570816504331,1
775,796,29,0.0419806249441484,1
775,797,29,0.0560745714600355,1
775,798,29,0.0605716285526465,1
775,799,29,0.0507507975798936,1
776,797,29,0.0490202964067186,1
776,798,29,0.052004078710986,1
776,799,29,0.0469689812163112,1
777,799,29,0.0414249856202481,1
777,800,29,0.0418820601683943,1
777,813,29,0.0412334952931562,1
777,814,29,0.0427252647937564,1
778,813,29,0.0427561723933504,1
778,814,29,0.0479415663025296,1
778,815,29,0.0435753170487671,1
779,813,29,0.0410978727569512,1
779,814,29,0.0509585297383824,1
779,815,29,0.0492806631286724,1
780,814,29,0.0430675273280167,1
780,815,29,0.0457859822311337,1
781,791,29,0.0595413860463161,1
781,792,29,0.0525102896651691,1
781,793,29,0.0434078650646814,1
782,790,29,0.0464485613630231,1
782,791,29,0.0592412203493581,1
782,792,29,0.0542257871492208,1
782,793,29,0.0483017900098593,1
782,794,29,0.0458114155117232,1
782,795,29,0.0431713393399129,1
783,791,29,0.0433603479757228,1
783,792,29,0.0444408541923,1
783,793,29,0.048748981046756,1
783,794,29,0.0527578207986621,1
783,795,29,0.0504402455453479,1
783,796,29,0.0428662751412088,1
784,793,29,0.0479116994993883,1
784,794,29,0.0555904145771799,1
784,795,29,0.0542104049886601,1
784,796,29,0.0441847452740163,1
785,793,29,0.0428172793102771,1
785,794,29,0.0487312631767534,1
785,795,29,0.047637529383441,1
790,791,29,0.041911375484584,1
790,792,29,0.04147703895972,1
791,791,29,0.0428967204649757,1
791,792,29,0.0431328514981024,1
793,790,29,0.0426813567002896,1
809,788,29,0.0412399428244281,1
810,822,29,0.0443025769492988,1
812,789,29,0.0426558233951059,1
812,820,29,0.0438330398773943,1
812,821,29,0.0467246508698312,1
813,789,29,0.0431056096647158,1
813,790,29,0.0424581693903201,1
813,819,29,0.0484248364808748,1
813,820,29,0.0644856125488844,1
813,821,29,0.0606493936195512,1
814,790,29,0.0430142493631083,1
814,791,29,0.0438715790831856,1
814,792,29,0.0439958015190243,1
814,819,29,0.0623441184284274,1
815,790,29,0.0428448455477528,1
815,791,29,0.0467519440671985,1
815,792,29,0.0519831492405008,1
815,793,29,0.0495748435701855,1
815,818,29,0.0427726304941401,1
816,791,29,0.0491625259728727,1
816,792,29,0.0606300266954288,1
816,793,29,0.0632775046872066,1
816,794,29,0.0504232251441371,1
817,791,29,0.0481907843372861,1
817,792,29,0.0634927792407681,1
817,793,29,0.0731248665077173,1
817,794,29,0.062881088296997,1
817,795,29,0.042116904398634,1
818,791,29,0.0437377434728383,1
818,792,29,0.0572558727304798,1
818,793,29,0.0697426240674788,1
818,794,29,0.0652022428087615,1
818,795,29,0.0464927722336398,1
819,792,29,0.0475364288490567,1
819,793,29,0.0567626920072109,1
819,794,29,0.0566178455814044,1
819,795,29,0.0457440043419973,1
820,793,29,0.0424782337832342,1
820,794,29,0.0439699248861796,1
820,795,29,0.0417204528646481,1
774,797,30,0.0430580141781023,1
774,798,30,0.0441465980564994,1
774,806,30,0.0413870844091654,1
775,796,30,0.0417641446887222,1
775,797,30,0.0473445167966489,1
775,798,30,0.0495775901914737,1
775,799,30,0.0455883985139005,1
775,806,30,0.0484677443284001,1
775,807,30,0.0512897084662633,1
775,808,30,0.0425302654957669,1
776,797,30,0.0436486864402638,1
776,798,30,0.0475054104113989,1
776,799,30,0.0466920104117276,1
776,806,30,0.0434523408653042,1
776,807,30,0.0470314776640864,1
777,799,30,0.0412380207301999,1
779,814,30,0.0471354816150687,1
779,815,30,0.0469564429982654,1
780,814,30,0.0435888365891825,1
780,815,30,0.0474873086632242,1
781,792,30,0.0508538769792218,1
781,793,30,0.0479188634230237,1
782,791,30,0.0517147156701968,1
782,792,30,0.0516182378940828,1
782,793,30,0.0485726349838927,1
783,792,30,0.041451932786587,1
783,793,30,0.0411500531546914,1
791,791,30,0.0439192610775562,1
792,790,30,0.0448201447499697,1
792,791,30,0.0434794637505248,1
793,790,30,0.0436158432296045,1
812,789,30,0.042172528886454,1
812,790,30,0.0429448322947645,1
812,791,30,0.0412471121547984,1
813,790,30,0.0441009706213601,1
813,791,30,0.0434811182113795,1
813,792,30,0.0414101387264345,1
813,820,30,0.045265729986625,1
814,790,30,0.0440063257283499,1
814,791,30,0.0463233305711407,1
814,792,30,0.0501600577335469,1
814,793,30,0.0482601959988951,1
814,819,30,0.043972871556656,1
814,820,30,0.0538459099608232,1
814,821,30,0.0542346866347332,1
815,790,30,0.0428580109470376,1
815,791,30,0.0513552921596203,1
815,792,30,0.066429744628236,1
815,793,30,0.0700898932381817,1
815,794,30,0.0509535933894924,1
815,819,30,0.053057121418049,1
815,821,30,0.0523495041851155,1
816,791,30,0.055486459286811,1
816,792,30,0.0801063939440418,1
816,793,30,0.091163161242587,1
816,794,30,0.0691649685193946,1
816,795,30,0.0412344090313406,1
816,818,30,0.0443528352528107,1
817,791,30,0.0530414959544215,1
817,792,30,0.0802793986447868,1
817,793,30,0.100848883318943,1
817,794,30,0.0836423390417207,1
817,795,30,0.0502241924219724,1
818,791,30,0.0459532557929703,1
818,792,30,0.0680829457137007,1
818,793,30,0.0910014782445534,1
818,794,30,0.0821319622632402,1
818,795,30,0.0525410756132297,1
819,792,30,0.0506838459826273,1
819,793,30,0.0640337392796343,1
819,794,30,0.0610116232254988,1
819,795,30,0.0455178838783884,1
820,793,30,0.0428531421823329,1
820,794,30,0.042564473906968,1
775,797,31,0.0457290979741008,1
775,798,31,0.0481135599438634,1
775,805,31,0.0435793558796771,1
775,806,31,0.0609289758770524,1
775,807,31,0.0625777380332306,1
775,808,31,0.0455943891760802,1
776,798,31,0.0463137876841847,1
776,799,31,0.046811174847143,1
776,806,31,0.0544896304016633,1
776,807,31,0.0559010693396872,1
776,808,31,0.0417150893837075,1
779,814,31,0.0411593446284782,1
781,793,31,0.0481146629177665,1
782,792,31,0.046519411216094,1
782,793,31,0.0482182775838418,1
782,796,31,0.0431483958607076,1
783,793,31,0.0410468169600534,1
783,796,31,0.0428822385257625,1
791,791,31,0.0418585597955026,1
792,790,31,0.0453931505061093,1
792,791,31,0.0424920533974321,1
793,790,31,0.0427628578209544,1
793,791,31,0.0410833421571246,1
794,790,31,0.0432171127568924,1
808,826,31,0.041194666827052,1
811,790,31,0.0462155040586412,1
812,790,31,0.0463597016762695,1
812,791,31,0.0510946605076604,1
813,790,31,0.0446175381760895,1
813,791,31,0.046059611673599,1
813,792,31,0.0453852674867429,1
813,793,31,0.041461740603549,1
814,790,31,0.0438589516540153,1
814,791,31,0.0490520934141904,1
814,792,31,0.0573566650809795,1
814,793,31,0.0621529200650158,1
814,794,31,0.0489229968069122,1
814,821,31,0.0454758573286387,1
815,791,31,0.0558712403836896,1
815,792,31,0.080187013766931,1
815,793,31,0.0944281261978621,1
815,794,31,0.0741275995472876,1
815,795,31,0.0442998492515825,1
815,820,31,0.0463633782559465,1
815,821,31,0.0473805634976886,1
816,791,31,0.0599936594139428,1
816,792,31,0.0936596561645384,1
816,793,31,0.113565188396161,1
816,794,31,0.0909291253192028,1
816,795,31,0.0532613986729883,1
817,791,31,0.0552840419486495,1
817,792,31,0.0880201938517726,1
817,793,31,0.112915471886406,1
817,794,31,0.0961892943709316,1
817,795,31,0.0564321350538342,1
818,791,31,0.046432476326936,1
818,792,31,0.0715329345412238,1
818,793,31,0.0956229280851499,1
818,794,31,0.0869393767479433,1
818,795,31,0.0534246442173847,1
819,792,31,0.0503799982992575,1
819,793,31,0.0617811908259908,1
819,794,31,0.0575835857413416,1
820,793,31,0.0418989508079695,1
775,805,32,0.046250680275375,1
775,806,32,0.0645615988000336,1
775,807,32,0.0633951822705466,1
775,808,32,0.0445092331675585,1
776,805,32,0.0445973142844982,1
776,806,32,0.0606623157157691,1
776,807,32,0.0583905625400477,1
776,808,32,0.0410073586093428,1
781,794,32,0.0441134655855273,1
781,795,32,0.0439261465543485,1
781,796,32,0.043391144737253,1
782,793,32,0.0435368292069566,1
782,794,32,0.0413106385855566,1
782,795,32,0.0440640264023405,1
782,796,32,0.0499026917494178,1
782,797,32,0.0454748841163713,1
783,796,32,0.0480237757054556,1
783,797,32,0.0439119295451414,1
792,791,32,0.0418798244835465,1
812,790,32,0.0544802659369564,1
813,790,32,0.0456689967098505,1
813,791,32,0.04881734380181,1
813,793,32,0.0508756823407477,1
813,794,32,0.0418946984110342,1
814,791,32,0.0508660853864436,1
814,792,32,0.0660437686429623,1
814,793,32,0.083612634440624,1
814,794,32,0.0745751312084779,1
814,795,32,0.0432510156875762,1
815,791,32,0.0590394464126401,1
815,792,32,0.0917184437219893,1
815,793,32,0.12103988033555,1
815,794,32,0.10696889622244,1
815,795,32,0.0603822035982556,1
815,820,32,0.0414485130268139,1
815,821,32,0.044895617361311,1
816,791,32,0.0624843853498421,1
816,792,32,0.100482447273306,1
816,793,32,0.127588420227348,1
816,794,32,0.110415570721519,1
816,795,32,0.0623073958855354,1
816,820,32,0.0437613871242027,1
817,791,32,0.0565786089068214,1
817,792,32,0.0900627068778944,1
817,793,32,0.113952743148002,1
817,794,32,0.100124726884197,1
817,795,32,0.0579823270275234,1
817,818,32,0.0424232418833881,1
818,791,32,0.0464471177648264,1
818,792,32,0.0698325651011963,1
818,793,32,0.0892860564547893,1
818,794,32,0.0812824074278329,1
818,795,32,0.0499433503952583,1
819,792,32,0.0489857257442846,1
819,793,32,0.0570100825655986,1
819,794,32,0.0518565289177698,1
820,817,32,0.0439267899557919,1
775,805,33,0.0428172198361941,1
775,807,33,0.0518585888837359,1
776,805,33,0.0448487166401218,1
776,806,33,0.0559913347774938,1
776,807,33,0.051632468420127,1
777,806,33,0.0411602772902345,1
780,795,33,0.0449041545955905,1
781,794,33,0.0486355747839231,1
781,795,33,0.0494268828651231,1
781,796,33,0.0453829101503617,1
782,794,33,0.0453595854963517,1
782,795,33,0.0491758643876717,1
782,796,33,0.0515813207087373,1
782,797,33,0.0448928085625724,1
783,795,33,0.044194669335777,1
783,796,33,0.0488716977069475,1
783,797,33,0.0435235097157295,1
784,796,33,0.0415056973576292,1
813,793,33,0.0602326100592777,1
813,794,33,0.0528690751810369,1
814,791,33,0.0522958531555045,1
814,792,33,0.0730125902524616,1
814,793,33,0.0993600307517775,1
814,794,33,0.0948603622062489,1
814,795,33,0.0528338503036898,1
815,791,33,0.0605964130250577,1
815,792,33,0.0951370356404174,1
815,793,33,0.131476057204812,1
815,794,33,0.123929228609465,1
815,795,33,0.068182132263959,1
815,820,33,0.0419462245938612,1
816,791,33,0.0631468833807093,1
816,792,33,0.0962528451319966,1
816,793,33,0.121777802317145,1
816,794,33,0.10993942121293,1
816,795,33,0.0619059458252092,1
817,791,33,0.0559296547466763,1
817,792,33,0.0814389107739096,1
817,793,33,0.0976607048115701,1
817,794,33,0.086387354529637,1
817,795,33,0.0523522075525251,1
818,791,33,0.0458074307481615,1
818,792,33,0.0622581891919457,1
818,793,33,0.0732832405840416,1
818,794,33,0.0648219979623963,1
818,795,33,0.0421797306572332,1
819,792,33,0.0461609392908457,1
819,793,33,0.050749889248444,1
819,794,33,0.0442752621249921,1
776,806,34,0.0448044165583806,1
780,795,34,0.0447916025968591,1
781,794,34,0.0522381524815139,1
781,795,34,0.0527873902313884,1
781,796,34,0.0458358647665757,1
782,794,34,0.0511462407578356,1
782,795,34,0.0543144576002558,1
782,796,34,0.0512805386440099,1
782,797,34,0.0427645366121157,1
783,794,34,0.0451983350371036,1
783,795,34,0.0493177154823884,1
783,796,34,0.0497418630154857,1
783,797,34,0.0427519578435589,1
784,795,34,0.043079303196453,1
784,796,34,0.0431957885947654,1
785,795,34,0.0418403985732449,1
786,795,34,0.0434038613775478,1
787,795,34,0.0417421582015799,1
809,793,34,0.0451980214464841,1
813,793,34,0.0633102532800065,1
813,794,34,0.0541303312459877,1
814,791,34,0.0514603720508316,1
814,792,34,0.0732757306293777,1
814,793,34,0.0996049774660269,1
814,794,34,0.094505885858032,1
814,795,34,0.0521888214330235,1
815,791,34,0.060524600773189,1
815,792,34,0.0962079692329971,1
815,793,34,0.130307824012425,1
815,794,34,0.119220968234611,1
815,795,34,0.0632197337256633,1
816,791,34,0.0646394125275516,1
816,792,34,0.0977429520616399,1
816,793,34,0.118989797880681,1
816,794,34,0.101987444350641,1
816,795,34,0.055240155482122,1
817,791,34,0.0554718556960643,1
817,792,34,0.0774811160054316,1
817,793,34,0.0875757169957552,1
817,794,34,0.0733864443382706,1
817,795,34,0.0445561636257892,1
818,792,34,0.0569444015510149,1
818,793,34,0.062175401268394,1
818,794,34,0.0524336329789024,1
819,793,34,0.0471056959129497,1
781,795,35,0.0523942449157445,1
781,796,35,0.0452522023361074,1
782,794,35,0.0555703934381444,1
782,795,35,0.0567607618028805,1
782,796,35,0.049715953942232,1
783,794,35,0.050367184337736,1
783,795,35,0.0529594109063963,1
783,796,35,0.0491894461055376,1
783,797,35,0.0410916820455832,1
784,794,35,0.0419739259997074,1
784,795,35,0.0454216277784021,1
784,796,35,0.0440016597162009,1
785,795,35,0.0442968620305949,1
785,796,35,0.0415951680054175,1
786,794,35,0.0412167290084818,1
786,795,35,0.0490946498239524,1
786,796,35,0.0435914939993462,1
787,794,35,0.0435412789497128,1
787,795,35,0.0501573597728722,1
787,796,35,0.0421303644649664,1
788,794,35,0.0446043619633351,1
788,795,35,0.0476222283239027,1
789,794,35,0.0413763952944279,1
789,795,35,0.0421209324160743,1
809,793,35,0.0486881282463658,1
810,794,35,0.0413491129105301,1
813,793,35,0.0608373911959498,1
813,794,35,0.0494602316054879,1
814,792,35,0.0675353678314158,1
814,793,35,0.0844870926966086,1
814,794,35,0.077659495000587,1
814,795,35,0.0464321411093772,1
815,791,35,0.0565163827957871,1
815,792,35,0.0879723064014789,1
815,793,35,0.110743532442182,1
815,794,35,0.0962719957867262,1
815,795,35,0.0534711907974432,1
816,791,35,0.0629355449300961,1
816,792,35,0.0940473298645453,1
816,793,35,0.108420474759761,1
816,794,35,0.0875027963632485,1
816,795,35,0.048889745387774,1
817,791,35,0.0528252806290014,1
817,792,35,0.0709117493711102,1
817,793,35,0.0768304641305534,1
817,794,35,0.0620258185428858,1
818,792,35,0.0514615344988177,1
818,793,35,0.0528966657488194,1
781,797,36,0.0418402498880373,1
782,795,36,0.0595208350472683,1
782,796,36,0.0513870296930091,1
782,797,36,0.0431295587965975,1
783,795,36,0.0571345131607279,1
783,796,36,0.0510170089821869,1
783,797,36,0.0430182395334048,1
784,795,36,0.0476601133147809,1
784,796,36,0.0455251397165158,1
784,797,36,0.0413697477139676,1
785,795,36,0.0449576434231569,1
785,796,36,0.0440428509254211,1
786,795,36,0.0499932167104958,1
786,796,36,0.0470262223178421,1
787,794,36,0.0452631023135029,1
787,795,36,0.0547032613078398,1
787,796,36,0.0464630297853993,1
788,794,36,0.0500627040663923,1
788,795,36,0.0569126099502779,1
788,796,36,0.0460293123316721,1
789,794,36,0.0450267820446576,1
789,795,36,0.0498735818891512,1
789,796,36,0.0439661834256847,1
790,795,36,0.0433816883580542,1
790,796,36,0.0439035382927019,1
799,795,36,0.0425305277224056,1
800,794,36,0.0415961601412568,1
800,795,36,0.0417922515996798,1
806,791,36,0.041241994680292,1
807,792,36,0.0417915622409904,1
813,793,36,0.0559724436460355,1
813,794,36,0.0436840140455725,1
814,793,36,0.067374495843605,1
814,794,36,0.0590499949522724,1
815,792,36,0.0753807941706229,1
815,793,36,0.0871005136657601,1
815,794,36,0.0721997525532116,1
815,795,36,0.044716989656354,1
816,791,36,0.0586440302683722,1
816,792,36,0.0849732392578776,1
816,793,36,0.0931736447716398,1
816,794,36,0.0719022848169284,1
816,795,36,0.0435941811465513,1
817,792,36,0.0642355078096175,1
817,793,36,0.0679356932908995,1
817,794,36,0.0541553103608524,1
818,793,36,0.0480962205452982,1
781,798,37,0.0423769791569075,1
781,811,37,0.0410573438727464,1
782,797,37,0.0453550330256339,1
782,798,37,0.0425302573856646,1
783,796,37,0.0500512796357193,1
783,797,37,0.0443209436274796,1
783,798,37,0.0419587222613958,1
784,796,37,0.0446908291699313,1
784,797,37,0.0418161628844178,1
784,798,37,0.0412759408648544,1
785,795,37,0.0425878526283263,1
785,796,37,0.042969308583291,1
786,795,37,0.0469339293544783,1
786,796,37,0.0455467504355882,1
787,794,37,0.04703451084232,1
787,795,37,0.0562772158810594,1
787,796,37,0.0481756941404057,1
788,794,37,0.0544432027697708,1
788,795,37,0.0642658612188926,1
788,796,37,0.0523228868296006,1
789,794,37,0.0468666749800621,1
789,795,37,0.0556222494317954,1
789,796,37,0.0503460926652062,1
790,795,37,0.0488962875369053,1
790,796,37,0.0504059181859808,1
790,797,37,0.0438721305701372,1
791,795,37,0.0464619268114962,1
791,796,37,0.0476151671282288,1
800,795,37,0.0440281283865084,1
807,792,37,0.0429789596049433,1
814,794,37,0.0479365921064959,1
815,793,37,0.0674086555941928,1
815,794,37,0.0577318870706977,1
815,795,37,0.0411019224013308,1
816,792,37,0.0692745251870363,1
816,793,37,0.0743568883575006,1
816,794,37,0.0615993947744297,1
816,795,37,0.0428505902034983,1
817,793,37,0.0582989778589451,1
781,810,38,0.0434582152826853,1
781,811,38,0.0467483539952786,1
782,799,38,0.0426292979540829,1
782,811,38,0.044301027919773,1
783,797,38,0.04417790575447,1
783,798,38,0.0438198068939243,1
783,799,38,0.0411174721706708,1
784,797,38,0.0410026628601523,1
784,798,38,0.041409435850908,1
786,795,38,0.0436009611920146,1
786,796,38,0.0412152502665088,1
787,794,38,0.04658368107289,1
787,795,38,0.0544038633672262,1
787,796,38,0.0454742299014581,1
788,794,38,0.0512046497140875,1
788,795,38,0.061304068105135,1
788,796,38,0.0507306737128965,1
789,794,38,0.0435823458040321,1
789,795,38,0.0532096021534203,1
789,796,38,0.049873198010979,1
789,797,38,0.0413117767032361,1
790,795,38,0.0493480742983983,1
790,796,38,0.0508488595293096,1
790,797,38,0.0447806161117064,1
790,800,38,0.0424269157596977,1
791,795,38,0.0486948001571327,1
791,796,38,0.0493686361109157,1
791,797,38,0.0425643252217605,1
792,795,38,0.042927695648755,1
792,796,38,0.0414891149019387,1
799,792,38,0.0410727557703486,1
800,795,38,0.0443947320409247,1
803,792,38,0.0418489682479333,1
803,793,38,0.0421761703223547,1
816,793,38,0.06236646987017,1
781,810,39,0.0440774188844877,1
781,811,39,0.0464992386884836,1
782,810,39,0.0449001671286613,1
782,811,39,0.0477401492103096,1
783,800,39,0.0418616064905732,1
783,810,39,0.044392317933828,1
783,811,39,0.0472874433038973,1
784,810,39,0.0422411295378401,1
784,811,39,0.0460370439624636,1
786,795,39,0.0418613902211804,1
786,804,39,0.0435460828335996,1
786,805,39,0.043558004683876,1
787,794,39,0.0448499574857628,1
787,795,39,0.0502882946699889,1
787,796,39,0.0424156021670885,1
787,804,39,0.0414496998051067,1
787,805,39,0.0453438410845581,1
788,794,39,0.0443087406269927,1
788,795,39,0.051604834598466,1
788,796,39,0.045103536052151,1
789,795,39,0.047202400771926,1
789,796,39,0.0457222043872063,1
790,795,39,0.0470667295751076,1
790,796,39,0.047420832858622,1
790,797,39,0.0420892083995226,1
790,800,39,0.0466576506119515,1
790,801,39,0.0420488903779757,1
791,795,39,0.0477921511858008,1
791,796,39,0.0477653067474234,1
791,797,39,0.0424077542914984,1
791,800,39,0.0442133387911077,1
791,801,39,0.0419157279061135,1
792,795,39,0.0426606516092995,1
792,796,39,0.042135311627326,1
792,800,39,0.0424329307521841,1
792,801,39,0.0418251840214636,1
800,795,39,0.0422793930001556,1
801,794,39,0.0419538589034259,1
802,793,39,0.0442623238085698,1
803,793,39,0.0490732715944772,1
804,793,39,0.0428122943007738,1
782,810,40,0.0477675883895171,1
782,811,40,0.0512206482424176,1
783,809,40,0.0414511785470797,1
783,810,40,0.0540082039198914,1
783,811,40,0.0590321959812475,1
783,812,40,0.0471522100525993,1
784,804,40,0.0470573218565222,1
784,810,40,0.052303373923638,1
784,811,40,0.0568221985306311,1
784,812,40,0.0449971261041742,1
785,803,40,0.0550982719469964,1
785,804,40,0.0754061139097812,1
785,805,40,0.0632592569571917,1
786,803,40,0.0623354352123078,1
786,804,40,0.0901216565076282,1
786,805,40,0.0773104307939241,1
787,795,40,0.0433925694118779,1
787,803,40,0.0551831901240668,1
787,804,40,0.0785225774865119,1
787,805,40,0.0716467354956985,1
788,795,40,0.041679486034923,1
788,803,40,0.041091284650574,1
788,804,40,0.0513142766692818,1
788,805,40,0.0492326837638868,1
789,795,40,0.0413097410675767,1
789,800,40,0.0419438834776845,1
789,801,40,0.0422697176481967,1
790,795,40,0.0438399496844932,1
790,796,40,0.0432021793553217,1
790,799,40,0.0410742858763024,1
790,800,40,0.0468141863984373,1
790,801,40,0.0482618288328105,1
791,795,40,0.045701458745705,1
791,796,40,0.0453141716272377,1
791,797,40,0.0436467859729748,1
791,800,40,0.0476035156146934,1
791,801,40,0.0514693039767529,1
792,796,40,0.041243340957262,1
792,800,40,0.0503557977542067,1
792,801,40,0.0541256382001646,1
793,800,40,0.0435819267820836,1
793,801,40,0.0445391675548851,1
794,795,40,0.0449734824528098,1
795,796,40,0.0455187597694291,1
799,795,40,0.0421888058616272,1
800,794,40,0.0426934110155691,1
801,794,40,0.0417625551086853,1
783,810,41,0.0582584111275966,1
783,811,41,0.0651334583283916,1
784,810,41,0.0561080499620361,1
784,811,41,0.0612765045710266,1
785,803,41,0.0642709813967664,1
785,804,41,0.0977226227387197,1
785,805,41,0.0735545126901257,1
785,810,41,0.0420027790400701,1
786,803,41,0.0874921775360636,1
786,804,41,0.141721917008437,1
786,805,41,0.104226762524182,1
786,806,41,0.045873895739294,1
787,803,41,0.0851550947835217,1
787,804,41,0.135289481340147,1
787,805,41,0.102233515665733,1
787,806,41,0.046146876373581,1
788,803,41,0.0586546058416785,1
788,804,41,0.0841150120198203,1
788,805,41,0.0670991686864065,1
789,800,41,0.0412423758550967,1
789,801,41,0.0418105398802058,1
789,804,41,0.0428120942515855,1
790,796,41,0.0413030231995638,1
790,800,41,0.0452327597176975,1
790,801,41,0.0480846285058458,1
790,802,41,0.0429446430590458,1
791,796,41,0.0430416939490506,1
791,798,41,0.0418421043980803,1
791,799,41,0.0417143243307306,1
791,800,41,0.0488668803062236,1
791,801,41,0.0541991373532969,1
791,802,41,0.0452488717874587,1
792,797,41,0.0422983354955947,1
792,798,41,0.0415801210624156,1
792,799,41,0.0433537869030197,1
792,800,41,0.052781896988812,1
792,801,41,0.0584934418901876,1
792,802,41,0.0469844931385075,1
793,800,41,0.0453253446447416,1
793,801,41,0.0484476312748726,1
795,796,41,0.0454809072189599,1
796,796,41,0.0449939820878768,1
792,801,42,0.0571575891049362,1
