x,y,z,signal,cytoplasm.p
41,10,1,0.0429902245369391,1
41,11,1,0.0466057135172782,1
41,12,1,0.0444378723780472,1
42,10,1,0.0450664025974127,1
42,11,1,0.050295977640167,1
42,12,1,0.0463298294663933,1
43,11,1,0.0416693862542807,1
50,12,1,0.0433648598959294,1
50,13,1,0.0440098401059824,1
51,12,1,0.0458047868548349,1
51,13,1,0.0475286323374474,1
51,14,1,0.0435445311007065,1
52,12,1,0.0424122175510917,1
52,13,1,0.044118604686973,1
52,14,1,0.0414895798811332,1
53,12,1,0.042027725714526,1
53,13,1,0.0434600724960957,1
54,12,1,0.0459955256457869,1
55,12,1,0.0451439243612505,1
55,13,1,0.0467015154515398,1
56,10,1,0.0423695692268378,1
56,11,1,0.0447861039475479,1
56,12,1,0.0442034147293471,1
56,13,1,0.043412528373463,1
57,10,1,0.0478619034717034,1
57,11,1,0.0512569003993804,1
57,12,1,0.045933796954356,1
57,13,1,0.0411035930823899,1
58,9,1,0.0440234812979312,1
58,10,1,0.0571612548711437,1
58,11,1,0.0644473436798341,1
58,12,1,0.05295212262786,1
58,13,1,0.0413204842496624,1
59,9,1,0.0451118597204052,1
59,10,1,0.0615414237636982,1
59,11,1,0.0700216007706803,1
59,12,1,0.0551873911570214,1
60,9,1,0.0414473559855625,1
60,10,1,0.0512467087042462,1
60,11,1,0.0555435435930322,1
60,12,1,0.0454715373475182,1
61,10,1,0.0410121651965971,1
61,11,1,0.0416484973343067,1
63,10,1,0.0427297740105956,1
63,11,1,0.0410535618617404,1
41,11,2,0.0426031996451106,1
41,12,2,0.0411740185067775,1
42,11,2,0.045489606655284,1
42,12,2,0.0425369428132686,1
50,12,2,0.0413477531167231,1
50,13,2,0.042106212580529,1
51,12,2,0.0430072557516196,1
51,13,2,0.0450384227447233,1
51,14,2,0.0419364519206755,1
52,13,2,0.0419029761220424,1
54,12,2,0.0427528905053152,1
54,13,2,0.04533287081961,1
55,12,2,0.0416594513790504,1
55,13,2,0.0437038405421545,1
56,11,2,0.0419652590037922,1
56,12,2,0.0417789131848808,1
56,13,2,0.0412459334866078,1
57,10,2,0.0424578098424547,1
57,11,2,0.0466939243958536,1
57,12,2,0.0422555249692962,1
58,10,2,0.0477943409134025,1
58,11,2,0.05495730755679,1
58,12,2,0.0456985769560464,1
59,10,2,0.0514839183809693,1
59,11,2,0.0594102402865414,1
59,12,2,0.0470541535099182,1
60,10,2,0.0429789920453522,1
60,11,2,0.0466280541455512,1
63,10,2,0.042576063243053,1
54,13,3,0.0425612487896483,1
55,13,3,0.040989678586484,1
57,11,3,0.0444646573423416,1
57,12,3,0.0426642146475453,1
58,10,3,0.0410008624174575,1
58,11,3,0.0472047418881027,1
58,12,3,0.0433307596194247,1
59,10,3,0.043579956027242,1
59,11,3,0.0487042889767404,1
59,12,3,0.0428577433136641,1
60,11,3,0.0415032399966539,1
62,10,3,0.0418545452948993,1
63,10,3,0.0462145795069871,1
63,11,3,0.0433426409191899,1
57,12,4,0.0412173048257401,1
62,10,4,0.0426348614842119,1
63,10,4,0.0481309371895723,1
63,11,4,0.0436483350025005,1
57,12,5,0.0411459305193917,1
61,20,5,0.0431881975390792,1
62,10,5,0.0414518111350536,1
62,20,5,0.0478993288901219,1
62,21,5,0.0434376183263915,1
63,10,5,0.0463444546840793,1
63,11,5,0.0422854566532554,1
61,19,6,0.0411768786694969,1
61,20,6,0.0546507294723364,1
61,21,6,0.0469153896607832,1
62,19,6,0.0492675085428573,1
62,20,6,0.0639474856390635,1
62,21,6,0.0525117819239792,1
63,20,6,0.0478353726239455,1
60,20,7,0.0474529488634481,1
60,21,7,0.0479995643469352,1
61,19,7,0.0446700700115929,1
61,20,7,0.0676204536172656,1
61,21,7,0.0608884632130521,1
61,22,7,0.0426670477765906,1
62,18,7,0.0415531333455655,1
62,19,7,0.0545823721240172,1
62,20,7,0.0757191260086696,1
62,21,7,0.0636909739190358,1
62,22,7,0.0424397702717304,1
63,20,7,0.0507669907506771,1
63,21,7,0.0426590620292626,1
37,17,8,0.0416702351116473,1
60,20,8,0.0539650095154207,1
60,21,8,0.0580308849129347,1
60,22,8,0.0411674655441766,1
61,19,8,0.0483347062114386,1
61,20,8,0.0777908570297544,1
61,21,8,0.079552500995488,1
61,22,8,0.0506398027207901,1
62,18,8,0.0418736391789134,1
62,19,8,0.0576222655222382,1
62,20,8,0.0792697936452613,1
62,21,8,0.0744035701059296,1
62,22,8,0.04737229660015,1
63,19,8,0.0430193776510843,1
63,20,8,0.0497728436059997,1
63,21,8,0.0457150134298967,1
56,21,9,0.0432923880224128,1
57,20,9,0.0422580418043546,1
57,21,9,0.0469168711061237,1
60,20,9,0.0546169806335949,1
60,21,9,0.0605070126648221,1
61,19,9,0.0502196669849287,1
61,20,9,0.0815231531091277,1
61,21,9,0.0897847087936952,1
61,22,9,0.0528932108452699,1
62,19,9,0.0570164084453371,1
62,20,9,0.0785881341461948,1
62,21,9,0.0807365434804856,1
62,22,9,0.0480700789824473,1
63,19,9,0.047152339814235,1
63,20,9,0.0525423786363211,1
63,21,9,0.0504946643313033,1
56,21,10,0.048774160210809,1
56,22,10,0.0415973334027126,1
57,20,10,0.0420692359211004,1
57,21,10,0.0540146271208566,1
57,22,10,0.0460565244280172,1
58,21,10,0.0429367357093727,1
60,20,10,0.0506601212302407,1
60,21,10,0.0565928664665396,1
61,19,10,0.0507067272843822,1
61,20,10,0.0855469316693393,1
61,21,10,0.093936805391371,1
61,22,10,0.0542532749890416,1
62,19,10,0.0629795881919334,1
62,20,10,0.0941760966609995,1
62,21,10,0.0935107438741478,1
62,22,10,0.0507297545679772,1
63,19,10,0.0618869033051759,1
63,20,10,0.0782427411124742,1
63,21,10,0.0682677154694123,1
64,19,10,0.0429825658970677,1
64,20,10,0.0489287549794946,1
64,21,10,0.0420179962952188,1
56,21,11,0.0481381714007604,1
56,22,11,0.042832280296033,1
57,21,11,0.0540345130915217,1
57,22,11,0.0483751972484997,1
58,21,11,0.0434790744656178,1
60,20,11,0.0422871895117649,1
60,21,11,0.0470245786704571,1
61,19,11,0.047630830439,1
61,20,11,0.0804718513706765,1
61,21,11,0.0865688964646615,1
61,22,11,0.0512399502857221,1
62,19,11,0.063011060795316,1
62,20,11,0.106541396513755,1
62,21,11,0.102497526526955,1
62,22,11,0.0546542546634385,1
63,19,11,0.0689668441286796,1
63,20,11,0.103453826527898,1
63,21,11,0.0883346603623274,1
63,22,11,0.046398413897575,1
64,19,11,0.0459580029061416,1
64,20,11,0.0601053138946943,1
64,21,11,0.0485793501485381,1
56,21,12,0.0422031418190003,1
57,21,12,0.0483382422160104,1
57,22,12,0.0459579758724675,1
61,19,12,0.0411848184595789,1
61,20,12,0.0727225351496156,1
61,21,12,0.078527957187657,1
61,22,12,0.0467061490232798,1
62,19,12,0.0611552044753577,1
62,20,12,0.121194707593833,1
62,21,12,0.120109640796435,1
62,22,12,0.0634256816616618,1
63,9,12,0.0415335258217437,1
63,19,12,0.0684320964281207,1
63,20,12,0.124253913848828,1
63,21,12,0.115053586797601,1
63,22,12,0.0590605110514957,1
64,9,12,0.0414933267483629,1
64,19,12,0.0443629728805967,1
64,20,12,0.0668936857296025,1
64,21,12,0.0587043153616063,1
61,20,13,0.0591828059863714,1
61,21,13,0.064303827310793,1
62,19,13,0.056035561868315,1
62,20,13,0.116747592510747,1
62,21,13,0.126368974442754,1
62,22,13,0.0683854741537746,1
63,19,13,0.0608554280633067,1
63,20,13,0.122865107502757,1
63,21,13,0.133684913834381,1
63,22,13,0.0741521785637757,1
64,19,13,0.0422526350695354,1
64,20,13,0.0671671367498188,1
64,21,13,0.0727601822441617,1
64,22,13,0.0476775067806943,1
61,20,14,0.045338910142403,1
61,21,14,0.0516129122602859,1
62,19,14,0.0459056386794176,1
62,20,14,0.0945299025740989,1
62,21,14,0.11425334679048,1
62,22,14,0.0637908687515555,1
63,19,14,0.0487348910958171,1
63,20,14,0.103789995672017,1
63,21,14,0.132169514199253,1
63,22,14,0.0797377357303941,1
64,20,14,0.0573236677783779,1
64,21,14,0.0748014625347448,1
64,22,14,0.0522718580663769,1
29,11,15,0.0453214328720999,1
61,21,15,0.043363213545177,1
62,20,15,0.0709931153234045,1
62,21,15,0.092614253173775,1
62,22,15,0.0592389441139992,1
63,20,15,0.0830087291949926,1
63,21,15,0.114437089266576,1
63,22,15,0.078370323834003,1
64,20,15,0.0496589669572376,1
64,21,15,0.0690466421278763,1
64,22,15,0.0536792798004301,1
29,11,16,0.0470983860074741,1
30,11,16,0.0456946678867721,1
62,20,16,0.0541518716775074,1
62,21,16,0.0708665869151654,1
62,22,16,0.0515159316578338,1
63,20,16,0.0674876696168407,1
63,21,16,0.0908355888068305,1
63,22,16,0.0673101935464002,1
64,20,16,0.0455419546618035,1
64,21,16,0.0600688779087476,1
64,22,16,0.0495005225933607,1
30,11,17,0.0434181027170616,1
62,20,17,0.0413273075490043,1
62,21,17,0.0507009745185346,1
63,20,17,0.0541380466565747,1
63,21,17,0.067333166762647,1
63,22,17,0.0516836485719256,1
64,20,17,0.042575463095488,1
64,21,17,0.0513937394509197,1
64,22,17,0.042271831681511,1
63,20,18,0.0457183764189543,1
63,21,18,0.0527128962390493,1
64,20,18,0.0411804660380494,1
64,21,18,0.0465669742622986,1
63,21,19,0.0413206761887485,1
58,18,24,0.0415597025283709,1
59,18,24,0.0413315815728788,1
53,21,25,0.0459263302535707,1
54,21,25,0.0901932633035738,1
58,18,25,0.0464160074126767,1
58,19,25,0.0447196416597828,1
59,17,25,0.0418296364675872,1
59,18,25,0.0459546345103492,1
59,19,25,0.0430289502750817,1
60,17,25,0.0411518211569772,1
53,21,26,0.0458166978916416,1
54,21,26,0.0829640425317118,1
55,20,26,0.0414607403576075,1
58,18,26,0.0474610643724117,1
58,19,26,0.0491924306231578,1
58,20,26,0.0424381428445498,1
59,17,26,0.0424854247405438,1
59,18,26,0.0489695920475841,1
59,19,26,0.0505902283692328,1
59,20,26,0.0435044320519199,1
60,17,26,0.041651152041103,1
60,18,26,0.0437806188799547,1
60,19,26,0.0438711222140934,1
61,16,26,0.04416549729806,1
61,17,26,0.0427892291700351,1
62,15,26,0.04504024211099,1
62,16,26,0.0482689440958326,1
62,17,26,0.045209313412154,1
63,15,26,0.0420840990351184,1
63,16,26,0.0432957807485118,1
53,21,27,0.0452865026618004,1
54,20,27,0.0412153070372244,1
54,21,27,0.0659741461186954,1
58,18,27,0.0449953013311727,1
58,19,27,0.0481219890434465,1
58,20,27,0.0445682747117843,1
59,17,27,0.0422690580265487,1
59,18,27,0.0498494732585924,1
59,19,27,0.0536141448660631,1
59,20,27,0.0481138302806043,1
60,16,27,0.0410389150171151,1
60,17,27,0.0419673081562887,1
60,18,27,0.0471302478957637,1
60,19,27,0.0493073994323534,1
60,20,27,0.043444063154296,1
61,15,27,0.0422568090688158,1
61,16,27,0.0475027935517464,1
61,17,27,0.0443344145072817,1
61,18,27,0.0426843547347469,1
61,19,27,0.0410240086492186,1
62,15,27,0.0495125742052727,1
62,16,27,0.056504871857357,1
62,17,27,0.0498092633717419,1
62,18,27,0.0413200463041421,1
63,15,27,0.0479087636423814,1
63,16,27,0.0527957328232144,1
63,17,27,0.045422914581289,1
65,9,27,0.0414190273984773,1
66,9,27,0.0412109438022253,1
53,21,28,0.045712553365554,1
54,20,28,0.0424204006442406,1
58,18,28,0.0422293563727713,1
58,19,28,0.0475137530032249,1
58,20,28,0.0451028007362156,1
59,17,28,0.0424632895681939,1
59,18,28,0.0518222231853419,1
59,19,28,0.0589609352163304,1
59,20,28,0.0523399234510159,1
60,16,28,0.043583738038248,1
60,17,28,0.0442418106566657,1
60,18,28,0.0519876530506052,1
60,19,28,0.0567702127753445,1
60,20,28,0.048946656678481,1
61,15,28,0.044365924957808,1
61,16,28,0.051467957699783,1
61,17,28,0.0474814802030891,1
61,18,28,0.0453725129993044,1
61,19,28,0.0438236321588089,1
62,15,28,0.0535201001206178,1
62,16,28,0.0625565165990652,1
62,17,28,0.0538930026210985,1
62,18,28,0.0422283723470342,1
63,14,28,0.0440857317392722,1
63,15,28,0.0542832445201445,1
63,16,28,0.0603471192960137,1
63,17,28,0.0511324103301681,1
64,15,28,0.0448018294357696,1
64,16,28,0.0462508532908892,1
66,9,28,0.0425092846613009,1
66,10,28,0.0438386115176255,1
58,19,29,0.0431733614587353,1
59,17,29,0.0423195055657793,1
59,18,29,0.0497392083086894,1
59,19,29,0.0562942687226792,1
59,20,29,0.0486008148857704,1
60,16,29,0.0451743913119567,1
60,17,29,0.0469981613641304,1
60,18,29,0.0527998635686163,1
60,19,29,0.05661244425332,1
60,20,29,0.0474991385990086,1
61,15,29,0.0451866051259133,1
61,16,29,0.0526879495645935,1
61,17,29,0.0503130575154609,1
61,18,29,0.047404115234561,1
61,19,29,0.0450772160670511,1
62,14,29,0.0434936348024859,1
62,15,29,0.0538712621403905,1
62,16,29,0.061370846686887,1
62,17,29,0.0542645264042004,1
62,18,29,0.0435441688494736,1
63,13,29,0.041721488254366,1
63,14,29,0.0531227213316104,1
63,15,29,0.058192216473205,1
63,16,29,0.0597828616368115,1
63,17,29,0.0519387599476351,1
64,14,29,0.052169249052978,1
64,15,29,0.0531143138589666,1
64,16,29,0.0497098767722952,1
64,17,29,0.0441149983948486,1
66,10,29,0.0411526159469957,1
52,20,30,0.04322877238053,1
59,18,30,0.0431477146121204,1
59,19,30,0.047868434807365,1
59,20,30,0.0420108675153597,1
60,16,30,0.0423798285061572,1
60,17,30,0.0449710142783648,1
60,18,30,0.0482147469860049,1
60,19,30,0.0504141742700497,1
60,20,30,0.0429522746652431,1
61,15,30,0.0419990267661056,1
61,16,30,0.0481800303417307,1
61,17,30,0.0478294468425837,1
61,18,30,0.0452601718632309,1
61,19,30,0.0428213884287397,1
62,14,30,0.0432162098321775,1
62,15,30,0.0499581053745799,1
62,16,30,0.0540323666177984,1
62,17,30,0.0496251802713523,1
62,18,30,0.0418480977636274,1
63,14,30,0.0610146726239369,1
63,15,30,0.0604065501251464,1
63,16,30,0.0550773208495719,1
63,17,30,0.0483515103432567,1
64,13,30,0.0486275187490425,1
64,14,30,0.0690801368500813,1
64,15,30,0.064014518337352,1
64,16,30,0.0508666260599255,1
64,17,30,0.0432527161056768,1
65,14,30,0.0518805834809805,1
65,15,30,0.047279917129029,1
51,19,31,0.0413370477817811,1
51,20,31,0.0527773715517684,1
52,19,31,0.0486156023055009,1
52,20,31,0.0589102038235218,1
53,19,31,0.0447485271405544,1
60,17,31,0.0416195794131262,1
60,18,31,0.0428366489377669,1
60,19,31,0.0428651883875101,1
61,16,31,0.0435587994738944,1
61,17,31,0.0448319882025911,1
61,18,31,0.0435308277313073,1
61,19,31,0.0410186478716453,1
62,15,31,0.0476450339313701,1
62,16,31,0.0490191718058762,1
62,17,31,0.0463644596029104,1
62,18,31,0.0413060861148389,1
63,14,31,0.0636185020455192,1
63,15,31,0.0620170542257439,1
63,16,31,0.0532096021534203,1
63,17,31,0.046291679545509,1
64,13,31,0.051979494287763,1
64,14,31,0.0809631992108416,1
64,15,31,0.074356904577705,1
64,16,31,0.0542785839147303,1
65,14,31,0.061113686158681,1
65,15,31,0.0555458252351259,1
50,20,32,0.0490524826990974,1
51,19,32,0.0526466096701658,1
51,20,32,0.0790238683120096,1
52,19,32,0.0589484024050195,1
52,20,32,0.0828306800106612,1
53,19,32,0.0462805578919859,1
62,17,32,0.0434447173692091,1
64,14,32,0.0772445767638261,1
64,15,32,0.0739741888535274,1
51,19,33,0.0619144614325494,1
52,19,33,0.0642186604239209,1
