x,y,z,signal,cytoplasm.p
657,750,13,0.0415146509104898,1
654,749,14,0.0423565011487798,1
657,750,14,0.0471338109340095,1
654,748,15,0.0463601450285246,1
654,749,15,0.0554512884768121,1
654,750,15,0.0432945723432797,1
655,748,15,0.0460254951768898,1
655,749,15,0.0560385842330789,1
655,750,15,0.0449774185557582,1
657,750,15,0.0452337140063931,1
654,748,16,0.046841079497428,1
654,749,16,0.0607139824737014,1
654,750,16,0.0480335510820087,1
655,748,16,0.050031550460364,1
655,749,16,0.0650076706428227,1
655,750,16,0.0518998584906109,1
656,749,16,0.0460729014277846,1
656,750,16,0.0413606103321232,1
657,750,16,0.0416457020524052,1
654,748,17,0.0431902142511668,1
654,749,17,0.0568955192615144,1
654,750,17,0.0505006333665437,1
654,751,17,0.0411194050783687,1
655,748,17,0.0489862880447058,1
655,749,17,0.0636773976079048,1
655,750,17,0.055593582923784,1
655,751,17,0.0423262396539967,1
656,748,17,0.0426891505085315,1
656,749,17,0.0508382569223291,1
656,750,17,0.0460736745908637,1
657,749,17,0.0439140300616186,1
657,750,17,0.0416496057149447,1
658,744,17,0.0417007426128647,1
658,748,17,0.0412359066968856,1
658,749,17,0.046894968423371,1
659,743,17,0.0413560930051817,1
659,744,17,0.0410957100630235,1
653,749,18,0.0419038898602268,1
653,750,18,0.0417733550614867,1
654,748,18,0.0500687650161246,1
654,749,18,0.0653772480013897,1
654,750,18,0.0632351807670418,1
654,751,18,0.0508239236683234,1
655,747,18,0.04306428869386,1
655,748,18,0.06018439279816,1
655,749,18,0.076684444443291,1
655,750,18,0.0699728536495503,1
655,751,18,0.0520107019611395,1
656,747,18,0.045358828553477,1
656,748,18,0.0587764952714427,1
656,749,18,0.0685326022216749,1
656,750,18,0.059848461550373,1
656,751,18,0.0437355186014602,1
657,744,18,0.0430552188962008,1
657,745,18,0.0428147786954232,1
657,746,18,0.042602350787744,1
657,747,18,0.0438452888351272,1
657,748,18,0.0499632904332715,1
657,749,18,0.0537126772014083,1
657,750,18,0.0474063536227762,1
658,743,18,0.056086579818069,1
658,744,18,0.054426598687141,1
658,745,18,0.0435524303402774,1
658,748,18,0.043767883316088,1
658,749,18,0.0459763263304439,1
659,742,18,0.0417159247242371,1
659,743,18,0.059862189250079,1
659,744,18,0.0547043859086822,1
660,743,18,0.0446889827699905,1
653,749,19,0.0465600049811167,1
653,750,19,0.0496098089242613,1
653,751,19,0.0445084464876423,1
654,748,19,0.0562362923052129,1
654,749,19,0.0752371480399462,1
654,750,19,0.0752865818163982,1
654,751,19,0.0597199704973945,1
654,752,19,0.0471391473812761,1
655,745,19,0.0418936440977444,1
655,746,19,0.0416332908926277,1
655,747,19,0.0472825231752119,1
655,748,19,0.0693737279574991,1
655,749,19,0.0909785320619807,1
655,750,19,0.0821174559937202,1
655,751,19,0.06056494582841,1
655,752,19,0.0489007913470097,1
655,753,19,0.0431825610180302,1
656,744,19,0.0429094992827209,1
656,745,19,0.0503706933086336,1
656,746,19,0.0509476135407824,1
656,747,19,0.0524017386502039,1
656,748,19,0.0695994969833447,1
656,749,19,0.0842857134515323,1
656,750,19,0.0703940653256407,1
656,751,19,0.0501650968103984,1
656,752,19,0.0436072303010375,1
657,743,19,0.0465769659082445,1
657,744,19,0.0504987734497659,1
657,745,19,0.0530726279335105,1
657,746,19,0.0550764611787357,1
657,747,19,0.0516574529417266,1
657,748,19,0.0551459917885107,1
657,749,19,0.0603466110629407,1
657,750,19,0.0507819998465352,1
658,742,19,0.0495985250686936,1
658,743,19,0.0706398014231737,1
658,744,19,0.0635921766536845,1
658,745,19,0.0507024451504054,1
658,746,19,0.0502467114724944,1
658,747,19,0.0474328790637992,1
658,748,19,0.0463418810783053,1
658,749,19,0.0471121191139149,1
659,742,19,0.0526140178726756,1
659,743,19,0.0751163399571458,1
659,744,19,0.0625211078927342,1
660,743,19,0.0497546769770072,1
660,744,19,0.0414613648354791,1
645,718,20,0.0430908033214134,1
653,748,20,0.0418034381340208,1
653,749,20,0.0541187986806183,1
653,750,20,0.0601021725817643,1
653,751,20,0.0534487636614131,1
653,752,20,0.0453605046412709,1
654,744,20,0.0511077231789836,1
654,745,20,0.049626326499134,1
654,746,20,0.0410013057697127,1
654,747,20,0.0454114144563286,1
654,748,20,0.0686334810799317,1
654,749,20,0.0952086208094237,1
654,750,20,0.0936555146056669,1
654,751,20,0.0755655963667434,1
654,752,20,0.063902642180473,1
654,753,20,0.0503812959156141,1
655,743,20,0.0436051784451736,1
655,744,20,0.0628876196326587,1
655,745,20,0.0627055856847656,1
655,746,20,0.0496581235066058,1
655,747,20,0.0551094098207239,1
655,748,20,0.0895421248225618,1
655,749,20,0.120560075874224,1
655,750,20,0.104413197554218,1
655,751,20,0.0810110650341961,1
655,752,20,0.0725995535594179,1
655,753,20,0.0589100037743334,1
656,743,20,0.0414452554690853,1
656,744,20,0.0588030855932836,1
656,745,20,0.0647424216393272,1
656,746,20,0.0587462013362507,1
656,747,20,0.0605451355520324,1
656,748,20,0.0851815715639314,1
656,749,20,0.105764513601052,1
656,750,20,0.0842350956001549,1
656,751,20,0.0631932515385188,1
656,752,20,0.0600639469665925,1
656,753,20,0.0524659382194472,1
657,743,20,0.0502652781998635,1
657,744,20,0.0548495945857217,1
657,745,20,0.0600900885294434,1
657,746,20,0.0643253407086387,1
657,747,20,0.0595026143509275,1
657,748,20,0.0624161199160148,1
657,749,20,0.068812427782243,1
657,750,20,0.0547277646300405,1
657,751,20,0.0430940879128161,1
657,752,20,0.042049017436244,1
658,742,20,0.0562746206483462,1
658,743,20,0.0773453420806517,1
658,744,20,0.0653070631767015,1
658,745,20,0.0546001008074894,1
658,746,20,0.0582993671438521,1
658,747,20,0.0537811643113632,1
658,748,20,0.0513353683418115,1
658,749,20,0.0523517101329218,1
658,750,20,0.0453657599875152,1
659,742,20,0.0596484880563498,1
659,743,20,0.081766337227826,1
659,744,20,0.0623411122838679,1
659,746,20,0.0410871376849676,1
659,747,20,0.0422378368363352,1
659,748,20,0.0439216995149597,1
660,743,20,0.0485715049763155,1
644,718,21,0.0520761775198001,1
644,719,21,0.0496764469309081,1
645,717,21,0.0504744809902232,1
645,718,21,0.0493938639355822,1
645,719,21,0.0478260189727083,1
646,717,21,0.044817381908477,1
646,718,21,0.0462212784514281,1
646,719,21,0.0446198874023684,1
653,748,21,0.0445031992515003,1
653,749,21,0.0587056778587808,1
653,750,21,0.0671059541386046,1
653,751,21,0.062115202682917,1
653,752,21,0.0514067913087733,1
653,753,21,0.0413103033679979,1
654,743,21,0.0454635840405991,1
654,744,21,0.066542875147593,1
654,745,21,0.0600227368338005,1
654,746,21,0.0439888025008008,1
654,747,21,0.0494901524759774,1
654,748,21,0.0739431596024,1
654,749,21,0.101396477421432,1
654,750,21,0.101271917064667,1
654,751,21,0.0876712756269498,1
654,752,21,0.076845667868865,1
654,753,21,0.055710692799968,1
655,743,21,0.0565364796291101,1
655,744,21,0.0887611111644576,1
655,745,21,0.0809284230924845,1
655,746,21,0.0554394747612321,1
655,747,21,0.0643124564595645,1
655,748,21,0.103804485721332,1
655,749,21,0.134967996887797,1
655,750,21,0.120583919574776,1
655,751,21,0.104065836469023,1
655,752,21,0.0972656887656788,1
655,753,21,0.0704869097759562,1
655,754,21,0.0443225791647624,1
656,743,21,0.048426864006432,1
656,744,21,0.0727449298452368,1
656,745,21,0.0732403922105993,1
656,746,21,0.0612588029212285,1
656,747,21,0.0698642323470324,1
656,748,21,0.0979800049430532,1
656,749,21,0.115685450268983,1
656,750,21,0.0943785248126307,1
656,751,21,0.078561511383945,1
656,752,21,0.0771385777276956,1
656,753,21,0.0603002266849267,1
656,754,21,0.0422463632571451,1
657,743,21,0.0498992422526032,1
657,744,21,0.0549007585173159,1
657,745,21,0.0616541379644742,1
657,746,21,0.0665360842886601,1
657,747,21,0.0669575933351656,1
657,748,21,0.072459021707997,1
657,749,21,0.0773324037642293,1
657,750,21,0.0614674271909625,1
657,751,21,0.0509822761177083,1
657,752,21,0.0502601904623987,1
657,753,21,0.0457902535516408,1
658,742,21,0.0553802602014921,1
658,743,21,0.0720541491845303,1
658,744,21,0.0595160554936881,1
658,745,21,0.0555277397071557,1
658,746,21,0.0611678237944257,1
658,747,21,0.0599464694324408,1
658,748,21,0.0592373923811061,1
658,749,21,0.06040091090073,1
658,750,21,0.0497418359818116,1
659,742,21,0.0584047498122133,1
659,743,21,0.074875502361359,1
659,744,21,0.0550971419394191,1
659,746,21,0.0424492672014403,1
659,747,21,0.045446093253459,1
659,748,21,0.0469703220865463,1
659,749,21,0.0474116630363686,1
660,743,21,0.043313958190974,1
644,718,22,0.0538116528890087,1
644,719,22,0.0516766144099258,1
645,717,22,0.0522366710361735,1
645,718,22,0.0547184326057425,1
645,719,22,0.0550455346555698,1
645,720,22,0.0445447040513399,1
646,717,22,0.0486175054761573,1
646,718,22,0.0560528688264712,1
646,719,22,0.0571897699905802,1
646,720,22,0.0418010943144766,1
647,717,22,0.0421665301141721,1
647,718,22,0.0442959834361867,1
647,719,22,0.0425898963740879,1
652,750,22,0.0447285276284582,1
652,751,22,0.0448061304933183,1
653,748,22,0.0464675390022386,1
653,749,22,0.0596520619080653,1
653,750,22,0.0718696173251507,1
653,751,22,0.0707026925625907,1
653,752,22,0.0576016442356378,1
653,753,22,0.0445822376044549,1
654,743,22,0.0442578983961202,1
654,744,22,0.0685407285441082,1
654,745,22,0.0598379887050282,1
654,746,22,0.0448985586250526,1
654,747,22,0.054205355098339,1
654,748,22,0.0775746741447432,1
654,749,22,0.0978702914801019,1
654,750,22,0.103450085067403,1
654,751,22,0.0998746978392179,1
654,752,22,0.0869868857267997,1
654,753,22,0.0590490920275576,1
654,754,22,0.0433754354692358,1
655,743,22,0.0606510264534666,1
655,744,22,0.100392717102246,1
655,745,22,0.0875678501965932,1
655,746,22,0.0610437878909383,1
655,747,22,0.0774656635573183,1
655,748,22,0.117449592146203,1
655,749,22,0.135078229397291,1
655,750,22,0.125855031857779,1
655,751,22,0.120896450474266,1
655,752,22,0.112238018827029,1
655,753,22,0.076377671716384,1
655,754,22,0.0490446104932006,1
656,743,22,0.0492524183459769,1
656,744,22,0.0772242961015193,1
656,745,22,0.0727743532961229,1
656,746,22,0.0634851827783471,1
656,747,22,0.0839671810763935,1
656,748,22,0.114531242146718,1
656,749,22,0.118649530431569,1
656,750,22,0.0972221321099752,1
656,751,22,0.0878906214518303,1
656,752,22,0.0861083886399052,1
656,753,22,0.064188961229559,1
656,754,22,0.0465378265548883,1
657,743,22,0.0455356882561481,1
657,744,22,0.051536471843412,1
657,745,22,0.0570687888922656,1
657,746,22,0.0648302810801393,1
657,747,22,0.0759975241912455,1
657,748,22,0.088989697099144,1
657,749,22,0.0883499722353354,1
657,750,22,0.0687346897490125,1
657,751,22,0.0579529630507203,1
657,752,22,0.0575683765962952,1
657,753,22,0.0491374765704553,1
658,742,22,0.0480135894170562,1
658,743,22,0.0590234370708404,1
658,744,22,0.050340626456304,1
658,745,22,0.0512775649398594,1
658,746,22,0.0593975344597162,1
658,747,22,0.0655922576249451,1
658,748,22,0.0703696863583409,1
658,749,22,0.0697035982555538,1
658,750,22,0.0542297610993129,1
658,751,22,0.0466840462913389,1
658,752,22,0.0479175171460537,1
659,742,22,0.048726370081742,1
659,743,22,0.0585712556177056,1
659,744,22,0.0444091463959528,1
659,746,22,0.0418856232066401,1
659,747,22,0.0480352650169464,1
659,748,22,0.0504385153902058,1
659,749,22,0.0489868070912485,1
665,717,22,0.0428781456275043,1
666,717,22,0.0436285923103082,1
644,719,23,0.0541693408377082,1
645,718,23,0.0588471396685905,1
645,719,23,0.0611075765483353,1
645,720,23,0.0489954254265503,1
646,717,23,0.0539079089889951,1
646,718,23,0.0646099025689084,1
646,719,23,0.0687608529388026,1
646,720,23,0.0495167644247576,1
647,717,23,0.0473548869140321,1
647,718,23,0.0516520624271118,1
647,719,23,0.0516890336798056,1
652,749,23,0.0437563940045972,1
652,750,23,0.0486014366602746,1
652,751,23,0.0483915093674492,1
652,752,23,0.0426516466924581,1
653,748,23,0.0506254856869888,1
653,749,23,0.05947323415392,1
653,750,23,0.072808112948334,1
653,751,23,0.0755164275202975,1
653,752,23,0.0637524430871954,1
653,753,23,0.0487542093593261,1
653,754,23,0.0424884984692885,1
654,744,23,0.0648869815081883,1
654,745,23,0.0588273077652737,1
654,746,23,0.0492681627577704,1
654,747,23,0.0603985860047578,1
654,748,23,0.0798874103703942,1
654,749,23,0.0895848164006942,1
654,750,23,0.101458914395124,1
654,751,23,0.107248446039532,1
654,752,23,0.0935502887326155,1
654,753,23,0.0635443540842086,1
654,754,23,0.0482188885448764,1
655,743,23,0.0610219987496169,1
655,744,23,0.0973350247330003,1
655,745,23,0.0873634539934879,1
655,746,23,0.06880967575422,1
655,747,23,0.0899638933923385,1
655,748,23,0.124139128868616,1
655,749,23,0.125580239967328,1
655,750,23,0.120835148914886,1
655,751,23,0.122646837618106,1
655,752,23,0.112128424312244,1
655,753,23,0.077839647404763,1
655,754,23,0.055687724990456,1
655,755,23,0.044421027695718,1
656,743,23,0.0504937343729144,1
656,744,23,0.0758442486658557,1
656,745,23,0.0718668220432492,1
656,746,23,0.068899276163644,1
656,747,23,0.0975911309479165,1
656,748,23,0.127934635084761,1
656,749,23,0.119807544895147,1
656,750,23,0.0977840648732052,1
656,751,23,0.0902992893733785,1
656,752,23,0.0867666477906741,1
656,753,23,0.0666347301654366,1
656,754,23,0.0525352579665642,1
656,755,23,0.0424883092335698,1
657,743,23,0.0431751619014301,1
657,744,23,0.0502071612072919,1
657,745,23,0.0542849530483474,1
657,746,23,0.064269408036934,1
657,747,23,0.084790442960375,1
657,748,23,0.104364417992679,1
657,749,23,0.098236662644921,1
657,750,23,0.0753130802237471,1
657,751,23,0.0627029580116434,1
657,752,23,0.062581165903106,1
657,753,23,0.0517467722009399,1
657,754,23,0.041413474681818,1
658,743,23,0.0461680599606026,1
658,744,23,0.043932591382253,1
658,745,23,0.047418113271008,1
658,746,23,0.0577993469010369,1
658,747,23,0.0705143111080199,1
658,748,23,0.0799882676017117,1
658,749,23,0.0750714370244723,1
658,750,23,0.0574794249950496,1
658,751,23,0.0503758891807949,1
658,752,23,0.0544973458122503,1
658,753,23,0.0451789572995116,1
659,743,23,0.0426175058654422,1
659,746,23,0.0428612441744595,1
659,747,23,0.050883776222772,1
659,748,23,0.0543654917702143,1
659,749,23,0.0495287403423821,1
665,716,23,0.0428722468798166,1
665,717,23,0.0463994790243344,1
665,718,23,0.0417102043987983,1
666,716,23,0.0451375065670201,1
666,717,23,0.0497756010407575,1
666,718,23,0.0458626551376049,1
645,718,24,0.0611368269837072,1
645,719,24,0.0635676300776052,1
645,720,24,0.052559788322439,1
646,717,24,0.0578230824668933,1
646,718,24,0.0677437650182873,1
646,719,24,0.0720052831152343,1
646,720,24,0.0536850271595429,1
647,717,24,0.0524301348214744,1
647,718,24,0.056753181560664,1
647,719,24,0.0565560790428297,1
647,741,24,0.0412054478562816,1
648,718,24,0.0437939816250603,1
651,755,24,0.0470709630484711,1
652,749,24,0.044484697404949,1
652,750,24,0.0483757487354512,1
652,751,24,0.0491961017961,1
652,752,24,0.044940490556943,1
652,753,24,0.0424673797630847,1
653,748,24,0.0503183561155837,1
653,749,24,0.05557366451271,1
653,750,24,0.066952375836065,1
653,751,24,0.0768449217394599,1
653,752,24,0.070827512442627,1
653,753,24,0.0554813823628158,1
653,754,24,0.0473905172964907,1
653,755,24,0.0447835952225918,1
653,756,24,0.0439898216703143,1
654,747,24,0.0626858024420621,1
654,748,24,0.07516301629884,1
654,749,24,0.079248091011697,1
654,750,24,0.0924500506373156,1
654,751,24,0.109848674575725,1
654,752,24,0.101494998943308,1
654,753,24,0.0722003797344506,1
654,754,24,0.053953368815355,1
654,755,24,0.0468256865233977,1
654,756,24,0.044049266016284,1
655,743,24,0.0538969765711906,1
655,744,24,0.0775350481852533,1
655,745,24,0.0751550467717165,1
655,746,24,0.0684157140216185,1
655,747,24,0.0917340367452079,1
655,748,24,0.116803314319793,1
655,749,24,0.111966189827259,1
655,750,24,0.105872442841513,1
655,751,24,0.113301729021891,1
655,752,24,0.105440433915989,1
655,753,24,0.0786016780169169,1
655,754,24,0.0613289228650989,1
655,755,24,0.0515555305836497,1
655,756,24,0.0439678784370505,1
656,743,24,0.048832028493579,1
656,744,24,0.0649478613422526,1
656,745,24,0.0642921001029702,1
656,746,24,0.0677694037548,1
656,747,24,0.101095214157306,1
656,748,24,0.128923440375437,1
656,749,24,0.117255868837631,1
656,750,24,0.0921156116483387,1
656,751,24,0.0852832938728199,1
656,752,24,0.0803440631932245,1
656,753,24,0.0656383878864226,1
656,754,24,0.055732882039666,1
656,755,24,0.0469038949425576,1
657,743,24,0.0413121822083475,1
657,744,24,0.0468319258953791,1
657,745,24,0.0494925152190934,1
657,746,24,0.0606144228587405,1
657,747,24,0.0886183733652305,1
657,748,24,0.110450163010892,1
657,749,24,0.10077450827477,1
657,750,24,0.0752529627392924,1
657,751,24,0.0648224521281211,1
657,752,24,0.0633101667722494,1
657,753,24,0.0520732957301415,1
657,754,24,0.0417512198891368,1
658,745,24,0.0429983373425353,1
658,746,24,0.0542091884733258,1
658,747,24,0.0718833396181219,1
658,748,24,0.0824266130906825,1
658,749,24,0.0732780933724937,1
658,750,24,0.05537449121544,1
658,751,24,0.0516613457907964,1
658,752,24,0.0556424760267541,1
658,753,24,0.0457629982014172,1
659,746,24,0.0419130596824802,1
659,747,24,0.0502717770951162,1
659,748,24,0.053259522536006,1
659,749,24,0.0467636442413473,1
659,752,24,0.043936446384179,1
660,713,24,0.0429728364777605,1
661,712,24,0.0423978302297378,1
661,713,24,0.0422946886529592,1
662,712,24,0.0412446304635163,1
662,713,24,0.0410287098051439,1
665,716,24,0.0448349646101091,1
665,717,24,0.0461006541976116,1
665,718,24,0.0421844101862192,1
666,716,24,0.0506187002347907,1
666,717,24,0.0537889608229725,1
666,718,24,0.0515498264784154,1
666,719,24,0.0477972605502049,1
667,715,24,0.0410744778153885,1
667,716,24,0.0432258635571972,1
667,717,24,0.0448705328151173,1
667,718,24,0.0454205302112338,1
667,719,24,0.0449222076831518,1
643,740,25,0.0439437211458783,1
644,741,25,0.0486319360513898,1
645,719,25,0.0617012738786281,1
645,720,25,0.0542449864645638,1
646,718,25,0.0651528306592488,1
646,719,25,0.066291786382589,1
646,720,25,0.0538309981861919,1
646,741,25,0.05276072421526,1
647,717,25,0.0570439936063847,1
647,718,25,0.0586753622966495,1
647,719,25,0.0565402751569532,1
647,720,25,0.0439884645798746,1
647,740,25,0.0466492809864514,1
647,741,25,0.0409941986167929,1
648,717,25,0.0526374668815865,1
648,718,25,0.05033566307374,1
648,719,25,0.0448765234772969,1
649,717,25,0.0492166960490264,1
649,718,25,0.0463610101060957,1
650,718,25,0.0440685842797931,1
650,755,25,0.0763815213115752,1
650,756,25,0.07032889254413,1
651,717,25,0.0452392964600939,1
651,754,25,0.064302810844647,1
651,755,25,0.0886729867936393,1
651,756,25,0.0798229729048189,1
652,750,25,0.0460318102431586,1
652,751,25,0.0473101407766684,1
652,752,25,0.0451082101744022,1
652,753,25,0.0444064916891565,1
652,754,25,0.0568295570967201,1
652,755,25,0.0704725440815415,1
652,756,25,0.0644687705699226,1
653,749,25,0.0497688804693772,1
653,750,25,0.0565630861711554,1
653,751,25,0.0698626752074045,1
653,752,25,0.0708652730786043,1
653,753,25,0.0584514045269682,1
653,754,25,0.0502580061415317,1
653,755,25,0.0505549656447419,1
653,756,25,0.0501538616154441,1
653,757,25,0.0440193586626316,1
654,747,25,0.0586287075818945,1
654,748,25,0.0637979461674339,1
654,749,25,0.0652316716663825,1
654,750,25,0.0750505345876612,1
654,751,25,0.0980170627035041,1
654,752,25,0.0984753808006587,1
654,753,25,0.0755073874596798,1
654,754,25,0.0565910443969056,1
654,755,25,0.0512718229874814,1
654,756,25,0.0517225284020105,1
654,757,25,0.0468113316424527,1
655,743,25,0.043189324843289,1
655,744,25,0.0540533014950184,1
655,746,25,0.0622040028955876,1
655,747,25,0.0804001310332997,1
655,748,25,0.0943725557773903,1
655,749,25,0.0897332366782163,1
655,750,25,0.0831742563814826,1
655,751,25,0.0939506682594475,1
655,752,25,0.0914483773177699,1
655,753,25,0.0742386971343527,1
655,754,25,0.0613061767317144,1
655,755,25,0.0541532720218256,1
655,756,25,0.0499997372326878,1
655,757,25,0.0433725644930468,1
656,743,25,0.0441025629047644,1
656,744,25,0.0506531519490587,1
656,746,25,0.062082005331127,1
656,747,25,0.0898951413523775,1
656,748,25,0.109760793507973,1
656,749,25,0.099977241971799,1
656,750,25,0.0789967102830127,1
656,751,25,0.0757790542574057,1
656,752,25,0.0721070108308577,1
656,753,25,0.062953251986629,1
656,754,25,0.0556833617554569,1
656,755,25,0.0474795770324327,1
657,746,25,0.055663951577456,1
657,747,25,0.0822088135919604,1
657,748,25,0.0992160277766027,1
657,749,25,0.0884049587284467,1
657,750,25,0.0676369063113205,1
657,751,25,0.0629672121759322,1
657,752,25,0.0610650147318385,1
657,753,25,0.0516977601498038,1
657,754,25,0.0419723688600795,1
658,746,25,0.0479687892123443,1
658,747,25,0.0655563298720715,1
658,748,25,0.0742739977059873,1
658,749,25,0.0645083911226778,1
658,750,25,0.0506820887938111,1
658,751,25,0.0497744872533848,1
658,752,25,0.0515872248631599,1
658,753,25,0.043920731709427,1
659,747,25,0.045566014631749,1
659,748,25,0.0481872753663885,1
659,749,25,0.0431085482250901,1
659,752,25,0.0410687845236238,1
660,713,25,0.0449175632979421,1
661,712,25,0.0449682757671789,1
661,713,25,0.0437812271376218,1
662,712,25,0.0435639547955445,1
662,713,25,0.0424669823680755,1
663,721,25,0.0426094146867853,1
664,720,25,0.0427076091012043,1
664,721,25,0.0471742695306617,1
665,716,25,0.0445691478994576,1
665,717,25,0.0457202741828758,1
665,718,25,0.0448491410688051,1
665,719,25,0.0450250329659435,1
665,720,25,0.0443143176739587,1
665,721,25,0.0419088613528931,1
666,716,25,0.049998715359807,1
666,717,25,0.0535630728489608,1
666,718,25,0.0563597821284836,1
666,719,25,0.0557699830539955,1
666,720,25,0.0468018914834584,1
667,715,25,0.0442874164648657,1
667,716,25,0.0460442511399776,1
667,717,25,0.0506574557099748,1
667,718,25,0.0560186874489442,1
667,719,25,0.0569898073100266,1
667,720,25,0.047053499295005,1
668,718,25,0.0437166382834716,1
668,719,25,0.0446083791673057,1
668,734,25,0.0644241920413383,1
668,735,25,0.0737034195737815,1
668,736,25,0.0591708300687468,1
638,731,26,0.0419322887348647,1
640,728,26,0.0424711888077648,1
644,738,26,0.0411157041683849,1
644,740,26,0.0524498748102993,1
644,741,26,0.0420050390552246,1
645,720,26,0.0559984987011293,1
645,722,26,0.0435714187929625,1
645,741,26,0.0481900868684945,1
646,719,26,0.061417468961233,1
646,720,26,0.0538332149474677,1
646,721,26,0.0443502778672412,1
646,738,26,0.0466107309671905,1
646,740,26,0.0549326690662188,1
646,741,26,0.0433502265681413,1
647,718,26,0.0600832706368364,1
647,719,26,0.0565703528227524,1
647,720,26,0.0467981554296983,1
648,717,26,0.057864898153985,1
648,718,26,0.057814237048729,1
648,719,26,0.0540682619302632,1
648,720,26,0.0434943863386258,1
649,717,26,0.0554537917950334,1
649,718,26,0.0598496834724421,1
649,719,26,0.0588368236185555,1
649,720,26,0.0470553429915784,1
649,755,26,0.0613906191161208,1
649,756,26,0.0582157087359945,1
650,717,26,0.053775368291637,1
650,718,26,0.058939832730331,1
650,719,26,0.0584294477768674,1
650,720,26,0.0463383721074077,1
650,754,26,0.0760534406427457,1
650,755,26,0.129805473466903,1
650,756,26,0.116807228795803,1
650,757,26,0.0626680196912417,1
651,717,26,0.0514551221113222,1
651,718,26,0.0510164196480916,1
651,719,26,0.0467305333973145,1
651,754,26,0.090177946023831,1
651,755,26,0.151504408824587,1
651,756,26,0.133773811368278,1
651,757,26,0.0694268707540371,1
652,717,26,0.0466673124470735,1
652,751,26,0.0444926155680917,1
652,752,26,0.0425665717200779,1
652,753,26,0.0427917703354001,1
652,754,26,0.0672252429289208,1
652,755,26,0.0992477653099915,1
652,756,26,0.0877205201676832,1
652,757,26,0.0524352495926133,1
653,716,26,0.0456887961727584,1
653,717,26,0.0417066954279007,1
653,746,26,0.0417937979258381,1
653,750,26,0.0499421122529847,1
653,751,26,0.0599396515398338,1
653,752,26,0.0645291800180576,1
653,753,26,0.0547627732379949,1
653,754,26,0.0494497371332039,1
653,755,26,0.0530877776044739,1
653,756,26,0.0517550445052133,1
653,757,26,0.0432484096413933,1
654,716,26,0.043361702362795,1
654,745,26,0.0415597511889842,1
654,746,26,0.0479427611909246,1
654,747,26,0.0514815880782622,1
654,750,26,0.0611033160412978,1
654,751,26,0.0806481758066005,1
654,752,26,0.0872433704131533,1
654,753,26,0.0704306202597534,1
654,754,26,0.0558003040228616,1
654,755,26,0.0536738784723457,1
654,756,26,0.0558742951888624,1
654,757,26,0.0499921515837364,1
655,745,26,0.0428676079013417,1
655,746,26,0.0526348446151992,1
655,747,26,0.0644472031047288,1
655,748,26,0.0715796757637359,1
655,749,26,0.0689047099321373,1
655,750,26,0.0673046570499453,1
655,751,26,0.0783952272545803,1
655,752,26,0.0800116841702137,1
655,753,26,0.06715453905769,1
655,754,26,0.0583687301448477,1
655,755,26,0.0546776658252057,1
655,756,26,0.0536576798948273,1
655,757,26,0.0473375691424062,1
656,745,26,0.0412692473271482,1
656,746,26,0.053316314878547,1
656,747,26,0.0731407623080858,1
656,748,26,0.0854528544834851,1
656,749,26,0.0786930031747482,1
656,750,26,0.0687422808046986,1
656,751,26,0.0703552503763736,1
656,752,26,0.0683634849632649,1
656,753,26,0.0593715767258492,1
656,754,26,0.0530847065790966,1
656,755,26,0.0459902216389293,1
657,746,26,0.0504715451332163,1
657,747,26,0.0719357957593378,1
657,748,26,0.0825135263529013,1
657,749,26,0.0719183590395459,1
657,750,26,0.0597641381141326,1
657,751,26,0.0603139219442238,1
657,752,26,0.0592997104066323,1
657,753,26,0.0504611263552197,1
657,754,26,0.0417029404505687,1
658,746,26,0.0424381563613868,1
658,747,26,0.0572230430366576,1
658,748,26,0.0628713453608528,1
658,749,26,0.0542254248979879,1
658,750,26,0.0461692332220584,1
658,751,26,0.0472548623198768,1
658,752,26,0.0480642180819033,1
658,753,26,0.0417796485008162,1
659,748,26,0.0421942531469576,1
660,713,26,0.0462664300939033,1
660,714,26,0.0411694552225901,1
661,712,26,0.048872460056557,1
661,713,26,0.0453067968409443,1
661,714,26,0.0422674522263074,1
662,712,26,0.0469517499524424,1
662,713,26,0.0438354756114303,1
662,714,26,0.0424363964692032,1
662,715,26,0.0428665292577453,1
662,716,26,0.0418311719802759,1
663,713,26,0.0430347219645012,1
663,714,26,0.0410312617839785,1
663,721,26,0.0471859372644015,1
664,714,26,0.0422158665693973,1
664,720,26,0.0484080323490567,1
664,721,26,0.0528589105195768,1
664,722,26,0.0413695638849838,1
665,716,26,0.0429832092985112,1
665,717,26,0.0465801396615834,1
665,718,26,0.0527602862697397,1
665,719,26,0.0557114605563124,1
665,720,26,0.0516025745833116,1
665,721,26,0.0443795985901658,1
666,716,26,0.0461878377965713,1
666,717,26,0.054689441693642,1
666,718,26,0.0706605903185536,1
666,719,26,0.074481043209154,1
666,720,26,0.0564818337602924,1
667,716,26,0.0448924895652181,1
667,717,26,0.0550552018974265,1
667,718,26,0.071419079519401,1
667,719,26,0.0751029582884682,1
667,720,26,0.056029338716538,1
668,717,26,0.0427726250874053,1
668,718,26,0.0494983058320848,1
668,719,26,0.0510290822210382,1
668,734,26,0.0473023010111805,1
668,735,26,0.052038768321586,1
668,736,26,0.0467672775671458,1
669,734,26,0.065469438236792,1
669,735,26,0.0715325290361124,1
669,736,26,0.0589402274219728,1
637,731,27,0.0510549210067392,1
638,730,27,0.0479343699384852,1
638,731,27,0.0451472062492858,1
639,728,27,0.0472713744880147,1
640,727,27,0.0483996843504959,1
640,728,27,0.0447936328257837,1
641,727,27,0.0465965815421686,1
641,728,27,0.0427546828379077,1
642,727,27,0.0416229802493275,1
644,723,27,0.0456945705655453,1
645,722,27,0.0464792337696525,1
645,738,27,0.0420666001378761,1
645,740,27,0.0457525469830117,1
646,720,27,0.0563482820035231,1
646,721,27,0.0492928336887505,1
646,739,27,0.042144716642544,1
647,718,27,0.0611920784068247,1
647,719,27,0.0573458624248107,1
647,720,27,0.0505978194249189,1
647,721,27,0.0418828982122912,1
648,717,27,0.0614119919388612,1
648,718,27,0.0642094311275845,1
648,719,27,0.062204949074181,1
648,720,27,0.0512136248938874,1
649,717,27,0.0605994516100261,1
649,718,27,0.0728816445418752,1
649,719,27,0.075608433926716,1
649,720,27,0.0598073757724818,1
649,755,27,0.0714883668261091,1
649,756,27,0.0707981160254149,1
650,717,27,0.0598277753829547,1
650,718,27,0.0746180282425335,1
650,719,27,0.0781811205557397,1
650,720,27,0.0607742783804052,1
650,754,27,0.0837391141882497,1
650,755,27,0.163235531123458,1
650,756,27,0.155800027198039,1
650,757,27,0.0841554652097376,1
651,717,27,0.0555036959574147,1
651,718,27,0.0611095229728702,1
651,719,27,0.0592851392562945,1
651,720,27,0.0452936071113529,1
651,748,27,0.0440994324053041,1
651,754,27,0.101325887091633,1
651,755,27,0.192615576742459,1
651,756,27,0.180781272316298,1
651,757,27,0.0957025584755672,1
652,716,27,0.0508852792950517,1
652,717,27,0.0499801972930512,1
652,718,27,0.0459177930192911,1
652,754,27,0.0678427244856833,1
652,755,27,0.112949209911678,1
652,756,27,0.105039189311586,1
652,757,27,0.0628177051447115,1
653,716,27,0.049689725871624,1
653,717,27,0.0463928071135675,1
653,751,27,0.0487934676608484,1
653,752,27,0.053033704849547,1
653,753,27,0.0481318022671434,1
653,754,27,0.0473543354270806,1
653,755,27,0.0537531844586738,1
653,756,27,0.052692210071631,1
653,757,27,0.0443555872808337,1
654,716,27,0.0484215924399833,1
654,717,27,0.0439206019477914,1
654,747,27,0.0422877301852468,1
654,748,27,0.0430939527444456,1
654,750,27,0.0493922959824846,1
654,751,27,0.061559730967796,1
654,752,27,0.0674939900898444,1
654,753,27,0.0578447526600486,1
654,754,27,0.0505041423374413,1
654,755,27,0.0515508591647659,1
654,756,27,0.0541095639775471,1
654,757,27,0.0487143238765649,1
655,715,27,0.0477659879960106,1
655,716,27,0.0441382608714082,1
655,746,27,0.0426973633387219,1
655,747,27,0.048663089657418,1
655,748,27,0.0514227628034292,1
655,749,27,0.0511872508414393,1
655,750,27,0.0551778104229217,1
655,751,27,0.0650729083051513,1
655,752,27,0.0663305364510383,1
655,753,27,0.0562668403569414,1
655,754,27,0.0508012802629005,1
655,755,27,0.0504696635894992,1
655,756,27,0.0516151776821752,1
655,757,27,0.0462044202522618,1
656,715,27,0.0434436387256127,1
656,746,27,0.043791794600826,1
656,747,27,0.0544045500225482,1
656,748,27,0.0597135581098989,1
656,749,27,0.05756060711836,1
656,750,27,0.0588538656467056,1
656,751,27,0.0649005253789105,1
656,752,27,0.0623731904415503,1
656,753,27,0.0524398453172097,1
656,754,27,0.04569024517769,1
657,715,27,0.0410295965096542,1
657,746,27,0.0431313430190879,1
657,747,27,0.0558674827029902,1
657,748,27,0.0604960802470177,1
657,749,27,0.0545966675308792,1
657,750,27,0.0516131285296787,1
657,751,27,0.0553305236478902,1
657,752,27,0.0537739895742581,1
657,753,27,0.0463708017028533,1
658,747,27,0.0456344314541513,1
658,748,27,0.0488918864547625,1
658,750,27,0.0421909523353504,1
658,751,27,0.0442154744513613,1
658,752,27,0.043861100831106,1
660,714,27,0.0425319253633564,1
661,713,27,0.0471856777411302,1
661,714,27,0.0438367245671736,1
661,715,27,0.0417353132752987,1
662,713,27,0.0455581694595264,1
662,714,27,0.0439372573944019,1
662,715,27,0.043954899570117,1
663,713,27,0.044621752725881,1
663,714,27,0.0421517021439304,1
663,715,27,0.0415650119419633,1
663,721,27,0.0447024644632622,1
664,714,27,0.0431076615205797,1
664,715,27,0.0413287592573032,1
664,716,27,0.0411117788789062,1
664,717,27,0.0422557601622609,1
664,719,27,0.0421809255456282,1
664,720,27,0.0480245272415955,1
664,721,27,0.051097153012412,1
665,716,27,0.041068825074135,1
665,717,27,0.0470291906152579,1
665,718,27,0.0569224610211185,1
665,719,27,0.0603325643658804,1
665,720,27,0.0503965375010695,1
665,721,27,0.0430182016862611,1
666,716,27,0.042497154651734,1
666,717,27,0.0552385388684111,1
666,718,27,0.0786232292619063,1
666,719,27,0.0843266532475834,1
666,720,27,0.0580043594719117,1
667,716,27,0.0413874439570309,1
667,717,27,0.0537144019498156,1
667,718,27,0.0748438459289925,1
667,719,27,0.0799173961217015,1
667,720,27,0.0550106504025163,1
668,717,27,0.0420727611122026,1
668,718,27,0.0493889005530181,1
668,719,27,0.051439426360142,1
669,734,27,0.0443237740531575,1
669,735,27,0.0454972571850532,1
669,736,27,0.0423061157869996,1
636,731,28,0.0601584404710278,1
637,730,28,0.0544766866785061,1
637,731,28,0.0572889511341037,1
637,732,28,0.0544991732886192,1
638,730,28,0.0490113536673277,1
638,731,28,0.049870656845614,1
638,732,28,0.0456048403944858,1
639,728,28,0.0470356246296927,1
639,729,28,0.0427763476243283,1
640,727,28,0.0502640887182033,1
640,728,28,0.0484992872193353,1
640,729,28,0.0420641995476163,1
641,726,28,0.0495923884246738,1
641,727,28,0.0490175876325742,1
641,728,28,0.0481127813740494,1
641,729,28,0.0414544469182779,1
642,726,28,0.0445398542102071,1
642,727,28,0.0422725669974464,1
643,724,28,0.0472926067356497,1
643,725,28,0.0438803515104298,1
644,722,28,0.052529342998672,1
644,723,28,0.0465012121466926,1
644,724,28,0.0413014092892203,1
645,721,28,0.0571458889307875,1
645,722,28,0.0491409585076789,1
645,723,28,0.0409967100451164,1
646,720,28,0.0578685314797835,1
646,721,28,0.0535369799467233,1
646,722,28,0.0438986235707513,1
647,719,28,0.0569953438064815,1
647,720,28,0.052926970497481,1
647,721,28,0.0459127971963182,1
648,718,28,0.0663716600760732,1
648,719,28,0.0654630204425616,1
648,720,28,0.0548794397619237,1
649,717,28,0.0633688568787119,1
649,718,28,0.079394629745502,1
649,719,28,0.084461989226843,1
649,720,28,0.0658204813083987,1
649,755,28,0.0675168713915992,1
649,756,28,0.0727661026187888,1
650,717,28,0.0630503028766338,1
650,718,28,0.0829035627960241,1
650,719,28,0.0892440407185092,1
650,720,28,0.0677762757147552,1
650,747,28,0.0441007002846192,1
650,748,28,0.0512212429832477,1
650,754,28,0.0755676347057702,1
650,755,28,0.155849898920011,1
650,756,28,0.164248126047339,1
650,757,28,0.0940533854075428,1
651,717,28,0.0569835409043711,1
651,718,28,0.0655984537430479,1
651,719,28,0.0657713394956269,1
651,720,28,0.0499630741638787,1
651,747,28,0.0453325788559297,1
651,748,28,0.05524769247046,1
651,749,28,0.0502716094863368,1
651,754,28,0.0937197466153191,1
651,755,28,0.188493287473841,1
651,756,28,0.195791709044654,1
651,757,28,0.111062227019366,1
651,758,28,0.0541374789494187,1
652,717,28,0.0511270090020837,1
652,718,28,0.0479161438354097,1
652,719,28,0.0415156187160225,1
652,748,28,0.0439535478864122,1
652,749,28,0.0428139893121396,1
652,754,28,0.0608987684496175,1
652,755,28,0.106530009930225,1
652,756,28,0.109138186366602,1
652,757,28,0.0691755711263751,1
653,716,28,0.0528732437735826,1
653,717,28,0.0492728720237979,1
653,752,28,0.0426698322450225,1
653,753,28,0.0412757921796469,1
653,754,28,0.0445856411440236,1
653,755,28,0.0523257848394637,1
653,756,28,0.0525841564762691,1
653,757,28,0.0451735586747946,1
654,716,28,0.0523172043513056,1
654,717,28,0.0490174524642037,1
654,751,28,0.0472335273442802,1
654,752,28,0.0501785217329545,1
654,753,28,0.0463568955808983,1
654,754,28,0.0450928685643527,1
654,755,28,0.0478148702855111,1
654,756,28,0.0496868494887002,1
654,757,28,0.0460095399024383,1
655,715,28,0.0509418445547303,1
655,716,28,0.0481069150667706,1
655,717,28,0.0451991027934479,1
655,750,28,0.0463922718468204,1
655,751,28,0.0545704340535364,1
655,752,28,0.0538938082245866,1
655,753,28,0.0464494102203898,1
655,754,28,0.0434468503260953,1
655,755,28,0.0449297230445505,1
655,756,28,0.0467705162013025,1
655,757,28,0.0433006305896447,1
656,715,28,0.0463377503329035,1
656,716,28,0.0426185547719971,1
656,748,28,0.0419625231959737,1
656,749,28,0.0434786851807108,1
656,750,28,0.0505488560343962,1
656,751,28,0.0573939985849061,1
656,752,28,0.0537676150339063,1
656,753,28,0.0443992899183773,1
657,715,28,0.0431235681344178,1
657,747,28,0.0411663274264972,1
657,748,28,0.0430870104969378,1
657,749,28,0.0424939971185996,1
657,750,28,0.0452168233668179,1
657,751,28,0.0492373605895054,1
657,752,28,0.0473040257595879,1
657,753,28,0.0418976288613062,1
659,714,28,0.0425062244493933,1
660,714,28,0.0435176380017158,1
661,713,28,0.049031082842683,1
661,714,28,0.0450532993755784,1
661,715,28,0.0422080889813599,1
662,713,28,0.0474593558442089,1
662,714,28,0.0449697139586408,1
662,715,28,0.0435128287110941,1
663,714,28,0.0424950189914805,1
663,715,28,0.0412429084184764,1
664,717,28,0.0426236398060946,1
664,718,28,0.044433647014786,1
664,719,28,0.0457841817884389,1
664,720,28,0.0449035166008818,1
664,721,28,0.0426684886714199,1
665,716,28,0.0427798836289001,1
665,717,28,0.0491371251326921,1
665,718,28,0.0598466502942086,1
665,719,28,0.0612073308057497,1
665,720,28,0.0461773433242872,1
666,716,28,0.0466250155605828,1
666,717,28,0.0589655093139874,1
666,718,28,0.079852396355705,1
666,719,28,0.0814471398243045,1
666,720,28,0.0523817391381076,1
667,717,28,0.0531470029776835,1
667,718,28,0.0695709115763556,1
667,719,28,0.0713274840248288,1
668,718,28,0.0451983215202666,1
636,731,29,0.0649392213800115,1
636,732,29,0.0619811426930747,1
637,730,29,0.0586758705297225,1
637,731,29,0.0644912950271794,1
637,732,29,0.0616901089712264,1
637,733,29,0.051142791261021,1
638,730,29,0.0511235216581253,1
638,731,29,0.0551161790527176,1
638,732,29,0.051678252650576,1
638,733,29,0.0429497253897758,1
639,728,29,0.048341664679151,1
639,729,29,0.0432578579104899,1
640,727,29,0.0516009255291917,1
640,728,29,0.050707570735014,1
640,729,29,0.0433378262218334,1
641,726,29,0.0488613978771169,1
641,727,29,0.0500312963438275,1
641,728,29,0.0507677639137563,1
641,729,29,0.0432852808694929,1
642,724,29,0.0532779865354136,1
642,725,29,0.0483776464993728,1
642,726,29,0.0443315651580319,1
642,727,29,0.0426793237679976,1
642,728,29,0.0412122738589908,1
643,723,29,0.0532975535087244,1
643,724,29,0.0486195113747752,1
643,725,29,0.0454166319554291,1
644,722,29,0.0541003725283544,1
644,723,29,0.0474985925187919,1
644,724,29,0.0419272253277065,1
645,721,29,0.0600483647568436,1
645,722,29,0.0516523922379358,1
645,723,29,0.0423641516785489,1
646,720,29,0.0596928124683976,1
646,721,29,0.0574600580709272,1
646,722,29,0.0467822380023906,1
647,719,29,0.0583410855097171,1
647,720,29,0.0548991473103397,1
647,721,29,0.0489078146955398,1
648,718,29,0.0661201549924881,1
648,719,29,0.0652113585636667,1
648,720,29,0.0548557041960674,1
648,721,29,0.0416397086868581,1
649,717,29,0.0657161421398576,1
649,718,29,0.0777608496515078,1
649,719,29,0.0818152789914095,1
649,720,29,0.062997154673361,1
649,756,29,0.0654099208999021,1
650,717,29,0.0648840943117949,1
650,718,29,0.0807791107037173,1
650,719,29,0.0859915869476058,1
650,720,29,0.0639839756923583,1
650,747,29,0.0411351251598555,1
650,748,29,0.0518499597349645,1
650,749,29,0.0431720151817653,1
650,755,29,0.115762636815262,1
650,756,29,0.134726661872407,1
650,757,29,0.0868812597553716,1
651,717,29,0.0582761181841295,1
651,718,29,0.0646888084568599,1
651,719,29,0.0645935471960803,1
651,720,29,0.0485122687896362,1
651,747,29,0.0437975284431017,1
651,748,29,0.0577504105441883,1
651,749,29,0.0488215178010905,1
651,754,29,0.0732642467246217,1
651,755,29,0.142673296880695,1
651,756,29,0.164567956038834,1
651,757,29,0.105835309386775,1
652,717,29,0.0524649974475886,1
652,718,29,0.048991246020535,1
652,719,29,0.0426744928504367,1
652,748,29,0.0422920312427955,1
652,754,29,0.0520220344773206,1
652,755,29,0.0851346789528444,1
652,756,29,0.095971835496503,1
652,757,29,0.0684601033144842,1
653,716,29,0.0555849754019518,1
653,717,29,0.0511587249085332,1
653,718,29,0.04320469619038,1
653,754,29,0.0439949067044117,1
653,755,29,0.0509062412059458,1
653,756,29,0.0522198614976206,1
653,757,29,0.0462750159887962,1
654,716,29,0.0546667604410754,1
654,717,29,0.0515996170993655,1
654,718,29,0.0424716402701222,1
654,754,29,0.0416843683164648,1
654,755,29,0.043842528697002,1
654,756,29,0.0443200163724581,1
654,757,29,0.0418022405422583,1
655,715,29,0.053342991708145,1
655,716,29,0.0509928570977495,1
655,717,29,0.0491453055224736,1
655,718,29,0.0412830074672631,1
655,750,29,0.0410318538214412,1
655,751,29,0.0466950544034308,1
655,752,29,0.0455073083050821,1
656,715,29,0.0487829461548902,1
656,716,29,0.0456607189988423,1
656,717,29,0.043170785149594,1
656,750,29,0.0427921812472463,1
656,751,29,0.0477480160094716,1
656,752,29,0.0448677077961742,1
657,715,29,0.0455092763565563,1
657,716,29,0.0412541841639419,1
657,751,29,0.0427381084923195,1
657,752,29,0.0411648162441152,1
658,715,29,0.0429435806356538,1
659,714,29,0.0441058231658604,1
659,715,29,0.0423481531502189,1
660,714,29,0.0444853786535362,1
660,715,29,0.0419426804791872,1
661,713,29,0.0490028705003963,1
661,714,29,0.0455404191491149,1
661,715,29,0.0423211275862251,1
662,714,29,0.0449603224602598,1
662,715,29,0.0421761973560288,1
664,717,29,0.0419945662098798,1
664,718,29,0.0473664573265452,1
664,719,29,0.0486357099522936,1
664,720,29,0.0418274251130462,1
665,716,29,0.04432870769868,1
665,717,29,0.0500946578691738,1
665,718,29,0.0581458266884562,1
665,719,29,0.0571310204100347,1
665,720,29,0.0429314127789432,1
666,716,29,0.052218531440855,1
666,717,29,0.0599259833142108,1
666,718,29,0.0685292067922085,1
666,719,29,0.0644220888214936,1
666,720,29,0.0443564253247307,1
667,717,29,0.0519239022403519,1
667,718,29,0.0567291324041881,1
667,719,29,0.0539095580431149,1
636,731,30,0.0665506716592024,1
636,732,30,0.0630703186089345,1
637,730,30,0.0595013275480406,1
637,731,30,0.0664512904664905,1
637,732,30,0.0638101221342467,1
637,733,30,0.0533108919235233,1
638,730,30,0.0499161004517695,1
638,731,30,0.0558544957259545,1
638,732,30,0.0540374002879151,1
638,733,30,0.0456032832548578,1
639,728,30,0.0480116808396651,1
640,727,30,0.0500343889961441,1
640,728,30,0.0486588021167064,1
640,729,30,0.0415997961704227,1
641,726,30,0.0472034334582765,1
641,727,30,0.0478346048676012,1
641,728,30,0.0481634911399188,1
641,729,30,0.0412486801078959,1
642,725,30,0.0469785835773501,1
642,726,30,0.0427531148848102,1
642,727,30,0.0410562625257826,1
643,723,30,0.0526692152284449,1
643,724,30,0.0475217333438181,1
643,725,30,0.0441707066870583,1
644,722,30,0.0546027284806115,1
644,723,30,0.0470026219203563,1
645,721,30,0.0607422110361925,1
645,722,30,0.0524613695285249,1
645,723,30,0.0423753544330943,1
645,746,30,0.0423384777982599,1
646,720,30,0.0597630892075777,1
646,721,30,0.0579696644545768,1
646,722,30,0.0472154904769233,1
647,719,30,0.0581753690875084,1
647,720,30,0.0542109835092858,1
647,721,30,0.048415439575759,1
648,718,30,0.0638585340378179,1
648,719,30,0.0607977976768688,1
648,720,30,0.0512309156318392,1
649,718,30,0.0709251580734619,1
649,719,30,0.0700444225983522,1
649,720,30,0.0543146035820959,1
650,717,30,0.0649377507481407,1
650,718,30,0.0725272492946806,1
650,719,30,0.0719600611852065,1
650,720,30,0.0534858268285988,1
650,748,30,0.0439391010909753,1
650,756,30,0.0865049834523637,1
651,717,30,0.058689371146566,1
651,718,30,0.0606224734868863,1
651,719,30,0.0571250243411202,1
651,720,30,0.0427551829608785,1
651,748,30,0.0489188174008969,1
651,749,30,0.0414125690537358,1
651,755,30,0.0867122614451277,1
651,756,30,0.10730741188947,1
651,757,30,0.0807600303365403,1
652,717,30,0.0533655810462196,1
652,718,30,0.0492480064503644,1
652,719,30,0.0420869186473266,1
652,754,30,0.042362072789011,1
652,755,30,0.0600066896448571,1
652,756,30,0.0705097748575066,1
652,757,30,0.0582551562732354,1
652,758,30,0.0478770855830757,1
653,716,30,0.0567349608643232,1
653,717,30,0.0518631683881278,1
653,718,30,0.0450025085086867,1
653,754,30,0.0416096012840173,1
653,755,30,0.0464571310377116,1
653,756,30,0.0477328014576903,1
653,757,30,0.044160712337745,1
654,716,30,0.05507453638114,1
654,717,30,0.0518426227958148,1
654,718,30,0.0441696361535641,1
655,716,30,0.0525982085800643,1
655,717,30,0.0504912526816323,1
655,718,30,0.043397216500455,1
656,715,30,0.0500704681375927,1
656,716,30,0.0475869655994118,1
656,717,30,0.0451050634547375,1
657,715,30,0.047030623399985,1
657,716,30,0.0429717443173271,1
658,715,30,0.045011921634007,1
659,714,30,0.0467963063263901,1
659,715,30,0.0440490173064824,1
660,714,30,0.0460578598915175,1
660,715,30,0.042312501140821,1
661,714,30,0.0460041385743539,1
661,715,30,0.0414640384658472,1
662,714,30,0.0446329068198131,1
664,718,30,0.0456756740273522,1
664,719,30,0.0465926021853417,1
665,717,30,0.0480270035261427,1
665,718,30,0.0518910238859163,1
665,719,30,0.0502386284039397,1
666,717,30,0.057319088273986,1
666,718,30,0.0542858884134711,1
666,719,30,0.0476507596635437,1
637,731,31,0.0642150000644483,1
637,732,31,0.0610910535667278,1
638,730,31,0.0494217897209234,1
638,731,31,0.0546160614886757,1
638,732,31,0.0534804633476582,1
638,733,31,0.0466775365826166,1
640,728,31,0.044040534139551,1
641,727,31,0.043631482210069,1
641,728,31,0.0420691872604871,1
642,724,31,0.0507312846739311,1
642,725,31,0.0455036100984657,1
643,723,31,0.0521923736577997,1
643,724,31,0.0462762325041305,1
643,725,31,0.0420135195187885,1
644,722,31,0.0540403848055353,1
644,723,31,0.0464700423204599,1
645,721,31,0.0591483704923079,1
645,722,31,0.051584051109821,1
645,723,31,0.0420306615715328,1
645,746,31,0.0434257694670352,1
646,720,31,0.0585594148684515,1
646,721,31,0.0554775327676245,1
646,722,31,0.0457745253600518,1
646,747,31,0.042601915545591,1
647,719,31,0.0571659208832926,1
647,720,31,0.0530156950158642,1
647,721,31,0.0467397681003857,1
648,719,31,0.0557932266069832,1
648,720,31,0.0478883856588478,1
649,718,31,0.0625820580143511,1
649,719,31,0.0571877694986971,1
649,720,31,0.0463379774157659,1
650,717,31,0.0636051528172505,1
650,718,31,0.0618975329458305,1
650,719,31,0.0562107292629876,1
650,720,31,0.0437280302737356,1
651,717,31,0.0581524012779964,1
651,718,31,0.055141585299633,1
651,719,31,0.048705408170848,1
651,755,31,0.0505427031701719,1
651,756,31,0.0615354439149881,1
651,757,31,0.0557158454182507,1
651,758,31,0.0466060811752459,1
652,717,31,0.0538076356850381,1
652,718,31,0.0489908945827718,1
652,719,31,0.0412370934751784,1
652,755,31,0.044916790134863,1
652,756,31,0.0512836204828569,1
652,757,31,0.0491337729571042,1
652,758,31,0.0459131702610207,1
652,759,31,0.0477771799370864,1
653,716,31,0.0560709813881156,1
653,717,31,0.0519004153842973,1
653,718,31,0.0463062561025816,1
653,755,31,0.0440062419239602,1
653,756,31,0.0452416348729032,1
653,757,31,0.0431822339105736,1
653,758,31,0.0416877502290942,1
654,716,31,0.0538148807096958,1
654,717,31,0.0509457482172698,1
654,718,31,0.0448040705273521,1
655,715,31,0.0558425089948603,1
655,716,31,0.0526641437111845,1
655,717,31,0.0499660965286427,1
655,718,31,0.0434495536935049,1
656,715,31,0.0518894721530232,1
656,716,31,0.0492010002978462,1
656,717,31,0.0457869824770752,1
657,715,31,0.0490917626275589,1
657,716,31,0.0449186311280689,1
658,714,31,0.0509306634271242,1
658,715,31,0.0471229217700837,1
659,714,31,0.0489934735952805,1
659,715,31,0.0448183524173771,1
660,713,31,0.0521099263585416,1
660,714,31,0.0470677136008447,1
660,715,31,0.041923129726081,1
661,714,31,0.0452445112558271,1
662,714,31,0.0429527666781116,1
665,718,31,0.0414996553314687,1
666,717,31,0.0470792461662141,1
666,718,31,0.0413218440434695,1
637,732,32,0.0567373182007044,1
637,733,32,0.0521922547096337,1
638,731,32,0.0498339991835398,1
638,732,32,0.049893565181043,1
638,733,32,0.0464486100236365,1
638,734,32,0.0422002005552587,1
642,724,32,0.0502319889335817,1
642,725,32,0.0443403916526243,1
643,723,32,0.0521774024090853,1
643,724,32,0.0453362770625461,1
644,722,32,0.0531220671166973,1
644,723,32,0.0458942412824187,1
644,746,32,0.0446878581691481,1
645,721,32,0.0572439076263249,1
645,722,32,0.0503827503272805,1
645,723,32,0.0416379812350834,1
645,746,32,0.044292355517123,1
645,747,32,0.0469845093587119,1
646,720,32,0.0580247861160586,1
646,721,32,0.053022042522542,1
646,722,32,0.044408540841653,1
646,747,32,0.0433338279414346,1
646,748,32,0.0459526394252009,1
647,719,32,0.0578191409572101,1
647,720,32,0.0528734870766494,1
647,721,32,0.0454962947862553,1
648,719,32,0.0543158795715132,1
648,720,32,0.0468452156495647,1
649,718,32,0.0597349093057,1
649,719,32,0.052038081666264,1
649,720,32,0.0433377153837696,1
650,717,32,0.0648049505275113,1
650,718,32,0.0573393743430277,1
650,719,32,0.0494749865848096,1
651,717,32,0.0591958470307553,1
651,718,32,0.0528594890402025,1
651,719,32,0.0453483773350714,1
651,757,32,0.0415421684873522,1
651,758,32,0.0412288563146813,1
652,717,32,0.054799284918229,1
652,718,32,0.0490177228009447,1
652,719,32,0.04126455968806,1
652,756,32,0.0429113700129684,1
652,757,32,0.0454339389135854,1
652,758,32,0.0448132322395033,1
652,759,32,0.0424699614789608,1
653,716,32,0.0570416146430642,1
653,717,32,0.0526848406920724,1
653,718,32,0.0473381206293578,1
653,755,32,0.0410885515461229,1
653,756,32,0.044991719369355,1
653,757,32,0.0447922973622833,1
653,758,32,0.0421818122501386,1
654,716,32,0.054145783694101,1
654,717,32,0.0511209318321469,1
654,718,32,0.0453660032905821,1
655,715,32,0.0568759468814689,1
655,716,32,0.0530268437030614,1
655,717,32,0.0496620325758801,1
655,718,32,0.0426690158280648,1
656,715,32,0.0533517343983476,1
656,716,32,0.0501296610703933,1
656,717,32,0.0455777418395719,1
657,715,32,0.0511185312418872,1
657,716,32,0.0462206674903935,1
658,714,32,0.0542169146973825,1
658,715,32,0.0487361292380907,1
658,716,32,0.0417082255338545,1
659,714,32,0.0516544576106367,1
659,715,32,0.0455584235760629,1
660,714,32,0.0485836593161891,1
660,715,32,0.0416740414529601,1
661,714,32,0.0459229618577783,1
662,714,32,0.0431143172111422,1
637,733,33,0.0535435166891198,1
638,732,33,0.0488504762727821,1
638,733,33,0.0486497782762931,1
638,734,33,0.0464742757938233,1
640,727,33,0.0429746207002509,1
641,726,33,0.04426216701326,1
642,723,33,0.0581886372147547,1
642,724,33,0.0499667345233513,1
642,725,33,0.0443507725834772,1
643,722,33,0.058701812043385,1
643,723,33,0.0527978360430591,1
643,724,33,0.0449659833116156,1
644,721,33,0.0590804889366527,1
644,722,33,0.0528142887371139,1
644,723,33,0.0463935370227681,1
644,746,33,0.0419208129402109,1
644,747,33,0.044090687011734,1
645,720,33,0.0624606876311295,1
645,721,33,0.0567187082194567,1
645,722,33,0.0499800188708021,1
645,723,33,0.0421188967804149,1
645,747,33,0.0446279407338816,1
645,748,33,0.0446858198301213,1
646,720,33,0.0586753298562405,1
646,721,33,0.0524958590899367,1
646,722,33,0.0441972456449184,1
646,748,33,0.0426360320423002,1
647,719,33,0.0603017567908806,1
647,720,33,0.0541563592674073,1
647,721,33,0.0463021091369753,1
648,718,33,0.0630132018623044,1
648,719,33,0.0558799127863396,1
648,720,33,0.0479214099951236,1
649,718,33,0.0607889198182956,1
649,719,33,0.0524769301113346,1
649,720,33,0.0438493303694046,1
650,717,33,0.0673771235167272,1
650,718,33,0.0572220914513294,1
650,719,33,0.0490174254305296,1
651,717,33,0.0615812659925809,1
651,718,33,0.0530758881946065,1
651,719,33,0.0454607671317583,1
652,717,33,0.0564913009529608,1
652,718,33,0.0495959893100634,1
652,719,33,0.0420702604973487,1
652,757,33,0.0442019576143133,1
652,758,33,0.0416221557222675,1
653,716,33,0.0580712299681556,1
653,717,33,0.0539541906390475,1
653,718,33,0.0480495658305432,1
653,756,33,0.0465349609854341,1
653,757,33,0.0483469146186604,1
653,758,33,0.0425110661804239,1
654,716,33,0.0542903976303103,1
654,717,33,0.0512357222190935,1
654,718,33,0.0452490907602189,1
654,756,33,0.0415186275639493,1
654,757,33,0.0412119278279624,1
655,715,33,0.0576321598469574,1
655,716,33,0.0524318163160031,1
655,717,33,0.0485788202885259,1
655,718,33,0.0413864788548657,1
656,715,33,0.055081743558654,1
656,716,33,0.049769723920009,1
656,717,33,0.0441677113559684,1
657,715,33,0.0531988481578649,1
657,716,33,0.0467488351946775,1
658,714,33,0.0565754892208307,1
658,715,33,0.0499367866191877,1
658,716,33,0.042177538226264,1
659,714,33,0.0534637565370668,1
659,715,33,0.0461474008268584,1
660,714,33,0.0501972236286942,1
660,715,33,0.0425785854848461,1
661,714,33,0.0473741889573367,1
662,714,33,0.0447835627821829,1
663,714,33,0.0422888358625174,1
637,733,34,0.052864976876044,1
638,732,34,0.0443686229184828,1
638,733,34,0.0481087046959957,1
638,734,34,0.0489705057857686,1
640,727,34,0.0426460263916135,1
641,725,34,0.0491667486327665,1
641,726,34,0.0445916615432448,1
642,723,34,0.05713444827991,1
642,724,34,0.0487530793517489,1
642,725,34,0.0434342256002925,1
643,722,34,0.0580932732260135,1
643,723,34,0.0524912038912573,1
643,724,34,0.0444154884958957,1
644,721,34,0.0579194088544323,1
644,722,34,0.0518088469233992,1
644,723,34,0.0471517667003441,1
644,747,34,0.0410484092434577,1
645,720,34,0.0626128277422072,1
645,721,34,0.0556065212402063,1
645,722,34,0.0495646572817861,1
645,723,34,0.0438345267294696,1
645,747,34,0.0413278428157514,1
645,748,34,0.0413804963027882,1
646,720,34,0.058228674086091,1
646,721,34,0.0516814264039149,1
646,722,34,0.0444935184928065,1
647,719,34,0.0607825560914134,1
647,720,34,0.0539389328333877,1
647,721,34,0.0469237592862833,1
648,719,34,0.056100248043692,1
648,720,34,0.0483292021553927,1
649,718,34,0.0601410578185841,1
649,719,34,0.0524969404369005,1
649,720,34,0.0444567770263426,1
650,718,34,0.0561000479945036,1
650,719,34,0.0489098854749756,1
650,720,34,0.041407521866782,1
651,717,34,0.0623729201048093,1
651,718,34,0.052014962468177,1
651,719,34,0.0456282137091092,1
652,717,34,0.0574910224412368,1
652,718,34,0.0491360491924631,1
652,719,34,0.0427793591756226,1
652,757,34,0.0431325595344222,1
653,716,34,0.0599955139239858,1
653,717,34,0.0551561402297663,1
653,718,34,0.0482127464941218,1
653,756,34,0.0460034951729104,1
653,757,34,0.0505491534048112,1
653,758,34,0.0449703789870236,1
654,716,34,0.055444292161956,1
654,717,34,0.0514738726676752,1
654,718,34,0.0451416210922175,1
654,756,34,0.0411299157708572,1
654,757,34,0.0428601222769845,1
655,715,34,0.0591186929248852,1
655,716,34,0.0527590048735875,1
655,717,34,0.0476753657137059,1
656,715,34,0.0571422772319282,1
656,716,34,0.0497351748845143,1
656,717,34,0.0430172122537892,1
657,715,34,0.0550305580001206,1
657,716,34,0.047092854917754,1
658,715,34,0.0505316301772622,1
658,716,34,0.0423298810898974,1
659,714,34,0.054816959534353,1
659,715,34,0.0465289054424366,1
660,714,34,0.0513997355198342,1
660,715,34,0.0434541710450405,1
661,714,34,0.0487058353028987,1
661,715,34,0.0418165683895292,1
662,714,34,0.0465335336074418,1
663,714,34,0.0440899787294727,1
638,733,35,0.0475057888828362,1
639,734,35,0.0425374050890956,1
640,727,35,0.0412453711861866,1
641,725,35,0.0467726410480865,1
641,726,35,0.0428668050012211,1
642,723,35,0.056180932747399,1
642,724,35,0.0478651799530038,1
642,725,35,0.0420611555559131,1
643,722,35,0.0581117966995041,1
643,723,35,0.0525930181146378,1
643,724,35,0.0448662425710382,1
644,721,35,0.058712041585663,1
644,722,35,0.0525086676447234,1
644,723,35,0.0487353885154205,1
644,724,35,0.0413507051939344,1
645,721,35,0.0560189523789503,1
645,722,35,0.0499655558551608,1
645,723,35,0.045510719954753,1
646,720,35,0.0583624042651093,1
646,721,35,0.0519243834397509,1
646,722,35,0.0452323974664646,1
647,719,35,0.0607426489817129,1
647,720,35,0.0542979292119135,1
647,721,35,0.0480391200188725,1
648,719,35,0.0562900676897247,1
648,720,35,0.0493576279988238,1
648,721,35,0.0426295385537823,1
649,718,35,0.060724790536605,1
649,719,35,0.053360904220601,1
649,720,35,0.0460538535010165,1
650,718,35,0.0564033171572478,1
650,719,35,0.0497714108212726,1
650,720,35,0.0429144113013042,1
651,717,35,0.0626293074699362,1
651,718,35,0.0523469738332201,1
651,719,35,0.0467939111428652,1
652,717,35,0.05847093905987,1
652,718,35,0.0496387619892182,1
652,719,35,0.043854296455336,1
652,757,35,0.0424948459759662,1
652,758,35,0.0414108767457374,1
653,717,35,0.0563936120682474,1
653,718,35,0.0486812941335543,1
653,719,35,0.0414627759932669,1
653,756,35,0.0446746332957803,1
653,757,35,0.0505040071690708,1
653,758,35,0.0488602678695397,1
654,716,35,0.0571886021358592,1
654,717,35,0.0526229876457407,1
654,718,35,0.0456461208148304,1
654,757,35,0.0428331237466648,1
654,758,35,0.0410977754357244,1
655,716,35,0.0542559351025727,1
655,717,35,0.0483595934118114,1
655,718,35,0.0413061942495353,1
656,715,35,0.0608651601859813,1
656,716,35,0.0515402349308461,1
656,717,35,0.0442479986646663,1
657,715,35,0.0571069496266195,1
657,716,35,0.0480326860044377,1
658,715,35,0.0510990561830684,1
658,716,35,0.0429868831748208,1
659,715,35,0.0469638394114981,1
660,714,35,0.0515578122257434,1
660,715,35,0.044373026703993,1
661,714,35,0.0489775075073594,1
661,715,35,0.0430009542021878,1
662,714,35,0.0470969153756033,1
662,715,35,0.0417677212438051,1
664,714,35,0.0431039470937589,1
641,725,36,0.0448511334505859,1
641,739,36,0.0420187586448283,1
642,723,36,0.0562304205911992,1
642,724,36,0.0477718921504332,1
642,725,36,0.0413387130561054,1
642,739,36,0.0432077212585114,1
643,722,36,0.0576672874030778,1
643,723,36,0.0526034909599826,1
643,724,36,0.045459101857434,1
644,721,36,0.0578088789745232,1
644,722,36,0.0523777003071977,1
644,723,36,0.0491669540886897,1
644,724,36,0.042377563084268,1
645,721,36,0.0545578147344683,1
645,722,36,0.0490140408145328,1
645,723,36,0.0452959887780407,1
646,720,36,0.0577562011571797,1
646,721,36,0.0511821955443834,1
646,722,36,0.0451734099895871,1
647,720,36,0.0537669716324628,1
647,721,36,0.048053669542271,1
647,722,36,0.0410597147259646,1
648,719,36,0.0558585237433948,1
648,720,36,0.049922155994767,1
648,721,36,0.0442521753673141,1
649,719,36,0.0535141040517033,1
649,720,36,0.0468389762775833,1
650,718,36,0.05698581713973,1
650,719,36,0.050100243026242,1
650,720,36,0.0434770820838369,1
651,718,36,0.0528279623694717,1
651,719,36,0.0470032382881257,1
652,717,36,0.0586539678469699,1
652,718,36,0.0498077278590533,1
652,719,36,0.0441407047155465,1
652,758,36,0.0413455255419776,1
653,717,36,0.0565211947897762,1
653,718,36,0.0485021744157288,1
653,719,36,0.0418749827525159,1
653,757,36,0.049076477788225,1
653,758,36,0.0508535796088067,1
653,759,36,0.0419269468808633,1
654,717,36,0.0522394230641965,1
654,718,36,0.0453001060066056,1
654,758,36,0.0439542832023476,1
655,716,36,0.0536778091685592,1
655,717,36,0.0479201285989714,1
655,718,36,0.0415638684175491,1
656,716,36,0.051280208833186,1
656,717,36,0.0446131560175185,1
657,715,36,0.0571868070998992,1
657,716,36,0.0474067969750314,1
657,717,36,0.0411626075929416,1
658,715,36,0.0501985536854597,1
658,716,36,0.0424339445149627,1
659,715,36,0.0463731482257648,1
660,715,36,0.044252313239052,1
661,715,36,0.0429942795880535,1
662,715,36,0.0416341370466269,1
639,734,37,0.0411912227369722,1
641,725,37,0.0431917443571206,1
641,739,37,0.0436721273390724,1
642,723,37,0.0558753981627656,1
642,724,37,0.0480528693455178,1
642,725,37,0.0414131340575244,1
642,739,37,0.0458168114330728,1
642,740,37,0.0416090470936984,1
643,722,37,0.0574896383171231,1
643,723,37,0.0524069777762437,1
643,724,37,0.0463381396178105,1
644,722,37,0.0525135607397348,1
644,723,37,0.0489037596444254,1
644,724,37,0.0434117795406905,1
645,721,37,0.0538350802709804,1
645,722,37,0.0487975443389021,1
645,723,37,0.0449436210564033,1
646,720,37,0.0567949107399986,1
646,721,37,0.0504927125000335,1
646,722,37,0.0450279688229504,1
647,720,37,0.0527469586684103,1
647,721,37,0.0475835647632105,1
647,722,37,0.0414086086204807,1
648,719,37,0.0541001075983483,1
648,720,37,0.0491327943381019,1
648,721,37,0.0445776256596541,1
649,719,37,0.0520485328846695,1
649,720,37,0.0464956540232984,1
649,721,37,0.0418942253217375,1
649,752,37,0.0423747002181812,1
650,719,37,0.0494698231530572,1
650,720,37,0.0433455578526249,1
650,752,37,0.041087337734156,1
651,718,37,0.0533533726389979,1
651,719,37,0.0469753449431934,1
651,720,37,0.0411161096734964,1
652,718,37,0.0502313563456078,1
652,719,37,0.0442931313835696,1
653,717,37,0.055894732646479,1
653,718,37,0.0481229460355095,1
653,719,37,0.041922291682184,1
653,758,37,0.0470507310467776,1
654,717,37,0.0517566719323938,1
654,718,37,0.0449334807252499,1
655,717,37,0.048446571554848,1
655,718,37,0.0424334633155638,1
656,716,37,0.0521184473726167,1
656,717,37,0.0464334225055294,1
657,716,37,0.0483081483300067,1
657,717,37,0.0434203573254812,1
658,716,37,0.0439747449902709,1
659,715,37,0.0476341393607094,1
659,716,37,0.0409926522906346,1
660,715,37,0.0457121100132988,1
661,715,37,0.0437950656753916,1
662,715,37,0.0418931547882433,1
641,739,38,0.0437848577600529,1
642,724,38,0.0488089363291662,1
642,725,38,0.0423627053769848,1
642,739,38,0.0444062132423133,1
643,723,38,0.0529510412808961,1
643,724,38,0.0484252041388425,1
643,725,38,0.0426347641629851,1
644,722,38,0.0537145317114513,1
644,723,38,0.0495609158212912,1
644,724,38,0.0457076548638078,1
645,721,38,0.0546723455981436,1
645,722,38,0.0501827065457046,1
645,723,38,0.04606586185905,1
645,724,38,0.0414903584509471,1
646,721,38,0.0507295869591978,1
646,722,38,0.0460195748022627,1
646,723,38,0.0416508573740553,1
647,720,38,0.0524250416772747,1
647,721,38,0.0476529115440017,1
647,722,38,0.0423505807741527,1
648,720,38,0.0483204810921293,1
648,721,38,0.0445418438886206,1
648,752,38,0.0420141439966601,1
649,719,38,0.0512757536836949,1
649,720,38,0.0458352375853367,1
649,721,38,0.0422427380414488,1
649,752,38,0.0466506651105651,1
649,753,38,0.043946959780035,1
650,719,38,0.0487779070780387,1
650,720,38,0.0428519040400593,1
650,752,38,0.0433846917992463,1
650,753,38,0.0414871955110779,1
651,719,38,0.0463294131478123,1
652,718,38,0.050173752992844,1
652,719,38,0.0433173887642168,1
653,718,38,0.0472969159033006,1
653,719,38,0.0411517022088112,1
654,717,38,0.0505697746914117,1
654,718,38,0.0441267796700196,1
655,717,38,0.0485778254493191,1
655,718,38,0.042696327949004,1
656,717,38,0.0476534684376881,1
656,718,38,0.0422668926292536,1
657,716,38,0.0491583195331834,1
657,717,38,0.0450472897898268,1
658,716,38,0.0455404407760542,1
658,717,38,0.0412675279854757,1
659,716,38,0.042894306357879,1
669,724,38,0.0440476926564517,1
670,724,38,0.0426533038566802,1
639,733,39,0.0415945894847918,1
641,738,39,0.0413734675475233,1
641,739,39,0.0429412070790682,1
642,724,39,0.0501147330755575,1
642,725,39,0.0445538143995103,1
643,723,39,0.054496967340813,1
643,724,39,0.0520963013867972,1
643,725,39,0.0490655399636858,1
643,726,39,0.0469692785867262,1
643,727,39,0.0453568983491465,1
643,728,39,0.0418106507182696,1
644,722,39,0.0546902364836604,1
644,723,39,0.0519713571518601,1
644,724,39,0.0513408669911227,1
644,725,39,0.0517518869720788,1
644,726,39,0.0527357775408042,1
644,727,39,0.0504621968887139,1
644,728,39,0.0437878990483887,1
645,721,39,0.0550595921660997,1
645,722,39,0.0511190989490432,1
645,723,39,0.0482472414622683,1
645,724,39,0.04706007929128,1
645,725,39,0.0477066328611653,1
645,726,39,0.0494575282380783,1
645,727,39,0.0466696427497806,1
646,720,39,0.0548937405755205,1
646,721,39,0.0509587676347144,1
646,722,39,0.0472956345071484,1
646,723,39,0.0440785678156367,1
647,720,39,0.0518198225950822,1
647,721,39,0.0480156710099616,1
647,722,39,0.0439102129068362,1
648,720,39,0.0476272079266712,1
648,721,39,0.0449014052709349,1
648,752,39,0.0417635283209528,1
648,753,39,0.0413899121314759,1
649,719,39,0.0500001102973903,1
649,720,39,0.0454198219289725,1
649,721,39,0.042883119823538,1
649,752,39,0.046030842437626,1
649,753,39,0.0434567797945908,1
650,719,39,0.0482851372666161,1
650,720,39,0.043358144731284,1
650,752,39,0.0430156199703849,1
650,753,39,0.0413387184628402,1
651,719,39,0.0466221553978634,1
651,720,39,0.0415121070417574,1
652,718,39,0.0509676400865527,1
652,719,39,0.0437295684897917,1
653,718,39,0.0468670642649691,1
653,719,39,0.0410838585002998,1
654,718,39,0.0437452534275022,1
655,717,39,0.0481505474167616,1
655,718,39,0.0432477202827039,1
656,717,39,0.0474102356583764,1
656,718,39,0.0434852057029028,1
657,717,39,0.0454055373355801,1
657,718,39,0.0429609822116694,1
658,716,39,0.046060298328921,1
658,717,39,0.0420382472204841,1
659,716,39,0.0436933649934423,1
669,724,39,0.045754720490409,1
670,724,39,0.0427971067826666,1
639,732,40,0.0425105768709227,1
639,733,40,0.0429510121926628,1
640,738,40,0.0416758283788178,1
640,739,40,0.0410394340636578,1
641,738,40,0.0416167408773461,1
641,739,40,0.0414133124797734,1
642,725,40,0.0538102633581602,1
642,726,40,0.054101194352047,1
642,727,40,0.0517670853036556,1
642,728,40,0.0454735702798102,1
643,723,40,0.0565498829247269,1
643,724,40,0.06220737129138,1
643,725,40,0.07206611969542,1
643,726,40,0.0801999304564141,1
643,727,40,0.0781847701017426,1
643,728,40,0.0635983998054614,1
643,729,40,0.0441499988927007,1
644,722,40,0.0550784724840884,1
644,723,40,0.0558154266601509,1
644,724,40,0.0676163390920682,1
644,725,40,0.0882419673005869,1
644,726,40,0.10532676272315,1
644,727,40,0.103066012252786,1
644,728,40,0.0792946916591037,1
644,729,40,0.0470865939188334,1
645,721,40,0.0550879288632872,1
645,722,40,0.0517756711985485,1
645,723,40,0.0520425097820809,1
645,724,40,0.063031903758044,1
645,725,40,0.0841045499879451,1
645,726,40,0.101468203165544,1
645,727,40,0.097033015339469,1
645,728,40,0.0712912967486838,1
646,721,40,0.0510905351689933,1
646,722,40,0.0488184359622435,1
646,723,40,0.0475011120572176,1
646,724,40,0.0508023453896599,1
646,725,40,0.0600204443782372,1
646,726,40,0.067523040476028,1
646,727,40,0.0616497422890662,1
646,728,40,0.0443254988015648,1
647,720,40,0.0506011175331586,1
647,721,40,0.0486408517571066,1
647,722,40,0.0465212008453192,1
647,723,40,0.0427499249112668,1
648,719,40,0.0510092935715999,1
648,720,40,0.0469969394420613,1
648,721,40,0.045844466881673,1
648,722,40,0.0437006127214674,1
648,753,40,0.0417765125946211,1
649,719,40,0.049469920474284,1
649,720,40,0.0454725754406035,1
649,721,40,0.0440670703940437,1
649,722,40,0.0410775326205613,1
649,752,40,0.0424832431230442,1
649,753,40,0.04156593379025,1
650,719,40,0.0479238808729359,1
650,720,40,0.0439818115926796,1
650,721,40,0.042192982564275,1
651,719,40,0.0461439188896349,1
651,720,40,0.0419880321708507,1
652,718,40,0.0506364181047932,1
652,719,40,0.0433230982761859,1
653,718,40,0.0464539140304942,1
654,718,40,0.0437097825437208,1
655,717,40,0.0483070561695732,1
655,718,40,0.043588582472646,1
656,717,40,0.0466734436843585,1
656,718,40,0.0434429304433514,1
657,717,40,0.0445015988579938,1
657,718,40,0.0430632668209792,1
658,716,40,0.0456484727444768,1
658,717,40,0.0412439924688077,1
659,716,40,0.0437221693731916,1
660,716,40,0.0411123141456533,1
669,723,40,0.0412152205294673,1
669,724,40,0.0426484945660585,1
639,730,41,0.0429754506340456,1
639,731,41,0.0426503734064082,1
639,732,41,0.0442181129379531,1
639,733,41,0.0446057298672443,1
639,734,41,0.0443975354329285,1
640,728,41,0.0434485453374611,1
640,729,41,0.0434526247188822,1
640,730,41,0.0415468912702168,1
640,736,41,0.041209516424233,1
640,737,41,0.0418157465658367,1
640,738,41,0.0428124267657769,1
641,727,41,0.0441119300728387,1
641,728,41,0.0424096493520526,1
641,729,41,0.0412951455869322,1
641,738,41,0.0421123330043443,1
642,725,41,0.0653404281372709,1
642,726,41,0.07082846943469,1
642,727,41,0.066165555344765,1
642,728,41,0.0526368072599386,1
642,729,41,0.0420119407522213,1
643,724,41,0.0741900851815932,1
643,725,41,0.102410229386564,1
643,726,41,0.124209665131067,1
643,727,41,0.118389455673295,1
643,728,41,0.0854211710174445,1
643,729,41,0.050959108259008,1
644,722,41,0.0548541794968484,1
644,723,41,0.0599163322925585,1
644,724,41,0.0866323390910301,1
644,725,41,0.134109850750762,1
644,726,41,0.170917127990908,1
644,727,41,0.165069528014542,1
644,728,41,0.115605430593659,1
644,729,41,0.0586880627167398,1
645,721,41,0.0557158129778418,1
645,722,41,0.0529130968159349,1
645,723,41,0.0571645962332619,1
645,724,41,0.083286721872457,1
645,725,41,0.131212273426452,1
645,726,41,0.16616505143708,1
645,727,41,0.155864561984841,1
645,728,41,0.104688768014483,1
645,729,41,0.0500953769649048,1
646,721,41,0.0525489586325961,1
646,722,41,0.0511734636676503,1
646,723,41,0.0522260305820493,1
646,724,41,0.0648441331347461,1
646,725,41,0.0923961022372896,1
646,726,41,0.110242652528531,1
646,727,41,0.0973662756602553,1
646,728,41,0.062606015256335,1
647,720,41,0.0498236506930958,1
647,721,41,0.0505249258260864,1
647,722,41,0.0497738600721457,1
647,723,41,0.0473296320556916,1
647,724,41,0.0454849352364002,1
647,725,41,0.0498050623387874,1
647,726,41,0.0525015523817013,1
647,727,41,0.0442961970022121,1
648,719,41,0.0502141575221479,1
648,720,41,0.0464817154609345,1
648,721,41,0.046980200191061,1
648,722,41,0.0459041734542816,1
648,723,41,0.0419763509202738,1
649,719,41,0.049726599803091,1
649,720,41,0.0460023381316591,1
649,721,41,0.0451398828269732,1
649,722,41,0.042300779339733,1
650,719,41,0.0483332950536508,1
650,720,41,0.0449274495125591,1
650,721,41,0.0431701471548853,1
651,718,41,0.0518253969386808,1
651,719,41,0.0463232062162398,1
651,720,41,0.0428696949009819,1
652,718,41,0.0495045830512099,1
652,719,41,0.043368896023472,1
653,718,41,0.0463471364245496,1
653,719,41,0.0412262773021725,1
654,718,41,0.0440777919491902,1
655,717,41,0.0483987435786373,1
655,718,41,0.0432961078559684,1
656,717,41,0.045681302438299,1
656,718,41,0.0422189348914072,1
657,717,41,0.0434300705245839,1
657,718,41,0.0413450362324764,1
659,716,41,0.0433298756182818,1
659,756,41,0.0411325353338771,1
660,716,41,0.0412267909419804,1
639,731,42,0.0451941934782321,1
639,732,42,0.0444562606831673,1
639,733,42,0.0445558338149653,1
639,734,42,0.0454186270405774,1
640,729,42,0.0494321760585111,1
640,730,42,0.0462889923983039,1
640,731,42,0.0418980776202962,1
640,733,42,0.0410759998112401,1
641,728,42,0.046500601185658,1
641,729,42,0.0460149844844012,1
641,730,42,0.0416960171266327,1
641,738,42,0.0423824480691771,1
642,725,42,0.0730338657539752,1
642,726,42,0.0829640587519163,1
642,727,42,0.0757995998497187,1
642,728,42,0.0569369240367599,1
642,729,42,0.0439695788551512,1
643,724,42,0.0825944543596752,1
643,725,42,0.12741429092576,1
643,726,42,0.160678361823366,1
643,727,42,0.149193127010602,1
643,728,42,0.0989181491284733,1
643,729,42,0.0533659054503088,1
644,723,42,0.0610856792723175,1
644,724,42,0.103521097122518,1
644,725,42,0.175737870076941,1
644,726,42,0.227277721129615,1
644,727,42,0.213240129010748,1
644,728,42,0.139254391371647,1
644,729,42,0.0639787852269319,1
645,722,42,0.0524501343335706,1
645,723,42,0.0603224591785033,1
645,724,42,0.105431404668841,1
645,725,42,0.180805786451968,1
645,726,42,0.228019676535385,1
645,727,42,0.204683538620566,1
645,728,42,0.128377219583591,1
645,729,42,0.0559122450605585,1
646,721,42,0.052797717094893,1
646,722,42,0.0522455813351555,1
646,723,42,0.055464540383854,1
646,724,42,0.0822143609018849,1
646,725,42,0.132037060009653,1
646,726,42,0.1587340567285,1
646,727,42,0.133048270809419,1
646,728,42,0.079041591588747,1
647,720,42,0.048901261732939,1
647,721,42,0.0512910385230288,1
647,722,42,0.0516352258548848,1
647,723,42,0.0501739422285627,1
647,724,42,0.0529976797754466,1
647,725,42,0.0662325772295839,1
647,726,42,0.0726386226252215,1
647,727,42,0.0583696006291536,1
648,719,42,0.0491907599420986,1
648,720,42,0.0461774676791881,1
648,721,42,0.0476293760273337,1
648,722,42,0.047498170793476,1
648,723,42,0.0452164097516042,1
649,719,42,0.0493146390502763,1
649,720,42,0.0461825986705315,1
649,721,42,0.0455306167388877,1
649,722,42,0.0431393125462114,1
650,719,42,0.0481576086124355,1
650,720,42,0.0450219727540359,1
650,721,42,0.0429118079584887,1
651,718,42,0.0502922415864069,1
651,719,42,0.0460634450485858,1
651,720,42,0.0428967664222217,1
652,718,42,0.0477547528010563,1
652,719,42,0.0431199375119867,1
653,718,42,0.0456802048711307,1
653,719,42,0.0412193215378276,1
654,718,42,0.0434117011430356,1
655,717,42,0.0474811936461437,1
655,718,42,0.0417763612060462,1
656,717,42,0.0448137702096178,1
657,717,42,0.0430258630294999,1
639,732,43,0.0455211711731585,1
639,733,43,0.0454593235335616,1
639,734,43,0.0475149046377414,1
639,735,43,0.0504204568959096,1
640,729,43,0.0546268641448444,1
640,730,43,0.0520471595740254,1
640,731,43,0.0462510479333427,1
640,732,43,0.0426145727118028,1
640,733,43,0.0420894381857524,1
640,734,43,0.0421918552600652,1
640,735,43,0.0420824094304874,1
640,736,43,0.0414057917116399,1
641,728,43,0.0510938008368241,1
641,729,43,0.0524093999934427,1
641,730,43,0.0478793672251694,1
641,731,43,0.0410121651965971,1
641,738,43,0.0431258903270227,1
641,739,43,0.0418368030945901,1
641,740,43,0.0410045984712176,1
642,726,43,0.084168225103911,1
642,727,43,0.0776979368851515,1
642,728,43,0.0594145386407226,1
642,729,43,0.0480960583432536,1
642,730,43,0.0417499682300262,1
642,738,43,0.0430517099253031,1
642,739,43,0.0411172829349521,1
643,725,43,0.13195578597185,1
643,726,43,0.167637251261002,1
643,727,43,0.153359362219831,1
643,728,43,0.0973575491902571,1
643,729,43,0.0537420465849462,1
644,723,43,0.0613322480070127,1
644,724,43,0.107850842806149,1
644,725,43,0.18959924589458,1
644,726,43,0.242573309052336,1
644,727,43,0.220625469250515,1
644,728,43,0.135891921360642,1
644,729,43,0.0627434057948259,1
645,722,43,0.0518715109799538,1
645,723,43,0.063016532410953,1
645,724,43,0.11611347983768,1
645,725,43,0.20468792888924,1
645,726,43,0.251892270678966,1
645,727,43,0.217433679044283,1
645,728,43,0.128954766996979,1
645,729,43,0.0565985651650391,1
646,721,43,0.0523244223422892,1
646,722,43,0.0522618015396132,1
646,723,43,0.0588470585675682,1
646,724,43,0.094708854683145,1
646,725,43,0.158219303133302,1
646,726,43,0.186813414965513,1
646,727,43,0.151800741146558,1
646,728,43,0.0867908753693989,1
647,720,43,0.04843709354871,1
647,721,43,0.0511317290815809,1
647,722,43,0.0521001996426019,1
647,723,43,0.0521828037371697,1
647,724,43,0.0595773029857201,1
647,725,43,0.0796776236526741,1
647,726,43,0.0877926351967018,1
647,727,43,0.069449541193134,1
647,728,43,0.0418250461497257,1
648,720,43,0.0464471718321746,1
648,721,43,0.0484666954218451,1
648,722,43,0.0492655999654661,1
648,723,43,0.0481232055587809,1
648,724,43,0.0430675868020998,1
649,719,43,0.0495962380198651,1
649,720,43,0.0468741957481956,1
649,721,43,0.0468799485140433,1
649,722,43,0.0453961133967902,1
649,723,43,0.0423723131447585,1
650,719,43,0.0483729318266104,1
650,720,43,0.045354789722567,1
650,721,43,0.0434284647243426,1
651,718,43,0.0503757702326289,1
651,719,43,0.0465333119313142,1
651,720,43,0.0430919873963388,1
652,718,43,0.0472324297771119,1
652,719,43,0.0432936991556064,1
653,718,43,0.0455109686645547,1
653,719,43,0.0414535277733587,1
654,718,43,0.0427541043172821,1
655,717,43,0.0461819985229666,1
655,718,43,0.0410132897974395,1
656,717,43,0.0443040205474955,1
657,717,43,0.0426101554094555,1
639,733,44,0.0458479488188966,1
639,734,44,0.0481684707426873,1
640,730,44,0.0557741570532759,1
640,731,44,0.0499510766193149,1
640,732,44,0.0435575856619275,1
640,733,44,0.0418358461025271,1
640,734,44,0.0424697154725266,1
640,735,44,0.0434076650154931,1
640,736,44,0.0429250382385913,1
641,728,44,0.0519374298908696,1
641,729,44,0.055010180016587,1
641,730,44,0.0518787073439982,1
641,731,44,0.044442108554778,1
641,738,44,0.0424350339720288,1
641,739,44,0.0417114155073978,1
642,726,44,0.076241838317521,1
642,727,44,0.0720059535503519,1
642,728,44,0.0580150594001189,1
642,729,44,0.0498863525967942,1
642,730,44,0.0440302289029856,1
642,738,44,0.0413674228179954,1
642,742,44,0.0414361478242823,1
642,743,44,0.0424219496737663,1
642,744,44,0.0418285226802145,1
643,725,44,0.117954537924438,1
643,726,44,0.148244515386572,1
643,727,44,0.132308056372261,1
643,728,44,0.0835715270357935,1
643,729,44,0.0516198058471804,1
643,743,44,0.0424315358146007,1
643,744,44,0.0416204471940647,1
644,724,44,0.0989199333509636,1
644,725,44,0.176830506303085,1
644,726,44,0.222782237396836,1
644,727,44,0.192821551712131,1
644,728,44,0.113384257422171,1
644,729,44,0.058634433314068,1
645,723,44,0.0621214312414287,1
645,724,44,0.110881739397631,1
645,725,44,0.196515476194493,1
645,726,44,0.237953254149323,1
645,727,44,0.19677813537201,1
645,728,44,0.11243924668353,1
645,729,44,0.0557688422329486,1
646,721,44,0.050915178538602,1
646,722,44,0.0512278878603405,1
646,723,44,0.0591574051461908,1
646,724,44,0.0948566315592236,1
646,725,44,0.157121606203367,1
646,726,44,0.182929411313848,1
646,727,44,0.145305652235183,1
646,728,44,0.0822691635660124,1
646,729,44,0.0412745945878844,1
647,720,44,0.0479356891817811,1
647,721,44,0.0492371064729689,1
647,722,44,0.0501617987021587,1
647,723,44,0.0514796470604621,1
647,724,44,0.0622294091425031,1
647,725,44,0.0842327544839782,1
647,726,44,0.0914749568261411,1
647,727,44,0.0710542979346186,1
647,728,44,0.0423382939692761,1
648,720,44,0.0460357679730463,1
648,721,44,0.0469122970084666,1
648,722,44,0.0479137053980062,1
648,723,44,0.047120191369,1
648,724,44,0.0452752593567439,1
648,725,44,0.0432176345068024,1
649,719,44,0.0498067762737251,1
649,720,44,0.0464688041781863,1
649,721,44,0.0457543257987672,1
649,722,44,0.0451158796277433,1
649,723,44,0.0427404955657421,1
650,719,44,0.0479649504306226,1
650,720,44,0.0445762469422752,1
650,721,44,0.0420139493542066,1
651,718,44,0.0491390337100833,1
651,719,44,0.0452350792069349,1
651,720,44,0.0416437177807265,1
652,718,44,0.0452502640216747,1
652,719,44,0.0412257231118536,1
653,718,44,0.0438711032905215,1
654,718,44,0.0411874136922921,1
656,717,44,0.0423425220359047,1
640,730,45,0.05639143856085,1
640,731,45,0.0519854092556553,1
640,732,45,0.0458000073012547,1
640,733,45,0.0437711814243277,1
640,734,45,0.0452848022436998,1
640,735,45,0.0469147949199531,1
640,736,45,0.0474063698429806,1
641,728,45,0.0506841325395728,1
641,729,45,0.0540540205907494,1
641,730,45,0.0530502927119723,1
641,731,45,0.0465037262783835,1
641,735,45,0.0416939112034207,1
641,736,45,0.0430630262212797,1
641,737,45,0.0433222467154519,1
641,738,45,0.0433306677049328,1
642,727,45,0.0634816089266316,1
642,728,45,0.0561930059862503,1
642,729,45,0.0509411903398172,1
642,730,45,0.0460523342085323,1
642,741,45,0.0421211973460804,1
642,742,45,0.0445239881468801,1
642,743,45,0.0463145230001202,1
643,726,45,0.113327789483719,1
643,727,45,0.0991862582946882,1
643,728,45,0.0689939372768587,1
643,729,45,0.050689149989485,1
643,730,45,0.0420752563203216,1
643,742,45,0.0425223094854804,1
643,743,45,0.0444035071715363,1
643,744,45,0.0440940040435456,1
643,745,45,0.0417440154149903,1
644,724,45,0.0840797817357384,1
644,725,45,0.140486661931232,1
644,726,45,0.175236449489808,1
644,727,45,0.143765457314175,1
644,728,45,0.087463035235388,1
644,729,45,0.0553266253920856,1
644,743,45,0.0414229013239753,1
645,723,45,0.0595540756529368,1
645,724,45,0.0969525306849503,1
645,725,45,0.15874661116675,1
645,726,45,0.190916110227146,1
645,727,45,0.151286236261162,1
645,728,45,0.0901859479913634,1
645,729,45,0.0550256162444958,1
646,722,45,0.0498177140982643,1
646,723,45,0.0588285405008124,1
646,724,45,0.0878972717356579,1
646,725,45,0.131353551407278,1
646,726,45,0.149254309621817,1
646,727,45,0.116159026171797,1
646,728,45,0.0699258907509107,1
646,729,45,0.0415242911186725,1
647,721,45,0.0478728845501212,1
647,722,45,0.0482811687232588,1
647,723,45,0.052249755334436,1
647,724,45,0.0645502068097695,1
647,725,45,0.0810100918219286,1
647,726,45,0.083288814278832,1
647,727,45,0.0637028471086988,1
648,720,45,0.0461510990334748,1
648,721,45,0.045826046136144,1
648,722,45,0.0461346301192155,1
648,723,45,0.046181209139683,1
648,724,45,0.0466120448037515,1
648,725,45,0.0461436323326895,1
649,719,45,0.050086726189194,1
649,720,45,0.0461930877360808,1
649,721,45,0.0445630491025815,1
649,722,45,0.0439817872623729,1
649,723,45,0.0419330997450876,1
650,719,45,0.0477160513932204,1
650,720,45,0.043785379509963,1
651,718,45,0.0477964441332472,1
651,719,45,0.0440110566213167,1
652,718,45,0.0439472490403478,1
653,718,45,0.0422002924697506,1
640,731,46,0.0506402406663104,1
640,734,46,0.0467432446308744,1
640,735,46,0.0494549221918955,1
640,736,46,0.0500985128710999,1
641,729,46,0.0511698844092,1
641,730,46,0.0510267951722097,1
641,731,46,0.0454105601922272,1
641,734,46,0.0418898918237799,1
641,735,46,0.0445209657821162,1
641,736,46,0.0463783440979261,1
641,737,46,0.0451832556536928,1
642,728,46,0.0522844719787101,1
642,729,46,0.0487197252046492,1
642,730,46,0.044772554670091,1
642,741,46,0.0426669504553639,1
642,742,46,0.0450254411744224,1
643,726,46,0.0798711847592018,1
643,727,46,0.0698288777080496,1
643,728,46,0.0558677151925875,1
643,729,46,0.0467613301588447,1
643,741,46,0.0409932551415669,1
643,742,46,0.0439698870390359,1
643,743,46,0.0459673078967654,1
643,744,46,0.045255922169663,1
643,745,46,0.0423089191790033,1
644,724,46,0.0680892553732347,1
644,725,46,0.100711822591276,1
644,726,46,0.121557077774886,1
644,727,46,0.0962950825444042,1
644,728,46,0.064522259397489,1
644,729,46,0.0488722978545125,1
644,742,46,0.0438159816290397,1
644,743,46,0.049054526444859,1
644,744,46,0.0470120134187373,1
644,745,46,0.0417416553752417,1
645,723,46,0.0555623968773468,1
645,724,46,0.0795968362210055,1
645,725,46,0.115708028793588,1
645,726,46,0.135354545986961,1
645,727,46,0.104187704271848,1
645,728,46,0.0678015684202395,1
645,729,46,0.049466033031949,1
645,743,46,0.0464726808070516,1
645,744,46,0.0458296199878595,1
646,722,46,0.0471499662576493,1
646,723,46,0.0562773943033085,1
646,724,46,0.0760164964237261,1
646,725,46,0.0997787715500555,1
646,726,46,0.107617347556247,1
646,727,46,0.082182628775231,1
646,728,46,0.0536894066147464,1
647,721,46,0.0446498542301039,1
647,722,46,0.044931593774798,1
647,723,46,0.0507019747644761,1
647,724,46,0.0615433701882331,1
647,725,46,0.0705243946684577,1
647,726,46,0.0674520878949955,1
647,727,46,0.0507900180342721,1
648,720,46,0.044807006384359,1
648,721,46,0.0427176548144984,1
648,722,46,0.0422992519371466,1
648,723,46,0.0432904578180823,1
648,724,46,0.0444242311860983,1
648,725,46,0.0434894608032055,1
649,719,46,0.0486139099975025,1
649,720,46,0.0444952297243768,1
649,721,46,0.0414326010062409,1
650,719,46,0.0456927484959113,1
650,720,46,0.0413954810683397,1
640,735,47,0.0518100958791424,1
641,729,47,0.0475129636199413,1
641,731,47,0.0425892583793792,1
641,734,47,0.0431458384751381,1
641,735,47,0.0466814402451561,1
641,736,47,0.048847670177411,1
642,728,47,0.0478694566802458,1
642,729,47,0.0453335250345231,1
642,730,47,0.0417629470969597,1
642,741,47,0.043334952542277,1
643,726,47,0.0579380134289452,1
643,727,47,0.0536718563535233,1
643,728,47,0.0481857074132909,1
643,729,47,0.0428954796193347,1
643,741,47,0.0412874761335912,1
643,742,47,0.0438947388317837,1
643,743,47,0.046183598916473,1
643,744,47,0.0450163659700284,1
643,745,47,0.0419171471740035,1
644,724,47,0.0548425063563737,1
644,725,47,0.0697996705265563,1
644,726,47,0.0780530025674637,1
644,727,47,0.065507269160322,1
644,728,47,0.0510077418387068,1
644,729,47,0.0428270600935651,1
644,742,47,0.0445561176685433,1
644,743,47,0.0524090755893536,1
644,744,47,0.0503802902629377,1
644,745,47,0.0427840062641997,1
645,723,47,0.0501451675858548,1
645,724,47,0.0627295699604236,1
645,725,47,0.0796778345153321,1
645,726,47,0.0864660928088091,1
645,727,47,0.0690666957073207,1
645,728,47,0.0508485837858338,1
645,729,47,0.0413501374867784,1
645,743,47,0.0542380820641997,1
645,744,47,0.053987669141048,1
645,745,47,0.0442607909992485,1
646,722,47,0.0437447127540203,1
646,723,47,0.0505839133029639,1
646,724,47,0.0612819004923762,1
646,725,47,0.0714111910932997,1
646,726,47,0.0710712372348072,1
646,727,47,0.0557361477074969,1
647,721,47,0.0421477444140427,1
647,722,47,0.0415374051539765,1
647,723,47,0.0461097861727212,1
647,724,47,0.052252145111226,1
647,725,47,0.0547848543429965,1
647,726,47,0.0494587880072912,1
648,720,47,0.0438774210601578,1
649,719,47,0.0474110574820689,1
649,720,47,0.0424955623683298,1
650,718,47,0.0468897022636571,1
650,719,47,0.0433180537925996,1
651,718,47,0.0430385012721398,1
641,734,48,0.0443972110288394,1
641,735,48,0.0478439422986339,1
642,729,48,0.0425971143650716,1
642,735,48,0.0411282288695936,1
642,736,48,0.042224893113178,1
642,737,48,0.0415982417341622,1
643,727,48,0.0454985385812053,1
643,728,48,0.0436535795352751,1
643,742,48,0.0421348304279271,1
643,743,48,0.044116122995691,1
643,744,48,0.0433783848430797,1
644,725,48,0.0514445032841372,1
644,726,48,0.0528982715490607,1
644,727,48,0.049118525964914,1
644,728,48,0.0434529058690928,1
644,742,48,0.0428690055422925,1
644,743,48,0.0515615807199124,1
644,744,48,0.0507937054274188,1
644,745,48,0.0424093141344938,1
645,724,48,0.0513723504079749,1
645,725,48,0.0573617474117095,1
645,726,48,0.0571255920482762,1
645,727,48,0.0490045736218644,1
645,742,48,0.0411213352826991,1
645,743,48,0.0563220431194455,1
645,744,48,0.0575531512310443,1
645,745,48,0.0455774715028309,1
646,723,48,0.0448560995365174,1
646,724,48,0.0499758719051958,1
646,725,48,0.0530943792276882,1
646,726,48,0.0497593375824213,1
646,744,48,0.041659329727517,1
647,724,48,0.0428761883894998,1
647,725,48,0.0419711955986237,1
648,720,48,0.0421308537744675,1
649,719,48,0.0449299068735344,1
642,735,49,0.0424917587303845,1
644,743,49,0.0463040717817146,1
644,744,49,0.0469775292640603,1
645,725,49,0.0423606237840794,1
645,743,49,0.0500064578040681,1
645,744,49,0.0524770220258265,1
645,745,49,0.0431917740941621,1
649,719,49,0.0434063187385231,1
651,756,49,0.0431543621925806,1
652,757,49,0.0435263806919185,1
644,744,50,0.0416283383235333,1
645,743,50,0.0417280385135995,1
645,744,50,0.0439817683388011,1
649,719,50,0.041321543969687,1
651,756,50,0.0442326840882909,1
667,727,52,0.0448778129835513,1
659,722,54,0.0413706263083758,1
660,721,54,0.048519302951636,1
660,722,54,0.0509140539377596,1
660,723,54,0.0425490755262029,1
661,721,54,0.0458876666928785,1
661,722,54,0.0492773109530845,1
661,723,54,0.0419568758614551,1
655,723,55,0.0463988842835043,1
655,724,55,0.0515069618847687,1
655,725,55,0.0418746313147527,1
656,723,55,0.0561927356495093,1
656,724,55,0.0661531036344764,1
656,725,55,0.0533864834830307,1
657,723,55,0.0492653188152555,1
657,724,55,0.0566452901673467,1
657,725,55,0.0469901377696587,1
659,722,55,0.0463116303969919,1
660,722,55,0.0558436660361116,1
660,723,55,0.0448083445512267,1
661,722,55,0.0498166435647701,1
661,723,55,0.040998515894546,1
655,722,56,0.0414886147789679,1
655,723,56,0.0622553885033094,1
655,724,56,0.0681493187903413,1
655,725,56,0.0540987180674998,1
656,722,56,0.0444127040274638,1
656,723,56,0.0721652089244516,1
656,724,56,0.0848744095521173,1
656,725,56,0.0687308888144346,1
656,726,56,0.0443485152716902,1
657,723,56,0.055397518499035,1
657,724,56,0.0646962805643801,1
657,725,56,0.0547847245813608,1
658,723,56,0.0420723204633148,1
658,724,56,0.0417332451992304,1
659,722,56,0.0463380531100534,1
660,723,56,0.0431820149378135,1
670,738,56,0.0452025604003648,1
670,739,56,0.0485812641326641,1
671,738,56,0.0411996842769643,1
671,739,56,0.0431401532934758,1
654,723,57,0.0456617030245794,1
654,724,57,0.0477750226498935,1
654,725,57,0.0410472873459827,1
655,722,57,0.0477849115678778,1
655,723,57,0.0716100724268895,1
655,724,57,0.0804676395242523,1
655,725,57,0.0664213263421224,1
655,726,57,0.0478566048715805,1
656,722,57,0.0482292100016462,1
656,723,57,0.0735459322019676,1
656,724,57,0.0864638436071243,1
656,725,57,0.0730538328256626,1
656,726,57,0.0523331379988178,1
657,722,57,0.0425350234224078,1
657,723,57,0.054901472206312,1
657,724,57,0.0624472843355127,1
657,725,57,0.0540368379874939,1
658,722,57,0.0421782897624038,1
658,723,57,0.0419789596698241,1
659,722,57,0.0446150916285838,1
670,738,57,0.0489159193910338,1
670,739,57,0.0520735065927994,1
670,740,57,0.0411652920367793,1
671,738,57,0.0471388716378003,1
671,739,57,0.04874572078566,1
654,723,58,0.0428884941179483,1
654,724,58,0.0479337806043899,1
654,725,58,0.0431591741865697,1
655,722,58,0.0460666782760077,1
655,723,58,0.0637077185767709,1
655,724,58,0.0757539832280491,1
655,725,58,0.068514565354318,1
655,726,58,0.0545668710152905,1
656,722,58,0.0468450156003764,1
656,723,58,0.0621143430120807,1
656,724,58,0.0741423328996699,1
656,725,58,0.0689764518964533,1
656,726,58,0.0569415522017652,1
656,727,58,0.0446153051946091,1
657,722,58,0.044080430435782,1
657,723,58,0.0498900399899409,1
657,724,58,0.0541457728806313,1
657,725,58,0.0490829226161295,1
657,726,58,0.041008996849993,1
658,722,58,0.0419098021247516,1
670,738,58,0.0468897833646794,1
670,739,58,0.0494103598835156,1
671,738,58,0.0479561320461325,1
671,739,58,0.048975009595873,1
654,724,59,0.0427655665950988,1
655,723,59,0.0484295835940461,1
655,724,59,0.0580390761161858,1
655,725,59,0.057827456515362,1
655,726,59,0.0538398111639472,1
655,727,59,0.0458115074262152,1
656,722,59,0.0414423087986088,1
656,723,59,0.0475254369571692,1
656,724,59,0.0556830427581026,1
656,725,59,0.0580203255598328,1
656,726,59,0.056176985830981,1
656,727,59,0.0497340935375505,1
657,723,59,0.0429065742391837,1
657,724,59,0.0449133081976394,1
657,725,59,0.0449045303636604,1
657,726,59,0.0429591682521376,1
670,739,59,0.0414649684242361,1
671,738,59,0.0427667452632894,1
671,739,59,0.041403753372613,1
650,743,60,0.041683749245328,1
655,725,60,0.0433688689897979,1
655,726,60,0.0463818855092327,1
655,727,60,0.0452714340918593,1
656,725,60,0.044461670121354,1
656,726,60,0.0478345237665789,1
656,727,60,0.047136876552652,1
657,726,60,0.0414354476521232,1
658,735,60,0.0504238036647627,1
658,736,60,0.0435265158602889,1
659,735,60,0.0434137448887973,1
663,732,60,0.0414205872414726,1
650,743,61,0.0416345506618406,1
