x,y,z,signal,cytoplasm.p
547,235,2,0.0422078294580886,1
548,235,2,0.0521066715041804,1
548,236,2,0.0435830189425171,1
549,235,2,0.0488811757130856,1
549,236,2,0.0424458771787087,1
547,235,3,0.052357533186322,1
547,236,3,0.0410785707136466,1
548,234,3,0.050568060756474,1
548,235,3,0.0751250285800003,1
548,236,3,0.0560670074380235,1
549,234,3,0.0453412782922538,1
549,235,3,0.0648999360448152,1
549,236,3,0.0498790426913186,1
547,235,4,0.0515433221764279,1
548,234,4,0.0536549494937436,1
548,235,4,0.0855260400459979,1
548,236,4,0.0579728760550594,1
549,234,4,0.04706052805027,1
549,235,4,0.072731553583294,1
549,236,4,0.0498129237312145,1
543,243,5,0.0467370268858323,1
543,244,5,0.0457559694461523,1
544,243,5,0.0454924073439203,1
544,244,5,0.0419842961170907,1
547,235,5,0.0432472444900398,1
548,234,5,0.0502434782450725,1
548,235,5,0.0799479279532256,1
548,236,5,0.0534094621060123,1
549,234,5,0.0478096041257972,1
549,235,5,0.0745331803530157,1
549,236,5,0.0499595435660418,1
550,235,5,0.0451084183336928,1
541,245,6,0.0428107290510436,1
542,243,6,0.0410707228380565,1
542,244,6,0.0456505110835036,1
542,245,6,0.0459734769811942,1
543,242,6,0.0424179027327541,1
543,243,6,0.0558747817949962,1
543,244,6,0.0558841516664379,1
543,245,6,0.0484037556218147,1
544,242,6,0.0424567744527368,1
544,243,6,0.0564678465373151,1
544,244,6,0.0527243747370705,1
544,245,6,0.0430202967960035,1
544,251,6,0.0423922991400177,1
548,234,6,0.0420044389076596,1
548,235,6,0.0613758154761858,1
548,236,6,0.0427814569887325,1
549,234,6,0.0462411644220931,1
549,235,6,0.0674827386746856,1
549,236,6,0.0468219666898421,1
550,235,6,0.0450276741559027,1
541,245,7,0.046128185291311,1
541,246,7,0.041777547984339,1
542,243,7,0.0427758069508464,1
542,244,7,0.0494993277049656,1
542,245,7,0.0521142895935407,1
542,246,7,0.0457814513873552,1
543,242,7,0.0483527160451214,1
543,243,7,0.0627340197031798,1
543,244,7,0.0647190429179689,1
543,245,7,0.0573100049594897,1
543,246,7,0.0480729986192497,1
543,251,7,0.0461315753140426,1
543,252,7,0.0453617644104838,1
544,242,7,0.049612809662086,1
544,243,7,0.0663052275253496,1
544,244,7,0.0646324810935134,1
544,245,7,0.0523174422476376,1
544,246,7,0.0451501826568037,1
544,251,7,0.0517076652879925,1
544,252,7,0.0496420330637838,1
545,243,7,0.0440199020394809,1
545,244,7,0.0446021452020592,1
545,245,7,0.0414528357113018,1
545,251,7,0.0411311512097634,1
548,235,7,0.041816395374015,1
549,235,7,0.0534383719170906,1
541,245,8,0.0426375405213148,1
542,244,8,0.046245624978319,1
542,245,8,0.0503498179054967,1
542,246,8,0.0460387903378102,1
543,242,8,0.0493721991491616,1
543,243,8,0.0575099568265737,1
543,244,8,0.0617754326534083,1
543,245,8,0.0570191604733601,1
543,246,8,0.0488421228674865,1
543,251,8,0.0471612825536259,1
543,252,8,0.0512832041642758,1
544,242,8,0.052204117085827,1
544,243,8,0.0627502993817204,1
544,244,8,0.066403965316618,1
544,245,8,0.0568707510093076,1
544,246,8,0.0483062397526155,1
544,251,8,0.0530916974872178,1
544,252,8,0.0550975312243261,1
545,243,8,0.0414184272509124,1
545,244,8,0.047553405996389,1
545,245,8,0.0452814852118882,1
545,246,8,0.0429109807280614,1
542,245,9,0.0449023433394261,1
542,246,9,0.0418432425157598,1
543,242,9,0.0441193183759691,1
543,243,9,0.0460809844963393,1
543,244,9,0.0507755712388352,1
543,245,9,0.0505260017663154,1
543,246,9,0.043327085743115,1
543,251,9,0.0441516073963094,1
543,252,9,0.051063539342041,1
544,242,9,0.0472960400122599,1
544,243,9,0.0501137166094115,1
544,244,9,0.0579105688430029,1
544,245,9,0.0557491941586156,1
544,246,9,0.0464132391644493,1
544,251,9,0.0473170992443807,1
544,252,9,0.0518504895949767,1
545,244,9,0.0438130782124418,1
545,245,9,0.0442432272211883,1
557,240,9,0.0450139599730338,1
558,239,9,0.0451858184459971,1
558,240,9,0.0483795064161506,1
559,240,9,0.0416032997345855,1
543,245,10,0.0421859538090101,1
543,252,10,0.044876028761061,1
544,244,10,0.0442554031880012,1
544,245,10,0.0490077906290818,1
544,246,10,0.0410940177550251,1
544,252,10,0.043542363000044,1
547,221,10,0.0465109442693672,1
548,221,10,0.0434542764763695,1
557,239,10,0.0485678175831688,1
557,240,10,0.0531144868744808,1
557,241,10,0.041004871511326,1
558,239,10,0.0565932773783859,1
558,240,10,0.0607148745849466,1
558,241,10,0.0468761746131395,1
559,239,10,0.0458782751944976,1
559,240,10,0.0475212088905406,1
546,221,11,0.043813191753873,1
547,220,11,0.0427205609344637,1
547,221,11,0.051729930221978,1
547,222,11,0.0425321821832603,1
548,221,11,0.0467318850810193,1
557,239,11,0.0496465530940927,1
557,240,11,0.0535075727160417,1
558,239,11,0.0611845360117519,1
558,240,11,0.0666356168699469,1
558,241,11,0.0482863321550112,1
559,239,11,0.0457089470734296,1
559,240,11,0.0496397946755687,1
542,250,12,0.0411515913707474,1
546,221,12,0.0434182459955343,1
547,221,12,0.0511669269252539,1
547,222,12,0.0431064233783061,1
548,221,12,0.0455514651083505,1
557,239,12,0.0472467846580569,1
557,240,12,0.0497795533639104,1
558,239,12,0.058139792772398,1
558,240,12,0.0643383006520003,1
558,241,12,0.0469391198199047,1
559,239,12,0.0424046913762234,1
559,240,12,0.0484230738853238,1
541,250,13,0.041359988557619,1
542,250,13,0.0456817349770845,1
543,250,13,0.0430924712991052,1
547,221,13,0.0442458359707386,1
558,239,13,0.046927327731264,1
558,240,13,0.0519984286730999,1
559,240,13,0.0427013426955488,1
541,250,14,0.0420502663919872,1
542,250,14,0.044236493132971,1
543,250,14,0.0417307553978461,1
571,250,14,0.0419588249893574,1
571,251,14,0.0417783752147663,1
572,251,14,0.0413902473490347,1
570,251,15,0.0415867767529781,1
571,250,15,0.0418485627428219,1
571,251,15,0.0437143458279082,1
572,251,15,0.0412561359952116,1
571,251,16,0.043085791278236,1
567,261,17,0.0451388609540923,1
567,261,18,0.0447872907258407,1
568,261,18,0.0420248304080303,1
541,235,20,0.0418779537532991,1
568,261,20,0.041433512041058,1
569,260,20,0.0417780237770031,1
569,261,20,0.0426151890795722,1
541,235,21,0.0431575467593891,1
541,236,21,0.0440877268244205,1
568,260,21,0.042358977433327,1
568,261,21,0.0425007528337562,1
569,260,21,0.0470414963437064,1
569,261,21,0.046146097803767,1
569,262,21,0.041103349779323,1
570,260,21,0.0438441182770388,1
570,261,21,0.042913010956986,1
570,264,21,0.0420973076882818,1
570,265,21,0.0415842869515938,1
571,262,21,0.0417398008651987,1
571,263,21,0.0423432708686772,1
571,264,21,0.0432224546108937,1
541,235,22,0.0418546993868417,1
541,236,22,0.0437001855894167,1
545,253,22,0.04595745141919,1
568,260,22,0.0442593230707451,1
568,261,22,0.0447755986617942,1
568,262,22,0.0436128560086169,1
568,263,22,0.0444814831010989,1
568,264,22,0.0437466699920249,1
569,259,22,0.0420781975840633,1
569,260,22,0.0523841235081629,1
569,261,22,0.0517331958898088,1
569,262,22,0.046380858229617,1
569,263,22,0.0461527859347384,1
569,264,22,0.047141153279894,1
569,265,22,0.0444119146441802,1
569,266,22,0.0420568626084667,1
570,259,22,0.0425813266993995,1
570,260,22,0.0483914444866314,1
570,261,22,0.0473437328201001,1
570,262,22,0.0449286200706474,1
570,263,22,0.0457789318489294,1
570,264,22,0.0468067629515305,1
570,265,22,0.045173350515504,1
571,258,22,0.041829568883402,1
571,259,22,0.0447335261547985,1
571,260,22,0.0440871456004274,1
571,261,22,0.0431276502192063,1
571,262,22,0.044753428345668,1
571,263,22,0.0458533934008596,1
571,264,22,0.0458835575744159,1
572,259,22,0.042720014854247,1
572,260,22,0.0414851004013354,1
573,253,22,0.041408795152832,1
573,254,22,0.042265040822578,1
541,235,23,0.0411656786183189,1
541,236,23,0.0422562981323754,1
544,253,23,0.0411839723055797,1
545,253,23,0.0485617133795579,1
545,254,23,0.0452508587625048,1
565,267,23,0.0427583567142174,1
565,268,23,0.0440081937552299,1
566,267,23,0.0427909214780335,1
566,268,23,0.0414156644094198,1
567,265,23,0.041307486459157,1
568,260,23,0.0444051129717776,1
568,261,23,0.0469162655518239,1
568,262,23,0.0462822339797798,1
568,263,23,0.0488878368103829,1
568,264,23,0.048898688127165,1
568,265,23,0.0456027371746411,1
568,266,23,0.0410726962962655,1
569,259,23,0.0452230465185948,1
569,260,23,0.0538290139145132,1
569,261,23,0.0559922809560872,1
569,262,23,0.0513735939569833,1
569,263,23,0.0531916355736161,1
569,264,23,0.0539074494165355,1
569,265,23,0.0492999327315681,1
569,266,23,0.0440277255847643,1
570,259,23,0.0466684424546507,1
570,260,23,0.0519797700312388,1
570,261,23,0.0535069617550071,1
570,262,23,0.0501870805941733,1
570,263,23,0.0515277778138227,1
570,264,23,0.0516262128279412,1
570,265,23,0.0485820913630915,1
571,258,23,0.0452238223850414,1
571,259,23,0.0500078419281818,1
571,260,23,0.0490324345263878,1
571,261,23,0.0487249697374239,1
571,262,23,0.0486362776594496,1
571,263,23,0.0495229551361256,1
571,264,23,0.0487718407215716,1
572,254,23,0.0414850652575591,1
572,255,23,0.0417608925377284,1
572,258,23,0.0434501916882136,1
572,259,23,0.0466884203398077,1
572,260,23,0.0445019124486133,1
573,253,23,0.0419496065064906,1
573,254,23,0.0424991875840261,1
573,255,23,0.0413825968192655,1
545,253,24,0.046820593379198,1
545,254,24,0.0456814430134043,1
549,218,24,0.0421522914780257,1
549,219,24,0.0440176041771828,1
550,217,24,0.0429694004977829,1
550,218,24,0.0446430660745384,1
551,217,24,0.0437645825044809,1
565,267,24,0.0449578975396934,1
565,268,24,0.0484656735489643,1
566,266,24,0.0419321968203728,1
566,267,24,0.0461840963360764,1
566,268,24,0.0468720600879421,1
567,265,24,0.0428531935463137,1
567,266,24,0.0439132460850698,1
567,267,24,0.0430134680899269,1
568,260,24,0.0433981545689461,1
568,261,24,0.0474322518825602,1
568,262,24,0.0479696380697109,1
568,263,24,0.0499495032594825,1
568,264,24,0.0508149593019931,1
568,265,24,0.048362388693713,1
568,266,24,0.0447055895559877,1
568,267,24,0.0412759192379151,1
569,258,24,0.0422623725989448,1
569,259,24,0.047051077077806,1
569,260,24,0.0514145067193603,1
569,261,24,0.0552329104574643,1
569,262,24,0.053925616045528,1
569,263,24,0.0561552994176211,1
569,264,24,0.0565527052403025,1
569,265,24,0.0507640548936703,1
569,266,24,0.0445711078408295,1
570,258,24,0.0443998414053289,1
570,259,24,0.0497482699962464,1
570,260,24,0.0525921584438016,1
570,261,24,0.0551275115688986,1
570,262,24,0.0530809597118669,1
570,263,24,0.0537395865206035,1
570,264,24,0.0534315972783622,1
570,265,24,0.0490344133913316,1
571,257,24,0.0415791802905571,1
571,258,24,0.0471807630191795,1
571,259,24,0.0513917659927107,1
571,260,24,0.0500271710051605,1
571,261,24,0.0495202679889204,1
571,262,24,0.0488415227199215,1
571,263,24,0.0494509806822123,1
572,254,24,0.0415297627343095,1
572,255,24,0.0423631135854637,1
572,258,24,0.0438662264157146,1
572,259,24,0.0464370666447975,1
548,218,25,0.0420889380627816,1
548,219,25,0.0438877641438669,1
549,217,25,0.041167335782541,1
549,218,25,0.0533220784578643,1
549,219,25,0.0523312402348962,1
549,220,25,0.0438337265327163,1
550,217,25,0.0450893595934551,1
550,218,25,0.0542932361660904,1
550,219,25,0.0466530711075597,1
551,217,25,0.0417676239225783,1
551,218,25,0.0433890388140409,1
565,232,25,0.0423056156640288,1
565,233,25,0.0415821350711358,1
565,267,25,0.0414962788255741,1
565,268,25,0.0447378001786731,1
566,232,25,0.0483533486330953,1
566,233,25,0.0501048171238991,1
566,267,25,0.0441142495620761,1
566,268,25,0.0463639567765722,1
566,269,25,0.0418258301262745,1
567,232,25,0.0426799698728085,1
567,233,25,0.0468626361491522,1
567,266,25,0.0448703625029705,1
567,267,25,0.0446169272150549,1
567,268,25,0.043061179821339,1
568,260,25,0.0412081214866496,1
568,261,25,0.0438833792819285,1
568,262,25,0.0451689332131568,1
568,263,25,0.0454223036202545,1
568,264,25,0.047316553164164,1
568,265,25,0.0475738596742101,1
569,258,25,0.0432632943823506,1
569,259,25,0.0470634152466635,1
569,260,25,0.0477146186084933,1
569,261,25,0.0497343098069432,1
569,262,25,0.0514881788880068,1
569,263,25,0.0519243888464857,1
569,264,25,0.0523235464512485,1
569,265,25,0.0488227829770382,1
570,258,25,0.0471094373734446,1
570,259,25,0.0517919454703544,1
570,260,25,0.0512511314133283,1
570,261,25,0.0516046886166259,1
570,262,25,0.0522861642867085,1
570,263,25,0.0517075895937051,1
570,264,25,0.0515480801030688,1
571,258,25,0.0462221219020599,1
571,259,25,0.049386391828062,1
571,260,25,0.0475367748800851,1
571,261,25,0.0468344454338048,1
571,262,25,0.0475031774299186,1
544,222,26,0.0413659602962268,1
544,223,26,0.0446277623116326,1
548,218,26,0.0495435872361957,1
548,219,26,0.0486489564526006,1
549,217,26,0.0478166815416755,1
549,218,26,0.0670986604533335,1
549,219,26,0.0610248210651925,1
549,220,26,0.044869059479879,1
550,217,26,0.0490712981362682,1
550,218,26,0.0667805714304499,1
550,219,26,0.0565686875484281,1
551,218,26,0.0472771164403927,1
565,232,26,0.0447672452564985,1
565,233,26,0.0426180249119848,1
566,232,26,0.0525931370628039,1
566,233,26,0.0550231237397442,1
566,234,26,0.0410895274617577,1
566,268,26,0.0428719630262386,1
567,232,26,0.0496674879713126,1
567,233,26,0.0556820316986914,1
567,234,26,0.0450955016442097,1
568,233,26,0.0427316582576801,1
568,260,26,0.0410522912790579,1
568,261,26,0.0422460415564233,1
568,262,26,0.0431672383315526,1
568,263,26,0.04245301406867,1
569,258,26,0.0418121078333034,1
569,259,26,0.0461544079551841,1
569,260,26,0.0451726963005909,1
569,261,26,0.0463941209501285,1
569,262,26,0.0482255117950299,1
569,263,26,0.0466493296470648,1
569,264,26,0.0457155378831742,1
570,258,26,0.0469170657485771,1
570,259,26,0.0514003356673991,1
570,260,26,0.048132023943271,1
570,261,26,0.0473974973911423,1
570,262,26,0.0489025593492956,1
544,222,27,0.0435673745553177,1
544,223,27,0.0463825559443502,1
547,259,27,0.0424372561400395,1
548,218,27,0.0506165699812719,1
548,219,27,0.0482196076406073,1
549,217,27,0.049473537579878,1
549,218,27,0.0704110857268516,1
549,219,27,0.0611606598707903,1
549,220,27,0.0426580590799537,1
550,217,27,0.0505117928672105,1
550,218,27,0.0712700482808443,1
550,219,27,0.0594116676645336,1
551,218,27,0.050463748621607,1
551,219,27,0.0426116557783678,1
565,232,27,0.0436854549404018,1
566,231,27,0.0430235678705692,1
566,232,27,0.0527835568564015,1
566,233,27,0.0535049450429195,1
567,231,27,0.0414304383123132,1
567,232,27,0.0541953688591279,1
567,233,27,0.0586883979342986,1
567,234,27,0.0467450667005085,1
568,232,27,0.0447911511345017,1
568,233,27,0.0488899778773713,1
568,234,27,0.0441342652943768,1
569,261,27,0.0426310551428991,1
544,222,28,0.0427334073363941,1
544,223,28,0.0437200715600818,1
548,218,28,0.0467211905595469,1
548,219,28,0.0450192180226455,1
549,217,28,0.0465945702368159,1
549,218,28,0.0633010131702005,1
549,219,28,0.0559019344172582,1
550,217,28,0.0486319144244505,1
550,218,28,0.0662056570969191,1
550,219,28,0.0569425416342371,1
551,217,28,0.0412082620617549,1
551,218,28,0.0510711520246665,1
551,219,28,0.0448719547863747,1
565,232,28,0.0412546518465038,1
566,231,28,0.046037719804316,1
566,232,28,0.0515018254866905,1
566,233,28,0.0488492327237737,1
567,231,28,0.0460931929035611,1
567,232,28,0.054919595581426,1
567,233,28,0.0558011691004327,1
567,234,28,0.0453882952582417,1
567,259,28,0.0411087240737333,1
568,231,28,0.0432635836426634,1
568,232,28,0.0498975445378699,1
568,233,28,0.0523369551536001,1
568,234,28,0.0473898576748428,1
569,232,28,0.0421785573957774,1
569,233,28,0.0443416865656135,1
569,234,28,0.0462978864770815,1
569,235,28,0.0449858963159547,1
570,234,28,0.0418788134241353,1
570,235,28,0.043979286647519,1
549,218,29,0.0498543501333993,1
549,219,29,0.0482086752228029,1
550,217,29,0.0428372734156385,1
550,218,29,0.053699349600079,1
550,219,29,0.05079875531774,1
551,218,29,0.0475087788071913,1
551,219,29,0.0450385443962567,1
552,218,29,0.0412505913886545,1
566,228,29,0.0417209502842515,1
566,229,29,0.0422917852363613,1
566,230,29,0.0423409811164812,1
566,231,29,0.0453798174980451,1
566,232,29,0.0468862095129639,1
566,233,29,0.0427778182561991,1
567,226,29,0.0412441735944241,1
567,227,29,0.0417891805743025,1
567,228,29,0.0415313739412856,1
567,229,29,0.0412944751518146,1
567,230,29,0.042522650109774,1
567,231,29,0.0467927541016139,1
567,232,29,0.050365389301776,1
567,233,29,0.048785973926389,1
567,234,29,0.0419794516826927,1
568,231,29,0.044600223107831,1
568,232,29,0.0491174013640716,1
568,233,29,0.0503069262781759,1
568,234,29,0.0465139233802525,1
569,231,29,0.0423169941374558,1
569,232,29,0.0450795734034323,1
569,233,29,0.0464189811168273,1
569,234,29,0.0472023683315171,1
569,235,29,0.0452312836790919,1
570,233,29,0.0410150496896231,1
570,234,29,0.045144673194023,1
570,235,29,0.0478219801417983,1
570,236,29,0.0417275924579769,1
571,234,29,0.0419374440565148,1
571,235,29,0.0441813633613869,1
572,235,29,0.0411575468891508,1
542,225,30,0.0420510746988427,1
543,224,30,0.0437531797007472,1
543,225,30,0.0436429174542117,1
549,219,30,0.0424940187455389,1
550,218,30,0.0445975062235843,1
550,219,30,0.0457396519204679,1
550,220,30,0.0414981117086779,1
551,218,30,0.0442632943174698,1
551,219,30,0.0445521139814097,1
552,218,30,0.0428913921278114,1
552,219,30,0.0417189254620617,1
562,263,30,0.0422928936169992,1
566,224,30,0.04109506666158,1
566,225,30,0.0429980507855899,1
566,226,30,0.0438444021306168,1
566,227,30,0.0435464694151392,1
566,228,30,0.0433133418232046,1
566,229,30,0.0455129853766422,1
566,230,30,0.0435932214511209,1
566,231,30,0.0434682069286312,1
566,232,30,0.0420493283234961,1
567,225,30,0.0457554828400185,1
567,226,30,0.0449414908028846,1
567,227,30,0.0432549382736875,1
567,228,30,0.0415883420027082,1
567,229,30,0.0439890512106025,1
567,230,30,0.0447624062288353,1
567,231,30,0.045993519747169,1
567,232,30,0.0451444704414673,1
567,233,30,0.0428533530449909,1
568,226,30,0.0455755088580915,1
568,227,30,0.0437393817134886,1
568,230,30,0.0414501783011382,1
568,231,30,0.0438778292686366,1
568,232,30,0.0455831053205125,1
568,233,30,0.0461034494795131,1
568,234,30,0.0434414679215828,1
569,231,30,0.0432872705479064,1
569,232,30,0.0449906947931068,1
569,233,30,0.0452276530566608,1
569,234,30,0.0441814687927159,1
569,235,30,0.04280904214978,1
570,231,30,0.0441743535296938,1
570,232,30,0.0432808446435738,1
570,233,30,0.0420032305024275,1
570,234,30,0.0439889241523343,1
570,235,30,0.0465301381779753,1
571,232,30,0.0422029012193009,1
571,233,30,0.0413693070650799,1
571,234,30,0.0426089010469774,1
571,235,30,0.044227820730321,1
572,234,30,0.0436254239637041,1
572,235,30,0.0425438418068979,1
542,224,31,0.0437401143260566,1
542,225,31,0.0442420269260584,1
543,224,31,0.0471069340552233,1
543,225,31,0.0469467703496739,1
550,219,31,0.0427033377806971,1
550,220,31,0.0419630233189445,1
551,218,31,0.0412517781669473,1
551,219,31,0.0437157894261049,1
551,220,31,0.0427986531088249,1
552,218,31,0.0422106734006035,1
552,219,31,0.0427496870149348,1
552,220,31,0.0410322187760415,1
553,218,31,0.0409882566152266,1
556,263,31,0.0416597811898744,1
565,225,31,0.0427760097034021,1
565,226,31,0.0447413253697752,1
565,227,31,0.042827541292964,1
566,224,31,0.0464666252640541,1
566,225,31,0.0479232050310835,1
566,226,31,0.0490991644475264,1
566,227,31,0.0458415904987492,1
566,228,31,0.043921583270161,1
566,229,31,0.045643709411101,1
566,230,31,0.0441313753946159,1
566,231,31,0.04177377949017,1
567,224,31,0.0507242126647875,1
567,225,31,0.0493914146847091,1
567,226,31,0.0482780760709422,1
567,227,31,0.0453334898907468,1
567,228,31,0.0434385401746782,1
567,229,31,0.0452327543109627,1
567,230,31,0.0451083858932839,1
567,231,31,0.0437665424458528,1
567,232,31,0.041623815589857,1
568,225,31,0.0496936349408983,1
568,226,31,0.0474725320569633,1
568,227,31,0.0456458018174761,1
568,228,31,0.0429516177469626,1
568,229,31,0.0424976304443981,1
568,230,31,0.0427828627397854,1
568,231,31,0.0434894364728988,1
568,232,31,0.0433293484616369,1
568,233,31,0.0427272004048217,1
569,229,31,0.0419719579482332,1
569,230,31,0.0431990380423917,1
569,231,31,0.045229964435796,1
569,232,31,0.0450280120768289,1
569,233,31,0.0439000158049672,1
569,234,31,0.0412550708684522,1
570,231,31,0.049321348808187,1
570,232,31,0.0469232834936192,1
570,233,31,0.0436764040663144,1
570,234,31,0.0425184977374329,1
570,235,31,0.0435129611760972,1
571,232,31,0.0459025244001617,1
571,233,31,0.043286324369313,1
571,234,31,0.0423568282562363,1
571,235,31,0.0426064058388584,1
572,234,31,0.0445472425133375,1
572,235,31,0.043735972767185,1
538,232,32,0.0429623474122113,1
538,233,32,0.041516440539715,1
539,232,32,0.0436638307044924,1
539,233,32,0.0453586393177583,1
540,243,32,0.0413091355132769,1
541,242,32,0.0444919829801178,1
541,243,32,0.0447225234494414,1
541,244,32,0.0412364717006742,1
542,224,32,0.0436778503678786,1
542,225,32,0.0446166460648443,1
543,224,32,0.0479280440587467,1
543,225,32,0.0494415621501572,1
543,226,32,0.0424481426005979,1
544,224,32,0.0414500863866462,1
544,225,32,0.0417060736533965,1
546,221,32,0.041123268190397,1
546,222,32,0.0418067632759346,1
547,221,32,0.0423122956848979,1
547,222,32,0.0423076242660141,1
550,220,32,0.0426314309109691,1
551,219,32,0.0442501424350221,1
551,220,32,0.0450164659946225,1
552,218,32,0.0417322828004326,1
552,219,32,0.044562735511962,1
552,220,32,0.0434892769742216,1
553,218,32,0.0420158714484348,1
553,219,32,0.0431808416763577,1
553,220,32,0.0413633542500439,1
554,218,32,0.0411407697910068,1
554,219,32,0.0413899932324982,1
556,262,32,0.0437645122169282,1
556,263,32,0.0424833134105969,1
564,232,32,0.0417297957024157,1
565,225,32,0.0447538825113929,1
565,226,32,0.0477692320369021,1
565,227,32,0.0445588940268729,1
565,228,32,0.0411439543578153,1
565,230,32,0.0414204628865718,1
565,231,32,0.0420579061082868,1
565,232,32,0.0428960013692448,1
566,224,32,0.0507414709623305,1
566,225,32,0.0507542362632386,1
566,226,32,0.0518625736472977,1
566,227,32,0.0472026927356063,1
566,228,32,0.0447144971516023,1
566,229,32,0.045323433363983,1
566,230,32,0.0449114401707594,1
566,231,32,0.0416142618894315,1
567,225,32,0.051576184310659,1
567,226,32,0.0500138542173007,1
567,227,32,0.0470752289622434,1
567,228,32,0.0456877580796731,1
567,229,32,0.0462539729768799,1
567,230,32,0.0453012143872435,1
567,231,32,0.0423048370942148,1
568,226,32,0.048892140571299,1
568,227,32,0.0474967596356882,1
568,228,32,0.0454974302005674,1
568,229,32,0.0445222742119425,1
568,230,32,0.0439919870676094,1
568,231,32,0.0435210496513867,1
568,232,32,0.0425197223628694,1
568,233,32,0.0412118359134704,1
569,229,32,0.0446771609443083,1
569,230,32,0.045875031153606,1
569,231,32,0.0472901628915114,1
569,232,32,0.0451945313991583,1
569,233,32,0.0427248376617057,1
570,231,32,0.0529145998882147,1
570,232,32,0.048994327859382,1
570,233,32,0.0443463201373536,1
570,234,32,0.0412368745024182,1
570,244,32,0.0427330099413849,1
570,245,32,0.0424382212422047,1
571,232,32,0.0487117989314043,1
571,233,32,0.045154751347726,1
571,234,32,0.0424934753686896,1
571,235,32,0.0411490853491587,1
571,244,32,0.0460900353704266,1
571,245,32,0.0440735692892964,1
572,234,32,0.0454813667914195,1
538,232,33,0.0454328359396823,1
538,233,33,0.0425788450081175,1
539,232,33,0.0427745417748987,1
539,233,33,0.0435911344514807,1
540,242,33,0.0433874140902278,1
540,243,33,0.0480766157248437,1
540,244,33,0.0443256312665679,1
541,242,33,0.0478760204563163,1
541,243,33,0.0516251585146514,1
541,244,33,0.0473365905234039,1
542,225,33,0.0414164483859685,1
543,224,33,0.0448388493490767,1
543,225,33,0.0480838553427667,1
543,226,33,0.0426103608653786,1
544,224,33,0.0413347823598918,1
544,225,33,0.0430225676246276,1
547,221,33,0.0415541957689575,1
547,222,33,0.0424743760779407,1
551,219,33,0.0435843868464263,1
551,220,33,0.043960371185754,1
552,218,33,0.041648413529917,1
552,219,33,0.0474491749625443,1
552,220,33,0.0450777161900219,1
553,218,33,0.0425540091717254,1
553,219,33,0.046355230306574,1
553,220,33,0.0423098734676989,1
554,218,33,0.0413787877745854,1
554,219,33,0.0419383010239837,1
556,220,33,0.0416306334824641,1
556,262,33,0.0415644523449095,1
557,262,33,0.0415199549173475,1
558,262,33,0.0412879059690093,1
558,263,33,0.0415937568476296,1
564,231,33,0.0423190270697478,1
564,232,33,0.0416216231588878,1
565,225,33,0.0456019477913575,1
565,226,33,0.0472400424597373,1
565,227,33,0.0443152178953061,1
565,228,33,0.0410902384473865,1
565,229,33,0.0412020767571218,1
565,230,33,0.0439957312314717,1
565,231,33,0.0445084302674379,1
565,232,33,0.0432942911930691,1
566,224,33,0.0515820992785513,1
566,225,33,0.0512178367403116,1
566,226,33,0.0510437615060724,1
566,227,33,0.0472738994331752,1
566,228,33,0.0445348313535601,1
566,229,33,0.0447146079896661,1
566,230,33,0.0455805965955564,1
566,231,33,0.042929774538293,1
567,225,33,0.0529542474746439,1
567,226,33,0.0504747621404338,1
567,227,33,0.048383501993182,1
567,228,33,0.0472513425355095,1
567,229,33,0.0471768809835794,1
567,230,33,0.0463595611011642,1
567,231,33,0.0431656027942698,1
568,227,33,0.0490333807049811,1
568,228,33,0.0481490767848908,1
568,229,33,0.0477099742232836,1
568,230,33,0.0476795288995167,1
568,231,33,0.0459015944417728,1
568,232,33,0.043356574074819,1
568,236,33,0.0427115235772134,1
568,237,33,0.0411607260492245,1
569,229,33,0.0486720648372179,1
569,230,33,0.0507673313749707,1
569,231,33,0.0505019742367788,1
569,232,33,0.0465402055182087,1
569,233,33,0.0422117709677718,1
569,236,33,0.0416193793639379,1
569,244,33,0.0435586967459329,1
569,245,33,0.0456846438004173,1
569,246,33,0.0416759311067794,1
570,231,33,0.0546023229755,1
570,232,33,0.0502154767654438,1
570,233,33,0.0448376733842535,1
570,234,33,0.0410518992907835,1
570,243,33,0.0411996004725746,1
570,244,33,0.0493568872761536,1
570,245,33,0.0515409107726985,1
570,246,33,0.0461422319883713,1
571,232,33,0.0500842877517906,1
571,233,33,0.0465492726125005,1
571,234,33,0.0433052938984262,1
571,244,33,0.0490978776446395,1
571,245,33,0.0489282629666261,1
538,232,34,0.0443681254988794,1
538,233,34,0.042875628792446,1
540,242,34,0.0489014185282487,1
540,243,34,0.0535081836770762,1
540,244,34,0.0440046469371885,1
541,242,34,0.0516608916250716,1
541,243,34,0.0585304726169643,1
541,244,34,0.0488774504727952,1
542,243,34,0.0427514063566073,1
543,224,34,0.0419728743897851,1
543,225,34,0.0458567726101216,1
543,226,34,0.0422069860074568,1
544,225,34,0.0430146359446478,1
547,221,34,0.0418099235124364,1
547,222,34,0.0426662556899396,1
551,219,34,0.0437763097123038,1
551,220,34,0.0429938984132488,1
552,218,34,0.0428451375114331,1
552,219,34,0.0531715387402931,1
552,220,34,0.0495550981746258,1
553,218,34,0.0434438090377595,1
553,219,34,0.052060600716786,1
553,220,34,0.0470702709864142,1
554,218,34,0.0411274692233515,1
554,219,34,0.0437898589897607,1
554,261,34,0.0416362132327975,1
555,261,34,0.0434184433413552,1
557,262,34,0.041974536960742,1
557,263,34,0.0412497073875116,1
558,261,34,0.0410560678833291,1
558,262,34,0.0451128626697142,1
558,263,34,0.046144064871475,1
558,264,34,0.0442082429435406,1
559,222,34,0.0410475955298674,1
559,262,34,0.0414147695948072,1
559,263,34,0.041877372529306,1
564,230,34,0.0410469169846476,1
564,231,34,0.0429239325613208,1
565,225,34,0.0444984305113897,1
565,226,34,0.0446438527544546,1
565,227,34,0.043282542358307,1
565,229,34,0.0417141459084815,1
565,230,34,0.045126430870743,1
565,231,34,0.0453122252027028,1
565,232,34,0.0419376738427446,1
566,225,34,0.0500844932077137,1
566,226,34,0.0492069477061473,1
566,227,34,0.0468391601065672,1
566,228,34,0.0439697113201542,1
566,229,34,0.0435421169936098,1
566,230,34,0.0450963234679022,1
566,231,34,0.0435813888119691,1
566,232,34,0.0416040539740928,1
567,226,34,0.0506052212448864,1
567,227,34,0.0485379453732927,1
567,228,34,0.0475280375966173,1
567,229,34,0.0472167989067496,1
567,230,34,0.0463888169432709,1
567,231,34,0.0432056342588712,1
567,232,34,0.0414865467028996,1
568,228,34,0.0512529859233713,1
568,229,34,0.051848537763707,1
568,230,34,0.0509034675509836,1
568,231,34,0.0469328696344537,1
568,232,34,0.043458628897899,1
568,236,34,0.0442232574461336,1
568,237,34,0.0456657959228375,1
569,229,34,0.0537877713413123,1
569,230,34,0.0548751035605987,1
569,231,34,0.0521457027228403,1
569,232,34,0.0469064090742485,1
569,236,34,0.0410576763869378,1
569,237,34,0.0411552733571593,1
569,244,34,0.0476300194287772,1
569,245,34,0.0507444717001551,1
569,246,34,0.0445809372847309,1
570,231,34,0.0550593704899721,1
570,232,34,0.0503651405919743,1
570,233,34,0.044422790291269,1
570,243,34,0.0447776586277603,1
570,244,34,0.0536198435645625,1
570,245,34,0.0568450960525905,1
571,232,34,0.0500892349141501,1
571,243,34,0.0465958894801117,1
571,244,34,0.0515764113935215,1
538,232,35,0.0425879986101664,1
538,233,35,0.0444002550205426,1
540,242,35,0.049208931977826,1
540,243,35,0.0516409299601191,1
541,242,35,0.0530076552011881,1
541,243,35,0.0586160666358872,1
541,244,35,0.0453608236386253,1
542,243,35,0.043206266846845,1
543,225,35,0.0414399460554928,1
547,254,35,0.0441099268775881,1
548,254,35,0.0443714587508955,1
551,219,35,0.0430603579976465,1
551,220,35,0.0420688736698675,1
551,257,35,0.0424326982625869,1
551,258,35,0.0415082601499335,1
552,218,35,0.0432696283721913,1
552,219,35,0.054990472468171,1
552,220,35,0.0527705482524265,1
552,258,35,0.0412409755107786,1
553,218,35,0.0436397220739335,1
553,219,35,0.0553828013668572,1
553,220,35,0.0528442744884212,1
554,219,35,0.0446980660844868,1
554,220,35,0.0435156753569764,1
554,260,35,0.048663359994159,1
554,261,35,0.0520811030552204,1
555,260,35,0.0461450164568032,1
555,261,35,0.0508507356662918,1
556,261,35,0.0421948019305417,1
557,262,35,0.0427013670258555,1
557,263,35,0.0417726738128995,1
558,221,35,0.0410852966917617,1
558,222,35,0.04796398262509,1
558,223,35,0.0478948683338961,1
558,261,35,0.0445035479858961,1
558,262,35,0.0479026378118313,1
558,263,35,0.0474187674859211,1
558,264,35,0.0449766480960464,1
559,221,35,0.0419579680218885,1
559,222,35,0.0472711690320915,1
559,223,35,0.0462576549632917,1
559,261,35,0.0430937418817877,1
559,262,35,0.0447882585313734,1
559,263,35,0.0441607069310102,1
560,221,35,0.0447056571401729,1
560,222,35,0.0496470126665523,1
560,223,35,0.0470682921214704,1
561,221,35,0.0447984745568143,1
561,222,35,0.0501472437720254,1
561,223,35,0.0471671650811092,1
562,221,35,0.0413289376795523,1
562,222,35,0.0443100112096752,1
562,223,35,0.0423247419884517,1
564,231,35,0.0414975142644803,1
565,226,35,0.043019237075979,1
565,227,35,0.0427120669540627,1
565,228,35,0.0416452695136197,1
565,229,35,0.0420252413198765,1
565,230,35,0.045203333563444,1
565,231,35,0.0448145082289206,1
565,249,35,0.0441186479408515,1
565,250,35,0.0422028066014415,1
566,226,35,0.0489216343097377,1
566,227,35,0.0473945399071962,1
566,228,35,0.0448336453668132,1
566,229,35,0.043837116555448,1
566,230,35,0.0455711672500317,1
566,231,35,0.0448112344509876,1
566,232,35,0.0419761184306766,1
566,248,35,0.0426144672804738,1
566,249,35,0.04633486313651,1
566,250,35,0.0426338558315355,1
567,227,35,0.0497138074685088,1
567,228,35,0.0490880914546167,1
567,229,35,0.0494816044282283,1
567,230,35,0.0483169288673531,1
567,231,35,0.0453504940717532,1
567,232,35,0.0427827113512105,1
567,233,35,0.0412405375652582,1
567,249,35,0.0412800337631125,1
568,228,35,0.0550545747161875,1
568,229,35,0.0576505157116686,1
568,230,35,0.0544874623010008,1
568,231,35,0.0490874750868473,1
568,232,35,0.0446416035527698,1
568,236,35,0.0431636077091215,1
568,237,35,0.0451323674655745,1
568,245,35,0.042386981616323,1
569,229,35,0.0607309163671552,1
569,230,35,0.0585571764802364,1
569,237,35,0.0412669197278085,1
569,243,35,0.0424046670459167,1
569,244,35,0.0495101790217478,1
569,245,35,0.0517873605592277,1
569,246,35,0.0462074101766168,1
570,232,35,0.0508231180648353,1
570,242,35,0.0414417329813506,1
570,243,35,0.0469021647874154,1
570,244,35,0.0545293861227889,1
571,243,35,0.04942308733728,1
537,233,36,0.0419265035286082,1
538,232,36,0.0422478960664663,1
538,233,36,0.0463253418764934,1
538,234,36,0.0417911972863901,1
539,233,36,0.0414216091143535,1
540,242,36,0.0454587666398752,1
540,243,36,0.0453271640110083,1
541,242,36,0.0491744748568232,1
541,243,36,0.0513495448005075,1
546,226,36,0.0451826149556168,1
546,227,36,0.0428666319857068,1
547,226,36,0.0434651359032539,1
547,253,36,0.0448264381892992,1
547,254,36,0.0513850237943911,1
547,255,36,0.0426048946564764,1
548,253,36,0.046457687931398,1
548,254,36,0.0542304261276957,1
548,255,36,0.0437077171710199,1
550,256,36,0.0419862506517278,1
550,257,36,0.0422287994790849,1
551,256,36,0.0498499057973779,1
551,257,36,0.0536243095275232,1
551,258,36,0.0439436778919997,1
552,219,36,0.0527154860650277,1
552,220,36,0.0525868706571484,1
552,256,36,0.0454917963828858,1
552,257,36,0.0503712393888504,1
552,258,36,0.0437779182159125,1
553,219,36,0.0551310962340838,1
553,220,36,0.0557163698715282,1
554,260,36,0.051017365826685,1
554,261,36,0.055002794416824,1
555,260,36,0.0475653927274832,1
555,261,36,0.052063260830317,1
556,261,36,0.0435064001033941,1
557,222,36,0.0426490379429078,1
557,223,36,0.0461268930816892,1
557,261,36,0.0434830781527514,1
557,262,36,0.0440123109837948,1
557,263,36,0.0427904916426153,1
558,222,36,0.0512328836833134,1
558,223,36,0.0555360552653076,1
558,224,36,0.0455990281545551,1
558,260,36,0.0434264831560314,1
558,261,36,0.0481090399135545,1
558,262,36,0.0494757867815628,1
558,263,36,0.0478600381481907,1
559,221,36,0.0436264485399524,1
559,222,36,0.0510831387557607,1
559,223,36,0.0527280026561342,1
559,224,36,0.0434870791365176,1
559,260,36,0.0430161173899883,1
559,261,36,0.0464999685976842,1
559,262,36,0.0467135346230429,1
560,220,36,0.0455918426039804,1
560,221,36,0.0520774102553389,1
560,222,36,0.057023410166928,1
560,223,36,0.0534537757045905,1
560,224,36,0.0424329956330019,1
561,220,36,0.0470035735056845,1
561,221,36,0.053924388716724,1
561,222,36,0.0575131359866474,1
561,223,36,0.0513035118602568,1
562,220,36,0.0428761937962346,1
562,221,36,0.0457677020607099,1
562,222,36,0.0470913410320047,1
562,223,36,0.0429802545179325,1
564,230,36,0.0424787690499813,1
564,231,36,0.0424757629054218,1
565,227,36,0.0447333612493866,1
565,228,36,0.0449968584708006,1
565,229,36,0.0444281132216985,1
565,230,36,0.046557782813106,1
565,231,36,0.0460798004214139,1
565,232,36,0.0413017580236161,1
565,248,36,0.0503674168273332,1
565,249,36,0.0515442251011427,1
565,250,36,0.0414267698427384,1
566,226,36,0.0498008018317499,1
566,227,36,0.0499100665357112,1
566,228,36,0.0477653878484457,1
566,229,36,0.0462050041796223,1
566,230,36,0.0478249105920703,1
566,231,36,0.0475425925267506,1
566,232,36,0.0435796343265202,1
566,247,36,0.0454234876951799,1
566,248,36,0.0581348456100384,1
566,249,36,0.0583912654155742,1
566,250,36,0.0445131908974462,1
567,227,36,0.0520092745831472,1
567,228,36,0.0507846329263922,1
567,229,36,0.0524281829902046,1
567,230,36,0.0519579268225692,1
567,231,36,0.0492279150237762,1
567,232,36,0.0447737576685883,1
567,233,36,0.0411447085973226,1
567,235,36,0.0413155046468939,1
567,236,36,0.04194110171262,1
567,248,36,0.0477374728765741,1
567,249,36,0.0497709620622826,1
568,229,36,0.0623780889432965,1
568,230,36,0.0594158578840185,1
568,232,36,0.0471821525500281,1
568,233,36,0.0422107247645843,1
568,235,36,0.041296675692886,1
568,236,36,0.0435005797533612,1
568,237,36,0.0438370651914672,1
568,243,36,0.0422008061095584,1
568,244,36,0.0451352249249264,1
568,245,36,0.0458065332301815,1
568,246,36,0.0425241126315426,1
568,248,36,0.0417531690170392,1
569,237,36,0.0411678764560229,1
569,242,36,0.0425932863968196,1
569,243,36,0.046328553476976,1
569,244,36,0.0512484875200017,1
569,245,36,0.052573575496228,1
569,246,36,0.0493198295157028,1
570,242,36,0.0454036503851282,1
570,243,36,0.0495002306296804,1
537,233,37,0.0415603134894054,1
538,233,37,0.0444788851650183,1
538,234,37,0.0410339759648578,1
539,233,37,0.042909902084465,1
541,242,37,0.0421625750876518,1
541,243,37,0.041358655797486,1
545,226,37,0.0442765597413487,1
545,227,37,0.0442014250509336,1
546,225,37,0.0462741779448992,1
546,226,37,0.0560119074034809,1
546,227,37,0.0551560645354789,1
546,228,37,0.0412767816121188,1
547,225,37,0.0457675722990743,1
547,226,37,0.0553449380029183,1
547,227,37,0.0534474606383217,1
547,253,37,0.0451791032813517,1
547,254,37,0.0511438617945152,1
548,226,37,0.0416432095476535,1
548,253,37,0.0476595293874204,1
548,254,37,0.0553609365312483,1
548,255,37,0.0458681808205901,1
549,254,37,0.0415020153712173,1
550,256,37,0.0463254662313942,1
550,257,37,0.0441476280394825,1
551,256,37,0.0573291502074845,1
551,257,37,0.0565087322660179,1
551,258,37,0.0420103403587148,1
552,256,37,0.0538240721588885,1
552,257,37,0.0537013771256362,1
552,258,37,0.0425747791435334,1
553,257,37,0.0419640019379468,1
554,260,37,0.045728373471635,1
554,261,37,0.0475068269759215,1
555,260,37,0.0444543953596547,1
555,261,37,0.0462292425718168,1
556,260,37,0.0423724212794549,1
556,261,37,0.0427835710220468,1
557,223,37,0.045710071674272,1
557,224,37,0.0424479831019208,1
557,260,37,0.0430318807253537,1
557,261,37,0.0436836004303588,1
557,262,37,0.0420616746024558,1
558,222,37,0.0474388210653655,1
558,223,37,0.0551190608423762,1
558,224,37,0.049102705858833,1
558,225,37,0.0438449022535876,1
558,260,37,0.0441865213864045,1
558,261,37,0.0459205450473141,1
558,262,37,0.0453610939753662,1
558,263,37,0.0445319820043103,1
559,221,37,0.0432518050708598,1
559,222,37,0.0507097334289417,1
559,223,37,0.0548382296291317,1
559,224,37,0.0480434291865234,1
559,225,37,0.043018444989328,1
559,256,37,0.041822883455798,1
559,257,37,0.0433107249635521,1
559,260,37,0.0428962662992509,1
559,261,37,0.0443603289872701,1
559,262,37,0.0447321717677263,1
560,219,37,0.042284675380074,1
560,220,37,0.0508502869073018,1
560,221,37,0.055226011463835,1
560,222,37,0.0579473833003869,1
560,223,37,0.0544202619939329,1
560,224,37,0.0445994742750585,1
561,219,37,0.0444286647086501,1
561,220,37,0.0541291742047364,1
561,221,37,0.0578655739958374,1
561,222,37,0.0572694760752849,1
561,223,37,0.0494212057935629,1
561,230,37,0.0415244479139822,1
561,231,37,0.0428968204895699,1
561,232,37,0.0419191909197652,1
562,220,37,0.0473442302397035,1
562,221,37,0.0483815015012989,1
562,222,37,0.0473669006788004,1
562,223,37,0.0420452408319728,1
562,230,37,0.0435736409609732,1
562,231,37,0.044927825280629,1
562,232,37,0.0428657723148706,1
563,229,37,0.0417518795107848,1
563,230,37,0.0433702152667679,1
563,231,37,0.0438892158521659,1
563,232,37,0.0413020526906637,1
564,229,37,0.0437353726196201,1
564,230,37,0.0442394965741631,1
564,231,37,0.0437064844354811,1
564,248,37,0.0419449431977091,1
564,249,37,0.0432618129370102,1
565,228,37,0.0489901863005105,1
565,229,37,0.0476090467044135,1
565,230,37,0.0479613873923768,1
565,231,37,0.0469673916362743,1
565,232,37,0.0422988356185655,1
565,247,37,0.0519352671969419,1
565,248,37,0.0654130459926276,1
565,249,37,0.0595431756755412,1
565,250,37,0.0432175642192498,1
566,227,37,0.0526471016830344,1
566,228,37,0.0515165209919291,1
566,229,37,0.0500781457010359,1
566,230,37,0.0511570434140044,1
566,231,37,0.0508936056666733,1
566,232,37,0.0460424831376917,1
566,246,37,0.0496044400365859,1
566,247,37,0.0675980264812356,1
566,248,37,0.0824226175136511,1
566,249,37,0.0722013962005966,1
567,229,37,0.0561005562275766,1
567,230,37,0.0572252219507897,1
567,232,37,0.0490198530544635,1
567,233,37,0.0428637718229875,1
567,235,37,0.0415448988884359,1
567,236,37,0.0421947100160498,1
567,243,37,0.041690058904862,1
567,244,37,0.0430220080275738,1
567,245,37,0.0467553286831954,1
567,246,37,0.0544841587860263,1
567,247,37,0.0658858595458326,1
567,248,37,0.0741679229755693,1
568,235,37,0.0412789902632924,1
568,236,37,0.0423713047887148,1
568,237,37,0.0413594181470955,1
568,242,37,0.0449390550688485,1
568,243,37,0.0482087238834163,1
568,244,37,0.05027555099602,1
568,245,37,0.0530544234573742,1
568,246,37,0.0574892706591554,1
568,247,37,0.0618139231985863,1
569,237,37,0.0414112092599287,1
569,240,37,0.0409967911461387,1
569,241,37,0.0438442939959205,1
569,242,37,0.0481323050934816,1
569,243,37,0.0517393325338286,1
569,244,37,0.0540565996032581,1
569,245,37,0.0560375839871373,1
539,233,38,0.0412692932843942,1
544,244,38,0.0413081433774376,1
544,245,38,0.0414621001514145,1
545,225,38,0.0424490238983735,1
545,226,38,0.0468735469400173,1
545,227,38,0.0479144785610853,1
545,228,38,0.0415442284533183,1
546,224,38,0.0432210272329015,1
546,225,38,0.0513221975357919,1
546,226,38,0.0632329694125007,1
546,227,38,0.0637380341389022,1
546,228,38,0.0481813441782918,1
547,224,38,0.0449048845047911,1
547,225,38,0.0530083905171235,1
547,226,38,0.0642976744465688,1
547,227,38,0.0631754363472895,1
547,228,38,0.0464621971482372,1
547,253,38,0.0425954842345236,1
548,224,38,0.0411940423491804,1
548,225,38,0.0449021459936052,1
548,226,38,0.048903592035646,1
548,227,38,0.046257379219816,1
548,253,38,0.044359226013367,1
548,254,38,0.0505426220691496,1
549,254,38,0.0412357499015758,1
549,255,38,0.043364797718479,1
549,256,38,0.0439239379031748,1
550,256,38,0.0486353206673866,1
550,257,38,0.0445860250221957,1
551,255,38,0.0436806105060038,1
551,256,38,0.0576125279928289,1
551,257,38,0.0535260042750403,1
552,255,38,0.0444174457339002,1
552,256,38,0.0562476842954769,1
552,257,38,0.052408405154236,1
552,258,38,0.0411260391419918,1
553,256,38,0.0448080012235657,1
553,257,38,0.0437268813425866,1
555,260,38,0.0417214828476312,1
555,261,38,0.0416481053460323,1
556,260,38,0.0437535230284082,1
556,261,38,0.0427887993346169,1
557,223,38,0.0417928977044907,1
557,224,38,0.0421849427495989,1
557,225,38,0.0424689585296519,1
557,226,38,0.0427318691203381,1
557,260,38,0.0453554709711542,1
557,261,38,0.0439203478312549,1
557,262,38,0.0415467966523574,1
558,222,38,0.0411535756424261,1
558,223,38,0.0501613229094946,1
558,224,38,0.0493787088578839,1
558,225,38,0.0469664400509461,1
558,226,38,0.0450117242881861,1
558,230,38,0.0422634350223367,1
558,231,38,0.0417789807690661,1
558,232,38,0.0439869561008601,1
558,233,38,0.0439435994943449,1
558,256,38,0.04144473912591,1
558,260,38,0.0444048534485063,1
558,261,38,0.0437264596172707,1
558,262,38,0.043089949057312,1
559,222,38,0.0472585983736369,1
559,223,38,0.053408813297834,1
559,224,38,0.0499307905502732,1
559,225,38,0.0461796844404639,1
559,226,38,0.0439782025971878,1
559,230,38,0.0426948221733569,1
559,231,38,0.044421938730535,1
559,232,38,0.0485332955813481,1
559,233,38,0.0480856557854615,1
559,234,38,0.0413844026686951,1
559,252,38,0.0427645420188506,1
560,220,38,0.0490625662595352,1
560,221,38,0.0521289256246963,1
560,222,38,0.0530015347773727,1
560,223,38,0.0507661310798409,1
560,224,38,0.0438302364853905,1
560,230,38,0.0419928684951465,1
560,231,38,0.0447920135087053,1
560,232,38,0.0475169970441164,1
560,233,38,0.0456546472356403,1
560,251,38,0.0412393940408439,1
560,252,38,0.0547472234686548,1
560,253,38,0.0491760319964511,1
561,219,38,0.0440678138200813,1
561,220,38,0.0545601828843191,1
561,221,38,0.0564332055873284,1
561,222,38,0.0522524532951107,1
561,223,38,0.0440759698795561,1
561,230,38,0.0439315749161069,1
561,231,38,0.0481647509091316,1
561,232,38,0.0484682093075945,1
561,233,38,0.0440138329796464,1
561,251,38,0.044780764796914,1
561,252,38,0.0545748297289444,1
561,253,38,0.0476970305001264,1
562,220,38,0.0486585858473136,1
562,221,38,0.0489819842837897,1
562,222,38,0.0454138366735276,1
562,229,38,0.0418697787702524,1
562,230,38,0.0469152869328216,1
562,231,38,0.0513768271844052,1
562,232,38,0.0499021348557314,1
562,233,38,0.0439312748423245,1
562,250,38,0.0440513070586783,1
562,251,38,0.0429988536857106,1
562,252,38,0.0428295390814797,1
563,229,38,0.0445962653779433,1
563,230,38,0.0472154039691662,1
563,231,38,0.0491704900932614,1
563,232,38,0.0464672686654976,1
563,233,38,0.0415766553453965,1
563,250,38,0.0424841730814331,1
564,230,38,0.04741476109542,1
564,231,38,0.0470491576869452,1
564,232,38,0.0436360995616046,1
564,248,38,0.0422441546059714,1
564,249,38,0.0414107902379802,1
565,231,38,0.0494810961951553,1
565,232,38,0.0450779838233955,1
565,246,38,0.0441543188738213,1
565,247,38,0.0604848937126768,1
565,248,38,0.0676431024294233,1
565,249,38,0.0554235411137199,1
566,230,38,0.0545276559676468,1
566,232,38,0.0494052234854373,1
566,233,38,0.0430082235571523,1
566,245,38,0.047248455339116,1
566,246,38,0.0776179766839103,1
566,247,38,0.111994531931181,1
566,248,38,0.11157259034589,1
567,233,38,0.0455481129327626,1
567,234,38,0.041588439323935,1
567,235,38,0.0412174643244172,1
567,236,38,0.0411988462330673,1
567,241,38,0.0411313836993606,1
567,242,38,0.0441785897064247,1
567,243,38,0.0460000618963002,1
567,244,38,0.0458503061552778,1
567,245,38,0.0586851917405508,1
567,246,38,0.105030927820782,1
567,247,38,0.149097406177363,1
567,248,38,0.136398359397688,1
568,235,38,0.041773000920356,1
568,236,38,0.0418098234878422,1
568,241,38,0.0435718459250132,1
568,242,38,0.04943175973993,1
568,243,38,0.0539809810100767,1
568,244,38,0.0552196261100135,1
568,245,38,0.0661521682693526,1
568,246,38,0.105445819023869,1
568,247,38,0.141234456610607,1
569,240,38,0.0437340993335702,1
569,241,38,0.0470278551517575,1
569,242,38,0.052276610586283,1
569,243,38,0.0565994410560798,1
569,244,38,0.0585730939075441,1
543,242,39,0.0417070495690313,1
544,228,39,0.0412126469236933,1
544,244,39,0.0423816370589543,1
544,245,39,0.0417311825298969,1
545,225,39,0.0437049489227924,1
545,226,39,0.0477778341519995,1
545,227,39,0.0490668646137165,1
545,228,39,0.0440724960524348,1
546,224,39,0.0452409833613575,1
546,225,39,0.0540487598377703,1
546,226,39,0.0623825765331964,1
546,227,39,0.0632731630791467,1
546,228,39,0.0508978986141198,1
547,224,39,0.0476127449110298,1
547,225,39,0.0571658235620659,1
547,226,39,0.063860594003784,1
547,227,39,0.0629747870114139,1
547,228,39,0.0495394078301804,1
548,225,39,0.0513342004870906,1
548,226,39,0.0532820632134673,1
548,227,39,0.0506325847298064,1
548,228,39,0.0416598136302833,1
548,253,39,0.0416314634162588,1
548,256,39,0.0465272617950515,1
549,255,39,0.0449432615085378,1
549,256,39,0.0503774895743014,1
549,257,39,0.0462616505403231,1
550,255,39,0.0425568395974033,1
550,256,39,0.0518136697308579,1
550,257,39,0.0491224404409231,1
551,255,39,0.0446603324821835,1
551,256,39,0.053801536888162,1
551,257,39,0.0500012403049675,1
552,255,39,0.0469202665355901,1
552,256,39,0.0532335107347908,1
552,257,39,0.0480975668222682,1
553,255,39,0.0443544978237676,1
553,256,39,0.0477684426536185,1
553,257,39,0.0440583006701669,1
554,255,39,0.0440649022933812,1
554,256,39,0.0451850642064899,1
554,257,39,0.0428508794638111,1
555,255,39,0.041579839912205,1
555,256,39,0.0436536498228278,1
555,259,39,0.0410254792810894,1
556,227,39,0.0413445928802213,1
556,259,39,0.0415041429213687,1
556,260,39,0.0428061522500192,1
556,261,39,0.0409985104878112,1
557,225,39,0.0417556939621997,1
557,226,39,0.0439349243883274,1
557,227,39,0.0431569817556005,1
557,228,39,0.0409873185467354,1
557,229,39,0.0416564749715325,1
557,230,39,0.0428343889226125,1
557,231,39,0.041952063867466,1
557,232,39,0.0416434609608226,1
557,233,39,0.0425439120944506,1
557,259,39,0.0419330618979439,1
557,260,39,0.044825756940712,1
557,261,39,0.0426737061705205,1
558,223,39,0.0429152709721404,1
558,224,39,0.0464529894788401,1
558,225,39,0.0461369928623315,1
558,226,39,0.0456696184843547,1
558,227,39,0.042947224774922,1
558,228,39,0.0422889764376227,1
558,229,39,0.0454632974836537,1
558,230,39,0.046199927255627,1
558,231,39,0.0451241140848729,1
558,232,39,0.0464228253052837,1
558,233,39,0.0469737067025432,1
558,234,39,0.042233176230921,1
558,252,39,0.0410257901683415,1
558,260,39,0.0440413316329369,1
558,261,39,0.0419268765933107,1
559,223,39,0.0473092486654232,1
559,224,39,0.0478619088784382,1
559,225,39,0.0460099454075497,1
559,226,39,0.04474312581247,1
559,228,39,0.0415507651957147,1
559,229,39,0.0446007475611084,1
559,230,39,0.0456370753474779,1
559,231,39,0.0469797622455407,1
559,232,39,0.0505751003252086,1
559,233,39,0.0503070452263419,1
559,234,39,0.0432671764179508,1
559,251,39,0.0503050014805803,1
559,252,39,0.055760845672151,1
559,253,39,0.0463030390953642,1
560,221,39,0.0446218662673123,1
560,222,39,0.0444535437989207,1
560,223,39,0.0440894677930323,1
560,229,39,0.0423795743896207,1
560,230,39,0.0444241906355872,1
560,231,39,0.0470889025946012,1
560,232,39,0.0492298722617808,1
560,233,39,0.047325852748053,1
560,251,39,0.0559295303917755,1
560,252,39,0.0679259827951642,1
560,253,39,0.058114191883029,1
561,220,39,0.0489647367997165,1
561,221,39,0.0502009164285757,1
561,222,39,0.0449758370858236,1
561,229,39,0.0414382456373922,1
561,230,39,0.0457382569828845,1
561,231,39,0.0501067148878206,1
561,232,39,0.0503208161799264,1
561,233,39,0.0456485484387642,1
561,250,39,0.0426315768928092,1
561,251,39,0.0520237538189931,1
561,252,39,0.0630798398689511,1
561,253,39,0.0571493330208673,1
562,221,39,0.047552567952492,1
562,229,39,0.043121978554381,1
562,230,39,0.0488658962804865,1
562,231,39,0.0539003341535134,1
562,232,39,0.0526894688570777,1
562,233,39,0.0461146306071192,1
562,250,39,0.0457703243270972,1
562,251,39,0.0463450386114398,1
562,252,39,0.0475651007638029,1
563,230,39,0.0505000278122439,1
563,231,39,0.0528272000198622,1
563,232,39,0.0497573695309472,1
563,233,39,0.0437321664258723,1
563,250,39,0.0412450738157715,1
564,231,39,0.0516519596991502,1
564,232,39,0.0472631778780287,1
564,233,39,0.0422721912293764,1
564,247,39,0.0413191974467755,1
564,248,39,0.042194374798491,1
565,232,39,0.0480350325273492,1
565,233,39,0.0429653832938123,1
565,245,39,0.0433963919733951,1
565,246,39,0.051048887090681,1
565,247,39,0.0630489565996638,1
565,248,39,0.0609305870840285,1
566,233,39,0.0456462938303446,1
566,234,39,0.0411457980543886,1
566,241,39,0.0414597752554423,1
566,242,39,0.0425532197884418,1
566,243,39,0.0427602382579345,1
566,244,39,0.0436182627434361,1
566,245,39,0.0644363571946815,1
566,246,39,0.113135677382123,1
566,247,39,0.156537040848184,1
566,248,39,0.127248228472523,1
567,234,39,0.0428518472693437,1
567,235,39,0.0413305813269373,1
567,236,39,0.0412073996875513,1
567,239,39,0.041194158593979,1
567,240,39,0.0421594581050286,1
567,241,39,0.0443226278253758,1
567,242,39,0.0480545508400466,1
567,243,39,0.049524198685134,1
567,244,39,0.0517917346076964,1
567,245,39,0.09157248350881,1
567,246,39,0.191632935129477,1
567,247,39,0.270822676659005,1
568,236,39,0.0419192936477267,1
568,238,39,0.0422266935558728,1
568,239,39,0.0430670136882089,1
568,240,39,0.0442683766481999,1
568,241,39,0.0481796734972327,1
568,242,39,0.0549022669963304,1
568,243,39,0.0590237128143162,1
568,244,39,0.063000712304872,1
568,245,39,0.100572415340697,1
568,246,39,0.198311896278583,1
569,240,39,0.0477387218323173,1
569,241,39,0.051247460240386,1
569,242,39,0.056835331489507,1
569,243,39,0.0614285095137338,1
543,241,40,0.0427097907187039,1
543,242,40,0.0445526681717286,1
543,243,40,0.0452507749581151,1
543,244,40,0.0427989775129141,1
544,228,40,0.0412317083672984,1
544,242,40,0.0436893883399828,1
544,243,40,0.0466835759054096,1
544,244,40,0.0464739838301431,1
544,245,40,0.0438062008457517,1
544,246,40,0.0420145035445256,1
545,225,40,0.0439502876253162,1
545,226,40,0.0473450953172746,1
545,227,40,0.0479390629843083,1
545,228,40,0.0443013631373318,1
545,243,40,0.0437312121371767,1
545,244,40,0.0446259889026119,1
545,245,40,0.0445046590699015,1
545,246,40,0.0441430160946817,1
546,224,40,0.0452426783727233,1
546,225,40,0.0536024609121188,1
546,226,40,0.0580939977284793,1
546,227,40,0.0581408308654833,1
546,228,40,0.0503205566566551,1
547,224,40,0.0475460906841786,1
547,225,40,0.0574951910337824,1
547,226,40,0.0607045098742982,1
547,227,40,0.0590568615054928,1
547,228,40,0.0503781708228886,1
548,225,40,0.0543072558294766,1
548,226,40,0.0559920214328159,1
548,227,40,0.0524419863841981,1
548,228,40,0.0447568913593197,1
548,256,40,0.0480901487820962,1
548,257,40,0.0461180368500553,1
549,226,40,0.0441697551017301,1
549,227,40,0.0410776677889318,1
549,255,40,0.0440926334362689,1
549,256,40,0.055184768890634,1
549,257,40,0.0573945716987969,1
549,258,40,0.0453991033211453,1
550,255,40,0.0442835236157959,1
550,256,40,0.0568925131169549,1
550,257,40,0.0595245494740891,1
550,258,40,0.0465916614134831,1
551,255,40,0.0449738906612887,1
551,256,40,0.0509925651340693,1
551,257,40,0.0496577504419033,1
552,254,40,0.0417035649284404,1
552,255,40,0.0474631621855216,1
552,256,40,0.0482840018523041,1
552,257,40,0.042910753645199,1
553,254,40,0.0416848278889244,1
553,255,40,0.0485949161380826,1
553,256,40,0.0488926271774327,1
553,257,40,0.0429213157016683,1
554,254,40,0.0440836744766735,1
554,255,40,0.0513979837377528,1
554,256,40,0.0510574513586346,1
554,257,40,0.0452270204686869,1
554,259,40,0.0423447658308547,1
555,254,40,0.0410517262752692,1
555,255,40,0.0475247448951124,1
555,256,40,0.0496769119101025,1
555,257,40,0.0467082468363897,1
555,258,40,0.0448817869336434,1
555,259,40,0.0438343293836487,1
555,260,40,0.0415241883907109,1
556,227,40,0.0444359151400427,1
556,228,40,0.0436472022915559,1
556,229,40,0.0410421536512718,1
556,230,40,0.0412864110068318,1
556,231,40,0.0425611568751564,1
556,232,40,0.0417419392288197,1
556,233,40,0.0416360212937114,1
556,235,40,0.0410990487217744,1
556,255,40,0.0417760989794074,1
556,256,40,0.0461099970353792,1
556,258,40,0.0438274168731823,1
556,259,40,0.0431985703598299,1
556,260,40,0.0427539826657486,1
557,226,40,0.0433529542658575,1
557,228,40,0.0448247485846682,1
557,229,40,0.0450193477842811,1
557,230,40,0.0456135830846884,1
557,231,40,0.0458582648689317,1
557,232,40,0.0450553052741963,1
557,233,40,0.0455543414912744,1
557,234,40,0.0433724185112067,1
557,235,40,0.0422068427289841,1
557,236,40,0.0419903300331489,1
557,259,40,0.0424960300508916,1
557,260,40,0.0436961873090179,1
557,261,40,0.0420778650698719,1
558,225,40,0.0432624941855974,1
558,226,40,0.0442588310578765,1
558,228,40,0.045367290093469,1
558,229,40,0.0490779105729521,1
558,230,40,0.0486279999484414,1
558,231,40,0.0477010585175667,1
558,232,40,0.0476958031713225,1
558,233,40,0.0484814990617801,1
558,234,40,0.0440358113566864,1
558,251,40,0.0502314158196908,1
558,252,40,0.0472646755435737,1
558,260,40,0.0430678165883296,1
559,229,40,0.0484289672262767,1
559,230,40,0.0482119895512471,1
559,231,40,0.048655882479904,1
559,232,40,0.0503514994000255,1
559,233,40,0.0505907041618968,1
559,234,40,0.044125138726002,1
559,250,40,0.0482880569034185,1
559,251,40,0.0667692605412081,1
559,252,40,0.0654924493001825,1
560,229,40,0.0458222019476875,1
560,230,40,0.047089297286243,1
560,231,40,0.0487585725943252,1
560,232,40,0.0492903249637943,1
560,233,40,0.0478494301344754,1
560,234,40,0.0414312925764147,1
560,250,40,0.0483976081643253,1
560,251,40,0.0666259117809464,1
560,252,40,0.07219964982525,1
560,253,40,0.0614484873988908,1
561,221,40,0.0438964284364147,1
561,230,40,0.0470863235820924,1
561,231,40,0.0505222711192901,1
561,232,40,0.0500558753603156,1
561,233,40,0.046217363975419,1
561,250,40,0.0464527786161821,1
561,251,40,0.0559123694154593,1
561,252,40,0.0639074541744621,1
562,230,40,0.0489893536633483,1
562,231,40,0.053642827594279,1
562,232,40,0.0522022842027233,1
562,233,40,0.0466526980428572,1
563,231,40,0.0548733950323959,1
563,232,40,0.0513013545730639,1
563,233,40,0.0456299222373121,1
564,232,40,0.0503168043826906,1
564,233,40,0.0453450575998925,1
564,234,40,0.0415333744331687,1
564,245,40,0.0413438954114296,1
564,247,40,0.0425401436002816,1
564,248,40,0.0413602967415037,1
565,233,40,0.0461592145424384,1
565,234,40,0.0430773000012025,1
565,235,40,0.0414504513412465,1
565,243,40,0.0418379439156369,1
565,244,40,0.0443222709808777,1
565,245,40,0.0487114907475196,1
565,246,40,0.0516262885222286,1
565,247,40,0.0567685799414291,1
566,234,40,0.0443029364971642,1
566,235,40,0.0432536352505961,1
566,236,40,0.0426963522793107,1
566,237,40,0.0423877655928718,1
566,238,40,0.0414631247276628,1
566,239,40,0.0414504053840006,1
566,240,40,0.0422966837381075,1
566,241,40,0.0427897590300473,1
566,242,40,0.0444332388063071,1
566,243,40,0.0448675915513756,1
566,244,40,0.0476286839652768,1
566,245,40,0.0724809514244237,1
566,246,40,0.122806790460997,1
566,247,40,0.159775296533453,1
567,236,40,0.0433285888153948,1
567,237,40,0.0435453367041946,1
567,238,40,0.043578847646604,1
567,239,40,0.0446316713809069,1
567,240,40,0.0455964923959249,1
567,241,40,0.0470367600440048,1
567,242,40,0.0505076837487479,1
567,243,40,0.0511926629829934,1
567,244,40,0.0595756268979261,1
567,245,40,0.124068462844529,1
567,246,40,0.259224560036686,1
568,240,40,0.0487165784849845,1
568,241,40,0.0528184519229247,1
568,242,40,0.0585183020568863,1
568,243,40,0.061162433279811,1
542,238,41,0.0424817860080104,1
542,239,41,0.0453919502109794,1
543,239,41,0.042338715694592,1
543,240,41,0.0442189293549108,1
543,241,41,0.0439905948333934,1
543,242,41,0.044225247124547,1
544,240,41,0.0411992111876676,1
544,241,41,0.0431631967972752,1
544,242,41,0.0462116652769195,1
544,243,41,0.0504446250005515,1
544,244,41,0.0501839122475693,1
545,226,41,0.0446917320946461,1
545,227,41,0.0444005929414688,1
545,228,41,0.0423919233719478,1
545,241,41,0.0441167204398885,1
545,242,41,0.0475026800103152,1
545,243,41,0.0494943156617882,1
545,244,41,0.0492510774757417,1
545,245,41,0.0482408290747727,1
545,246,41,0.047122462197624,1
546,225,41,0.0493021927467225,1
546,226,41,0.0513913064202511,1
546,227,41,0.0502025384490215,1
546,228,41,0.0467517548314799,1
546,241,41,0.0417162383148566,1
546,242,41,0.0444689151460117,1
546,243,41,0.0449562484855736,1
546,244,41,0.0452769111142312,1
546,245,41,0.0466052052842052,1
546,246,41,0.0448941845765839,1
547,225,41,0.0522079991214272,1
547,226,41,0.0542501553030509,1
547,227,41,0.0519512116579238,1
547,228,41,0.0481514070875978,1
547,245,41,0.043217737234764,1
548,227,41,0.0502443703563177,1
548,228,41,0.0455408300609612,1
548,256,41,0.0465663470810596,1
548,257,41,0.0491860993366845,1
549,227,41,0.0431203267968937,1
549,251,41,0.0423463418940545,1
549,252,41,0.0418262221145489,1
549,255,41,0.0427177953896037,1
549,256,41,0.0552635936775633,1
549,257,41,0.0654558673323958,1
549,258,41,0.0522159632418159,1
550,251,41,0.0411793360304722,1
550,255,41,0.0456062028916602,1
550,256,41,0.060104724560599,1
550,257,41,0.0701052375515986,1
550,258,41,0.0543548621295597,1
551,255,41,0.045194120487312,1
551,256,41,0.049725972621852,1
551,257,41,0.0524399156047623,1
551,258,41,0.0427039190046902,1
552,237,41,0.0417897915353371,1
552,254,41,0.0414487671433504,1
552,255,41,0.0467720463072563,1
552,256,41,0.045401860755903,1
552,257,41,0.0416869959895869,1
553,236,41,0.0496534845281309,1
553,237,41,0.04831627465244,1
553,254,41,0.0424782445967039,1
553,255,41,0.0494813773453659,1
553,256,41,0.0478695161543288,1
554,235,41,0.0430539672370902,1
554,236,41,0.0494150313023994,1
554,237,41,0.0454244555007125,1
554,254,41,0.0448688972778345,1
554,255,41,0.0526840837491978,1
554,256,41,0.0518063760455868,1
554,257,41,0.0464657277460741,1
554,258,41,0.0441779273814093,1
554,259,41,0.0442372608893153,1
554,260,41,0.0414668040107072,1
555,228,41,0.0434383293120202,1
555,229,41,0.0419727824752932,1
555,230,41,0.041781719280252,1
555,231,41,0.0426921242126821,1
555,232,41,0.0414815616933963,1
555,235,41,0.0431502260404439,1
555,236,41,0.0443184159789516,1
555,254,41,0.0426486675815727,1
555,255,41,0.0488881828414113,1
555,256,41,0.0504638513495686,1
555,257,41,0.0479160032603044,1
555,258,41,0.0464935183630449,1
555,259,41,0.045239309976931,1
555,260,41,0.0423046235281895,1
556,228,41,0.0453152259405275,1
556,229,41,0.0432617507595597,1
556,230,41,0.0432974000655902,1
556,231,41,0.0450618149829186,1
556,232,41,0.0446671017141772,1
556,233,41,0.0428517742784237,1
556,234,41,0.0417585297946124,1
556,235,41,0.0420836043188825,1
556,236,41,0.0420116433818062,1
556,255,41,0.043465968540416,1
556,256,41,0.047004784614284,1
556,258,41,0.0454297324738961,1
556,259,41,0.0441087184723561,1
556,260,41,0.0424684394831092,1
557,229,41,0.0451722069910898,1
557,230,41,0.0460897812538901,1
557,231,41,0.0475668957997629,1
557,232,41,0.047459382877883,1
557,233,41,0.0463082944416084,1
557,234,41,0.0443526946777054,1
557,235,41,0.0432249011583994,1
557,236,41,0.04270459754991,1
557,259,41,0.0426336557823472,1
557,260,41,0.0420864752950715,1
558,229,41,0.0478557884546228,1
558,230,41,0.0482794764152604,1
558,231,41,0.0482348059721841,1
558,232,41,0.0479270600330096,1
558,233,41,0.0470041736532494,1
558,234,41,0.0439432291330097,1
558,235,41,0.0415660770687227,1
558,250,41,0.0433670036662853,1
558,251,41,0.0538226447808962,1
559,230,41,0.048531116667216,1
559,231,41,0.0482586280457976,1
559,232,41,0.0481884540345791,1
559,233,41,0.0471688141352291,1
559,234,41,0.0431793169771387,1
559,250,41,0.0535292104687881,1
559,251,41,0.0737083234822625,1
559,252,41,0.0678321813527858,1
560,230,41,0.0477861659303559,1
560,231,41,0.048019726061076,1
560,232,41,0.047154102409786,1
560,233,41,0.0454986845630454,1
560,234,41,0.0414122987169948,1
560,250,41,0.0498861579543407,1
560,251,41,0.0678289859725077,1
560,252,41,0.0673558696421529,1
560,253,41,0.058630994630723,1
561,231,41,0.0482974159613905,1
561,232,41,0.0472982351465965,1
561,233,41,0.0449437156742627,1
561,251,41,0.0556630702796804,1
561,252,41,0.059393652424116,1
562,231,41,0.0509388870707842,1
562,232,41,0.0493154446537644,1
562,233,41,0.0456540092409316,1
563,232,41,0.0514039041123798,1
563,233,41,0.0464920693581133,1
563,234,41,0.0413207681032404,1
564,234,41,0.0437236048612861,1
564,235,41,0.0409931064563594,1
564,245,41,0.0436809430201952,1
565,235,41,0.0437252431019363,1
565,237,41,0.0420788842393853,1
565,238,41,0.0411950642220613,1
565,242,41,0.0415825513897168,1
565,243,41,0.0435632654368551,1
565,244,41,0.0475032206837971,1
565,245,41,0.0533992758176129,1
566,237,41,0.0453346469319981,1
566,238,41,0.0445896583479942,1
566,239,41,0.0432371690397042,1
566,240,41,0.0430684302527315,1
566,241,41,0.043616170337061,1
566,242,41,0.0460206669626962,1
566,243,41,0.0471705496971061,1
566,244,41,0.0512195452685145,1
544,242,42,0.0494101219871835,1
545,227,42,0.0421974323070313,1
545,241,42,0.0508760337785109,1
545,242,42,0.0523838315444827,1
545,243,42,0.0544384989104781,1
545,244,42,0.0551177794462241,1
546,226,42,0.0481440917753875,1
546,227,42,0.0465571988857455,1
546,228,42,0.044465630554609,1
546,244,42,0.053849175628654,1
546,245,42,0.0563120622869692,1
547,227,42,0.0491761293176778,1
547,228,42,0.0466910480129298,1
547,244,42,0.0494116791268115,1
547,245,42,0.0530996940480154,1
548,240,42,0.048884841479293,1
548,241,42,0.0474002548259001,1
548,245,42,0.0438896348741143,1
548,251,42,0.0410134817365256,1
548,252,42,0.0421532917239672,1
548,255,42,0.0413271318301226,1
548,256,42,0.0440703468753441,1
548,257,42,0.0491494741150192,1
549,240,42,0.0504953780202994,1
549,241,42,0.0485003577528295,1
549,251,42,0.0453663168812016,1
549,252,42,0.0454477206806396,1
549,253,42,0.0421867594124981,1
549,255,42,0.041787401758547,1
549,256,42,0.053280127602402,1
549,257,42,0.0677922418026763,1
549,258,42,0.0553900626117194,1
550,240,42,0.0426223908503514,1
550,251,42,0.0441523805593886,1
550,252,42,0.0429541886493691,1
550,253,42,0.0411070236556327,1
550,255,42,0.0458552533176374,1
550,256,42,0.0596989491124174,1
550,257,42,0.0739038418267947,1
550,258,42,0.058557457630447,1
550,259,42,0.0421214379457799,1
551,229,42,0.0444114091144746,1
551,255,42,0.0442297779683255,1
551,256,42,0.0484004521068402,1
551,257,42,0.0537001227631581,1
551,258,42,0.0446751982995689,1
552,229,42,0.046022526879474,1
552,230,42,0.0438862908086287,1
552,236,42,0.047082717289968,1
552,237,42,0.0517227879252819,1
552,238,42,0.0440066285054998,1
552,255,42,0.0448899375863834,1
552,256,42,0.0439245380507397,1
552,257,42,0.0418458864090864,1
553,230,42,0.0459934440528815,1
553,231,42,0.0440907113420407,1
553,235,42,0.0443131417091355,1
553,236,42,0.0600731708561941,1
553,237,42,0.0629903692211629,1
553,238,42,0.0492025304038,1
553,254,42,0.0411720531586707,1
553,255,42,0.0475277564464067,1
553,256,42,0.04576500950677,1
553,259,42,0.0420199319062841,1
554,231,42,0.0450140059302798,1
554,232,42,0.0410179044456077,1
554,235,42,0.0463814908175909,1
554,236,42,0.0568514327457986,1
554,237,42,0.0558807508302366,1
554,238,42,0.0443709559245573,1
554,254,42,0.0430587927479163,1
554,255,42,0.0499685511862506,1
554,256,42,0.0492947044189979,1
554,258,42,0.0448465593529289,1
554,259,42,0.0456116474736231,1
554,260,42,0.0430311994767665,1
555,231,42,0.0457476755149396,1
555,232,42,0.0433743460121697,1
555,235,42,0.0451398639034013,1
555,236,42,0.0482372768499965,1
555,237,42,0.0451589794143546,1
555,255,42,0.0476969926529827,1
555,256,42,0.0483754081111576,1
555,258,42,0.0468223019074009,1
555,259,42,0.0465985658138472,1
555,260,42,0.0434392836007158,1
556,231,42,0.0473222734896027,1
556,232,42,0.0471315130717114,1
556,233,42,0.0440820848966366,1
556,234,42,0.0428174523257913,1
556,235,42,0.0436565180956494,1
556,236,42,0.043621720350353,1
556,237,42,0.0411670330053911,1
556,257,42,0.0463739538292529,1
556,258,42,0.0461223676446455,1
556,259,42,0.045788874834262,1
556,260,42,0.0434381211527297,1
557,231,42,0.0491554485569944,1
557,232,42,0.0501201992844597,1
557,233,42,0.0477002961679572,1
557,234,42,0.0457758391966128,1
557,235,42,0.04486798353965,1
557,236,42,0.0431073803703691,1
557,258,42,0.0441883056088948,1
557,259,42,0.0438669590282826,1
558,232,42,0.049925892048527,1
558,233,42,0.0473778925706879,1
558,234,42,0.0453623375243746,1
558,235,42,0.0437210907295952,1
558,249,42,0.0421423890432043,1
558,251,42,0.0530407822654253,1
559,232,42,0.0483886546114647,1
559,233,42,0.0458756529281102,1
559,234,42,0.0440946123012127,1
559,235,42,0.0418950606622671,1
559,250,42,0.0554573872736881,1
559,251,42,0.0699046855369498,1
559,252,42,0.0632979421448231,1
560,232,42,0.0468870908107395,1
560,233,42,0.0449865829712767,1
560,251,42,0.0638717102505723,1
560,252,42,0.0607369827236223,1
561,233,42,0.0448020348916927,1
547,240,43,0.0521441131428035,1
548,239,43,0.0489258245292226,1
548,240,43,0.0616257526066734,1
548,241,43,0.0574583225090502,1
548,251,43,0.0414673446841892,1
548,252,43,0.0433465337682597,1
548,253,43,0.0411017710127558,1
548,256,43,0.0422004925189389,1
548,257,43,0.0471315401053855,1
549,239,43,0.0500069065630581,1
549,240,43,0.0634466760129647,1
549,241,43,0.0585895303813945,1
549,242,43,0.0465422925178489,1
549,250,43,0.0419218239996221,1
549,251,43,0.045456679640235,1
549,252,43,0.0471628234730494,1
549,253,43,0.0440979158161873,1
549,255,43,0.0418376681721612,1
549,256,43,0.0499184307544765,1
549,257,43,0.0630073896223737,1
549,258,43,0.0543850911839339,1
550,239,43,0.0456610758433403,1
550,240,43,0.053604937196666,1
550,241,43,0.0498566047418189,1
550,251,43,0.0447858876781552,1
550,252,43,0.04562968434098,1
550,253,43,0.0439124053378054,1
550,254,43,0.0423263180516515,1
550,255,43,0.045603905029362,1
550,256,43,0.0551884725039852,1
550,257,43,0.0686315400621316,1
550,258,43,0.0591395196674088,1
550,259,43,0.0471726529169507,1
551,240,43,0.049471293784928,1
551,252,43,0.0411578496663006,1
551,255,43,0.0436354696769982,1
551,256,43,0.0472395288199295,1
551,257,43,0.0536379399060024,1
551,258,43,0.0488029510737213,1
552,236,43,0.0509610709037474,1
552,237,43,0.0577967462615889,1
552,255,43,0.0430309859107411,1
553,235,43,0.0471347787395422,1
553,236,43,0.062709073028724,1
553,237,43,0.0705580353725028,1
553,238,43,0.0567077920218567,1
553,255,43,0.04384049576471,1
554,236,43,0.0585586146716983,1
554,237,43,0.0626938746971472,1
554,255,43,0.0450790840939312,1
554,259,43,0.0452567277731511,1
555,258,43,0.0459908109730245,1
555,259,43,0.0464049073860929,1
556,257,43,0.0457358185454811,1
556,258,43,0.0459109697199493,1
556,259,43,0.0463196485847288,1
557,232,43,0.0520668887493807,1
557,258,43,0.0446311334107924,1
559,251,43,0.059309707459313,1
547,240,44,0.0558579290025647,1
548,239,44,0.0514810311845758,1
548,240,44,0.0630336879805344,1
548,241,44,0.05877224017114,1
548,252,44,0.0420499365811633,1
548,257,44,0.0458063061473191,1
549,239,44,0.0552706765001764,1
549,240,44,0.068752196756357,1
549,241,44,0.0623357109557836,1
549,242,44,0.0507531008489266,1
549,251,44,0.044811864335594,1
549,252,44,0.0464272966749792,1
549,253,44,0.0444093302249366,1
549,255,44,0.0411600799444136,1
549,256,44,0.0471938527241769,1
549,257,44,0.0561475840070341,1
549,258,44,0.0518038943543048,1
550,239,44,0.0549945761798988,1
550,240,44,0.0642732846657993,1
550,241,44,0.0574437892058562,1
550,242,44,0.0467307388532376,1
550,251,44,0.0449544642630832,1
550,252,44,0.0462761676233127,1
550,253,44,0.0454004712250545,1
550,254,44,0.0429309153593398,1
550,255,44,0.0439521907959726,1
550,256,44,0.0501583167649352,1
550,257,44,0.0599961897658382,1
550,258,44,0.0577984385695873,1
550,259,44,0.049849992305135,1
551,240,44,0.0624967127052299,1
551,241,44,0.0557487616198301,1
551,252,44,0.0412970163171797,1
551,255,44,0.0425113554407367,1
551,257,44,0.0522807683653589,1
551,258,44,0.0526930156751191,1
552,241,44,0.0594268119287622,1
552,242,44,0.0458902457053873,1
553,236,44,0.0591420337990997,1
553,237,44,0.0666033332563414,1
553,241,44,0.0544514588538397,1
553,242,44,0.0424067486388221,1
554,241,44,0.0441104053736196,1
556,258,44,0.0479590408694652,1
548,240,45,0.0587281049948108,1
548,241,45,0.0565454980627885,1
549,239,45,0.0570894912798883,1
549,240,45,0.0672209067275958,1
549,241,45,0.0618810315911623,1
549,242,45,0.0531251057016657,1
549,252,45,0.0432243712983871,1
549,253,45,0.0436943787562209,1
549,254,45,0.0419627286518969,1
549,257,45,0.0480936956001376,1
549,258,45,0.0467784478812823,1
550,239,45,0.0630397218965926,1
550,240,45,0.071418300949587,1
550,241,45,0.0635343354045886,1
550,242,45,0.0512055093849238,1
550,252,45,0.0446915050117837,1
550,253,45,0.0468546720287635,1
550,254,45,0.0457686482393033,1
550,255,45,0.0442155798826903,1
550,257,45,0.0513050149325365,1
550,258,45,0.0532096724409729,1
550,259,45,0.0481317698267345,1
551,240,45,0.0684360487512735,1
551,241,45,0.0627739430330848,1
551,242,45,0.0500841958372986,1
551,253,45,0.0420440783839867,1
551,254,45,0.042740125204407,1
551,258,45,0.05379038279423,1
552,240,45,0.0693827463911775,1
552,241,45,0.0686683004521674,1
552,242,45,0.0535357201775105,1
552,243,45,0.0429899893439745,1
553,240,45,0.0638806692101677,1
553,241,45,0.065854803261031,1
553,242,45,0.0513605312856601,1
554,240,45,0.0508081630363254,1
554,241,45,0.0515850621692322,1
554,242,45,0.0432377043064513,1
555,241,45,0.0413010902918659,1
548,240,46,0.0564393368246134,1
548,241,46,0.0555083673762984,1
549,239,46,0.0567070837395954,1
549,240,46,0.0630482158769936,1
549,241,46,0.0590565100677295,1
549,242,46,0.0532627341364887,1
550,239,46,0.0637969134810834,1
550,240,46,0.0699633323895337,1
550,241,46,0.0627529378683122,1
550,242,46,0.0516076785409809,1
550,253,46,0.0450228243147699,1
550,254,46,0.0481039792097638,1
550,258,46,0.0499925354619086,1
551,240,46,0.0653041867937777,1
551,241,46,0.0615794439229468,1
551,242,46,0.0510282928377546,1
552,240,46,0.0653700948912238,1
552,241,46,0.0679131688336427,1
552,242,46,0.0559111204597161,1
552,243,46,0.0461131870089225,1
553,240,46,0.0614185881553406,1
553,241,46,0.0666886623452582,1
553,242,46,0.0550253783481638,1
553,243,46,0.0446246912862553,1
554,240,46,0.0495193650642056,1
554,241,46,0.052310732489727,1
554,242,46,0.046494561862865,1
554,243,46,0.0415175516237203,1
555,241,46,0.042860362876684,1
549,240,47,0.0590454965489028,1
549,241,47,0.0559637171760373,1
550,240,47,0.0623557537217584,1
550,241,47,0.0573522099314885,1
551,241,47,0.0566148178099056,1
551,242,47,0.0499380463884006,1
552,240,47,0.0579350829786732,1
552,241,47,0.0611753067154155,1
552,242,47,0.0539952007226512,1
552,243,47,0.0455354611732857,1
553,240,47,0.0537761955220644,1
553,241,47,0.0591231318541718,1
553,242,47,0.0533834503047971,1
553,243,47,0.0453354065782402,1
554,240,47,0.0460711496457032,1
554,241,47,0.049506286172678,1
554,242,47,0.0478981123747876,1
554,243,47,0.0443268099347584,1
555,241,47,0.0421637023918616,1
555,242,47,0.0420797330967519,1
551,242,48,0.0480861369848604,1
552,241,48,0.0546557415155138,1
552,242,48,0.0508661718942007,1
552,243,48,0.0437135699614617,1
553,240,48,0.046635147781634,1
553,241,48,0.0518301224249128,1
553,242,48,0.050339280179334,1
553,243,48,0.0440380497449016,1
554,241,48,0.0465997715157119,1
554,242,48,0.0478500032483663,1
554,243,48,0.0447231992912938,1
555,242,48,0.0416373107999658,1
552,242,49,0.045881551675798,1
553,241,49,0.0458133511227885,1
553,242,49,0.0458699434161412,1
553,243,49,0.0415037238994202,1
554,242,49,0.0462530808656347,1
554,243,49,0.0428716440288842,1
553,242,50,0.0434153236553645,1
