x,y,z,signal,cytoplasm.p
772,727,41,0.0607739810099902,1
773,727,41,0.0587496346128609,1
771,727,42,0.062580208911043,1
772,726,42,0.0583958989873142,1
772,727,42,0.0617350875981874,1
772,728,42,0.0584572113601641,1
773,726,42,0.059708502812843,1
773,727,42,0.0598562202148386,1
773,728,42,0.0568420953147658,1
774,727,42,0.0584246411896132,1
770,727,43,0.0614944662717934,1
771,726,43,0.0605294884614656,1
771,727,43,0.0630974604177269,1
771,728,43,0.0578723053806873,1
772,726,43,0.0607299593750922,1
772,727,43,0.0640704780427308,1
772,728,43,0.0586514699354834,1
773,726,43,0.0597023229149446,1
773,727,43,0.0622794917271334,1
773,728,43,0.057930811658166,1
773,729,43,0.0504574119283989,1
774,726,43,0.0588557742240968,1
774,727,43,0.0599576451533121,1
774,728,43,0.0564863862310101,1
775,727,43,0.0585476822538939,1
782,723,43,0.108790684706302,1
782,724,43,0.109340008963934,1
770,725,44,0.0628528327008319,1
770,726,44,0.0666809631548756,1
770,727,44,0.0614899840886282,1
771,725,44,0.06744671900732,1
771,726,44,0.0721639491552388,1
771,727,44,0.0661171596613983,1
771,728,44,0.0556776630569575,1
772,725,44,0.0630312873902746,1
772,726,44,0.0675882186642735,1
772,727,44,0.0662635956672417,1
772,728,44,0.0585806741497607,1
773,726,44,0.060158164727552,1
773,727,44,0.0632351104794891,1
773,728,44,0.0582733499359021,1
774,726,44,0.0578952407497904,1
774,727,44,0.0608241609158472,1
774,728,44,0.0560881910250451,1
775,726,44,0.0584879486476113,1
775,727,44,0.0588500701188625,1
775,728,44,0.0537039074775316,1
776,727,44,0.056528407374025,1
781,723,44,0.140092781299653,1
781,724,44,0.153429044218181,1
782,722,44,0.092127355076366,1
782,723,44,0.16398462341919,1
782,724,44,0.174041842244973,1
782,725,44,0.107650015048024,1
783,723,44,0.113045363283703,1
783,724,44,0.113424429461878,1
765,745,45,0.117463941620413,1
766,728,45,0.0602862502754191,1
766,729,45,0.060039470678066,1
766,730,45,0.0587522568792482,1
767,727,45,0.0651080466747413,1
768,726,45,0.0616732778057342,1
768,727,45,0.0599499135225206,1
769,725,45,0.0591808054944883,1
769,726,45,0.061283371124247,1
769,727,45,0.0573814603668604,1
769,731,45,0.0636314403619415,1
770,724,45,0.0612500169771473,1
770,725,45,0.0729240603765319,1
770,726,45,0.0751373991892666,1
770,727,45,0.0632658153265274,1
771,724,45,0.066287093336766,1
771,725,45,0.0826589999599469,1
771,726,45,0.0846425363226608,1
771,727,45,0.069338951839142,1
771,728,45,0.0553203589864301,1
772,724,45,0.0618907961542458,1
772,725,45,0.0719602558276599,1
772,726,45,0.0740075105602182,1
772,727,45,0.0673513442051092,1
772,728,45,0.0593127676712207,1
773,725,45,0.0579820675042521,1
773,726,45,0.0609305167964759,1
773,727,45,0.0627673143761965,1
773,728,45,0.058049986907051,1
774,726,45,0.0575249442954925,1
774,727,45,0.0607439574115391,1
774,728,45,0.0550381328356023,1
775,725,45,0.0561430693834601,1
775,726,45,0.0583670702772582,1
775,727,45,0.0584373037625597,1
776,725,45,0.0596671196645368,1
776,726,45,0.0585847508278144,1
776,727,45,0.0549448504397665,1
780,723,45,0.104910054857164,1
780,724,45,0.11300479114562,1
781,722,45,0.0945370178371209,1
781,723,45,0.176106382308748,1
781,724,45,0.200611121073921,1
781,725,45,0.114109765540621,1
782,722,45,0.102901279856314,1
782,723,45,0.193206230081048,1
782,724,45,0.219300019023056,1
782,725,45,0.125220886744304,1
783,723,45,0.114995172434615,1
783,724,45,0.124889864811733,1
763,744,46,0.0413622512761408,1
763,745,46,0.0522391040668421,1
764,727,46,0.0446223285431393,1
764,744,46,0.0601147378334842,1
764,745,46,0.0898040757178176,1
765,726,46,0.0549301116806493,1
765,727,46,0.0500229645654711,1
765,728,46,0.0494083215444887,1
765,729,46,0.0476512138292685,1
765,730,46,0.0459090395156188,1
765,731,46,0.0410928499003041,1
765,744,46,0.0696381172901584,1
765,745,46,0.107054960627292,1
765,746,46,0.0933642213605473,1
766,726,46,0.0678162585187432,1
766,727,46,0.0590216312214108,1
766,728,46,0.0550285466947678,1
766,729,46,0.0535471986755316,1
766,730,46,0.0530848309339974,1
766,731,46,0.0471831041353563,1
766,732,46,0.0415571532529036,1
766,744,46,0.0474432870283262,1
766,745,46,0.0699031067703825,1
766,746,46,0.0663642041887575,1
767,725,46,0.0643753475989815,1
767,726,46,0.0710089678698944,1
767,727,46,0.0620758092130242,1
767,728,46,0.05570764340153,1
767,729,46,0.0536446712908523,1
767,730,46,0.054573104980537,1
767,731,46,0.0501032491708015,1
767,732,46,0.043061569106246,1
767,745,46,0.0427475486513138,1
767,746,46,0.0469811842167981,1
768,725,46,0.0562835255405935,1
768,726,46,0.0600718029522848,1
768,727,46,0.0548497135338877,1
768,728,46,0.050945710370126,1
768,729,46,0.051525793542144,1
768,730,46,0.0569305062425295,1
768,731,46,0.0555240631274786,1
768,732,46,0.0451365928288357,1
769,725,46,0.0595541189068153,1
769,726,46,0.0595005868253703,1
769,727,46,0.052150855341123,1
769,728,46,0.0468483894029036,1
769,729,46,0.050689955592973,1
769,730,46,0.0617928315260565,1
769,731,46,0.0629718457476723,1
769,732,46,0.0489190444837593,1
770,724,46,0.0652019995056947,1
770,725,46,0.0780479959310211,1
770,726,46,0.0759091024500121,1
770,727,46,0.0586661546272523,1
770,728,46,0.046622436548074,1
770,729,46,0.048443251819669,1
770,730,46,0.0570574239356756,1
770,731,46,0.0579033021914059,1
770,732,46,0.04616439960113,1
771,724,46,0.0711788961385273,1
771,725,46,0.0893535703524767,1
771,726,46,0.086346771578084,1
771,727,46,0.0648554494307227,1
771,728,46,0.0506343148849486,1
771,729,46,0.0480269602722641,1
771,730,46,0.0479477462004279,1
771,731,46,0.0461370901835582,1
772,723,46,0.0580044892335473,1
772,724,46,0.0637175155802633,1
772,725,46,0.0745362675985974,1
772,726,46,0.0731747436364245,1
772,727,46,0.0620084899577903,1
772,728,46,0.054535095634758,1
772,729,46,0.0498056570796175,1
772,730,46,0.043614540206513,1
773,723,46,0.0573918088573043,1
773,724,46,0.0557103629891441,1
773,725,46,0.0581899510513158,1
773,726,46,0.0593855585420917,1
773,727,46,0.0576804636158322,1
773,728,46,0.0528374295621401,1
773,729,46,0.0469650342998932,1
773,730,46,0.0411121519436087,1
774,723,46,0.0568773904796656,1
774,724,46,0.0529134482536982,1
774,725,46,0.0535713397464994,1
774,726,46,0.0568946812176174,1
774,727,46,0.0571407633461789,1
774,728,46,0.0502544701369599,1
774,729,46,0.0441855698010763,1
775,723,46,0.055947637546685,1
775,724,46,0.0533510423362908,1
775,725,46,0.0554685413676202,1
775,726,46,0.0579483835463284,1
775,727,46,0.0558023964292366,1
775,728,46,0.0476038886793959,1
775,729,46,0.0420210808374332,1
776,722,46,0.0604125516007958,1
776,723,46,0.0574086075823876,1
776,724,46,0.0567801179135332,1
776,725,46,0.0582312909457435,1
776,726,46,0.0568270862189077,1
776,727,46,0.0522180610549258,1
776,728,46,0.0450459056657131,1
777,722,46,0.0589352424124695,1
777,723,46,0.0593374764493445,1
777,724,46,0.0599316387588317,1
777,725,46,0.0589737653980564,1
777,726,46,0.0536178646996187,1
777,727,46,0.0484054425230783,1
777,728,46,0.0431272420107275,1
778,722,46,0.0567711805808771,1
778,723,46,0.0597221548182615,1
778,724,46,0.0606491719434236,1
778,725,46,0.0577917720655552,1
778,726,46,0.0514375394096901,1
778,727,46,0.0465880659348283,1
778,728,46,0.0414389782499602,1
779,723,46,0.0688423486527325,1
779,724,46,0.0683723087544899,1
779,725,46,0.0573041278387412,1
779,726,46,0.0487990474111818,1
779,727,46,0.0457839168584327,1
779,728,46,0.0413841891026697,1
780,722,46,0.0787047195691014,1
780,723,46,0.114677840354606,1
780,724,46,0.120821469875793,1
780,725,46,0.073377999018483,1
780,726,46,0.0474845187880575,1
780,727,46,0.0435015151184849,1
780,728,46,0.0420275337754399,1
781,721,46,0.057959132135149,1
781,722,46,0.101571634002635,1
781,723,46,0.180447330746924,1
781,724,46,0.204070285130433,1
781,725,46,0.111034166065654,1
781,726,46,0.0507329066943768,1
781,727,46,0.0416914808761194,1
781,728,46,0.042071358064517,1
782,722,46,0.0996519944320147,1
782,723,46,0.180130647475094,1
782,724,46,0.209829690448428,1
782,725,46,0.118707263545969,1
782,727,46,0.0441063989831186,1
782,728,46,0.043171623193491,1
782,731,46,0.0421174234451766,1
782,732,46,0.0416740441563275,1
783,723,46,0.101249619690273,1
783,724,46,0.114758476397699,1
763,727,47,0.0411700986240336,1
763,745,47,0.0477977039024601,1
763,746,47,0.0516810263055383,1
763,747,47,0.061339536285549,1
764,726,47,0.04727390483991,1
764,727,47,0.0441971672472635,1
764,728,47,0.041364008464957,1
764,744,47,0.0514748837270864,1
764,745,47,0.0703033078749655,1
764,746,47,0.0677105460395581,1
764,747,47,0.057714293555596,1
765,725,47,0.0614749155186871,1
765,726,47,0.0565965484529515,1
765,727,47,0.0493426729703139,1
765,728,47,0.045480842338142,1
765,729,47,0.0423658250629755,1
765,744,47,0.0553997460737806,1
765,745,47,0.077790808369141,1
765,746,47,0.0727861670117029,1
765,747,47,0.0555256581142503,1
766,725,47,0.0691231582390377,1
766,726,47,0.0700531869154941,1
766,727,47,0.0581252865028781,1
766,728,47,0.0507192979428369,1
766,729,47,0.0478492787459005,1
766,730,47,0.0466914967719198,1
766,731,47,0.0421956345677039,1
766,744,47,0.0425288516346116,1
766,745,47,0.0569087873887608,1
766,746,47,0.056992964843161,1
766,747,47,0.0509368757654314,1
767,724,47,0.0550554938611068,1
767,725,47,0.0668902146058486,1
767,726,47,0.0715411798118231,1
767,727,47,0.0604635425168757,1
767,728,47,0.0517331742628696,1
767,729,47,0.0488098446606158,1
767,730,47,0.0495358934525479,1
767,731,47,0.0456386162669013,1
767,746,47,0.0438705328799981,1
767,747,47,0.0457293520906373,1
767,748,47,0.0464219980748564,1
768,724,47,0.0529361943870826,1
768,725,47,0.0578661471097283,1
768,726,47,0.060185858023296,1
768,727,47,0.0531059063863227,1
768,728,47,0.048012670272137,1
768,729,47,0.0483883356141104,1
768,730,47,0.0535388398635011,1
768,731,47,0.0512037251624335,1
768,747,47,0.041996534261354,1
768,748,47,0.0451372227134421,1
769,724,47,0.0582116536848801,1
769,725,47,0.0611061005097297,1
769,726,47,0.0584899978001077,1
769,727,47,0.0495913395181189,1
769,728,47,0.0449804219969503,1
769,729,47,0.0488080658448603,1
769,730,47,0.0574492175676147,1
769,731,47,0.0557673770078126,1
769,732,47,0.04260844958462,1
769,747,47,0.0421363253901046,1
769,748,47,0.0472760513136333,1
770,723,47,0.0599745249794176,1
770,724,47,0.0689461038939131,1
770,725,47,0.0765908052029571,1
770,726,47,0.070426473294147,1
770,727,47,0.0536858489832354,1
770,728,47,0.0449378223333097,1
770,729,47,0.0473957834562046,1
770,730,47,0.0525306243948242,1
770,731,47,0.0501447837076827,1
770,747,47,0.0452628103498227,1
771,723,47,0.0624512799125441,1
771,724,47,0.0740745919191201,1
771,725,47,0.0850839583735054,1
771,726,47,0.0779870404026694,1
771,727,47,0.0578692884226582,1
771,728,47,0.0466436687957091,1
771,729,47,0.0457397492416946,1
771,730,47,0.0448778210936536,1
771,731,47,0.0416746010500139,1
771,746,47,0.0410839828552006,1
771,747,47,0.0456244884688188,1
772,722,47,0.0596297699404057,1
772,723,47,0.0606676089091571,1
772,724,47,0.0659600183206128,1
772,725,47,0.0726631259474221,1
772,726,47,0.0683340993595225,1
772,727,47,0.0555570874637543,1
772,728,47,0.0481753048554987,1
772,729,47,0.0454595938703026,1
773,722,47,0.060340712315253,1
773,723,47,0.0582119348350907,1
773,724,47,0.0575222138944088,1
773,725,47,0.0597914150912955,1
773,726,47,0.0585968781340138,1
773,727,47,0.0525698286289982,1
773,728,47,0.046726299923951,1
773,729,47,0.0429077664242114,1
774,722,47,0.060048532365623,1
774,723,47,0.0559355426808944,1
774,724,47,0.0532676056045608,1
774,725,47,0.0546310976182079,1
774,726,47,0.0561071740709954,1
774,727,47,0.0523781923200662,1
774,728,47,0.0454945375974391,1
774,729,47,0.041127769297134,1
775,722,47,0.0581678699463141,1
775,723,47,0.054059027227192,1
775,724,47,0.0525324680913975,1
775,725,47,0.0547711753039039,1
775,726,47,0.0562116592213766,1
775,727,47,0.0518545770865001,1
775,728,47,0.0440403259802605,1
776,721,47,0.0614784028626455,1
776,722,47,0.0574139440296542,1
776,723,47,0.0542897326019275,1
776,724,47,0.0543561381189771,1
776,725,47,0.0552818900681915,1
776,726,47,0.0536719374545456,1
776,727,47,0.0486302869972699,1
776,728,47,0.0421376230064612,1
777,721,47,0.0587040179911913,1
777,722,47,0.0563288988591963,1
777,723,47,0.0556938832614151,1
777,724,47,0.0566694312383144,1
777,725,47,0.0549206228610416,1
777,726,47,0.0498409143973736,1
777,727,47,0.0449961907390505,1
778,721,47,0.0541351107995678,1
778,722,47,0.0539484703136088,1
778,723,47,0.0568318441455486,1
778,724,47,0.0587313436289675,1
778,725,47,0.0542012892337549,1
778,726,47,0.0475052482093543,1
778,727,47,0.0431733452385309,1
779,722,47,0.0568445013117604,1
779,723,47,0.0684998428154053,1
779,724,47,0.0699005331646086,1
779,725,47,0.0567879414588166,1
779,726,47,0.0463301214300736,1
779,727,47,0.0430337136084574,1
780,721,47,0.0550435720108304,1
780,722,47,0.075762087923543,1
780,723,47,0.107613843992084,1
780,724,47,0.110076038588342,1
780,725,47,0.0710764277002337,1
780,726,47,0.0478830600250509,1
780,727,47,0.0436294573878792,1
781,721,47,0.0604165904317057,1
781,722,47,0.0952441538706555,1
781,723,47,0.151015153390797,1
781,724,47,0.160756391820276,1
781,725,47,0.0954588553103262,1
781,726,47,0.0519396844992892,1
781,727,47,0.0447336964669453,1
781,728,47,0.0419483710675844,1
782,721,47,0.0580927271457968,1
782,722,47,0.0886773824690473,1
782,723,47,0.140912107080686,1
782,724,47,0.155759736210166,1
782,725,47,0.0977413408546638,1
782,726,47,0.0557951838449878,1
782,727,47,0.0473636079772955,1
782,728,47,0.0437660206959428,1
782,731,47,0.041962366400664,1
782,732,47,0.0409933849032026,1
783,722,47,0.0649140800631022,1
783,723,47,0.0852115032478905,1
783,725,47,0.0669820588102225,1
783,727,47,0.0486296327823568,1
783,728,47,0.0447714165524115,1
783,731,47,0.0412430895440929,1
762,726,48,0.0411389801617816,1
762,746,48,0.0420634615283135,1
762,747,48,0.0519937031868679,1
763,725,48,0.046260158281513,1
763,726,48,0.0445054511565525,1
763,727,48,0.0413318546129872,1
763,745,48,0.0426404006840341,1
763,746,48,0.0485029097316642,1
763,747,48,0.0591392979912812,1
763,748,48,0.0693027970034059,1
764,725,48,0.0543908980171297,1
764,726,48,0.0504695284211288,1
764,727,48,0.0450153792409238,1
764,744,48,0.0411275178839649,1
764,745,48,0.0518240236280367,1
764,746,48,0.0545441032549668,1
764,747,48,0.0545022389072617,1
764,748,48,0.0567476883180876,1
765,724,48,0.0591885100916057,1
765,725,48,0.0637216409189304,1
765,726,48,0.0586634188194338,1
765,727,48,0.0491306748980528,1
765,728,48,0.0415661608731124,1
765,744,48,0.0413728295528146,1
765,745,48,0.0526998227542565,1
765,746,48,0.0538743547927071,1
765,747,48,0.0500423693367372,1
765,748,48,0.0477099796300184,1
766,724,48,0.0595219272077018,1
766,725,48,0.0699099300697244,1
766,726,48,0.0681327309279159,1
766,727,48,0.0555567846866045,1
766,728,48,0.0458344427953182,1
766,729,48,0.0417725710849379,1
766,745,48,0.0445674582948266,1
766,746,48,0.0472207458231676,1
766,747,48,0.046842874533388,1
766,748,48,0.0459053845628811,1
767,723,48,0.0481648374168888,1
767,724,48,0.054165610190683,1
767,725,48,0.0650715241810376,1
767,726,48,0.0665233514281609,1
767,727,48,0.0560413741082456,1
767,728,48,0.0465927535739166,1
767,729,48,0.0437163355063217,1
767,730,48,0.0437227370803476,1
767,747,48,0.0429250112049172,1
767,748,48,0.044233681630865,1
767,749,48,0.0451861239265144,1
768,723,48,0.0501054334916685,1
768,724,48,0.0518103932495575,1
768,725,48,0.0571564050300108,1
768,726,48,0.0574968130542282,1
768,727,48,0.049779445229214,1
768,728,48,0.0438457402974846,1
768,729,48,0.0445497242046196,1
768,730,48,0.0479345970213476,1
768,731,48,0.0448447967573778,1
768,748,48,0.0432525430901626,1
768,749,48,0.04540808390768,1
769,723,48,0.0543149171727154,1
769,724,48,0.0568448689697281,1
769,725,48,0.058712398430161,1
769,726,48,0.0545553384499211,1
769,727,48,0.0459403877641006,1
769,728,48,0.0421620398209047,1
769,729,48,0.0455640844274186,1
769,730,48,0.049311627498982,1
769,731,48,0.0456692400129173,1
769,748,48,0.045279952402567,1
769,749,48,0.0476795991870693,1
770,722,48,0.0577190298552976,1
770,723,48,0.0603228754970844,1
770,724,48,0.0666520857842062,1
770,725,48,0.0681789206634764,1
770,726,48,0.0606059937591574,1
770,727,48,0.047747794333344,1
770,728,48,0.0424615783366237,1
770,729,48,0.0450948393191943,1
770,730,48,0.0457461508157206,1
770,731,48,0.0411758811269227,1
770,747,48,0.041925400554705,1
770,748,48,0.0478786373159688,1
771,722,48,0.0577080649970843,1
771,723,48,0.0633569404351703,1
771,724,48,0.070395281840975,1
771,725,48,0.0728985459949201,1
771,726,48,0.0648841754128172,1
771,727,48,0.0499809596426607,1
771,728,48,0.0421131791583435,1
771,729,48,0.0425348801439351,1
771,730,48,0.0411921013313803,1
771,747,48,0.0417709896150033,1
771,748,48,0.0456133289681519,1
772,722,48,0.0596016116654672,1
772,723,48,0.0614719039673928,1
772,724,48,0.0642061600530189,1
772,725,48,0.0663898861791487,1
772,726,48,0.0611986367761604,1
772,727,48,0.0493194240105913,1
772,728,48,0.0418230105140663,1
773,721,48,0.0598960354100472,1
773,722,48,0.0599264374799356,1
773,723,48,0.058085363172973,1
773,724,48,0.0574437675789169,1
773,725,48,0.0599380349261228,1
773,726,48,0.057598497515973,1
773,727,48,0.0486751899299434,1
773,728,48,0.0413390509770316,1
774,721,48,0.0605008814275372,1
774,722,48,0.0593557782467075,1
774,723,48,0.0553276851121102,1
774,724,48,0.0533304751170385,1
774,725,48,0.0554489203269613,1
774,726,48,0.0552112240441044,1
774,727,48,0.0481572571746722,1
775,721,48,0.0599635925616132,1
775,722,48,0.0577395862610802,1
775,723,48,0.0539051515542373,1
775,724,48,0.0524894142620322,1
775,725,48,0.0534165341151558,1
775,726,48,0.0528911995399171,1
775,727,48,0.04669133997661,1
776,721,48,0.0589326579932259,1
776,722,48,0.0563316671074237,1
776,723,48,0.0535404024098639,1
776,724,48,0.0531901325013363,1
776,725,48,0.0516773983864746,1
776,726,48,0.0486667500168906,1
776,727,48,0.0432063830916436,1
777,721,48,0.0567742191658455,1
777,722,48,0.0544546920812616,1
777,723,48,0.0536625405494298,1
777,724,48,0.0542248409706274,1
777,725,48,0.050857369729915,1
777,726,48,0.0454198003020332,1
778,721,48,0.0517583372067182,1
778,722,48,0.0509527283119214,1
778,723,48,0.0538232557419308,1
778,724,48,0.0563346624385135,1
778,725,48,0.0505383129014987,1
778,726,48,0.0429688273838921,1
779,721,48,0.0488366836922583,1
779,722,48,0.052217574448792,1
779,723,48,0.063022782596404,1
779,724,48,0.0671050349936854,1
779,725,48,0.0545348307047519,1
779,726,48,0.0428565970858824,1
780,721,48,0.0531564863905564,1
780,722,48,0.0677718097517945,1
780,723,48,0.0907363319690195,1
780,724,48,0.0927390297999326,1
780,725,48,0.065316887213868,1
780,726,48,0.046034637965469,1
780,727,48,0.0413743055914202,1
781,721,48,0.0598099926321343,1
781,722,48,0.0844411787045238,1
781,723,48,0.114784699061573,1
781,724,48,0.11371953986178,1
781,725,48,0.0759601420267055,1
781,726,48,0.0503754025746612,1
781,727,48,0.0449920329599745,1
781,728,48,0.0411936909114172,1
782,721,48,0.056800074171751,1
782,722,48,0.0788845583826579,1
782,723,48,0.104464377706017,1
782,724,48,0.105443894226273,1
782,725,48,0.0750948535929743,1
782,726,48,0.0531469759440094,1
782,727,48,0.0479489140551489,1
782,728,48,0.044086350810409,1
782,731,48,0.0420263902510256,1
783,722,48,0.0608211385510833,1
783,723,48,0.0730239498023168,1
783,724,48,0.0754439340198416,1
783,725,48,0.0613681703531515,1
783,726,48,0.0504922745545132,1
783,727,48,0.0481292935421873,1
783,728,48,0.044961993141319,1
783,731,48,0.0422057235348765,1
783,732,48,0.041331905976968,1
762,726,49,0.0410263497653953,1
762,747,49,0.0456828541711921,1
762,748,49,0.0493593960011097,1
763,724,49,0.0442975811263258,1
763,725,49,0.0454389617702325,1
763,726,49,0.0457937517090689,1
763,727,49,0.0410951342457653,1
763,746,49,0.0427401873818574,1
763,747,49,0.0502438837501839,1
763,748,49,0.0550713518143315,1
764,724,49,0.0506088707908894,1
764,725,49,0.0545162639773827,1
764,726,49,0.0541123214123049,1
764,727,49,0.0458816057431462,1
764,746,49,0.0433409945684375,1
764,747,49,0.0476054458190239,1
764,748,49,0.0503192103796851,1
765,723,49,0.0489405849152791,1
765,724,49,0.0563302559496359,1
765,725,49,0.0624352867909489,1
765,726,49,0.059992578066979,1
765,727,49,0.0490345918135806,1
765,747,49,0.0433730294722413,1
765,748,49,0.044940893358687,1
765,749,49,0.0462223381714527,1
766,723,49,0.0500201746903044,1
766,724,49,0.0577711940328333,1
766,725,49,0.0650425819295503,1
766,726,49,0.0628250691175352,1
766,727,49,0.0517209388219737,1
766,748,49,0.0425189302762184,1
766,749,49,0.0442048691410134,1
767,723,49,0.0493172937570725,1
767,724,49,0.0538290355414525,1
767,725,49,0.0609706618025085,1
767,726,49,0.059802228560934,1
767,727,49,0.0510950389790977,1
767,728,49,0.0415615327081072,1
767,748,49,0.0409900381343495,1
767,749,49,0.0427971202995037,1
768,722,49,0.0570957739057482,1
768,723,49,0.050680028827845,1
768,724,49,0.0521715252883368,1
768,725,49,0.0565233953308476,1
768,726,49,0.0542693870588029,1
768,727,49,0.0464234795201968,1
768,749,49,0.0421863133568756,1
769,722,49,0.0579525737658133,1
769,723,49,0.0537480210269215,1
769,724,49,0.0549091119226115,1
769,725,49,0.0556928289481254,1
769,726,49,0.050195882758459,1
769,727,49,0.0422480663786131,1
769,749,49,0.0438323288917656,1
770,722,49,0.0575705230700184,1
770,723,49,0.0589873741495963,1
770,724,49,0.0612766072989882,1
770,725,49,0.0587770791988032,1
770,726,49,0.0509676184596135,1
770,727,49,0.0414723999812451,1
770,748,49,0.0417917217396675,1
770,749,49,0.0441746509001089,1
771,721,49,0.0559817918905379,1
771,722,49,0.0570866203036993,1
771,723,49,0.061309929005679,1
771,724,49,0.0631357995743299,1
771,725,49,0.0599763794894606,1
771,726,49,0.0522060040362789,1
771,727,49,0.0416547042658792,1
771,748,49,0.041127109675486,1
771,749,49,0.0410846965441968,1
772,721,49,0.0573540860684707,1
772,722,49,0.0589666339148298,1
772,723,49,0.0604374766483123,1
772,724,49,0.0601106557486957,1
772,725,49,0.0584215160968877,1
772,726,49,0.0525636919849784,1
772,727,49,0.0420699117629528,1
773,720,49,0.057571344893711,1
773,721,49,0.0588921561426952,1
773,722,49,0.0592639448558032,1
773,723,49,0.057564732457027,1
773,724,49,0.0561763099891286,1
773,725,49,0.0571716574289358,1
773,726,49,0.0534910118872904,1
773,727,49,0.0432836804759864,1
774,721,49,0.0583827389947643,1
774,722,49,0.0577437115997473,1
774,723,49,0.0544890194406287,1
774,724,49,0.0528780990214502,1
774,725,49,0.05457720328553,1
774,726,49,0.0522901706772095,1
774,727,49,0.0435187274587819,1
775,720,49,0.0549341613250289,1
775,721,49,0.057378270393317,1
775,722,49,0.056160506103252,1
775,723,49,0.0532343812190967,1
775,724,49,0.0516310410421347,1
775,725,49,0.0513029008992222,1
775,726,49,0.0484867922551681,1
775,727,49,0.0416616438100196,1
776,720,49,0.0550959632712286,1
776,721,49,0.0566947671976772,1
776,722,49,0.0547161563703837,1
776,723,49,0.0523013085509371,1
776,724,49,0.0507310413708642,1
776,725,49,0.0477628737167547,1
776,726,49,0.0434852786938228,1
777,721,49,0.0551395902144847,1
777,722,49,0.0530899835522801,1
777,723,49,0.0519342939846745,1
777,724,49,0.0508303901231671,1
777,725,49,0.0464457120137734,1
778,721,49,0.0505217088188689,1
778,722,49,0.0496395675927063,1
778,723,49,0.0512981105321724,1
778,724,49,0.0523037794287495,1
778,725,49,0.0463994736175996,1
779,721,49,0.0482948639825559,1
779,722,49,0.0497926160352336,1
779,723,49,0.0569210768970048,1
779,724,49,0.0608167699093494,1
779,725,49,0.0514242442487697,1
780,721,49,0.0516124851282352,1
780,722,49,0.0596351388280811,1
780,723,49,0.0721896581793041,1
780,724,49,0.0741483776291978,1
780,725,49,0.0583863398801539,1
780,726,49,0.0440279499642593,1
781,721,49,0.0565548030534124,1
781,722,49,0.071722024278056,1
781,723,49,0.0836795535974813,1
781,724,49,0.0793382969754206,1
781,725,49,0.0606558438541905,1
781,726,49,0.048138901309961,1
781,727,49,0.0441665786450238,1
782,722,49,0.0690138935350763,1
782,723,49,0.0776792674298208,1
782,724,49,0.0732933295512142,1
782,725,49,0.059250136055075,1
782,726,49,0.0498734413140459,1
782,727,49,0.0469512200924301,1
782,728,49,0.043969524787803,1
782,731,49,0.0412115763901991,1
783,724,49,0.0631318580646467,1
783,725,49,0.05657685712474,1
783,726,49,0.049260220264321,1
783,727,49,0.0466129044745878,1
783,728,49,0.044594929914443,1
783,731,49,0.0422815692109204,1
783,732,49,0.0416579537135055,1
784,728,49,0.0421874622880246,1
784,732,49,0.0413787147836653,1
763,724,50,0.0420971725199113,1
763,725,50,0.0447429365767514,1
763,726,50,0.04592051801364,1
763,747,50,0.0422856269654022,1
763,748,50,0.0440995756837768,1
763,749,50,0.042198248723989,1
764,723,50,0.0439110536541006,1
764,724,50,0.049063588132416,1
764,725,50,0.0541105912571627,1
764,726,50,0.0552073041613605,1
764,727,50,0.04530917039753,1
764,747,50,0.0416791751476709,1
764,748,50,0.0438605223104803,1
764,749,50,0.0426972984579041,1
765,722,50,0.0438138757058276,1
765,723,50,0.0489737552333949,1
765,724,50,0.0546869005282769,1
765,725,50,0.0587498076283751,1
765,726,50,0.0572551157876051,1
765,727,50,0.0460871265470939,1
765,748,50,0.0413640895659793,1
765,749,50,0.0428145570192956,1
766,722,50,0.0487623410884942,1
766,723,50,0.0527889798114252,1
766,724,50,0.0571248675458104,1
766,725,50,0.058091434936175,1
766,726,50,0.0541644585561665,1
766,727,50,0.0447611464596225,1
766,749,50,0.0421118193645365,1
767,722,50,0.0535071185503168,1
767,723,50,0.0536911583968279,1
767,724,50,0.0558719919198295,1
767,725,50,0.0563070069899133,1
767,726,50,0.0515024905150732,1
767,727,50,0.0435881066799819,1
768,722,50,0.0592278278672109,1
768,723,50,0.0549739873337072,1
768,724,50,0.0551836064426479,1
768,725,50,0.0547815129808782,1
768,726,50,0.0492235355685727,1
769,721,50,0.0624571570332926,1
769,722,50,0.0587929101183539,1
769,723,50,0.0545942993810283,1
769,724,50,0.0537739571338492,1
769,725,50,0.0516773335056568,1
769,726,50,0.0451578440000426,1
770,721,50,0.0589950733399789,1
770,722,50,0.057463085842426,1
770,723,50,0.0567640977582639,1
770,724,50,0.05564334651106,1
770,725,50,0.0509257000445601,1
770,726,50,0.0434813209639352,1
771,720,50,0.0575459278333258,1
771,721,50,0.0561283306243429,1
771,722,50,0.0566556440645254,1
771,723,50,0.0582366706468886,1
771,724,50,0.0560409199425208,1
771,725,50,0.0504605748682682,1
771,726,50,0.0432662897134405,1
772,720,50,0.0571129997628822,1
772,721,50,0.0567857841716238,1
772,722,50,0.057817437835742,1
772,723,50,0.0577111035820526,1
772,724,50,0.0543527480962454,1
772,725,50,0.0505753165946014,1
772,726,50,0.0448262624704176,1
773,720,50,0.0560361403889406,1
773,721,50,0.0577070809713472,1
773,722,50,0.0578545766972152,1
773,723,50,0.0555039068200726,1
773,724,50,0.0522113458902803,1
773,725,50,0.0513116760298338,1
773,726,50,0.0472951587144844,1
774,720,50,0.0541893079093956,1
774,721,50,0.0566208192855549,1
774,722,50,0.0560778317211315,1
774,723,50,0.0530296227647585,1
774,724,50,0.0501971317142022,1
774,725,50,0.0502423320172908,1
774,726,50,0.0467384921109683,1
775,720,50,0.0515635703983258,1
775,721,50,0.0545273910376406,1
775,722,50,0.0542089776106679,1
775,723,50,0.0520331507241089,1
775,724,50,0.0488481946306884,1
775,725,50,0.0464098491417176,1
775,726,50,0.0420282069139249,1
776,720,50,0.0520294741444318,1
776,721,50,0.053902648236016,1
776,722,50,0.0529511764492666,1
776,723,50,0.0508697133055072,1
776,724,50,0.0471430780774897,1
776,725,50,0.0425913588958565,1
777,720,50,0.0516821941602593,1
777,721,50,0.0522337622128407,1
777,722,50,0.0510410905790717,1
777,723,50,0.0497312387815659,1
777,724,50,0.0465389349355262,1
777,725,50,0.0411854564542875,1
778,721,50,0.0483238440811868,1
778,722,50,0.0476926510449229,1
778,723,50,0.0484430301435415,1
778,724,50,0.047352021344578,1
778,725,50,0.0415824432550205,1
779,721,50,0.0466767688262723,1
779,722,50,0.0470414044292145,1
779,723,50,0.0513182452126391,1
779,724,50,0.0536683527893604,1
779,725,50,0.0470776025188291,1
780,721,50,0.0489248999775685,1
780,722,50,0.0521809167867178,1
780,723,50,0.0587387616691395,1
780,724,50,0.06099753327456,1
780,725,50,0.0526131419816349,1
780,726,50,0.0416650770866298,1
781,722,50,0.0602738039718653,1
781,723,50,0.065950324045082,1
781,724,50,0.0644319236721297,1
781,725,50,0.0548789423423204,1
781,726,50,0.0459723253466777,1
781,727,50,0.041419514004611,1
782,723,50,0.0645442539947336,1
782,724,50,0.0624846394663786,1
782,725,50,0.0553600119795942,1
782,726,50,0.0479609386333868,1
782,727,50,0.0441432729145856,1
782,728,50,0.0411497287506022,1
783,724,50,0.0579838300998031,1
783,725,50,0.0552332294548186,1
783,726,50,0.0483039743307263,1
783,727,50,0.0438828115747725,1
783,728,50,0.042103803880167,1
783,731,50,0.0413217737559168,1
783,732,50,0.0415115934019496,1
784,726,50,0.044871541171161,1
784,727,50,0.0420884893037916,1
784,732,50,0.0424861627598466,1
784,733,50,0.0418385765036108,1
763,724,51,0.0421750430181449,1
763,725,51,0.0442408942151138,1
763,726,51,0.0441120328008002,1
764,722,51,0.0427168843547866,1
764,723,51,0.0462225220004365,1
764,724,51,0.0483747917433882,1
764,725,51,0.0516968301914148,1
764,726,51,0.0520025918589107,1
764,727,51,0.0426902940329458,1
765,722,51,0.0481704279806918,1
765,723,51,0.0518318471733201,1
765,724,51,0.0530144514668558,1
765,725,51,0.0541939522946053,1
765,726,51,0.0523668111432718,1
765,727,51,0.0427505169487295,1
766,721,51,0.0476203305599811,1
766,722,51,0.05187955079463,1
766,723,51,0.0553612555286026,1
766,724,51,0.0558658012084615,1
766,725,51,0.0526355637109302,1
766,726,51,0.0477530388661186,1
767,721,51,0.052785724957064,1
767,722,51,0.0601428798882181,1
767,723,51,0.0648117089460353,1
767,724,51,0.0623113373952186,1
767,725,51,0.053609122009416,1
767,726,51,0.0457178573724117,1
768,721,51,0.058765600700782,1
768,722,51,0.068480054165967,1
768,723,51,0.0716699844554211,1
768,724,51,0.0651518466335117,1
768,725,51,0.0526666470294058,1
768,726,51,0.0441555137622163,1
769,720,51,0.0537234582306378,1
769,721,51,0.0598327820193973,1
769,722,51,0.0665642804107423,1
769,723,51,0.0668720858239998,1
769,724,51,0.0594221783570222,1
769,725,51,0.0482893058591617,1
770,720,51,0.0560072954586801,1
770,721,51,0.0580532904220255,1
770,722,51,0.0600724409469935,1
770,723,51,0.0585903792387611,1
770,724,51,0.0534313539752953,1
770,725,51,0.0456419792559589,1
771,720,51,0.0574818850593923,1
771,721,51,0.0574252927660397,1
771,722,51,0.0578206224025505,1
771,723,51,0.0565930124483797,1
771,724,51,0.0521395606720857,1
771,725,51,0.0454889902875146,1
772,720,51,0.0569885907946923,1
772,721,51,0.0567175295512661,1
772,722,51,0.0569330906617731,1
772,723,51,0.0550117966302979,1
772,724,51,0.0503173991235207,1
772,725,51,0.0454443144377035,1
773,720,51,0.0548582345479628,1
773,721,51,0.0562123188430245,1
773,722,51,0.0560498518684421,1
773,723,51,0.0528671017228279,1
773,724,51,0.0485597291078792,1
773,725,51,0.0458080146755219,1
774,720,51,0.0526847163371716,1
774,721,51,0.0546276156809843,1
774,722,51,0.054206252616319,1
774,723,51,0.0506966491306792,1
774,724,51,0.0469175739816501,1
774,725,51,0.0450115431625696,1
775,720,51,0.0492260767339377,1
775,721,51,0.0513258687087342,1
775,722,51,0.0519510278289399,1
775,723,51,0.0495812721778856,1
775,724,51,0.0452509371601597,1
775,725,51,0.041372429454438,1
776,720,51,0.0491645426849603,1
776,721,51,0.0504279019697557,1
776,722,51,0.0510549750740874,1
776,723,51,0.0487214769867307,1
776,724,51,0.0431801090637897,1
777,720,51,0.048695838250218,1
777,721,51,0.0490294446020327,1
777,722,51,0.0488293467531087,1
777,723,51,0.0468876693313651,1
777,724,51,0.0419644642137738,1
778,720,51,0.0472221569809554,1
778,721,51,0.0469004184120688,1
778,722,51,0.0459343268143683,1
778,723,51,0.0449115726357625,1
778,724,51,0.041853388253648,1
779,721,51,0.0458553992994775,1
779,722,51,0.045279352255002,1
779,723,51,0.0459828522593707,1
779,724,51,0.045583510825624,1
780,721,51,0.0470700060564081,1
780,722,51,0.0483000706681868,1
780,723,51,0.0504034851553121,1
780,724,51,0.0508944977779185,1
780,725,51,0.0450140681077302,1
781,722,51,0.0525577932372907,1
781,723,51,0.055991659181583,1
781,724,51,0.0563199615265401,1
781,725,51,0.0496961166321803,1
781,726,51,0.0415729057747994,1
782,723,51,0.0575725722225149,1
782,724,51,0.0582137244643159,1
782,725,51,0.0528076871138997,1
782,726,51,0.0446265782367072,1
783,724,51,0.0544737454147645,1
783,725,51,0.0528754875685325,1
783,726,51,0.0462472361852951,1
783,727,51,0.0413859652150579,1
784,725,51,0.0475318493446648,1
784,726,51,0.044092646953106,1
784,727,51,0.0412907390980546,1
784,732,51,0.0418130540118967,1
784,733,51,0.0415047160352595,1
785,727,51,0.0410051715851084,1
785,734,51,0.0418654047217837,1
785,735,51,0.0418721577335729,1
785,736,51,0.0415113311753108,1
785,737,51,0.0413287295202617,1
752,746,52,0.0413442549592951,1
763,723,52,0.04156227072741,1
763,724,52,0.042276227356919,1
763,725,52,0.0419622501558653,1
764,722,52,0.0479093313495374,1
764,723,52,0.0500931223564851,1
764,724,52,0.0471112972902224,1
764,725,52,0.0463848862470573,1
764,726,52,0.0454671254519057,1
765,721,52,0.047140915383562,1
765,722,52,0.0559166028888227,1
765,723,52,0.0580167192677084,1
765,724,52,0.0515253393764192,1
765,725,52,0.0471240734046002,1
765,726,52,0.0451301858480749,1
766,721,52,0.0527949542534004,1
766,722,52,0.0697906358726734,1
766,723,52,0.0754227720597592,1
766,724,52,0.0625987431980032,1
766,725,52,0.046956426778061,1
767,721,52,0.0565042987434662,1
767,722,52,0.0849199721064388,1
767,723,52,0.0978475940073308,1
767,724,52,0.0774943733192083,1
767,725,52,0.0496386376343173,1
768,721,52,0.0595032523456362,1
768,722,52,0.0901227432613269,1
768,723,52,0.103364009849081,1
768,724,52,0.0798301368284543,1
768,725,52,0.0491825038580297,1
769,721,52,0.0598724836731747,1
769,722,52,0.0770546543898318,1
769,723,52,0.0814631870132479,1
769,724,52,0.0634001564665803,1
769,725,52,0.0433177131683059,1
770,720,52,0.057528069388218,1
770,721,52,0.0662669154024207,1
770,722,52,0.0710278752215572,1
770,723,52,0.0652556180948968,1
770,724,52,0.0523127437950797,1
771,720,52,0.0644554105281844,1
771,721,52,0.07214955642715,1
771,722,52,0.0710700369396774,1
771,723,52,0.0610084819125689,1
771,724,52,0.0503459574968358,1
772,719,52,0.0548948489561585,1
772,720,52,0.0628221657009373,1
772,721,52,0.0675782648654714,1
772,722,52,0.0653931059546144,1
772,723,52,0.0568088222686884,1
772,724,52,0.04854699624738,1
773,720,52,0.0559155918294115,1
773,721,52,0.0584707498241514,1
773,722,52,0.0571068414919232,1
773,723,52,0.0514707313547452,1
773,724,52,0.0456392650750796,1
774,720,52,0.0511125784268512,1
774,721,52,0.0531163197575845,1
774,722,52,0.0529761231237224,1
774,723,52,0.0487353560750116,1
774,724,52,0.0434153236553645,1
775,719,52,0.045415469507443,1
775,720,52,0.0468870367433913,1
775,721,52,0.0488188901279683,1
775,722,52,0.0504649813571458,1
775,723,52,0.0473255121237594,1
776,719,52,0.0444162535488726,1
776,720,52,0.0451601445657081,1
776,721,52,0.0472221569809554,1
776,722,52,0.0497091252361554,1
776,723,52,0.0467128695946601,1
777,720,52,0.0442748755434525,1
777,721,52,0.0457878799950552,1
777,722,52,0.0470811601503401,1
777,723,52,0.0443304675908636,1
778,720,52,0.0437759447577035,1
778,721,52,0.0446802103427463,1
778,722,52,0.0441080480372385,1
778,723,52,0.0417051058478638,1
779,720,52,0.0426058002845586,1
779,721,52,0.0442403562449993,1
779,722,52,0.0435580776747961,1
779,723,52,0.0414755683278492,1
780,720,52,0.0417144216519573,1
780,721,52,0.044955875420871,1
780,722,52,0.0456160107086222,1
780,723,52,0.0446224528980401,1
780,724,52,0.0438692244501718,1
781,721,52,0.0444452769013821,1
781,722,52,0.0470506066918768,1
781,723,52,0.0490121322371416,1
781,724,52,0.0515745893238874,1
781,725,52,0.0470753857575532,1
782,722,52,0.0480806275220796,1
782,723,52,0.0524343466678985,1
782,724,52,0.0565591176277981,1
782,725,52,0.0523266174766258,1
782,726,52,0.0437505763579317,1
783,724,52,0.0531719226184652,1
783,725,52,0.05147118552047,1
783,726,52,0.0454770684372382,1
784,725,52,0.0462201484438509,1
784,726,52,0.0437001504456404,1
784,730,52,0.0412364608872045,1
784,734,52,0.0410063340330946,1
785,727,52,0.0417933897173593,1
785,734,52,0.044261210021197,1
785,735,52,0.044195401948345,1
785,736,52,0.0434271535911489,1
785,737,52,0.04277255750322,1
785,738,52,0.0414579856262171,1
763,723,53,0.0424901096762646,1
763,724,53,0.0414898745481808,1
764,721,53,0.0431992894555608,1
764,722,53,0.0542884241721013,1
764,723,53,0.0559909130521779,1
764,724,53,0.0466515410016058,1
765,721,53,0.0561218749829688,1
765,722,53,0.0804811239208914,1
765,723,53,0.0832791362235056,1
765,724,53,0.0583844799633761,1
765,725,53,0.0410084048125303,1
766,721,53,0.0685408150518653,1
766,722,53,0.112594214516919,1
766,723,53,0.121731434159335,1
766,724,53,0.0785258323408731,1
766,725,53,0.0429479357605507,1
767,721,53,0.0688611911235775,1
767,722,53,0.12130723255889,1
767,723,53,0.138975079450887,1
767,724,53,0.0907627168349372,1
767,725,53,0.0458461051223233,1
768,721,53,0.0606511183679585,1
768,722,53,0.0993788894428269,1
768,723,53,0.116229183962811,1
768,724,53,0.0802904770444313,1
768,725,53,0.0447316716447555,1
769,720,53,0.0505746948200972,1
769,721,53,0.0663088608511481,1
769,722,53,0.0838601817943214,1
769,723,53,0.0848255272626169,1
769,724,53,0.059613133417367,1
770,719,53,0.0497038104158281,1
770,720,53,0.0677131142385972,1
770,721,53,0.0936633435576851,1
770,722,53,0.098694223799201,1
770,723,53,0.0792506051433879,1
770,724,53,0.0518004664844294,1
771,719,53,0.0565119709001746,1
771,720,53,0.0835732247505268,1
771,721,53,0.115103166555893,1
771,722,53,0.112222901596475,1
771,723,53,0.0809762456619604,1
771,724,53,0.0514481149829965,1
772,719,53,0.0569257861630323,1
772,720,53,0.0791439086384657,1
772,721,53,0.101105627528568,1
772,722,53,0.0940990615032955,1
772,723,53,0.068667803032564,1
772,724,53,0.0476653362206162,1
773,720,53,0.0623716981827402,1
773,721,53,0.0712359534110744,1
773,722,53,0.0665247625859487,1
773,723,53,0.0536092517710517,1
773,724,53,0.0426545609225256,1
774,719,53,0.0466796289889916,1
774,720,53,0.0502230299739863,1
774,721,53,0.0527865575942262,1
774,722,53,0.0518985338405802,1
774,723,53,0.0462490474414596,1
775,719,53,0.0436552258860276,1
775,720,53,0.0446397733730335,1
775,721,53,0.045962896001153,1
775,722,53,0.0473629537623824,1
775,723,53,0.0432869731774913,1
776,719,53,0.0414027936771826,1
776,720,53,0.0418900432123548,1
776,721,53,0.0439156520820644,1
776,722,53,0.0462978594434074,1
776,723,53,0.0423824967297905,1
777,721,53,0.0427692675050825,1
777,722,53,0.0440169472589022,1
778,721,53,0.042563457440822,1
778,722,53,0.0421632157857279,1
779,721,53,0.0431016276045215,1
779,722,53,0.0426199010489671,1
780,721,53,0.0447237697018173,1
780,722,53,0.0451147577302683,1
780,723,53,0.042409949425835,1
781,721,53,0.0440431158554272,1
781,722,53,0.0454520190348208,1
781,723,53,0.0465636058665062,1
781,724,53,0.049324187343967,1
781,725,53,0.0464660629636329,1
782,722,53,0.0452554653005708,1
782,723,53,0.0503957210841117,1
782,724,53,0.0563848207174313,1
782,725,53,0.0538748035516971,1
782,726,53,0.0446711865023331,1
783,723,53,0.0492150740285806,1
783,724,53,0.0544183966704202,1
783,725,53,0.0527376536777865,1
783,726,53,0.0458955443055101,1
784,725,53,0.0467017155007281,1
784,726,53,0.0438021430912699,1
785,734,53,0.0429299583672768,1
785,735,53,0.0439548671297081,1
785,736,53,0.0436693347605383,1
785,737,53,0.0431227949713387,1
785,738,53,0.0423036097654109,1
763,722,54,0.0452566818159051,1
763,723,54,0.0497592618881339,1
763,724,54,0.0431193887284026,1
764,721,54,0.0477405330884818,1
764,722,54,0.0754027022601103,1
764,723,54,0.0802873573584407,1
764,724,54,0.055092362385839,1
765,721,54,0.0651902993315459,1
765,722,54,0.114224810044104,1
765,723,54,0.121238956311593,1
765,724,54,0.0712839544027993,1
766,721,54,0.0771811557643968,1
766,722,54,0.141547225406429,1
766,723,54,0.1540678391236,1
766,724,54,0.0868041705303194,1
767,721,54,0.0698095918849495,1
767,722,54,0.127122283991644,1
767,723,54,0.144917719011905,1
767,724,54,0.086412025460617,1
768,721,54,0.0546034529830773,1
768,722,54,0.0863348659480121,1
768,723,54,0.100038489463831,1
768,724,54,0.0665793165402745,1
769,720,54,0.0508664584511461,1
769,721,54,0.0708565736422802,1
769,722,54,0.0854142233632019,1
769,723,54,0.0772556119095921,1
769,724,54,0.051091411060034,1
770,719,54,0.0515507888772132,1
770,720,54,0.0822036880073518,1
770,721,54,0.130418316045191,1
770,722,54,0.1381920653009,1
770,723,54,0.0961271601743893,1
770,724,54,0.050705656750888,1
771,719,54,0.061553480782345,1
771,720,54,0.112178339288095,1
771,721,54,0.175728646187339,1
771,722,54,0.172029542053021,1
771,723,54,0.106808813617913,1
771,724,54,0.0510648693988066,1
772,719,54,0.0615868349294447,1
772,720,54,0.108068788286711,1
772,721,54,0.157095859332158,1
772,722,54,0.143252585262694,1
772,723,54,0.0871283637568139,1
772,724,54,0.0453868732869842,1
773,719,54,0.0516967220567185,1
773,720,54,0.0759075399036494,1
773,721,54,0.0980441720718876,1
773,722,54,0.087288505835424,1
773,723,54,0.0585901900030425,1
774,719,54,0.0437747120221647,1
774,720,54,0.050192952308187,1
774,721,54,0.0567680987420301,1
774,722,54,0.0538116420755391,1
774,723,54,0.0436815134307186,1
775,721,54,0.0428775265563675,1
775,722,54,0.0433762437760913,1
776,722,54,0.0410549649094259,1
779,721,54,0.0418066578446056,1
779,722,54,0.0423107358419026,1
780,721,54,0.0442985354150214,1
780,722,54,0.0450703170734218,1
781,721,54,0.0434112442739434,1
781,722,54,0.0443987195078539,1
781,723,54,0.0440219971492234,1
781,724,54,0.0452283883725962,1
781,725,54,0.0447023617353006,1
782,722,54,0.042706854861697,1
782,723,54,0.0481662215410025,1
782,724,54,0.0540837684457246,1
782,725,54,0.054742433101605,1
782,726,54,0.0456684398161641,1
783,723,54,0.0488712111008138,1
783,724,54,0.0549794156954657,1
783,725,54,0.0551750421746943,1
783,726,54,0.0471713120467156,1
784,724,54,0.0467884611541675,1
784,725,54,0.0476722352142455,1
784,726,54,0.0439461460664447,1
763,722,55,0.0580070682460561,1
763,723,55,0.0664117131676139,1
763,724,55,0.04994225282809,1
764,721,55,0.0555965782548738,1
764,722,55,0.101755052074642,1
764,723,55,0.114502435063601,1
764,724,55,0.0714348023042552,1
765,721,55,0.0724216773906008,1
765,722,55,0.137346733125386,1
765,723,55,0.150819613419326,1
765,724,55,0.0848358054655082,1
766,721,55,0.0773324956787213,1
766,722,55,0.138446700883945,1
766,723,55,0.149899927826578,1
766,724,55,0.0828275278842616,1
767,721,55,0.0647731805537137,1
767,722,55,0.105052922418027,1
767,723,55,0.115576807339526,1
767,724,55,0.0705119051110254,1
768,720,55,0.0429797706151662,1
768,721,55,0.0502569247945679,1
768,722,55,0.0670900258978272,1
768,723,55,0.0726517015167492,1
768,724,55,0.0526291783571087,1
769,720,55,0.0541949579472817,1
769,721,55,0.0720965379855129,1
769,722,55,0.0827668643195901,1
769,723,55,0.0668051882940817,1
769,724,55,0.0461854047659027,1
770,720,55,0.0941348108339201,1
770,721,55,0.148910971147327,1
770,722,55,0.158964437699146,1
770,723,55,0.101833092885022,1
770,724,55,0.0504895603736339,1
771,719,55,0.0658708071960959,1
771,720,55,0.133583310473659,1
771,721,55,0.21263479098039,1
771,722,55,0.211103409037137,1
771,723,55,0.122404129292072,1
771,724,55,0.0523109433523849,1
771,752,55,0.0411132819511859,1
772,719,55,0.0663755691453475,1
772,720,55,0.132041644920779,1
772,721,55,0.199977170602899,1
772,722,55,0.184793242567664,1
772,723,55,0.10456355884954,1
772,724,55,0.0464719617113207,1
772,752,55,0.0438896483909514,1
772,753,55,0.0497275730153585,1
772,754,55,0.0463158584636205,1
773,719,55,0.0551333129953596,1
773,720,55,0.0908126318107882,1
773,721,55,0.126029539630804,1
773,722,55,0.112298877034154,1
773,723,55,0.068737425556831,1
773,752,55,0.0422720479509037,1
773,753,55,0.0490360354117774,1
773,754,55,0.0476711700874862,1
774,719,55,0.0445163213969065,1
774,720,55,0.0538604919246306,1
774,721,55,0.0652621115834146,1
774,722,55,0.059913445096165,1
774,723,55,0.0444289918161067,1
774,754,55,0.0452268285296008,1
775,721,55,0.0431090834918372,1
775,722,55,0.041557037008105,1
779,721,55,0.0421943558749191,1
779,722,55,0.042897369273154,1
780,721,55,0.0446158810118674,1
780,722,55,0.0461395286209617,1
780,750,55,0.0477037078176282,1
780,751,55,0.0594290665371819,1
781,721,55,0.043284442825596,1
781,722,55,0.0451431917486825,1
781,723,55,0.0435314576159137,1
781,724,55,0.0431912009802713,1
781,725,55,0.042416423990781,1
781,750,55,0.0614827769111142,1
782,722,55,0.0422664249466918,1
782,723,55,0.0465686611635622,1
782,724,55,0.0523662272159113,1
782,725,55,0.0534731858825915,1
782,726,55,0.0458674130642458,1
783,723,55,0.0473295347344649,1
783,724,55,0.0555138065515266,1
783,725,55,0.0565216165150921,1
783,726,55,0.0488234966660343,1
784,724,55,0.0484316543734818,1
784,725,55,0.0490438481435911,1
784,726,55,0.0445807777860537,1
747,735,56,0.0454016931471237,1
763,722,56,0.0658173454022035,1
763,723,56,0.080417616413705,1
763,724,56,0.0558939486699303,1
764,721,56,0.0581272869947612,1
764,722,56,0.115170588539089,1
764,723,56,0.138740437973203,1
764,724,56,0.0844409299947222,1
765,721,56,0.0695853637785273,1
765,722,56,0.133334503350748,1
765,723,56,0.153821302829314,1
765,724,56,0.0878588190376237,1
766,721,56,0.0675150925758437,1
766,722,56,0.109523481103289,1
766,723,56,0.119498950098606,1
766,724,56,0.0697349086568918,1
767,720,56,0.0473773843376149,1
767,721,56,0.0565179940027632,1
767,722,56,0.0764077115350395,1
767,723,56,0.0813929156808026,1
767,724,56,0.055503955480686,1
768,720,56,0.0441578602851278,1
768,721,56,0.0482242412123474,1
768,722,56,0.0564984054025132,1
768,723,56,0.0579877445758122,1
768,724,56,0.0459275792093139,1
769,720,56,0.053936024010055,1
769,721,56,0.0691418979819211,1
769,722,56,0.0774880041855913,1
769,723,56,0.0622991560216709,1
769,724,56,0.0436587186367208,1
770,720,56,0.0920134351737253,1
770,721,56,0.141453559132421,1
770,722,56,0.149228746579591,1
770,723,56,0.095162317532432,1
770,724,56,0.0465938619545545,1
771,719,56,0.0648014739970226,1
771,720,56,0.135405174651808,1
771,721,56,0.215861508693554,1
771,722,56,0.213378498168242,1
771,723,56,0.121867251337994,1
771,724,56,0.0485981115183608,1
771,753,56,0.0438154815060689,1
772,719,56,0.0663237455921054,1
772,720,56,0.139574718782746,1
772,721,56,0.218353407890909,1
772,722,56,0.204302601712144,1
772,723,56,0.113015734376894,1
772,724,56,0.0445460097777988,1
772,752,56,0.0449819358826996,1
772,753,56,0.0525823938807181,1
772,754,56,0.047605981085771,1
773,718,56,0.0422559412878773,1
773,719,56,0.0572329968354597,1
773,720,56,0.102381660199779,1
773,721,56,0.15106112145023,1
773,722,56,0.136740389442351,1
773,723,56,0.0785795374378323,1
773,752,56,0.0412418973590652,1
773,753,56,0.0493710907685237,1
773,754,56,0.0481473790701575,1
773,755,56,0.0416169057827581,1
774,719,56,0.0450793409138351,1
774,720,56,0.0607199028483285,1
774,721,56,0.0796873719955532,1
774,722,56,0.0717769945509629,1
774,723,56,0.0465835621247239,1
774,753,56,0.0412027661158112,1
774,754,56,0.0442738780008784,1
774,755,56,0.0436567343650421,1
775,720,56,0.0418637664811335,1
775,721,56,0.0475991956335729,1
775,722,56,0.0435714296064321,1
775,754,56,0.0413260748134655,1
775,755,56,0.0424068081129051,1
777,747,56,0.0411044878970025,1
779,721,56,0.0424243854078023,1
779,722,56,0.0422218004608614,1
779,751,56,0.0417675320080864,1
779,752,56,0.0421187210615332,1
780,721,56,0.0441487120898137,1
780,722,56,0.0457986339906106,1
780,750,56,0.0484095624550106,1
780,751,56,0.0654366572035831,1
780,752,56,0.06960875872009,1
780,753,56,0.0537780392186377,1
781,721,56,0.0423985682490406,1
781,722,56,0.0455587371666824,1
781,723,56,0.0436146077906983,1
781,750,56,0.0643589327520704,1
781,751,56,0.102106306008907,1
781,752,56,0.115969714758838,1
781,753,56,0.0833305975255148,1
782,722,56,0.0422374313312238,1
782,723,56,0.0454923046159588,1
782,724,56,0.0500344646904316,1
782,725,56,0.0516711860481673,1
782,726,56,0.0452462197840299,1
782,749,56,0.0417330586668791,1
782,750,56,0.0670714213233144,1
782,751,56,0.109360392354202,1
782,752,56,0.128407497298579,1
782,753,56,0.0950475541791595,1
783,723,56,0.0451400423256503,1
783,724,56,0.0546588341678304,1
783,725,56,0.0574718609730375,1
783,726,56,0.0504078592037809,1
783,751,56,0.0765795159406546,1
783,752,56,0.0895772956325607,1
783,753,56,0.0724688295249591,1
784,724,56,0.0496844759321146,1
784,725,56,0.0512670001800226,1
784,726,56,0.04637538661398,1
746,736,57,0.0503419240726606,1
747,735,57,0.0774381216501493,1
747,736,57,0.0596350415068544,1
748,735,57,0.0534003625713116,1
748,736,57,0.0431442515984687,1
762,723,57,0.0447123128307354,1
763,721,57,0.0420363143127863,1
763,722,57,0.0663740985134767,1
763,723,57,0.0837555398486305,1
763,724,57,0.0592176794259553,1
764,721,57,0.0558847355937983,1
764,722,57,0.104176988123437,1
764,723,57,0.131981857247148,1
764,724,57,0.0853588692121228,1
765,721,57,0.0592441507996301,1
765,722,57,0.102530075070567,1
765,723,57,0.124253816527601,1
765,724,57,0.0774831489377237,1
766,721,57,0.0549765176856026,1
766,722,57,0.0756662968027512,1
766,723,57,0.084159552701261,1
766,724,57,0.056231772274904,1
767,720,57,0.0463492234241898,1
767,721,57,0.048402252549535,1
767,722,57,0.0551953120235315,1
767,723,57,0.0571428773794932,1
767,724,57,0.0442060396991018,1
768,720,57,0.0439070229332929,1
768,721,57,0.0458183090986177,1
768,722,57,0.0499941412621499,1
768,723,57,0.0495065997632975,1
769,720,57,0.0511406934479111,1
769,721,57,0.0618842972589931,1
769,722,57,0.0674693624127429,1
769,723,57,0.0569916510065999,1
770,720,57,0.0788540535848079,1
770,721,57,0.112679986958091,1
770,722,57,0.116079244392805,1
770,723,57,0.0791977651239998,1
770,724,57,0.0420857480892383,1
771,719,57,0.059618156274014,1
771,720,57,0.115400580224828,1
771,721,57,0.178692920992379,1
771,722,57,0.176757785719767,1
771,723,57,0.106128203025401,1
771,724,57,0.0449998429884209,1
771,753,57,0.0439727850488989,1
772,719,57,0.0631585727413884,1
772,720,57,0.125254246298138,1
772,721,57,0.1957323214694,1
772,722,57,0.188509053512574,1
772,723,57,0.1089265235119,1
772,724,57,0.043771605853011,1
772,752,57,0.0445958003987489,1
772,753,57,0.0533681276183195,1
772,754,57,0.0477958872395608,1
773,718,57,0.043139217928352,1
773,719,57,0.0584521939102518,1
773,720,57,0.100645838799542,1
773,721,57,0.149378978113278,1
773,722,57,0.139444265085028,1
773,723,57,0.0813003145335541,1
773,753,57,0.047865920675674,1
773,754,57,0.0469619308341069,1
773,755,57,0.0411991760438913,1
774,719,57,0.048006387646277,1
774,720,57,0.0665490442320218,1
774,721,57,0.0880841933718276,1
774,722,57,0.0790445382592234,1
774,723,57,0.0493436353691117,1
774,754,57,0.0431095538777664,1
774,755,57,0.0425067894531819,1
775,720,57,0.0447574915068847,1
775,721,57,0.0516410164678762,1
775,722,57,0.0451696604189899,1
777,746,57,0.0410106621243174,1
777,747,57,0.0428812599067602,1
779,721,57,0.0411152986632735,1
779,751,57,0.0442549192852348,1
779,752,57,0.0448100936299407,1
779,753,57,0.0424354070367313,1
779,754,57,0.0420993189936345,1
779,755,57,0.0416011829979038,1
780,721,57,0.0423267289634978,1
780,722,57,0.0439515933517751,1
780,750,57,0.0516222496913187,1
780,751,57,0.0738581495108376,1
780,752,57,0.0764277218606054,1
780,753,57,0.0576114628660695,1
780,754,57,0.0460438726685403,1
781,721,57,0.0411578361494636,1
781,722,57,0.045019801950006,1
781,723,57,0.0441654134936703,1
781,749,57,0.0411203215199205,1
781,750,57,0.0700292080465709,1
781,751,57,0.117746400260838,1
781,752,57,0.133518754059917,1
781,753,57,0.0962799653138497,1
781,754,57,0.0630343746358564,1
781,755,57,0.0552426858340174,1
782,722,57,0.0428699490175184,1
782,723,57,0.0449803165656213,1
782,724,57,0.0466522817242761,1
782,725,57,0.0482963778683053,1
782,726,57,0.0420167932967215,1
782,749,57,0.0424377427461732,1
782,750,57,0.0706954205042589,1
782,751,57,0.12407530777081,1
782,752,57,0.153118600318331,1
782,753,57,0.118844681118134,1
782,754,57,0.0771999982352417,1
782,755,57,0.0628505240250641,1
783,723,57,0.0422183185236379,1
783,724,57,0.0490533694036077,1
783,725,57,0.0531477220734145,1
783,726,57,0.0471612663334215,1
783,750,57,0.0556991602345987,1
783,751,57,0.0885169051728784,1
783,752,57,0.112643664513575,1
783,753,57,0.0956229929659678,1
783,754,57,0.0672382785665699,1
784,724,57,0.0459642260579185,1
784,725,57,0.0487385082014112,1
784,726,57,0.0442766138086969,1
784,752,57,0.0657646567713904,1
784,753,57,0.0589335392910015,1
786,731,57,0.0414736029797424,1
746,735,58,0.0816663018202011,1
746,736,58,0.0595047662313856,1
747,734,58,0.066988919956708,1
747,735,58,0.104232417968803,1
747,736,58,0.0751950295757045,1
748,734,58,0.0441534348726783,1
748,735,58,0.065803693396785,1
748,736,58,0.0484866570867976,1
762,723,58,0.0445411680467682,1
763,722,58,0.0570646743670682,1
763,723,58,0.0720827454049891,1
763,724,58,0.0544957832658876,1
764,721,58,0.0476617083015525,1
764,722,58,0.0787053791907493,1
764,723,58,0.101909814452107,1
764,724,58,0.0725767641721549,1
765,721,58,0.0475799152172076,1
765,722,58,0.0706407151613582,1
765,723,58,0.0876894152222683,1
765,724,58,0.0619960058070927,1
766,721,58,0.0465465097710079,1
766,722,58,0.0560709759813808,1
766,723,58,0.0625905519947521,1
766,724,58,0.0475699343847313,1
767,721,58,0.0456735167401593,1
767,722,58,0.0480242028375063,1
767,723,58,0.0483634430070027,1
768,720,58,0.0441676924323966,1
768,721,58,0.0452098648991056,1
768,722,58,0.0485356096638508,1
768,723,58,0.0466380566049667,1
769,720,58,0.0470659293783544,1
769,721,58,0.0539020534951859,1
769,722,58,0.0589865901730475,1
769,723,58,0.052851876357577,1
770,720,58,0.061760639826943,1
770,721,58,0.0807755855126151,1
770,722,58,0.0837403631439929,1
770,723,58,0.063314784123785,1
771,719,58,0.0507661635202498,1
771,720,58,0.0856351912085281,1
771,721,58,0.12575064943536,1
771,722,58,0.12656228683948,1
771,723,58,0.0813343985898543,1
771,753,58,0.0433136013464759,1
772,719,58,0.056001737335286,1
772,720,58,0.099110034147207,1
772,721,58,0.150282594890143,1
772,722,58,0.149060910717334,1
772,723,58,0.0900563377442774,1
772,752,58,0.0425138966061017,1
772,753,58,0.0501590142337268,1
772,754,58,0.045434668822786,1
773,718,58,0.0426284490967163,1
773,719,58,0.0562516636523039,1
773,720,58,0.0879957662238594,1
773,721,58,0.125452500450489,1
773,722,58,0.118923619446494,1
773,723,58,0.0710381642379181,1
773,753,58,0.043186156496685,1
773,754,58,0.0433411811007887,1
774,719,58,0.0493186130003684,1
774,720,58,0.0673616656618791,1
774,721,58,0.0855995824530088,1
774,722,58,0.0753502190852203,1
774,723,58,0.0469538910194308,1
775,720,58,0.0463445249716319,1
775,721,58,0.0519568671025447,1
775,722,58,0.0432481095676109,1
779,751,58,0.0447072521269446,1
779,752,58,0.0447497139188472,1
779,753,58,0.0427014319066734,1
779,754,58,0.0428307285631399,1
780,750,58,0.0519021022855609,1
780,751,58,0.0772425492382689,1
780,752,58,0.0755158327794674,1
780,753,58,0.056421554073793,1
780,754,58,0.0458394872789046,1
780,755,58,0.0436003583410823,1
781,722,58,0.0423174347863436,1
781,723,58,0.0427850876111635,1
781,750,58,0.0712912372746008,1
781,751,58,0.123195167036531,1
781,752,58,0.132463943350568,1
781,753,58,0.0961694300272058,1
781,754,58,0.0656018275455751,1
781,755,58,0.0622582432592939,1
781,756,58,0.0515716318399413,1
782,723,58,0.0425333392245116,1
782,724,58,0.0434597210583324,1
782,725,58,0.0445676583440149,1
782,750,58,0.0686037926990394,1
782,751,58,0.127755001727127,1
782,752,58,0.157009903062003,1
782,753,58,0.127307507913081,1
782,754,58,0.0873658924308913,1
782,755,58,0.0786464241542807,1
782,756,58,0.0638620321952459,1
783,724,58,0.0431346708643691,1
783,725,58,0.0479980342409814,1
783,726,58,0.043574887213349,1
783,750,58,0.0534152851594126,1
783,751,58,0.0919097664403018,1
783,752,58,0.120113047039371,1
783,753,58,0.105981539936695,1
783,754,58,0.0741386022526447,1
783,755,58,0.0652973526809662,1
784,725,58,0.0445148075111571,1
784,726,58,0.0419016460652768,1
784,750,58,0.0480410718501423,1
784,751,58,0.0659318762658788,1
784,752,58,0.0751463148949835,1
784,753,58,0.0649005524125846,1
785,750,58,0.0490559267891772,1
786,731,58,0.0436617220779129,1
786,732,58,0.0411358604757909,1
746,735,59,0.0759386935096777,1
746,736,59,0.0561918759786731,1
747,734,59,0.0648502643720311,1
747,735,59,0.0991455131410906,1
747,736,59,0.0732926320824225,1
747,739,59,0.0412922881275803,1
748,734,59,0.0424933618272584,1
748,735,59,0.0630343476021823,1
748,736,59,0.0477648525816986,1
748,738,59,0.0464812937356186,1
748,739,59,0.0499625064567227,1
762,723,59,0.0424885849770456,1
763,722,59,0.0464167319151425,1
763,723,59,0.0542881430218907,1
763,724,59,0.0462574441006338,1
764,722,59,0.0530218749137626,1
764,723,59,0.0646844235949215,1
764,724,59,0.0536335496373292,1
765,722,59,0.0482277664034495,1
765,723,59,0.0569213202000717,1
765,724,59,0.0473088107199028,1
766,721,59,0.0410709796579604,1
766,722,59,0.0456737816701655,1
766,723,59,0.0493193807567128,1
766,724,59,0.0416764150095457,1
767,721,59,0.0430539429067835,1
767,722,59,0.0446555475218685,1
767,723,59,0.044424763749478,1
768,721,59,0.0442945236177855,1
768,722,59,0.0470421559653543,1
768,723,59,0.0451386203543929,1
769,720,59,0.0434070864948675,1
769,721,59,0.0476652659330636,1
769,722,59,0.0519119101025229,1
769,723,59,0.0484726482368811,1
770,720,59,0.0495444955676453,1
770,721,59,0.0582422233635479,1
770,722,59,0.0609876065094319,1
770,723,59,0.0511741557297072,1
771,719,59,0.0436543851387632,1
771,720,59,0.0604644400348557,1
771,721,59,0.0796446263500725,1
771,722,59,0.0818232539252678,1
771,723,59,0.0585394099496205,1
772,719,59,0.0481361600954077,1
772,720,59,0.0709838860270681,1
772,721,59,0.0982877995428411,1
772,722,59,0.0998257668891041,1
772,723,59,0.0660311114767506,1
773,719,59,0.0498430013970138,1
773,720,59,0.0679176564235427,1
773,721,59,0.087823848276813,1
773,722,59,0.0846536363492446,1
773,723,59,0.0554143766982013,1
774,719,59,0.0464953890932923,1
774,720,59,0.0596521051619438,1
774,721,59,0.0693694674504615,1
774,722,59,0.0616337383540013,1
774,723,59,0.0418937143852971,1
775,720,59,0.0449974559149982,1
775,721,59,0.0475338444298131,1
779,751,59,0.0420233327424854,1
779,752,59,0.0415237504451905,1
780,750,59,0.0479631229542537,1
780,751,59,0.0693740577683231,1
780,752,59,0.0671576371167414,1
780,753,59,0.0544553030422961,1
780,754,59,0.0468212367806415,1
780,755,59,0.0422207461475717,1
781,750,59,0.0639402189874665,1
781,751,59,0.104022085170866,1
781,752,59,0.10875906612108,1
781,753,59,0.0842617453960788,1
781,754,59,0.0649935104043312,1
781,755,59,0.0626211595205636,1
781,756,59,0.0509546098556384,1
782,750,59,0.0593278957152448,1
782,751,59,0.105059788971247,1
782,752,59,0.126504910569578,1
782,753,59,0.108208595635666,1
782,754,59,0.0845537307032553,1
782,755,59,0.0825179760956575,1
782,756,59,0.0670540602978099,1
782,757,59,0.0445265968964304,1
783,725,59,0.0422471391235916,1
783,750,59,0.0485948080033863,1
783,751,59,0.0798999431817051,1
783,752,59,0.101580955213464,1
783,753,59,0.0921337458369223,1
783,754,59,0.0702702294713416,1
783,755,59,0.0679323357085768,1
784,750,59,0.0485409298909129,1
784,751,59,0.0661727571155442,1
784,752,59,0.0722144913123287,1
784,753,59,0.0621031618844746,1
784,754,59,0.0469585840652538,1
785,750,59,0.0527504622325732,1
785,751,59,0.0645722122204837,1
785,752,59,0.0586742322890722,1
786,731,59,0.0426999126141892,1
786,732,59,0.0410758511260325,1
786,750,59,0.0466665987580773,1
746,734,60,0.0445519031187517,1
746,735,60,0.0567728782956103,1
746,736,60,0.0453529838731374,1
747,734,60,0.0511308694107446,1
747,735,60,0.0705416097121221,1
747,736,60,0.0569556854065826,1
747,738,60,0.0450558729813523,1
747,739,60,0.0487176868656224,1
748,735,60,0.0489527446618875,1
748,736,60,0.0413501915541266,1
748,738,60,0.0545983598388776,1
748,739,60,0.0609168918247315,1
748,740,60,0.0423074025898865,1
749,739,60,0.0437346616339914,1
763,723,60,0.0417106099039098,1
764,722,60,0.0413481180713234,1
764,723,60,0.0443782955670744,1
764,724,60,0.0410182018160227,1
765,723,60,0.0435569152268099,1
766,723,60,0.0425890204830472,1
767,722,60,0.0415914995358426,1
767,723,60,0.0414713943285687,1
768,721,60,0.0427591677244403,1
768,722,60,0.0439045033948672,1
768,723,60,0.0430876106445027,1
769,721,60,0.0444487128813597,1
769,722,60,0.0464828562819814,1
769,723,60,0.0450243544207237,1
770,720,60,0.0449854367434951,1
770,721,60,0.0490166414539809,1
770,722,60,0.0497967035267569,1
770,723,60,0.0452322731115638,1
771,720,60,0.0493996545485735,1
771,721,60,0.0566350498115991,1
771,722,60,0.0565593663375998,1
771,723,60,0.0458550154213053,1
772,719,60,0.0443868165811494,1
772,720,60,0.0545684660020622,1
772,721,60,0.0646251279341593,1
772,722,60,0.063781704336037,1
772,723,60,0.0479031081977605,1
773,719,60,0.0448103964070906,1
773,720,60,0.0536469637464157,1
773,721,60,0.0600549069059748,1
773,722,60,0.05664070525622,1
773,723,60,0.0422580796514983,1
774,719,60,0.0422280317227406,1
774,720,60,0.0498972417607201,1
774,721,60,0.0520807516174572,1
774,722,60,0.0463123170523139,1
780,751,60,0.0522778271016173,1
780,752,60,0.0543906114601843,1
780,753,60,0.0522017759696503,1
780,754,60,0.0482013599105925,1
780,755,60,0.041311254953326,1
781,750,60,0.0477189818434924,1
781,751,60,0.0707043686503847,1
781,752,60,0.0778410044952026,1
781,753,60,0.0711445471522209,1
781,754,60,0.0623573378950604,1
781,755,60,0.0569525549071222,1
781,756,60,0.0464567633797439,1
782,726,60,0.0411828017474913,1
782,750,60,0.0442171370223182,1
782,751,60,0.0702719758466882,1
782,752,60,0.0854411164621926,1
782,753,60,0.0799743128191433,1
782,754,60,0.0709809717970006,1
782,755,60,0.0707389879734321,1
782,756,60,0.0595746158385149,1
782,757,60,0.0418233673585644,1
783,751,60,0.0602899647022399,1
783,752,60,0.0748475765760178,1
783,753,60,0.0690912639103392,1
783,754,60,0.0585490393443335,1
783,755,60,0.0592140731338309,1
783,756,60,0.0526961461745794,1
784,750,60,0.0427159543963977,1
784,751,60,0.0565682279759685,1
784,752,60,0.0609526844092346,1
784,753,60,0.0530628525569574,1
784,754,60,0.0435915345498573,1
784,755,60,0.0416170004006174,1
785,750,60,0.0487119016593658,1
785,751,60,0.0584580385905914,1
785,752,60,0.0530724386977918,1
785,753,60,0.043924110918689,1
786,750,60,0.0461912332260378,1
786,751,60,0.053157486636498,1
786,752,60,0.0472781707536824,1
747,735,61,0.0436421118507236,1
747,738,61,0.0436779639093098,1
747,739,61,0.04678883421887,1
748,738,61,0.0504507616445713,1
748,739,61,0.0555268367824409,1
768,722,61,0.0410737560162901,1
768,723,61,0.0412760652197552,1
769,721,61,0.0416461913619063,1
769,722,61,0.041851877071266,1
769,723,61,0.0412698312545087,1
770,721,61,0.0445556121388377,1
770,722,61,0.0439831686831192,1
770,723,61,0.0413525434837729,1
771,721,61,0.0456513004667872,1
771,722,61,0.0444266696235018,1
772,720,61,0.0447205418811302,1
772,721,61,0.0462086645390949,1
772,722,61,0.0442483176620206,1
773,720,61,0.0431576332671463,1
773,721,61,0.0432285344841979,1
780,753,61,0.043701402104751,1
780,754,61,0.0422968270165802,1
781,726,61,0.0508780504905985,1
781,727,61,0.0521724444332561,1
781,751,61,0.0412640000910062,1
781,752,61,0.0488853172719571,1
781,753,61,0.0546108061424314,1
781,754,61,0.0519717680637064,1
781,755,61,0.0465254667590916,1
782,726,61,0.0511106644427252,1
782,727,61,0.0542185150908889,1
782,751,61,0.041855737479927,1
782,752,61,0.0501097048121757,1
782,753,61,0.0533481172927536,1
782,754,61,0.0518686886643782,1
782,755,61,0.051754363256626,1
782,756,61,0.0461926335703559,1
783,727,61,0.042689391108231,1
783,751,61,0.0430300424355152,1
783,752,61,0.0505960622361027,1
783,753,61,0.048622420198108,1
783,754,61,0.0448485868784861,1
783,755,61,0.0456556474815819,1
783,756,61,0.0432420729481852,1
784,751,61,0.0440486766821888,1
784,752,61,0.0481917953966973,1
784,753,61,0.0440042171017704,1
785,751,61,0.0463518294703727,1
785,752,61,0.0460501120405216,1
785,753,61,0.0418811356167402,1
786,750,61,0.0421515372385184,1
786,751,61,0.0462971944150246,1
786,752,61,0.0441627101262607,1
787,751,61,0.0422293455593016,1
748,738,62,0.0423567011979681,1
748,739,62,0.0416059895851581,1
780,726,62,0.0411600799444136,1
780,727,62,0.0421553598000356,1
781,726,62,0.0623640800933799,1
781,727,62,0.06975679511944,1
781,728,62,0.0441045093292993,1
782,726,62,0.058394920368312,1
782,727,62,0.0666358980201575,1
782,728,62,0.0445478778046788,1
783,727,62,0.0434896230052501,1
787,750,62,0.04125326772239,1
788,748,62,0.0412921448491075,1
788,749,62,0.0491918142553884,1
758,728,63,0.0412424975066302,1
759,727,63,0.0424539332135893,1
759,728,63,0.0431277772774746,1
760,727,63,0.0446025912576818,1
760,728,63,0.0442984029500183,1
780,726,63,0.0435078734386323,1
780,727,63,0.0461314671793462,1
781,725,63,0.0418084312536263,1
781,726,63,0.0624433049786858,1
781,727,63,0.0722299653873813,1
781,728,63,0.0495752598887666,1
782,726,63,0.058283757900429,1
782,727,63,0.0673491544775074,1
782,728,63,0.0483598637485524,1
783,727,63,0.0431814364171878,1
758,728,64,0.0427488678946097,1
759,727,64,0.0410892273879753,1
759,728,64,0.0455668580823808,1
760,727,64,0.0441072910943638,1
760,728,64,0.0481992891311567,1
761,728,64,0.0434269075847147,1
780,726,64,0.0421776760980019,1
780,727,64,0.0437525308925689,1
781,726,64,0.0537246909661766,1
781,727,64,0.0612760179648929,1
781,728,64,0.0475754816946558,1
782,727,64,0.0587764952714427,1
782,728,64,0.0474351715193626,1
758,728,65,0.0419914492272565,1
759,728,65,0.0450879916895458,1
759,729,65,0.0419408584095532,1
760,728,65,0.0460374170271661,1
761,728,65,0.0446051432365164,1
780,726,65,0.0423095977242231,1
780,727,65,0.0413028772177237,1
781,727,65,0.0480938686156518,1
781,728,65,0.043044475714115,1
782,728,65,0.0438750826473484,1
759,728,66,0.0434845379711526,1
759,729,66,0.0421101216498033,1
760,728,66,0.04308619407998,1
760,729,66,0.0419623123333158,1
761,728,66,0.0440026085981617,1
761,729,66,0.0415694292443106,1
762,728,66,0.0410961128647675,1
772,735,68,0.0411700661836247,1
