x,y,z,signal,cytoplasm.p
76,43,1,0.0428795811155988,1
76,44,1,0.0425779961507508,1
76,45,1,0.045876945137732,1
76,46,1,0.0484741188687519,1
76,47,1,0.0462480417887832,1
77,42,1,0.0434881199329703,1
77,43,1,0.0445969979905113,1
77,44,1,0.0449102533924666,1
77,45,1,0.0495692908535262,1
77,46,1,0.0511995998237664,1
77,47,1,0.0470540507819566,1
78,43,1,0.0430145305133189,1
78,44,1,0.0440228946672034,1
78,45,1,0.0476126097426593,1
78,46,1,0.0473955834070163,1
81,50,1,0.0438615685136678,1
76,42,2,0.0428672645736807,1
76,43,2,0.04375032764813,1
76,44,2,0.0458079768283782,1
76,45,2,0.049156237940278,1
76,46,2,0.0488994504767745,1
76,47,2,0.0445992742258702,1
77,42,2,0.0432356551539548,1
77,43,2,0.0452824719409927,1
77,44,2,0.0473105030279013,1
77,45,2,0.0517294598360488,1
77,46,2,0.0502593253848276,1
77,47,2,0.0443111222936805,1
78,43,2,0.0424982495155349,1
78,44,2,0.0439347540761806,1
78,45,2,0.0471994973553281,1
78,46,2,0.0450218159587261,1
82,50,2,0.0422468525666462,1
76,43,3,0.0422481123358591,1
76,44,3,0.0469802055977959,1
76,45,3,0.0493884788277022,1
76,46,3,0.0444253720071452,1
77,43,3,0.0438685567184217,1
77,44,3,0.0483846698479029,1
77,45,3,0.05025730867274,1
77,46,3,0.0447651474433887,1
78,44,3,0.0422344819573799,1
78,45,3,0.0432106652256204,1
76,44,4,0.0441989217327123,1
76,45,4,0.0458405902528077,1
77,44,4,0.0453023389880859,1
77,45,4,0.044677574559522,1
76,44,5,0.0433571039348313,1
76,45,5,0.0442413429741038,1
77,44,5,0.0433852351760956,1
77,45,5,0.0414988470246133,1
76,44,6,0.0432049340867121,1
76,45,6,0.0439157196662496,1
77,44,6,0.0410685168902503,1
75,45,7,0.0412041934938035,1
76,44,7,0.0445136126227621,1
76,45,7,0.0450646832557402,1
75,43,8,0.0414130502531347,1
75,44,8,0.0435921833580356,1
76,44,8,0.0449011754847051,1
76,45,8,0.0439097127838655,1
75,43,9,0.0457035673722845,1
75,44,9,0.0464636461531687,1
76,43,9,0.0414078841180149,1
76,44,9,0.0448446615890074,1
76,45,9,0.0415492648268024,1
75,42,10,0.0411444355572142,1
75,43,10,0.0499698163621983,1
75,44,10,0.0505241418495376,1
75,45,10,0.0418166116434078,1
76,43,10,0.0468482434210634,1
76,44,10,0.0483817988717139,1
76,45,10,0.0433210788607309,1
75,42,11,0.0431532186681664,1
75,43,11,0.0481939689040946,1
75,44,11,0.0493857862737623,1
75,45,11,0.0428175469436507,1
76,42,11,0.0441447435464564,1
76,43,11,0.0490976721887163,1
76,44,11,0.050345741227443,1
76,45,11,0.0458614440290054,1
76,46,11,0.0429418883276554,1
77,43,11,0.0410260983522262,1
77,44,11,0.0436414522290757,1
77,45,11,0.0430155010222189,1
77,46,11,0.0423894416806658,1
78,40,11,0.0415500920572297,1
75,41,12,0.0436046837289376,1
75,42,12,0.0456734248256674,1
75,43,12,0.0452523861650912,1
75,44,12,0.0454094301846499,1
75,45,12,0.0425339772192203,1
76,40,12,0.0422113870895996,1
76,41,12,0.0454038612477862,1
76,42,12,0.0478048894530348,1
76,43,12,0.0483416484589465,1
76,44,12,0.0487976200331896,1
76,45,12,0.0472216865950261,1
76,46,12,0.0456342854723112,1
76,47,12,0.0418727876181793,1
77,39,12,0.0440845260374075,1
77,40,12,0.049190630180463,1
77,41,12,0.0462453708617825,1
77,42,12,0.0429645749869568,1
77,43,12,0.0429083854953482,1
77,44,12,0.0452562357602825,1
77,45,12,0.0456549446060554,1
77,46,12,0.0451572492592124,1
77,47,12,0.0429346216760584,1
78,39,12,0.0491396122307089,1
78,40,12,0.053545095455687,1
78,41,12,0.0470224430102035,1
78,44,12,0.0417732928840363,1
78,45,12,0.042958511333857,1
79,39,12,0.0446706350153815,1
79,40,12,0.0465732460746889,1
75,40,13,0.0427032783066141,1
75,41,13,0.0474348687422127,1
75,42,13,0.0474542140393958,1
75,43,13,0.0440812333359026,1
75,44,13,0.0427879721041896,1
75,45,13,0.0425524033714841,1
75,46,13,0.0412081539270586,1
76,39,13,0.0421625534607125,1
76,40,13,0.0497530225161525,1
76,41,13,0.0521823441647101,1
76,42,13,0.0518702944646195,1
76,43,13,0.0484886900190897,1
76,44,13,0.0465599509137685,1
76,45,13,0.0470310180916268,1
76,46,13,0.0465821401534665,1
76,47,13,0.0439691787567745,1
77,39,13,0.0522897867990374,1
77,40,13,0.0599368832916063,1
77,41,13,0.0565611830004991,1
77,42,13,0.0526565850959073,1
77,43,13,0.04845713090795,1
77,44,13,0.0466542605892199,1
77,45,13,0.0475026637901107,1
77,46,13,0.0478660936911882,1
77,47,13,0.0472647782715352,1
77,48,13,0.0475935185620127,1
77,49,13,0.0453459551178724,1
78,38,13,0.0411277206365206,1
78,39,13,0.0564110596015089,1
78,40,13,0.0628641760304826,1
78,41,13,0.0568382132791656,1
78,42,13,0.050230064135986,1
78,43,13,0.045546188135167,1
78,44,13,0.045180946977925,1
78,45,13,0.0466476048986575,1
78,46,13,0.0453034933259698,1
78,47,13,0.043493423939828,1
78,48,13,0.0453912851825967,1
78,49,13,0.0448233914942286,1
79,39,13,0.0487447800138014,1
79,40,13,0.0518600703290764,1
79,41,13,0.0468663830163819,1
79,42,13,0.0423040423041964,1
79,44,13,0.0416520441523481,1
79,45,13,0.0446050540253919,1
79,46,13,0.043715367700789,1
79,48,13,0.0410640752575963,1
80,46,13,0.0410316456621507,1
75,40,14,0.0475313194846525,1
75,41,14,0.0500872884896152,1
75,42,14,0.0475360828180282,1
75,43,14,0.0423873033170448,1
75,45,14,0.0411216488733186,1
75,46,14,0.0415842139606737,1
76,39,14,0.0504796173883014,1
76,40,14,0.0609139613744595,1
76,41,14,0.0595239331063197,1
76,42,14,0.0554902602213889,1
76,43,14,0.0493010357054712,1
76,44,14,0.0450682841411298,1
76,45,14,0.0457707027985346,1
76,46,14,0.0472367281312932,1
76,47,14,0.0448320557867764,1
76,48,14,0.0449319343990916,1
76,49,14,0.0453716154813244,1
77,39,14,0.0603871453538803,1
77,40,14,0.0711933213070249,1
77,41,14,0.0657810716183015,1
77,42,14,0.061362082369745,1
77,43,14,0.0542024408682714,1
77,44,14,0.0477874581399777,1
77,45,14,0.0489212828719745,1
77,46,14,0.05345992316208,1
77,47,14,0.052696665221122,1
77,48,14,0.0556357338284345,1
77,49,14,0.0558534900732781,1
77,50,14,0.0471886190048719,1
78,38,14,0.0420816633010824,1
78,39,14,0.0614064067817929,1
78,40,14,0.069890892956426,1
78,41,14,0.0639292162821094,1
78,42,14,0.0590277408317565,1
78,43,14,0.0522676408132179,1
78,44,14,0.0470022272287145,1
78,45,14,0.0499824194610619,1
78,46,14,0.0550590298656785,1
78,47,14,0.05344855820549,1
78,48,14,0.0534977703058144,1
78,49,14,0.0523207565760818,1
78,50,14,0.0448731091242586,1
79,39,14,0.0504683984135515,1
79,40,14,0.0548280865946109,1
79,41,14,0.0505609400867171,1
79,42,14,0.0471029871388052,1
79,43,14,0.0432855241725598,1
79,44,14,0.0437520145493936,1
79,45,14,0.0495576555601953,1
79,46,14,0.054350488081091,1
79,47,14,0.0521673512890564,1
79,48,14,0.0472331921267214,1
79,49,14,0.043034205621326,1
80,45,14,0.0439420234311451,1
80,46,14,0.0480597034583293,1
80,47,14,0.0486410355860905,1
80,48,14,0.0442273179039828,1
81,47,14,0.0438736201255799,1
81,48,14,0.0427699163132609,1
83,48,14,0.0410052851265397,1
75,40,15,0.0488642310061622,1
75,41,15,0.0488090985312107,1
75,42,15,0.0460388876590369,1
75,43,15,0.0411229356762056,1
76,39,15,0.0523578846240853,1
76,40,15,0.0659289674425461,1
76,41,15,0.062121842153275,1
76,42,15,0.0565720559442205,1
76,43,15,0.0499611547730179,1
76,44,15,0.0451435485931806,1
76,45,15,0.044295153502392,1
76,46,15,0.0453570172973125,1
76,47,15,0.0440663188579038,1
76,48,15,0.0456105823468637,1
76,49,15,0.0496469477857345,1
76,50,15,0.0439602252039139,1
77,39,15,0.0594707416491683,1
77,40,15,0.0744046730798327,1
77,41,15,0.0691635627683417,1
77,42,15,0.0646861645635333,1
77,43,15,0.057380184377443,1
77,44,15,0.050133948611105,1
77,45,15,0.0509988261329899,1
77,46,15,0.0573990160348183,1
77,47,15,0.0575553788057898,1
77,48,15,0.0597568984962097,1
77,49,15,0.0637974000872171,1
77,50,15,0.0537617541333623,1
78,38,15,0.0412624186210715,1
78,39,15,0.0588460853553008,1
78,40,15,0.0703296548937395,1
78,41,15,0.0657765353677882,1
78,42,15,0.0620206010437853,1
78,43,15,0.0554706716211389,1
78,44,15,0.0490472814202013,1
78,45,15,0.05392944401378,1
78,46,15,0.0658197946530766,1
78,47,15,0.0667426539991628,1
78,48,15,0.0617052964893336,1
78,49,15,0.0598498835216304,1
78,50,15,0.051392355326806,1
79,39,15,0.0486844895138325,1
79,40,15,0.0542200289766383,1
79,41,15,0.0517229014667131,1
79,42,15,0.0501207453646765,1
79,43,15,0.0472072181726499,1
79,44,15,0.0459674863190145,1
79,45,15,0.0524337248933943,1
79,46,15,0.0634182798416943,1
79,47,15,0.064757949781728,1
79,48,15,0.0551183471533801,1
79,49,15,0.0479968934199345,1
79,50,15,0.0437267840213598,1
80,44,15,0.0420105647382098,1
80,45,15,0.0464406621234523,1
80,46,15,0.0527200006886017,1
80,47,15,0.0550047192144196,1
80,48,15,0.0483128954431779,1
80,49,15,0.0417211773671139,1
81,46,15,0.0424262318077431,1
81,47,15,0.0457223287421071,1
81,48,15,0.0448735254428397,1
81,49,15,0.04168308962368,1
82,48,15,0.0435942973913499,1
82,49,15,0.0440365250456826,1
83,48,15,0.0418370328808199,1
83,49,15,0.0436452829006951,1
75,40,16,0.044677304222781,1
75,41,16,0.0451694549630668,1
75,42,16,0.0440169878094134,1
76,39,16,0.0482615584960696,1
76,40,16,0.0622044029939643,1
76,41,16,0.0595283341884625,1
76,42,16,0.0534294994652523,1
76,43,16,0.0471860291788935,1
76,44,16,0.0430243464403831,1
76,45,16,0.0411360929653882,1
76,46,16,0.0410262362239641,1
76,47,16,0.0409933443526914,1
76,48,16,0.0427911242305892,1
76,49,16,0.0484347362123288,1
76,50,16,0.0437497410174022,1
77,39,16,0.0543571491783882,1
77,40,16,0.0715187797094672,1
77,41,16,0.067627531033144,1
77,42,16,0.0605852156772472,1
77,43,16,0.0540085337307154,1
77,44,16,0.0499827114247421,1
77,45,16,0.0505731917478174,1
77,46,16,0.0551758369647127,1
77,47,16,0.0568162457155952,1
77,48,16,0.0579468642538442,1
77,49,16,0.0645520937602214,1
77,50,16,0.0564940637944534,1
77,51,16,0.0424443930300008,1
78,39,16,0.0534835722201792,1
78,40,16,0.0664373897512703,1
78,41,16,0.0628552765449702,1
78,42,16,0.0577810775440828,1
78,43,16,0.0536256558044932,1
78,44,16,0.05084705367988,1
78,45,16,0.0555668574335726,1
78,46,16,0.0675856504652344,1
78,47,16,0.0720311543413442,1
78,48,16,0.0646038578393805,1
78,49,16,0.0634126622442171,1
78,50,16,0.0562563134442484,1
78,51,16,0.0438021971586181,1
79,35,16,0.0417207015744498,1
79,36,16,0.0448365920372897,1
79,39,16,0.045282658473344,1
79,40,16,0.050700693368324,1
79,41,16,0.0491132976523438,1
79,42,16,0.0489828061074823,1
79,43,16,0.0489303337460618,1
79,44,16,0.0480037653798897,1
79,45,16,0.0520681701455329,1
79,46,16,0.0647141606364272,1
79,47,16,0.0709246714673281,1
79,48,16,0.060371395535352,1
79,49,16,0.0520841470469236,1
79,50,16,0.0472377013435606,1
80,35,16,0.0455031343058016,1
80,36,16,0.0459645234283336,1
80,37,16,0.0416162326442731,1
80,42,16,0.0419067473195788,1
80,43,16,0.0439990590767529,1
80,44,16,0.0439900649733811,1
80,45,16,0.045134370660825,1
80,46,16,0.0522909979076369,1
80,47,16,0.0573046576987535,1
80,48,16,0.0508102554427004,1
80,49,16,0.0433950754334666,1
81,46,16,0.0425616759216991,1
81,47,16,0.0453311082240589,1
81,48,16,0.0450924657626087,1
81,49,16,0.0432448438997801,1
82,48,16,0.0441457546058676,1
82,49,16,0.0472608692022609,1
83,49,16,0.0441352736504206,1
75,41,17,0.0435907019126952,1
75,42,17,0.0445846571182865,1
75,43,17,0.0412175724591136,1
76,39,17,0.042288668253738,1
76,40,17,0.0534696390645501,1
76,41,17,0.0545792632514961,1
76,42,17,0.0498913159793582,1
76,43,17,0.04488435783605,1
76,44,17,0.041768651202194,1
76,49,17,0.0434626055513585,1
77,39,17,0.0481599010679988,1
77,40,17,0.0631484567405417,1
77,41,17,0.0624616175895184,1
77,42,17,0.0538971604001745,1
77,43,17,0.0494316461984988,1
77,44,17,0.0497432309193949,1
77,45,17,0.049216468966164,1
77,46,17,0.0494355660812427,1
77,47,17,0.0514095433367962,1
77,48,17,0.0523686494331103,1
77,49,17,0.0569932730270457,1
77,50,17,0.0517112283262384,1
77,51,17,0.0415444447227111,1
78,35,17,0.041334717479074,1
78,36,17,0.0467330096818617,1
78,37,17,0.0426833490820705,1
78,39,17,0.0475908962956254,1
78,40,17,0.0584533887986469,1
78,41,17,0.0570868744202358,1
78,42,17,0.0508732547168138,1
78,43,17,0.0510332183731749,1
78,44,17,0.0546921775014605,1
78,45,17,0.0567060889003887,1
78,46,17,0.0611093229236819,1
78,47,17,0.0659399431142291,1
78,48,17,0.0607484504081739,1
78,49,17,0.0594711904081583,1
78,50,17,0.0535741296216661,1
78,51,17,0.0439089531376234,1
79,35,17,0.0529645094573308,1
79,36,17,0.0590906211577039,1
79,37,17,0.0506001767613001,1
79,38,17,0.0420089616413359,1
79,39,17,0.0424725026443259,1
79,40,17,0.0469709979283987,1
79,41,17,0.04664259285548,1
79,42,17,0.0460013108520434,1
79,43,17,0.049213776412224,1
79,44,17,0.0524463766528713,1
79,45,17,0.0537551471034132,1
79,46,17,0.0606099460823102,1
79,47,17,0.0681208847719271,1
79,48,17,0.0607091110056293,1
79,49,17,0.0534988029921649,1
79,50,17,0.0477319255666496,1
80,34,17,0.0442251984639337,1
80,35,17,0.0599419439953971,1
80,36,17,0.0637434787208652,1
80,37,17,0.0530302283190583,1
80,38,17,0.0431976755452173,1
80,42,17,0.0418355108849683,1
80,43,17,0.0455755088580915,1
80,44,17,0.046852174117277,1
80,45,17,0.0465785176411376,1
80,46,17,0.0511950527597834,1
80,47,17,0.0572365652804404,1
80,48,17,0.0524005275416044,1
80,49,17,0.0469099558922899,1
80,50,17,0.0423175185907333,1
81,35,17,0.0498262891796876,1
81,36,17,0.0516759547882779,1
81,37,17,0.0449167144405755,1
81,44,17,0.0424192408996218,1
81,45,17,0.0418253489268756,1
81,46,17,0.0435048889210121,1
81,47,17,0.0458539124474022,1
81,48,17,0.0456527332515143,1
81,49,17,0.0456744412918134,1
81,50,17,0.0416339613277453,1
82,48,17,0.0434306301216377,1
82,49,17,0.0478532256623185,1
82,50,17,0.0430701198573626,1
83,49,17,0.0424548820955501,1
75,41,18,0.0422611074229971,1
75,42,18,0.0448136269311451,1
75,43,18,0.0417718438791047,1
76,40,18,0.0466908425570067,1
76,41,18,0.0489536638068067,1
76,42,18,0.0467744090503723,1
76,43,18,0.0433556224894908,1
77,36,18,0.0416073872261089,1
77,39,18,0.0456864280229076,1
77,40,18,0.0550198580719134,1
77,41,18,0.0543849722357679,1
77,42,18,0.0475918370674839,1
77,43,18,0.0457574454847579,1
77,44,18,0.0482103513105968,1
77,45,18,0.0456069814614742,1
77,46,18,0.0444666524274898,1
77,47,18,0.047633404044774,1
77,48,18,0.0499132889496635,1
77,49,18,0.0505967164510158,1
77,50,18,0.0457093363583366,1
78,35,18,0.0462471064236595,1
78,36,18,0.0536276022290281,1
78,37,18,0.0483018440772075,1
78,38,18,0.0414908666840201,1
78,39,18,0.045474592152691,1
78,40,18,0.0515790174397043,1
78,41,18,0.0499025836147214,1
78,42,18,0.0450918304712674,1
78,43,18,0.048766266377973,1
78,44,18,0.0562703114806953,1
78,45,18,0.0549052136668069,1
78,46,18,0.0550084985220582,1
78,47,18,0.0606798227231137,1
78,48,18,0.0601930327604011,1
78,49,18,0.0562336646320907,1
78,50,18,0.049009369395649,1
78,51,18,0.0410097835299092,1
79,34,18,0.0435180137697857,1
79,35,18,0.0629765712339043,1
79,36,18,0.0735245323455532,1
79,37,18,0.0613300799063502,1
79,38,18,0.0445800505802205,1
79,39,18,0.0412658978549277,1
79,40,18,0.0435251344395426,1
79,41,18,0.0425033507698369,1
79,42,18,0.041894433481028,1
79,43,18,0.0472787709012473,1
79,44,18,0.0545513266526853,1
79,45,18,0.0537583641106306,1
79,46,18,0.0567312680644417,1
79,47,18,0.0640092305506989,1
79,48,18,0.0614105537473993,1
79,49,18,0.0545615724151677,1
79,50,18,0.0477264972048911,1
80,34,18,0.0475430304722709,1
80,35,18,0.0710389103673232,1
80,36,18,0.0801038906258205,1
80,37,18,0.0647713692975492,1
80,38,18,0.0456172650711003,1
80,43,18,0.0440825174354222,1
80,44,18,0.0479256813156307,1
80,45,18,0.0474519432107717,1
80,46,18,0.0503328299446947,1
80,47,18,0.055797719603618,1
80,48,18,0.0537391702020224,1
80,49,18,0.050214303503988,1
80,50,18,0.0466687181981265,1
81,35,18,0.05621903400767,1
81,36,18,0.0600772583477174,1
81,37,18,0.0507779826425646,1
81,38,18,0.0412203623342803,1
81,43,18,0.0418114292880835,1
81,44,18,0.0429136354348576,1
81,45,18,0.0424206736843489,1
81,46,18,0.043735840302182,1
81,47,18,0.0458775831324407,1
81,48,18,0.0462854726139366,1
81,49,18,0.0474878277097668,1
81,50,18,0.0456631087756324,1
82,48,18,0.0424088275283601,1
82,49,18,0.0461463951741821,1
82,50,18,0.0435583344947,1
75,36,19,0.0435172838605851,1
75,42,19,0.0416623385754439,1
76,35,19,0.0425083736264839,1
76,36,19,0.0543450489058629,1
76,37,19,0.0482854184168267,1
76,40,19,0.0428690623130081,1
76,41,19,0.0438481787348881,1
76,42,19,0.043459718354965,1
76,43,19,0.0420971562997068,1
77,35,19,0.0438172630251918,1
77,36,19,0.0536064456756805,1
77,37,19,0.0476480617028689,1
77,38,19,0.0412319841107742,1
77,39,19,0.0437064465883374,1
77,40,19,0.0490403553928979,1
77,41,19,0.0468480920324885,1
77,42,19,0.0432559817735076,1
77,43,19,0.0434755952317616,1
77,44,19,0.045182009401317,1
77,45,19,0.0417672238242017,1
77,46,19,0.0409877970427669,1
77,47,19,0.0452483284106094,1
77,48,19,0.0486431009587914,1
77,49,19,0.0462762703512743,1
78,34,19,0.0426142672312855,1
78,35,19,0.0518963657399177,1
78,36,19,0.0601808838272623,1
78,37,19,0.0526407649898263,1
78,38,19,0.0453493099968278,1
78,39,19,0.0452136901639902,1
78,40,19,0.0476789720058303,1
78,41,19,0.0446851872421474,1
78,42,19,0.0419622690794372,1
78,43,19,0.046056529834752,1
78,44,19,0.0525118035509185,1
78,45,19,0.0509708084331568,1
78,46,19,0.0507676287453858,1
78,47,19,0.0560686564921433,1
78,48,19,0.0580509006452354,1
78,49,19,0.0520339779545362,1
78,50,19,0.04396183641089,1
79,34,19,0.0485855246397017,1
79,35,19,0.069743007945651,1
79,36,19,0.0831988137710314,1
79,37,19,0.0691336959652003,1
79,38,19,0.0490963150982767,1
79,39,19,0.0423285645499689,1
79,40,19,0.0427363134563595,1
79,41,19,0.0410011354575659,1
79,43,19,0.0452975269940968,1
79,44,19,0.0527293489331042,1
79,45,19,0.053789366328084,1
79,46,19,0.0556648869425797,1
79,47,19,0.0596895792409757,1
79,48,19,0.0582707276695148,1
79,49,19,0.0522512097461023,1
79,50,19,0.0463439031971277,1
80,34,19,0.0495964705094624,1
80,35,19,0.0743144508959046,1
80,36,19,0.0871560137986793,1
80,37,19,0.0712240153405936,1
80,38,19,0.0484672523155315,1
80,43,19,0.0441610664788756,1
80,44,19,0.0488487136772311,1
80,45,19,0.0509380652470917,1
80,46,19,0.0534572738620186,1
80,47,19,0.0555440950799838,1
80,48,19,0.0531912408819743,1
80,49,19,0.0515303135724529,1
80,50,19,0.0503750132897542,1
80,51,19,0.0444679662640509,1
81,34,19,0.0413138069321607,1
81,35,19,0.0560970040028004,1
81,36,19,0.0616564304200376,1
81,37,19,0.0532443187976944,1
81,38,19,0.0419684273503963,1
81,43,19,0.0419589925981368,1
81,44,19,0.0434575259239958,1
81,45,19,0.0441816445115975,1
81,46,19,0.045927368346656,1
81,47,19,0.0469800596159557,1
81,48,19,0.0465681367102847,1
81,49,19,0.0488994721037138,1
81,50,19,0.0497057946875067,1
81,51,19,0.044163940158432,1
82,48,19,0.0422771410951034,1
82,49,19,0.0457114990522643,1
82,50,19,0.045736597115295,1
75,36,20,0.050717978699541,1
75,37,20,0.0438861934874019,1
76,35,20,0.0509196877554412,1
76,36,20,0.072716749943359,1
76,37,20,0.061451742253252,1
76,48,20,0.0416768772853727,1
77,35,20,0.0510275521150844,1
77,36,20,0.0664689380489404,1
77,37,20,0.0566874518854668,1
77,38,20,0.0436871850955439,1
77,39,20,0.0416853685624063,1
77,40,20,0.0449855016243129,1
77,41,20,0.0425036670638238,1
77,43,20,0.0417731577156658,1
77,44,20,0.0418061928654111,1
77,47,20,0.0459905730766925,1
77,48,20,0.0499422852684989,1
77,49,20,0.0448360027031944,1
78,33,20,0.0456187248895015,1
78,34,20,0.0518814593720212,1
78,35,20,0.0573282580962394,1
78,36,20,0.06355343199197,1
78,37,20,0.0555231385758245,1
78,38,20,0.0477568127670224,1
78,39,20,0.0450877267595397,1
78,40,20,0.0460515177915746,1
78,41,20,0.0431697497598761,1
78,42,20,0.0415471913439992,1
78,43,20,0.0440446648849529,1
78,44,20,0.0480288958833294,1
78,45,20,0.0482029548973642,1
78,46,20,0.0513925121221157,1
78,47,20,0.0581675833893687,1
78,48,20,0.0607417460569981,1
78,49,20,0.0515109196146564,1
78,50,20,0.0412415729549761,1
79,33,20,0.0430705118456369,1
79,34,20,0.0549233100082468,1
79,35,20,0.0725980883342819,1
79,36,20,0.0838289092401271,1
79,37,20,0.0705241892125346,1
79,38,20,0.0512765484737134,1
79,39,20,0.0426946113106989,1
79,40,20,0.0426011667128186,1
79,41,20,0.0419445782431088,1
79,42,20,0.0418362705312104,1
79,43,20,0.045325915055265,1
79,44,20,0.0517035453560603,1
79,45,20,0.0565324678318743,1
79,46,20,0.0623569702370927,1
79,47,20,0.0664093071706193,1
79,48,20,0.0642748039582835,1
79,49,20,0.0546082487568619,1
79,50,20,0.0457353103124081,1
80,34,20,0.0504974055458566,1
80,35,20,0.0720528840085826,1
80,36,20,0.0840788679975539,1
80,37,20,0.0694474758204331,1
80,38,20,0.0484202948236267,1
80,41,20,0.0417412174297213,1
80,42,20,0.0441462547288384,1
80,43,20,0.0475373966545893,1
80,44,20,0.0515570606896035,1
80,45,20,0.0574939637049784,1
80,46,20,0.0642550910031327,1
80,47,20,0.0657047285226543,1
80,48,20,0.0608936428650089,1
80,49,20,0.0554565708567304,1
80,50,20,0.0521393335892233,1
80,51,20,0.0447028186043928,1
81,34,20,0.0412744918599228,1
81,35,20,0.0534585876985796,1
81,36,20,0.0585046013908544,1
81,37,20,0.0507048727743392,1
81,42,20,0.0427134429680742,1
81,43,20,0.0447434610300288,1
81,44,20,0.0449316126983699,1
81,45,20,0.0474585718676601,1
81,46,20,0.0523119976656747,1
81,47,20,0.053456900797316,1
81,48,20,0.0511900839704846,1
81,49,20,0.0517171378873958,1
81,50,20,0.0527635735645097,1
81,51,20,0.0463075807526123,1
82,47,20,0.0426218609903391,1
82,48,20,0.0436594972065348,1
82,49,20,0.0468261515025922,1
82,50,20,0.0487884177705273,1
82,51,20,0.0434645736028327,1
83,50,20,0.0414484670695679,1
63,37,21,0.0416303658490905,1
75,36,21,0.0542021921584698,1
75,37,21,0.0472810579500759,1
75,48,21,0.0414535061464194,1
76,35,21,0.0574866267658288,1
76,36,21,0.08518041452268,1
76,37,21,0.0733443042470897,1
76,38,21,0.0456391893807922,1
76,47,21,0.0432127468185258,1
76,48,21,0.0480638612374052,1
76,49,21,0.0450414153724457,1
77,34,21,0.046824302399284,1
77,35,21,0.0575033876437683,1
77,36,21,0.078313504457788,1
77,37,21,0.0685963530319282,1
77,38,21,0.0483276396090299,1
77,40,21,0.0434261290149007,1
77,41,21,0.043744288325337,1
77,42,21,0.0421000975634485,1
77,43,21,0.0413975383309384,1
77,46,21,0.0414784122703641,1
77,47,21,0.0488679183993089,1
77,48,21,0.0535679983843811,1
77,49,21,0.0477656581851866,1
78,33,21,0.0499530068236454,1
78,34,21,0.0591636661451114,1
78,35,21,0.0614379604861978,1
78,36,21,0.0664383683702726,1
78,37,21,0.0599751359404522,1
78,38,21,0.049597887073985,1
78,39,21,0.0438145461409452,1
78,40,21,0.044754642157635,1
78,41,21,0.0449335023521892,1
78,42,21,0.0440990836709082,1
78,43,21,0.0442325570300226,1
78,44,21,0.0460901705387971,1
78,45,21,0.046994376649757,1
78,46,21,0.0527808643024616,1
78,47,21,0.0608184459971433,1
78,48,21,0.0646060151265734,1
78,49,21,0.0546147314319101,1
78,50,21,0.0432456008426548,1
79,33,21,0.0453129470018012,1
79,34,21,0.057506896614666,1
79,35,21,0.0686455056581696,1
79,36,21,0.0750758164796758,1
79,37,21,0.0657349359500892,1
79,38,21,0.0508122505278487,1
79,39,21,0.0426606489059321,1
79,40,21,0.0423483856398161,1
79,41,21,0.0449779835595468,1
79,42,21,0.0470027841224009,1
79,43,21,0.0480237378583119,1
79,44,21,0.0517807048686652,1
79,45,21,0.0570811649082667,1
79,46,21,0.0672846845715232,1
79,47,21,0.0737242355028354,1
79,48,21,0.074313780460787,1
79,49,21,0.0609958680002356,1
79,50,21,0.0480622716573684,1
80,34,21,0.0490107318928235,1
80,35,21,0.0637900415211282,1
80,36,21,0.0719596016127468,1
80,37,21,0.0617671711626046,1
80,38,21,0.0466499297946297,1
80,41,21,0.0456201468607589,1
80,42,21,0.0510619065081256,1
80,43,21,0.0517916535066741,1
80,44,21,0.0537813427336123,1
80,45,21,0.0610403708345325,1
80,46,21,0.0726704196326933,1
80,47,21,0.0752227444983878,1
80,48,21,0.0715403147342521,1
80,49,21,0.060110823357475,1
80,50,21,0.0519972662251138,1
80,51,21,0.0420471115622202,1
81,35,21,0.0482995354014397,1
81,36,21,0.0530429611795575,1
81,37,21,0.0474204219467758,1
81,41,21,0.0417852525814564,1
81,42,21,0.0479010049779159,1
81,43,21,0.0475272428065988,1
81,44,21,0.046340875425629,1
81,45,21,0.0503116625778775,1
81,46,21,0.0585566898741027,1
81,47,21,0.0593340864266128,1
81,48,21,0.057035521252923,1
81,49,21,0.0536737433039752,1
81,50,21,0.0528576561570988,1
81,51,21,0.0449763182852225,1
82,46,21,0.04323250843429,1
82,47,21,0.0440090966799447,1
82,48,21,0.0446524575729193,1
82,49,21,0.0466544281979993,1
82,50,21,0.0493158014982625,1
82,51,21,0.0436505598738786,1
83,50,21,0.041920721025719,1
63,37,22,0.0444252800926533,1
75,36,22,0.047905816971905,1
75,37,22,0.0436619248304686,1
75,47,22,0.0432281046487798,1
75,48,22,0.0492749211762944,1
75,49,22,0.0463987923690123,1
76,34,22,0.0437304308639954,1
76,35,22,0.0587967489000755,1
76,36,22,0.0807865395573588,1
76,37,22,0.0732936593620382,1
76,38,22,0.0466822134082352,1
76,41,22,0.0412326437324222,1
76,47,22,0.0472935096603645,1
76,48,22,0.0548922969773238,1
76,49,22,0.0508000475273618,1
76,50,22,0.0420111567756725,1
77,34,22,0.0531930196977298,1
77,35,22,0.0632514550388476,1
77,36,22,0.0833684014153707,1
77,37,22,0.077643853316755,1
77,38,22,0.0531500361559171,1
77,40,22,0.0430288529538549,1
77,41,22,0.0467439042525224,1
77,42,22,0.0433841646426014,1
77,46,22,0.0418807355183636,1
77,47,22,0.0501944445669971,1
77,48,22,0.0555131469298786,1
77,49,22,0.04988348702734,1
77,50,22,0.0417405902484823,1
78,33,22,0.0475584126328316,1
78,34,22,0.0614567326694901,1
78,35,22,0.0640854384779756,1
78,36,22,0.0688827531820365,1
78,37,22,0.0644408015307029,1
78,38,22,0.0504463064950803,1
78,39,22,0.0414873523063876,1
78,40,22,0.0436626168925254,1
78,41,22,0.0476463207342571,1
78,42,22,0.0469502306599582,1
78,43,22,0.0449942064673718,1
78,44,22,0.0447972553381125,1
78,45,22,0.0451203807344803,1
78,46,22,0.0525671631087324,1
78,47,22,0.0643167926608895,1
78,48,22,0.0690151857446981,1
78,49,22,0.0579063840302528,1
78,50,22,0.0450964559329053,1
79,33,22,0.0433231550469015,1
79,34,22,0.0562184230466354,1
79,35,22,0.0626288154570676,1
79,36,22,0.0647485204362033,1
79,37,22,0.058011615310039,1
79,38,22,0.0473009979880891,1
79,40,22,0.0413474692631451,1
79,41,22,0.0485924614804747,1
79,42,22,0.055065025934593,1
79,43,22,0.0532716985028189,1
79,44,22,0.0517219606948545,1
79,45,22,0.0541050655741775,1
79,46,22,0.0668662087032513,1
79,47,22,0.0805509464943467,1
79,48,22,0.0844220010161201,1
79,49,22,0.0670063296428259,1
79,50,22,0.0491509501536248,1
80,34,22,0.0466948922013862,1
80,35,22,0.0558197358278018,1
80,36,22,0.0602031649814523,1
80,37,22,0.0537206791689407,1
80,38,22,0.0439727417950204,1
80,41,22,0.0512190640691155,1
80,42,22,0.0635302316928608,1
80,43,22,0.0598633787317392,1
80,44,22,0.0551754476798057,1
80,45,22,0.0594026113837115,1
80,46,22,0.0726278848498705,1
80,47,22,0.0802494128934794,1
80,48,22,0.0791975001939936,1
80,49,22,0.0633349890918044,1
80,50,22,0.0504748053943123,1
81,35,22,0.0434742868019354,1
81,36,22,0.0481788516735401,1
81,37,22,0.0450034546872801,1
81,41,22,0.0453771411643096,1
81,42,22,0.0561667292550289,1
81,43,22,0.0518648444759217,1
81,44,22,0.0468904429863274,1
81,45,22,0.0499202474173758,1
81,46,22,0.0583821712876083,1
81,47,22,0.0597089029112196,1
81,48,22,0.058249965807809,1
81,49,22,0.0531057387775433,1
81,50,22,0.0514473418199173,1
81,51,22,0.0441243412326162,1
82,46,22,0.0426425795981663,1
82,47,22,0.0422433679260552,1
82,48,22,0.0428609657276163,1
82,49,22,0.0451761457974056,1
82,50,22,0.0497230043244363,1
82,51,22,0.045901437646463,1
83,50,22,0.0434121607154953,1
83,51,22,0.0421036065343461,1
74,49,23,0.0410062529320723,1
74,50,23,0.0414870251989311,1
74,51,23,0.0425061649753103,1
75,22,23,0.0644049224384426,1
75,23,23,0.0899709275543383,1
75,24,23,0.0739443058301816,1
75,47,23,0.0484586123532904,1
75,48,23,0.0562786973263999,1
75,49,23,0.0524548003457196,1
75,50,23,0.043747654017762,1
76,22,23,0.0678580687991002,1
76,23,23,0.0770548219986112,1
76,24,23,0.0578805344310822,1
76,36,23,0.0579890854460474,1
76,37,23,0.0591735009957475,1
76,38,23,0.0419815576059047,1
76,41,23,0.0410154389745301,1
76,46,23,0.0409963234635768,1
76,47,23,0.0509769991445248,1
76,48,23,0.0596160963080479,1
76,49,23,0.0555089350834545,1
76,50,23,0.0453072888538129,1
77,23,23,0.0577051237333426,1
77,34,23,0.048377997937136,1
77,35,23,0.0580245914736051,1
77,36,23,0.0694644259340913,1
77,37,23,0.0724934301683865,1
77,38,23,0.0524747295702632,1
77,40,23,0.0429214968272848,1
77,41,23,0.0485228551764122,1
77,42,23,0.0451108216273199,1
77,43,23,0.0416588160877092,1
77,44,23,0.041029991201296,1
77,45,23,0.0410131492223342,1
77,46,23,0.0441998733180405,1
77,47,23,0.0518013694091442,1
77,48,23,0.0571009373375006,1
77,49,23,0.0524277342312146,1
77,50,23,0.0451156444347786,1
78,24,23,0.0477943787605463,1
78,34,23,0.0512740884093706,1
78,35,23,0.0573222458071204,1
78,36,23,0.061059916180904,1
78,37,23,0.0627275802820101,1
78,38,23,0.0495106602211467,1
78,39,23,0.0421672789469445,1
78,40,23,0.0437956306791802,1
78,41,23,0.049101689392687,1
78,42,23,0.0494517862857003,1
78,43,23,0.0479861664580532,1
78,44,23,0.0470829714065045,1
78,45,23,0.0462783627576493,1
78,46,23,0.0536441360241052,1
78,47,23,0.0683883667569029,1
78,48,23,0.0741934481706507,1
78,49,23,0.0625520236024304,1
78,50,23,0.0481494336293888,1
79,34,23,0.0493275449262898,1
79,35,23,0.0551010456019586,1
79,36,23,0.056145642989234,1
79,37,23,0.0526154560641375,1
79,38,23,0.045361548141091,1
79,40,23,0.0423258476657223,1
79,41,23,0.0499125482269932,1
79,42,23,0.0624408016604645,1
79,43,23,0.0614325753783179,1
79,44,23,0.055584640184393,1
79,45,23,0.0522168012857129,1
79,46,23,0.0642698946430677,1
79,47,23,0.0850006405899414,1
79,48,23,0.0922630749337978,1
79,49,23,0.0727740288920337,1
79,50,23,0.0507061703906958,1
80,34,23,0.0439052468209048,1
80,35,23,0.0489911054454297,1
80,36,23,0.0511442456726873,1
80,37,23,0.047660708055611,1
80,40,23,0.0413470448344618,1
80,41,23,0.0551796000521469,1
80,42,23,0.0766906513748635,1
80,43,23,0.0727346408288758,1
80,44,23,0.0608071783617801,1
80,45,23,0.0563528290675061,1
80,46,23,0.0678389559915143,1
80,47,23,0.0826845197482936,1
80,48,23,0.0856681128168422,1
80,49,23,0.0684795567463637,1
80,50,23,0.0509679536771723,1
81,36,23,0.0437317149635149,1
81,41,23,0.0474130796008913,1
81,42,23,0.0635705497144076,1
81,43,23,0.0587540627286778,1
81,44,23,0.0505473475553816,1
81,45,23,0.0491426508156773,1
81,46,23,0.0557007930685141,1
81,47,23,0.0597085839138653,1
81,48,23,0.0596531648819684,1
81,49,23,0.0539195496890608,1
81,50,23,0.0505225306425615,1
81,51,23,0.0442302321340503,1
82,42,23,0.0411837208924106,1
82,46,23,0.0429925332127069,1
82,47,23,0.0428595221294196,1
82,48,23,0.0428343213384273,1
82,49,23,0.0448708058552256,1
82,50,23,0.0498375405948464,1
82,51,23,0.0484902417519828,1
82,52,23,0.0411790170331179,1
83,50,23,0.0440739829045101,1
83,51,23,0.0455992984912961,1
73,23,24,0.0564930473283074,1
73,24,24,0.0563131922945465,1
74,22,24,0.0495756005130602,1
74,23,24,0.0797575676337109,1
74,24,24,0.0769464710328343,1
74,25,24,0.0462319080920827,1
74,49,24,0.0415926565770939,1
74,50,24,0.0434760683210583,1
74,51,24,0.0447177465992287,1
75,21,24,0.0417404767070511,1
75,22,24,0.060340112167688,1
75,23,24,0.0890578814319491,1
75,24,24,0.0803845326033463,1
75,25,24,0.0477809430245205,1
75,47,24,0.0476332039955857,1
75,48,24,0.0551407851028798,1
75,49,24,0.0521526341568785,1
75,50,24,0.04552351769607,1
75,51,24,0.0421514182903524,1
76,19,24,0.0416416983652716,1
76,20,24,0.0441147361682098,1
76,21,24,0.0498634118209563,1
76,22,24,0.0625059636285056,1
76,23,24,0.072285151929681,1
76,24,24,0.0585596960186621,1
76,37,24,0.0423913583681592,1
76,46,24,0.0421696552068976,1
76,47,24,0.0505501320238135,1
76,48,24,0.057377345841663,1
76,49,24,0.0536776307463102,1
76,50,24,0.0456535550752068,1
77,20,24,0.0451188884756702,1
77,21,24,0.0520714141864244,1
77,22,24,0.0593312424840979,1
77,23,24,0.0555501992835947,1
77,24,24,0.0416534066495226,1
77,35,24,0.0471695007905511,1
77,36,24,0.0519687348854728,1
77,37,24,0.0591735983169743,1
77,38,24,0.048171887799093,1
77,41,24,0.0473874462711134,1
77,42,24,0.045556563659285,1
77,43,24,0.0413551251996491,1
77,44,24,0.0412123441465434,1
77,45,24,0.0428137757461143,1
77,46,24,0.0458613521145134,1
77,47,24,0.0509232453869522,1
77,48,24,0.054876082179601,1
77,49,24,0.0513048743574312,1
77,50,24,0.0455231175976934,1
78,21,24,0.0480457432690261,1
78,22,24,0.0563602633278825,1
78,23,24,0.055910704141135,1
78,24,24,0.0460219537655832,1
78,35,24,0.0479559698440879,1
78,36,24,0.0526279294013655,1
78,37,24,0.057685973078613,1
78,38,24,0.0471720635828554,1
78,40,24,0.0423093841581978,1
78,41,24,0.0477532281018373,1
78,42,24,0.0502380661035185,1
78,43,24,0.0498401358275596,1
78,44,24,0.0489724684305079,1
78,45,24,0.0472836585895239,1
78,46,24,0.0523926877761165,1
78,47,24,0.0653827196170267,1
78,48,24,0.0715569620707604,1
78,49,24,0.0611215908049867,1
78,50,24,0.0473686254272077,1
79,23,24,0.073297552211108,1
79,24,24,0.0601012318099058,1
79,25,24,0.0473240523053582,1
79,35,24,0.0480220239233742,1
79,36,24,0.05088637686222,1
79,37,24,0.0499251080719783,1
79,38,24,0.0439555402681931,1
79,40,24,0.0416766069486318,1
79,41,24,0.048729511394672,1
79,42,24,0.0682466183901477,1
79,43,24,0.072054397894332,1
79,44,24,0.059543781229841,1
79,45,24,0.0491775675091398,1
79,46,24,0.058641553983825,1
79,47,24,0.0805534606260376,1
79,48,24,0.0899624660143463,1
79,49,24,0.0716322941069964,1
79,50,24,0.0497441446575794,1
80,25,24,0.0522405206313648,1
80,35,24,0.0439096181660061,1
80,36,24,0.0446076844018815,1
80,37,24,0.0430289610885513,1
80,40,24,0.0423619268071708,1
80,41,24,0.0564741724170536,1
80,42,24,0.0904522675283531,1
80,43,24,0.0936900636411617,1
80,44,24,0.0693372811580828,1
80,45,24,0.0505606535297717,1
80,46,24,0.0595301832917707,1
80,47,24,0.0776280386174088,1
80,48,24,0.0839029328465369,1
80,49,24,0.0680628488803777,1
80,50,24,0.0505794797804122,1
81,41,24,0.0473552221315909,1
81,42,24,0.0705169820350206,1
81,43,24,0.0714675725239944,1
81,44,24,0.0557137043512623,1
81,45,24,0.0456481807807965,1
81,46,24,0.0501953583051815,1
81,47,24,0.0560655097724785,1
81,48,24,0.0575304483515385,1
81,49,24,0.0522908897729405,1
81,50,24,0.0494674225627975,1
81,51,24,0.0458018131506843,1
82,42,24,0.0436249535777748,1
82,43,24,0.0433633081630363,1
82,47,24,0.0413304434551994,1
82,49,24,0.04207231505658,1
82,50,24,0.0481214699969039,1
82,51,24,0.0506715618811181,1
82,52,24,0.0452356982780717,1
83,50,24,0.0422283642369319,1
83,51,24,0.0472797549269844,1
83,52,24,0.0438449401007314,1
69,16,25,0.045033483692466,1
69,17,25,0.0434962841025473,1
70,16,25,0.0441773353439466,1
70,17,25,0.0433143366624113,1
74,23,25,0.055167483559417,1
74,24,25,0.0568643548420165,1
74,50,25,0.0427566535927493,1
74,51,25,0.0429494766799742,1
75,22,25,0.0491885756212317,1
75,23,25,0.0703500761311516,1
75,24,25,0.0694660317343326,1
75,25,25,0.0440503581767175,1
75,47,25,0.0435008041328562,1
75,48,25,0.0482163203458372,1
75,49,25,0.0473351901790858,1
75,50,25,0.0451326080652739,1
75,51,25,0.0416171815262339,1
76,19,25,0.042540714010805,1
76,20,25,0.0440583925846589,1
76,21,25,0.0452085997231579,1
76,22,25,0.0488187874000068,1
76,23,25,0.056594829111279,1
76,24,25,0.051308767206501,1
76,46,25,0.0446151943565454,1
76,47,25,0.0491367899151333,1
76,48,25,0.051567901192916,1
76,49,25,0.0492435513008734,1
76,50,25,0.0452191158223812,1
77,19,25,0.0421226896048905,1
77,20,25,0.0442682333697271,1
77,21,25,0.0472782951085832,1
77,22,25,0.0500663157652515,1
77,23,25,0.0479691839039861,1
77,37,25,0.0421185156056101,1
77,41,25,0.0421243062186015,1
77,42,25,0.0428538910151054,1
77,45,25,0.0450493903063041,1
77,46,25,0.0490317640912702,1
77,47,25,0.0510699084756581,1
77,48,25,0.0516460717649321,1
77,49,25,0.0497167649524549,1
77,50,25,0.0461532184735239,1
78,20,25,0.0410565544894628,1
78,21,25,0.0443885926935375,1
78,22,25,0.0500197151178448,1
78,23,25,0.0498571346018312,1
78,24,25,0.0426087739887092,1
78,36,25,0.0430712201278983,1
78,37,25,0.0475735839307343,1
78,38,25,0.0417871152016016,1
78,41,25,0.0446537362657041,1
78,42,25,0.0494360689075809,1
78,43,25,0.0503562627334012,1
78,44,25,0.0503284018288778,1
78,45,25,0.0497034589780648,1
78,46,25,0.0517522870704555,1
78,47,25,0.0586996709763966,1
78,48,25,0.0624385362385752,1
78,49,25,0.0568271294727863,1
78,50,25,0.0482676681064153,1
79,21,25,0.0453822775623879,1
79,22,25,0.0589110797145625,1
79,23,25,0.0636568628290615,1
79,24,25,0.0549287870306186,1
79,25,25,0.0428780726365843,1
79,35,25,0.0411155149326663,1
79,36,25,0.0454531544491329,1
79,37,25,0.0462195104491422,1
79,38,25,0.0411751863614984,1
79,40,25,0.0410056095306288,1
79,41,25,0.049178486654059,1
79,42,25,0.0699837211865369,1
79,43,25,0.0792592288854245,1
79,44,25,0.0618838701269423,1
79,45,25,0.0492867727390181,1
79,46,25,0.0522834338856248,1
79,47,25,0.0669688285301199,1
79,48,25,0.0746855962075691,1
79,49,25,0.0640471047281074,1
79,50,25,0.0499274059342764,1
79,51,25,0.0416129507562378,1
80,23,25,0.0693564264060776,1
80,24,25,0.0610489296957514,1
80,25,25,0.0489986208068284,1
80,35,25,0.0412879573329901,1
80,36,25,0.0422129280090231,1
80,37,25,0.0414787042340443,1
80,40,25,0.0431775624916899,1
80,41,25,0.0582735824254993,1
80,42,25,0.0955932234840532,1
80,43,25,0.109087200857257,1
80,44,25,0.0765677779193621,1
80,45,25,0.0496582046076281,1
80,46,25,0.0511766590479285,1
80,47,25,0.0646987676623969,1
80,48,25,0.071285041156498,1
80,49,25,0.062032571554675,1
80,50,25,0.0510486329741445,1
80,51,25,0.0470436157837555,1
80,52,25,0.0458205637070373,1
81,25,25,0.0463012008055256,1
81,41,25,0.0495213385224146,1
81,42,25,0.07444916510066,1
81,43,25,0.0847856525933252,1
81,44,25,0.0616448059401763,1
81,46,25,0.0455426142834515,1
81,47,25,0.0516218117457983,1
81,48,25,0.054241542374484,1
81,49,25,0.0508643281976273,1
81,50,25,0.0492120192234078,1
81,51,25,0.0512314779322604,1
81,52,25,0.0518428606921468,1
81,53,25,0.0442813906589097,1
82,42,25,0.0510955958727841,1
82,43,25,0.05448509415115,1
82,48,25,0.0423722428572059,1
82,49,25,0.0424083301087567,1
82,50,25,0.0464564660093288,1
82,51,25,0.0519311851121534,1
82,52,25,0.0521721578763107,1
82,53,25,0.0446421144892102,1
83,51,25,0.0455649062511111,1
83,52,25,0.0454774685356149,1
69,16,26,0.0449867668002606,1
69,17,26,0.0437263839229832,1
70,16,26,0.0471292909037007,1
70,17,26,0.0456535821088809,1
74,50,26,0.0422749756978083,1
74,51,26,0.0421103811730746,1
75,23,26,0.0484076214372105,1
75,24,26,0.0495212141675138,1
75,48,26,0.0413060455643277,1
75,49,26,0.0436259349001445,1
75,50,26,0.0447139267410789,1
75,51,26,0.0417561589413942,1
76,19,26,0.0433536598447515,1
76,20,26,0.0447148621062026,1
76,21,26,0.0426859686450904,1
76,23,26,0.0428817356994243,1
76,46,26,0.0442175371206948,1
76,47,26,0.0459230375520658,1
76,48,26,0.0463592421038098,1
76,49,26,0.0467246941237097,1
76,50,26,0.0457994341873639,1
76,51,26,0.0412025741767251,1
77,19,26,0.0448229265150341,1
77,20,26,0.0445909667778205,1
77,21,26,0.0423266911163541,1
77,22,26,0.041499063294006,1
77,45,26,0.0461266984392357,1
77,46,26,0.0508793427002203,1
77,47,26,0.0509626442635798,1
77,48,26,0.0499373381061393,1
77,49,26,0.0502472251123022,1
77,50,26,0.0494289752714981,1
77,51,26,0.0443167101541162,1
78,19,26,0.0414078138304623,1
78,22,26,0.0422935153915034,1
78,23,26,0.0418021729580731,1
78,41,26,0.0410744102312032,1
78,42,26,0.0463703421303937,1
78,43,26,0.0478416876902143,1
78,44,26,0.0482371903422394,1
78,45,26,0.0506338390922845,1
78,46,26,0.0527961707687347,1
78,47,26,0.054973695370027,1
78,48,26,0.0573372494962437,1
78,49,26,0.0576789389166132,1
78,50,26,0.0552913464473903,1
78,51,26,0.0484346010439583,1
79,22,26,0.0475936861707921,1
79,23,26,0.0505828806166135,1
79,24,26,0.0466717297494208,1
79,37,26,0.0414817103786038,1
79,41,26,0.0479793053115676,1
79,42,26,0.064018378746013,1
79,43,26,0.0742871901389462,1
79,44,26,0.0590258701015091,1
79,45,26,0.050261406977733,1
79,46,26,0.0495983033925661,1
79,47,26,0.0559192035282708,1
79,48,26,0.0627797336460762,1
79,49,26,0.0622247269101497,1
79,50,26,0.0576752082695879,1
79,51,26,0.0512642265250604,1
79,52,26,0.0458606546457218,1
80,22,26,0.0508676803732152,1
80,23,26,0.0580524253444544,1
80,24,26,0.0562524692557919,1
80,25,26,0.0452922986815266,1
80,40,26,0.0443016767279514,1
80,41,26,0.0579679721465784,1
80,42,26,0.0874500104112086,1
80,43,26,0.103813850186039,1
80,44,26,0.0752982982107514,1
80,45,26,0.0509867042335253,1
80,46,26,0.0466058973462621,1
80,47,26,0.0526951134882289,1
80,48,26,0.0596664654496236,1
80,49,26,0.059309080278074,1
80,50,26,0.0576997710658716,1
80,51,26,0.059835512420481,1
80,52,26,0.0666290693140809,1
80,53,26,0.0584990919280736,1
81,23,26,0.0499929301535504,1
81,24,26,0.0517261509143394,1
81,25,26,0.0448765424008688,1
81,40,26,0.0426517304968478,1
81,41,26,0.0522838610176755,1
81,42,26,0.0763412735775811,1
81,43,26,0.092277424408008,1
81,44,26,0.0665623934602904,1
81,47,26,0.0473960375727411,1
81,48,26,0.0506276537876513,1
81,49,26,0.0503523915112706,1
81,50,26,0.0528710702661852,1
81,51,26,0.0637790225955666,1
81,52,26,0.0812623268147143,1
81,53,26,0.0738322782847277,1
81,54,26,0.0497626627243352,1
82,42,26,0.0670209440470422,1
82,43,26,0.077871017280184,1
82,48,26,0.0442933152125535,1
82,49,26,0.0431381825386341,1
82,50,26,0.0463007466398008,1
82,51,26,0.0561370570943411,1
82,52,26,0.0695144436379038,1
82,53,26,0.0642132590958365,1
83,43,26,0.0655832445980015,1
83,51,26,0.0427870286289636,1
83,52,26,0.0473896576256545,1
63,24,27,0.0453725616599178,1
64,23,27,0.0433993170169322,1
64,24,27,0.0463045313541743,1
65,23,27,0.0472609503032832,1
65,24,27,0.0460923116057855,1
70,16,27,0.0414191733803174,1
70,17,27,0.0412872625675658,1
75,50,27,0.0425386783751456,1
75,51,27,0.0411049636896666,1
76,46,27,0.0412015523038443,1
76,47,27,0.0432018062906192,1
76,48,27,0.0437967417631855,1
76,49,27,0.0448454023116776,1
76,50,27,0.0457236642056075,1
76,51,27,0.0439872967251537,1
77,18,27,0.0419242083696774,1
77,19,27,0.0464556549991059,1
77,20,27,0.0427376543265946,1
77,45,27,0.0420338596551783,1
77,46,27,0.0478384490560576,1
77,47,27,0.0489385952368656,1
77,48,27,0.0482547189765233,1
77,49,27,0.049716224278973,1
77,50,27,0.0516525868803893,1
77,51,27,0.049890905067512,1
78,19,27,0.0430573221160455,1
78,43,27,0.0418704924592486,1
78,44,27,0.0432247146260482,1
78,45,27,0.0474873248834286,1
78,46,27,0.0519752662211344,1
78,47,27,0.0532881349766693,1
78,48,27,0.0543034711151032,1
78,49,27,0.0583823983704707,1
78,50,27,0.0607777927580377,1
78,51,27,0.0565754621871566,1
78,52,27,0.0452333247214861,1
79,41,27,0.0425349936853663,1
79,42,27,0.0511642505915184,1
79,43,27,0.0580641471455425,1
79,44,27,0.0519151757703537,1
79,45,27,0.0496479209980019,1
79,46,27,0.0502655485366045,1
79,47,27,0.0520194987186904,1
79,48,27,0.0567704020110631,1
79,49,27,0.0641813972075469,1
79,50,27,0.0670834350880826,1
79,51,27,0.0634056226754825,1
79,52,27,0.0544185750926693,1
79,53,27,0.0445720675362599,1
80,23,27,0.0458370975021145,1
80,24,27,0.0466335149477186,1
80,40,27,0.0423542952009735,1
80,41,27,0.0526872358755973,1
80,42,27,0.0683992559208288,1
80,43,27,0.0798531316716404,1
80,44,27,0.0666120759465441,1
80,45,27,0.0539169814900217,1
80,46,27,0.0488625495116334,1
80,47,27,0.048888669447545,1
80,48,27,0.0538758686784565,1
80,49,27,0.0610392462336901,1
80,50,27,0.0652072278182649,1
80,51,27,0.0711893797973417,1
80,52,27,0.0787190744500464,1
80,53,27,0.0717877052926397,1
81,23,27,0.0463847564854217,1
81,24,27,0.0494811016018901,1
81,25,27,0.0419013162544529,1
81,40,27,0.0427571969695987,1
81,41,27,0.0526887065074682,1
81,42,27,0.0737442187947272,1
81,43,27,0.0916494429722266,1
81,44,27,0.0704317881144743,1
81,46,27,0.0469353351055312,1
81,47,27,0.0473402130357328,1
81,48,27,0.0493862566596915,1
81,49,27,0.0525628431276118,1
81,50,27,0.0571109992709991,1
81,51,27,0.0747758021712928,1
81,52,27,0.101537312050003,1
81,53,27,0.0991186957363873,1
81,54,27,0.061194879095461,1
82,23,27,0.0418062955933727,1
82,24,27,0.0452537108151219,1
82,42,27,0.0878374137744744,1
82,43,27,0.113056944509686,1
82,44,27,0.0823464852806619,1
82,49,27,0.0449771752526913,1
82,50,27,0.046689485466567,1
82,51,27,0.0598806208090776,1
82,52,27,0.081940509783292,1
82,53,27,0.082806641667655,1
82,54,27,0.0559730383868656,1
83,42,27,0.0810548758064361,1
83,43,27,0.104880977437306,1
83,44,27,0.0776497304375035,1
83,52,27,0.0516370803649278,1
83,53,27,0.0539129264389073,1
84,43,27,0.0685893567170721,1
61,24,28,0.0455751628270631,1
61,25,28,0.0493859538825417,1
62,24,28,0.0561531637573675,1
62,25,28,0.0562335943445381,1
63,23,28,0.0429289202741915,1
63,24,28,0.0565455845705456,1
63,25,28,0.0494803392522806,1
64,23,28,0.0562529396417212,1
64,24,28,0.0608374236363588,1
64,25,28,0.0438968339415261,1
65,23,28,0.0634271847339415,1
65,24,28,0.0620935162695571,1
66,23,28,0.0453168885114844,1
75,50,28,0.0431809389975844,1
75,51,28,0.0438178793929612,1
76,47,28,0.0424785203401796,1
76,48,28,0.0449478383095623,1
76,49,28,0.0469234078485201,1
76,50,28,0.0493380718389828,1
76,51,28,0.0504016738991477,1
76,52,28,0.0427694351138619,1
77,18,28,0.041459978007998,1
77,19,28,0.0482948423556166,1
77,20,28,0.0417701542744737,1
77,46,28,0.0450529046839366,1
77,47,28,0.0489967014159676,1
77,48,28,0.0503480931570894,1
77,49,28,0.0531521447824966,1
77,50,28,0.0562913598993465,1
77,51,28,0.0559513411600362,1
77,52,28,0.0454635516001902,1
78,19,28,0.0467247211573838,1
78,45,28,0.0422365608469179,1
78,46,28,0.050652097635769,1
78,47,28,0.0550087850790036,1
78,48,28,0.0563710930177254,1
78,49,28,0.0621707028158361,1
78,50,28,0.0666006461091363,1
78,51,28,0.062895324229776,1
78,52,28,0.0498279598607467,1
79,43,28,0.0416540906014772,1
79,44,28,0.0429429885981911,1
79,45,28,0.0464165913400372,1
79,46,28,0.0514177020996384,1
79,47,28,0.0549359888013978,1
79,48,28,0.0588478641710563,1
79,49,28,0.0693740469548534,1
79,50,28,0.0755488679292128,1
79,51,28,0.0719055775184333,1
79,52,28,0.0600968091008237,1
79,53,28,0.0475294866015488,1
80,41,28,0.0420837962579686,1
80,42,28,0.0491364925447182,1
80,43,28,0.0557522705907277,1
80,44,28,0.0546800447885262,1
80,45,28,0.0524285506481723,1
80,46,28,0.0510185336814059,1
80,47,28,0.0510092178773124,1
80,48,28,0.0547010607667684,1
80,49,28,0.0650043400941741,1
80,50,28,0.0719664951996413,1
80,51,28,0.0766864990025223,1
80,52,28,0.0801742268390836,1
80,53,28,0.0732590886996042,1
80,54,28,0.0465777336645888,1
81,24,28,0.041733691254853,1
81,41,28,0.0482119679243078,1
81,42,28,0.0671043753720374,1
81,43,28,0.0854353150357316,1
81,46,28,0.0485478721384207,1
81,47,28,0.0476701049607268,1
81,48,28,0.0487810916448473,1
81,49,28,0.0542958854661518,1
81,50,28,0.0606614830786069,1
81,51,28,0.0773998635945686,1
81,52,28,0.102173046743515,1
81,53,28,0.103558252204196,1
81,54,28,0.0640483050232373,1
82,41,28,0.0535745134998383,1
82,42,28,0.0981510524057937,1
82,43,28,0.137473391295261,1
82,44,28,0.100864087057254,1
82,50,28,0.0474944563666552,1
82,51,28,0.0605734614357502,1
82,52,28,0.0828672241313042,1
82,53,28,0.0880690220739249,1
82,54,28,0.059099320594028,1
83,42,28,0.0951714441008068,1
83,43,28,0.140916821753448,1
83,44,28,0.10697217270374,1
83,52,28,0.0522294692653943,1
83,53,28,0.056005862673953,1
84,43,28,0.0888166383310508,1
60,24,29,0.0440583250004736,1
60,25,29,0.0563414911445902,1
60,26,29,0.046607216589558,1
61,24,29,0.0671776798827162,1
61,25,29,0.084714213406159,1
61,26,29,0.0609070569740953,1
62,24,29,0.0702951815525322,1
62,25,29,0.0821186400686456,1
62,26,29,0.0545606640837181,1
63,23,29,0.0430878917947133,1
63,24,29,0.0610118124612175,1
63,25,29,0.054768033990974,1
64,23,29,0.0639128338756072,1
64,24,29,0.0736479681014757,1
64,25,29,0.0501326347745439,1
65,23,29,0.071348110718164,1
65,24,29,0.076126999269961,1
65,25,29,0.0463842915062272,1
66,23,29,0.0460419424642098,1
66,24,29,0.0445857222450459,1
75,49,29,0.0417953902092424,1
75,50,29,0.0444977087122914,1
75,51,29,0.0462155743461938,1
76,47,29,0.041343179019066,1
76,48,29,0.0467536850358103,1
76,49,29,0.052080308265202,1
76,50,29,0.0552154467039982,1
76,51,29,0.055105879222887,1
76,52,29,0.0466228042060418,1
77,19,29,0.0419396067504425,1
77,46,29,0.0431161879413896,1
77,47,29,0.0489577350781256,1
77,48,29,0.0547177946110339,1
77,49,29,0.0612159221073774,1
77,50,29,0.0638801447568903,1
77,51,29,0.0590934110328706,1
77,52,29,0.0475266048118902,1
78,19,29,0.0429593899282652,1
78,46,29,0.0488200201355455,1
78,47,29,0.0552873400568892,1
78,48,29,0.0597916043270142,1
78,49,29,0.06682168964875,1
78,50,29,0.0708418565101023,1
78,51,29,0.0646168934770296,1
78,52,29,0.0528459667964197,1
79,45,29,0.0427639824217968,1
79,46,29,0.0518128262802261,1
79,47,29,0.0584736045801359,1
79,48,29,0.0619953569989144,1
79,49,29,0.0689575229178513,1
79,50,29,0.0744898724071138,1
79,51,29,0.0710523839504927,1
79,52,29,0.0625170744685591,1
79,53,29,0.0500314369189328,1
80,43,29,0.0423686338617141,1
80,44,29,0.0451628127893414,1
80,45,29,0.0486572503838133,1
80,46,29,0.0532630152866993,1
80,47,29,0.0568292272858961,1
80,48,29,0.0584024735768544,1
80,49,29,0.0639080326950878,1
80,50,29,0.0699642731613922,1
80,51,29,0.0728902845041163,1
80,52,29,0.0745783644358998,1
80,53,29,0.0671735545440492,1
80,54,29,0.0464310327287393,1
81,41,29,0.043205012484367,1
81,42,29,0.0579603486504833,1
81,43,29,0.0716719957607739,1
81,44,29,0.0631849359803669,1
81,46,29,0.0528516492747146,1
81,47,29,0.0513906738322772,1
81,48,29,0.0506431873367869,1
81,49,29,0.0550131861611465,1
81,50,29,0.0619781041081063,1
81,51,29,0.0737072799824424,1
81,52,29,0.088441286579697,1
81,53,29,0.0883161422955716,1
81,54,29,0.0601677292414472,1
82,41,29,0.0524054801106988,1
82,42,29,0.0898109044238942,1
82,43,29,0.125994276906313,1
82,44,29,0.102128722331467,1
82,51,29,0.0632837170255138,1
82,52,29,0.0772616944862637,1
82,53,29,0.0798384091327277,1
83,42,29,0.0947413599728781,1
83,43,29,0.146026683577203,1
83,44,29,0.123832664325594,1
83,45,29,0.0768286690945934,1
84,42,29,0.065976519675281,1
84,43,29,0.104896840797266,1
84,44,29,0.0984166204066435,1
85,43,29,0.0600685859450674,1
60,24,30,0.049876009513085,1
60,25,30,0.0716567812089926,1
60,26,30,0.0528257456081958,1
61,24,30,0.0857231966311803,1
61,25,30,0.123121527308293,1
61,26,30,0.081222052047046,1
62,24,30,0.0774241290204372,1
62,25,30,0.107303086501615,1
62,26,30,0.0670095088028996,1
63,24,30,0.0591903267545049,1
63,25,30,0.0583802573034823,1
64,23,30,0.0592935088817947,1
64,24,30,0.0740933208485338,1
64,25,30,0.0482093024040419,1
65,23,30,0.0627624212811851,1
65,24,30,0.0751573987013629,1
65,25,30,0.0460273550936676,1
66,24,30,0.0417509846961722,1
75,49,30,0.0420172961230597,1
75,50,30,0.0446814133412436,1
76,48,30,0.0461050714999589,1
76,49,30,0.0551587895298277,1
76,50,30,0.0588165159225745,1
76,51,30,0.0562205641136238,1
77,47,30,0.0476429523384647,1
77,48,30,0.0573634721601169,1
77,49,30,0.0693048948165157,1
77,50,30,0.0712964547737013,1
77,51,30,0.060548676963339,1
77,52,30,0.0473589257449421,1
78,46,30,0.044904738522951,1
78,47,30,0.0527155130987018,1
78,48,30,0.0605013247797923,1
78,49,30,0.0707142035010208,1
78,50,30,0.0727819010979305,1
78,51,30,0.0628124065445887,1
78,52,30,0.051167462192001,1
79,46,30,0.0486159699634686,1
79,47,30,0.0569558962692405,1
79,48,30,0.0604821254644493,1
79,49,30,0.0643737093583313,1
79,50,30,0.0671143724247181,1
79,51,30,0.064490948996151,1
79,52,30,0.0595865268753216,1
79,53,30,0.0489372759935697,1
80,45,30,0.0433302378695146,1
80,46,30,0.0517996284405325,1
80,47,30,0.058547109140003,1
80,48,30,0.0581173061622849,1
80,49,30,0.057532075778719,1
80,50,30,0.0609611946098401,1
80,51,30,0.064375185396937,1
80,52,30,0.0658833129737327,1
80,53,30,0.0583605767887404,1
80,54,30,0.043335863577094,1
81,42,30,0.0465507324309017,1
81,43,30,0.0551925599955085,1
81,44,30,0.0540194769619894,1
81,46,30,0.0535656248277955,1
81,47,30,0.0530992993563736,1
81,48,30,0.0505105060643235,1
81,49,30,0.0514513265834791,1
81,50,30,0.0577869546648313,1
81,51,30,0.0659549468033524,1
81,52,30,0.0720292079168093,1
81,53,30,0.0683459509222462,1
82,38,30,0.0431258416664093,1
82,41,30,0.0478156110081813,1
82,42,30,0.0700965921826227,1
82,43,30,0.0943991569127008,1
82,44,30,0.0914225547522734,1
82,47,30,0.0515428626039683,1
82,51,30,0.063775064865679,1
82,52,30,0.0697516965685055,1
83,38,30,0.0478989720456238,1
83,39,30,0.0476809616842437,1
83,40,30,0.0475701776877982,1
83,42,30,0.0801041014884784,1
83,43,30,0.12055630197332,1
83,44,30,0.11911812132488,1
83,45,30,0.0824553606997163,1
84,38,30,0.0435217119764021,1
84,42,30,0.0653117886629335,1
84,43,30,0.101364037012517,1
84,44,30,0.103990726108915,1
84,45,30,0.069476277496815,1
85,43,30,0.0582497927922948,1
85,44,30,0.0612413932351107,1
60,24,31,0.0514959753996161,1
60,25,31,0.0776305094952212,1
60,26,31,0.0543421995566131,1
61,24,31,0.0919653368607736,1
61,25,31,0.141835523320458,1
61,26,31,0.0921829038698986,1
61,27,31,0.0413990305897485,1
62,24,31,0.0793073055714369,1
62,25,31,0.122593419078092,1
62,26,31,0.0772654143198194,1
63,24,31,0.0539961144608356,1
63,25,31,0.0632327639565776,1
63,26,31,0.0412161775215303,1
64,23,31,0.0468683997284694,1
64,24,31,0.0603385388078556,1
64,25,31,0.0435655389688466,1
65,23,31,0.0465848651478154,1
65,24,31,0.0595230193681352,1
65,25,31,0.0413952702056817,1
76,48,31,0.0431528104596875,1
76,49,31,0.0533298965964129,1
76,50,31,0.0559259835737341,1
76,51,31,0.0516737001798583,1
77,47,31,0.0442864243290264,1
77,48,31,0.0552646317706486,1
77,49,31,0.0697923714345503,1
77,50,31,0.0706997080449705,1
77,51,31,0.0582418665190498,1
77,52,31,0.0450997243041035,1
78,47,31,0.0491028410272035,1
78,48,31,0.0573443431323265,1
78,49,31,0.0692018478575965,1
78,50,31,0.0694051681204728,1
78,51,31,0.0588889121018037,1
78,52,31,0.0477603758052683,1
79,46,31,0.0450279147556022,1
79,47,31,0.0530306662645786,1
79,48,31,0.0556050127611918,1
79,49,31,0.0581580188754736,1
79,50,31,0.0584511341902273,1
79,51,31,0.0565675683543206,1
79,52,31,0.0535830507341178,1
79,53,31,0.0453310568600781,1
80,46,31,0.0487828758673376,1
80,47,31,0.0558408545340056,1
80,48,31,0.0546646842549048,1
80,49,31,0.0514397886113749,1
80,50,31,0.0523545216350278,1
80,51,31,0.055354215959868,1
80,52,31,0.0566184943895827,1
80,53,31,0.0497928863719745,1
81,43,31,0.043165221619465,1
81,44,31,0.0469477922225547,1
81,45,31,0.050509235481641,1
81,46,31,0.0506568014950617,1
81,47,31,0.0516941214172704,1
81,48,31,0.0501135327804277,1
81,49,31,0.0498711867056263,1
81,50,31,0.0535252473321657,1
81,51,31,0.0575037336747968,1
81,52,31,0.058320631831896,1
82,38,31,0.0465388970883825,1
82,39,31,0.0465527815833982,1
82,40,31,0.0451392232053252,1
82,41,31,0.0450283418876529,1
82,42,31,0.0540326639882135,1
82,43,31,0.0685637233872943,1
82,44,31,0.0789803981640632,1
82,45,31,0.0737995945727455,1
82,47,31,0.0498698836825349,1
82,48,31,0.0478257486359673,1
83,37,31,0.0428845526082651,1
83,38,31,0.057139265680634,1
83,39,31,0.0609403624605817,1
83,40,31,0.0568041616632743,1
83,41,31,0.0513731614181978,1
83,43,31,0.0925207274748723,1
83,44,31,0.105586696906318,1
83,45,31,0.0836360618225956,1
83,46,31,0.0586105679865761,1
84,38,31,0.0525590746334428,1
84,39,31,0.0565722992472874,1
84,40,31,0.0530731848271969,1
84,43,31,0.0884381668937063,1
84,44,31,0.0984148902515014,1
84,45,31,0.0716997593440705,1
85,44,31,0.0581768289059096,1
59,25,32,0.0415910967340986,1
60,24,32,0.0547954407297725,1
60,25,32,0.0784718731273774,1
60,26,32,0.0548648523913815,1
60,38,32,0.0420459977748475,1
61,23,32,0.0420321376101384,1
61,24,32,0.0885439658806485,1
61,25,32,0.133570020719473,1
61,26,32,0.0884332954256342,1
61,27,32,0.0418113806274702,1
62,24,32,0.0761502806700926,1
62,25,32,0.116584319932676,1
62,26,32,0.0767655724992532,1
63,17,32,0.0445901909113739,1
63,24,32,0.0462696308809163,1
63,25,32,0.0593134381063383,1
64,24,32,0.0429682569733687,1
65,24,32,0.0419844285820937,1
76,49,32,0.0474041693019092,1
76,50,32,0.049249812299794,1
76,51,32,0.0460496038074486,1
77,48,32,0.0496584262837556,1
77,49,32,0.0615097024505139,1
77,50,32,0.0626329732361436,1
77,51,32,0.053431272874273,1
77,52,32,0.0426161920288811,1
78,47,32,0.0452421431059762,1
78,48,32,0.052040833694287,1
78,49,32,0.0617324220779215,1
78,50,32,0.0625082993379475,1
78,51,32,0.0543501096096536,1
78,52,32,0.0445534170045011,1
79,46,32,0.0415146373936528,1
79,47,32,0.0486742059042063,1
79,48,32,0.0504271666538203,1
79,49,32,0.0526183486672658,1
79,50,32,0.0529982474826026,1
79,51,32,0.051283647516531,1
79,52,32,0.047879588901297,1
80,46,32,0.0449404689300037,1
80,47,32,0.0511106049686422,1
80,48,32,0.0511364167206691,1
80,49,32,0.0491212455525281,1
80,50,32,0.0490057306631157,1
80,51,32,0.0504605748682682,1
80,52,32,0.0500918355535982,1
81,45,32,0.0447423256157168,1
81,46,32,0.0463085918120235,1
81,47,32,0.0488496220086807,1
81,48,32,0.0510804570152903,1
81,49,32,0.0533471657074254,1
81,50,32,0.0539622899278067,1
82,38,32,0.0489139351193552,1
82,39,32,0.0551268627607203,1
82,40,32,0.0479252758105193,1
82,42,32,0.042439391800293,1
82,43,32,0.052712966526602,1
82,44,32,0.0666957992352195,1
82,45,32,0.0660350583931686,1
82,48,32,0.0503228491122185,1
82,49,32,0.0578493105375012,1
83,37,32,0.0434065268978137,1
83,38,32,0.069262570896351,1
83,39,32,0.0819032898207966,1
83,40,32,0.0672922918474138,1
83,41,32,0.0496365344144727,1
83,42,32,0.052430832290266,1
83,43,32,0.072281232046937,1
83,44,32,0.0909690162086989,1
83,45,32,0.0800574251467842,1
83,46,32,0.055876971522598,1
84,37,32,0.0421531673690664,1
84,38,32,0.060760020820687,1
84,39,32,0.0711926454651725,1
84,40,32,0.059731859907262,1
84,41,32,0.0472158365079517,1
84,43,32,0.0707106783099187,1
84,44,32,0.0840244113644548,1
84,45,32,0.0696338135292423,1
84,46,32,0.0502733234212745,1
85,39,32,0.044863482432913,1
85,44,32,0.0524067344731768,1
85,45,32,0.0461978997300698,1
57,27,33,0.04425439212859,1
57,28,33,0.0472735534021468,1
57,29,33,0.0413785390647837,1
58,28,33,0.0416857118900673,1
59,38,33,0.0417477244350762,1
60,24,33,0.053031401580514,1
60,25,33,0.0666840287735181,1
60,26,33,0.0483643459317175,1
60,38,33,0.047715256603202,1
61,23,33,0.0423628270285182,1
61,24,33,0.0724063438906535,1
61,25,33,0.0959551827532599,1
61,26,33,0.0667266716910372,1
62,24,33,0.0612323207340841,1
62,25,33,0.0825723462209995,1
62,26,33,0.0595616504884185,1
63,16,33,0.0445362506214501,1
63,17,33,0.0416255133045903,1
63,25,33,0.0448536340654398,1
64,15,33,0.059957526205146,1
64,16,33,0.0471923172114882,1
65,14,33,0.0520411418781716,1
65,15,33,0.0514389127203342,1
77,49,33,0.0457099310991667,1
77,50,33,0.0469925005127747,1
77,51,33,0.0436578914062935,1
78,48,33,0.0435831649243572,1
78,49,33,0.0481169878137388,1
78,50,33,0.0493493178474067,1
78,51,33,0.0459382683240515,1
79,47,33,0.0428583137241875,1
79,48,33,0.0443393643730086,1
79,49,33,0.0456489485371409,1
79,50,33,0.0460771457146177,1
79,51,33,0.0449095397034704,1
80,47,33,0.0447224315349495,1
80,48,33,0.0466145048680943,1
80,49,33,0.0470586519132877,1
80,50,33,0.0463919961033446,1
81,47,33,0.0445601267624117,1
81,48,33,0.0497740222741903,1
81,49,33,0.0544387205866056,1
81,50,33,0.0534916661022036,1
82,38,33,0.0462951344490585,1
82,39,33,0.0561765262585213,1
82,40,33,0.0440925090813681,1
82,44,33,0.0495648086703611,1
82,48,33,0.0510204963261453,1
82,49,33,0.0605897735546998,1
82,50,33,0.0627316839937379,1
83,37,33,0.0438814707045373,1
83,38,33,0.072885331935022,1
83,39,33,0.0904723805818806,1
83,40,33,0.068540404140019,1
83,41,33,0.0469193149502619,1
83,42,33,0.0430574086238026,1
83,44,33,0.0687792899045361,1
83,45,33,0.0667114409190515,1
83,49,33,0.0564385258143905,1
84,37,33,0.0427022131798547,1
84,38,33,0.0609671690518153,1
84,39,33,0.0753206009918806,1
84,40,33,0.0595189643170208,1
84,41,33,0.0466954761287467,1
84,43,33,0.0538757983909038,1
84,44,33,0.0662468023488932,1
84,45,33,0.0640840597605967,1
84,46,33,0.050552689409383,1
85,39,33,0.0475890147519083,1
85,44,33,0.0483583066089245,1
85,45,33,0.0488325313199172,1
56,28,34,0.0457104771793834,1
57,27,34,0.0445290948079169,1
57,28,34,0.0523398856038722,1
57,29,34,0.0471643427655336,1
58,28,34,0.0454767926937625,1
58,29,34,0.0412997088711196,1
59,38,34,0.0420060933685143,1
60,24,34,0.0483315594917738,1
60,25,34,0.0555388289202699,1
60,26,34,0.0419500985193592,1
60,37,34,0.0426999450545981,1
60,38,34,0.0505535815206282,1
60,39,34,0.0439444132079351,1
61,24,34,0.0601759096312287,1
61,25,34,0.0691015096728216,1
61,26,34,0.0511100697018951,1
62,24,34,0.0478008019615115,1
62,25,34,0.0550684483977336,1
62,26,34,0.0441541999256552,1
64,14,34,0.048886874411585,1
64,15,34,0.0484921070754954,1
64,16,34,0.0424539737641004,1
65,14,34,0.0450123893165688,1
65,15,34,0.0456693968082271,1
79,50,34,0.0411137334135433,1
81,48,34,0.047503820831362,1
81,49,34,0.051925097128747,1
82,39,34,0.0497179219937062,1
82,49,34,0.0582365787323966,1
83,37,34,0.0421291182125906,1
83,38,34,0.0683806405328463,1
83,39,34,0.0856670585035525,1
83,40,34,0.064900898443613,1
83,41,34,0.0440495660900665,1
83,43,34,0.041906320187528,1
83,45,34,0.0528997962482797,1
84,37,34,0.042168027779717,1
84,38,34,0.0577467988453291,1
84,39,34,0.0722076193523735,1
84,40,34,0.057853176352897,1
84,41,34,0.046070376482624,1
84,44,34,0.0541611496344571,1
84,45,34,0.0577106548230627,1
84,46,34,0.0489861096224568,1
85,38,34,0.0430504447493555,1
85,39,34,0.047773092445563,1
85,40,34,0.0439152817207293,1
85,45,34,0.0491303342737592,1
56,28,35,0.0457220367784269,1
57,27,35,0.042747735183665,1
57,28,35,0.0543913629963242,1
57,29,35,0.0520586813259252,1
58,28,35,0.0463036608698684,1
58,29,35,0.0449935711760306,1
60,24,35,0.0415043916311704,1
60,25,35,0.0463552789671874,1
60,38,35,0.046222386832066,1
60,39,35,0.0420329215866872,1
61,24,35,0.0510068875746054,1
61,25,35,0.0557918857367481,1
61,26,35,0.0429170389744263,1
62,25,35,0.0425086926238382,1
83,38,35,0.0525307920036036,1
83,39,35,0.0644297826051413,1
83,40,35,0.0522316265525872,1
83,45,35,0.0429423857472588,1
84,38,35,0.0490156087676304,1
84,39,35,0.0593962476568293,1
84,40,35,0.0506711401558022,1
84,41,35,0.0434291946335432,1
84,44,35,0.0463702610293714,1
84,45,35,0.049653749458137,1
84,46,35,0.0447747362875905,1
85,39,35,0.043891948956617,1
85,45,35,0.0458240077971172,1
56,25,36,0.0415754415334296,1
56,28,36,0.0438958877629328,1
57,28,36,0.0515855379618963,1
57,29,36,0.0522154982626215,1
58,28,36,0.0436364158555916,1
58,29,36,0.0451874350597081,1
61,24,36,0.0433816072570319,1
61,25,36,0.0489493762660951,1
83,39,36,0.041629154740491,1
84,39,36,0.0453004439275318,1
84,40,36,0.0418801786246772,1
84,45,36,0.0412918420719577,1
57,28,37,0.0439662942637485,1
57,29,37,0.0441067369040448,1
76,49,37,0.0418023324567502,1
56,18,42,0.0487405411337032,1
57,17,42,0.0492127923864869,1
57,18,42,0.0515311948702284,1
56,17,43,0.0517818240627728,1
56,18,43,0.0530855121825847,1
57,17,43,0.0550234751775074,1
57,18,43,0.0591084471624028,1
56,17,44,0.0443315975984409,1
56,18,44,0.0467222286526322,1
57,17,44,0.0505929371433772,1
57,18,44,0.0556409675477395,1
57,18,45,0.0436410656475361,1
64,37,45,0.0517268916370096,1
83,13,45,0.043876591126363,1
64,37,46,0.0599394460839106,1
65,37,46,0.0410528103256005,1
83,13,46,0.0446320958095902,1
56,23,47,0.0421392477302744,1
57,23,47,0.0521329806758107,1
57,24,47,0.0429719065193716,1
64,37,47,0.0498249537161873,1
56,23,48,0.0590044053642768,1
57,22,48,0.0472221840146295,1
57,23,48,0.0766983019046326,1
57,24,48,0.0612680268108301,1
58,23,48,0.0489986478405025,1
56,23,49,0.0690761034259061,1
57,22,49,0.0525643678268308,1
57,23,49,0.0925105736268818,1
57,24,49,0.0776327154430274,1
58,23,49,0.0554009247419711,1
58,24,49,0.045941333942694,1
57,22,50,0.0463984625581884,1
57,23,50,0.0816914323236407,1
57,24,50,0.0737811089463987,1
58,23,50,0.0484451225499165,1
58,24,50,0.043961149755568,1
63,20,59,0.0439087801221092,1
63,20,60,0.0419026598280555,1
63,21,60,0.0417934464880749,1
77,3,60,0.0436349100799444,1
78,3,60,0.0468666912002666,1
79,3,60,0.0410809496769671,1
77,3,61,0.0426580509698514,1
78,3,61,0.0479556832871425,1
