x,y,z,signal,cytoplasm.p
259,32,14,0.0418871587193288,1
260,33,14,0.0424220091478493,1
260,34,14,0.0507409627292575,1
261,35,14,0.0549102797773325,1
262,35,14,0.0498345344502869,1
263,36,14,0.0755189308385188,1
264,36,14,0.0427632498092288,1
265,37,14,0.0494885845228799,1
266,37,14,0.0437686591825346,1
267,38,14,0.0486061026724236,1
268,38,14,0.0454250286146034,1
270,39,14,0.0459589869318787,1
271,39,14,0.0415932486145566,1
256,23,15,0.0780111598466979,1
256,24,15,0.0513326703811367,1
257,21,15,0.0447094580747508,1
257,22,15,0.0524610289042313,1
257,23,15,0.0451342111621478,1
258,31,15,0.0441730991672158,1
258,32,15,0.0470790190833517,1
259,32,15,0.042320605836315,1
259,33,15,0.0476090521111483,1
259,34,15,0.0563681247203096,1
260,33,15,0.0411134982205787,1
260,34,15,0.0489984045374357,1
260,35,15,0.058140360479554,1
261,35,15,0.0518369132838457,1
261,36,15,0.0950393035018254,1
262,35,15,0.046819847249793,1
262,36,15,0.107118403253661,1
263,36,15,0.0673713815643492,1
263,37,15,0.109405387201368,1
264,37,15,0.0596174642119572,1
265,37,15,0.0465490401229033,1
265,38,15,0.0586443384522568,1
266,38,15,0.0534680440777784,1
267,38,15,0.0478819408309433,1
267,39,15,0.0548365048807244,1
268,38,15,0.0435223553778456,1
268,39,15,0.0510908541663477,1
269,39,15,0.0470546887766653,1
270,39,15,0.0426477078861423,1
270,40,15,0.0544655920586571,1
271,40,15,0.0497732058572326,1
272,40,15,0.0465541603007771,1
273,40,15,0.0428763803285859,1
255,19,16,0.0411281666921432,1
255,20,16,0.0431827664739533,1
255,21,16,0.0788231757222554,1
255,22,16,0.130128990851545,1
255,23,16,0.117680059624607,1
255,24,16,0.0655160659178728,1
255,25,16,0.043527816180013,1
255,26,16,0.0443531299198583,1
256,21,16,0.0680768252898853,1
256,22,16,0.108325024263263,1
256,23,16,0.0952628071057818,1
256,24,16,0.0550984449625106,1
257,21,16,0.043349861613541,1
257,22,16,0.0545655085181161,1
257,23,16,0.0483810527423089,1
257,30,16,0.0443219573902582,1
257,31,16,0.0499103368724522,1
258,31,16,0.0442676683659385,1
258,32,16,0.047935483725858,1
258,33,16,0.0523491365271478,1
259,32,16,0.042162972482661,1
259,33,16,0.0479267734760642,1
259,34,16,0.0563820740961432,1
260,11,16,0.0428095720097923,1
260,34,16,0.0466983254779964,1
260,35,16,0.0539996234317333,1
261,10,16,0.0429659699245401,1
261,11,16,0.0435463720939125,1
261,35,16,0.0458526094243108,1
261,36,16,0.0739990706471654,1
262,10,16,0.0423218277583842,1
262,11,16,0.0431020087793262,1
262,36,16,0.0794890367421801,1
262,37,16,0.124178035732375,1
263,9,16,0.0420866023533397,1
263,10,16,0.0423547115195546,1
263,11,16,0.040999024127619,1
263,36,16,0.052645647271368,1
263,37,16,0.0864063267621176,1
264,9,16,0.043611596239404,1
264,10,16,0.0427957848360034,1
264,37,16,0.0518213581077708,1
264,38,16,0.0617250905455067,1
265,8,16,0.0420612285468332,1
265,9,16,0.0439204586693187,1
265,10,16,0.0424559688492487,1
265,37,16,0.0425384999528965,1
265,38,16,0.0572592086858633,1
266,8,16,0.0419387470796063,1
266,9,16,0.0430743641441956,1
266,10,16,0.0414235960893995,1
266,38,16,0.0523242060728965,1
266,39,16,0.0643954228053652,1
267,7,16,0.0416315796610574,1
267,8,16,0.0417672481545084,1
267,9,16,0.0415449880995604,1
267,38,16,0.0458200014066161,1
267,39,16,0.0544582875599164,1
268,7,16,0.042356971534709,1
268,8,16,0.041267490138332,1
268,39,16,0.048803048394948,1
268,40,16,0.0582089070635919,1
269,7,16,0.0430135329707447,1
269,8,16,0.0412908985967317,1
269,39,16,0.0438552210069901,1
269,40,16,0.0552836310368033,1
270,6,16,0.0431564464888534,1
270,7,16,0.0427881045691927,1
270,8,16,0.041050715215858,1
270,40,16,0.0517475669909583,1
271,7,16,0.0424108009865691,1
271,40,16,0.0462666842104398,1
272,40,16,0.0420268687470571,1
272,41,16,0.0523354737082597,1
254,19,17,0.0432994113709429,1
254,20,17,0.0453716479217333,1
254,21,17,0.0576410160785913,1
254,22,17,0.0849097479708957,1
254,23,17,0.0783738057712266,1
254,24,17,0.0544105460914628,1
254,25,17,0.0472499908518047,1
254,26,17,0.0487092902064482,1
255,18,17,0.0415133181503569,1
255,19,17,0.0423988196622097,1
255,20,17,0.0451911413764267,1
255,21,17,0.0780569981444951,1
255,22,17,0.131089897390554,1
255,23,17,0.119069017359252,1
255,24,17,0.0656927526050297,1
255,25,17,0.0420178151696024,1
255,26,17,0.0419859667981498,1
256,21,17,0.0632247457688407,1
256,22,17,0.104613982058464,1
256,23,17,0.0946992090682275,1
256,24,17,0.0543767377786382,1
256,30,17,0.0451581359637228,1
257,22,17,0.0519151000760663,1
257,23,17,0.0482960102103376,1
257,30,17,0.0431924742663212,1
257,31,17,0.0496344257878932,1
257,32,17,0.0534632158635849,1
258,31,17,0.0439659293091482,1
258,32,17,0.0492337867377899,1
258,33,17,0.054313165390634,1
258,34,17,0.0600679425436239,1
259,10,17,0.0416149863918973,1
259,11,17,0.0412425272436717,1
259,32,17,0.0430551134648718,1
259,33,17,0.0488997424404548,1
259,34,17,0.0563401989349684,1
259,35,17,0.0619605376266787,1
260,9,17,0.042193642185923,1
260,10,17,0.0423321248848474,1
260,11,17,0.0426536579978108,1
260,34,17,0.045443460173602,1
260,35,17,0.0520399307695721,1
260,36,17,0.0572248110389435,1
261,8,17,0.0413296108180372,1
261,9,17,0.0423248366063111,1
261,10,17,0.0430588224849578,1
261,11,17,0.0432708962515064,1
261,35,17,0.0424721295796233,1
261,36,17,0.0575195213404688,1
261,37,17,0.0796625280490589,1
262,9,17,0.0421772408558489,1
262,10,17,0.0428954093317821,1
262,11,17,0.0427769964325066,1
262,36,17,0.0565878219829533,1
262,37,17,0.085887896587243,1
263,8,17,0.0412976813455624,1
263,9,17,0.0432468173579891,1
263,10,17,0.0427088310232734,1
263,37,17,0.0650552066553532,1
263,38,17,0.0695501713415891,1
264,7,17,0.0410132384334587,1
264,8,17,0.0426532524926994,1
264,9,17,0.0441169258958116,1
264,10,17,0.0425795695105832,1
264,37,17,0.044961557899166,1
264,38,17,0.0572192961694279,1
265,6,17,0.0414574800965115,1
265,7,17,0.0424935429528748,1
265,8,17,0.0434924101770494,1
265,9,17,0.0438380762508784,1
265,10,17,0.0414461583938001,1
265,38,17,0.0536943754040453,1
265,39,17,0.067979341861095,1
266,6,17,0.0415942326402937,1
266,7,17,0.0424482534386617,1
266,8,17,0.0430895030016894,1
266,9,17,0.0428855744811459,1
266,38,17,0.0484735565683307,1
266,39,17,0.0609709862065977,1
267,6,17,0.0428217885271163,1
267,7,17,0.0432771031830789,1
267,8,17,0.0427736821040624,1
267,9,17,0.0411169152769844,1
267,38,17,0.0420087156349016,1
267,39,17,0.0521169064531932,1
267,40,17,0.0619153265101205,1
268,5,17,0.0458155084099814,1
268,6,17,0.0442075698050556,1
268,7,17,0.0438042327942775,1
268,8,17,0.0415657229275921,1
268,39,17,0.0460900624041007,1
268,40,17,0.0566000303901751,1
269,5,17,0.0459541262772762,1
269,6,17,0.0444479316081783,1
269,7,17,0.043707909110106,1
269,39,17,0.0415918374567688,1
269,40,17,0.0541381656047407,1
270,5,17,0.044637321418793,1
270,6,17,0.0435085898309958,1
270,7,17,0.0428028946922906,1
270,40,17,0.0501834851155186,1
271,6,17,0.0427920677058151,1
271,7,17,0.041982641656236,1
271,40,17,0.0449024406606528,1
271,41,17,0.0567240122263143,1
272,6,17,0.0426611841726792,1
272,41,17,0.0514784575788019,1
273,6,17,0.044150528752713,1
273,41,17,0.0467510573626882,1
274,6,17,0.0445895339930934,1
274,41,17,0.0410045146668279,1
275,6,17,0.0419105293305848,1
253,21,18,0.049794816576305,1
253,22,18,0.0530758341272583,1
253,23,18,0.0535465552740882,1
253,24,18,0.0525820586631593,1
254,17,18,0.0422379963350124,1
254,18,18,0.0428628310511289,1
254,19,18,0.0447717815070118,1
254,20,18,0.0474788363097625,1
254,21,18,0.0561190040067798,1
254,22,18,0.0765048813732103,1
254,23,18,0.072588545447326,1
254,24,18,0.0547321548987137,1
254,25,18,0.0489896402202937,1
254,26,18,0.0483558952051951,1
255,16,18,0.0430337298286619,1
255,17,18,0.0438679754944286,1
255,18,18,0.0435390865187436,1
255,19,18,0.0434899149689303,1
255,20,18,0.0468603491003237,1
255,21,18,0.0717107242022839,1
255,22,18,0.115515851811174,1
255,23,18,0.110173976182857,1
255,24,18,0.0663919299249104,1
255,25,18,0.0436728491381708,1
255,26,18,0.0411810526687773,1
255,29,18,0.0445531223374534,1
256,16,18,0.0426946410477404,1
256,17,18,0.04297860816718,1
256,18,18,0.0415632898969234,1
256,21,18,0.0575628076594314,1
256,22,18,0.0940876100389484,1
256,23,18,0.0917000500101344,1
256,24,18,0.0568382889734531,1
256,29,18,0.041104471676798,1
256,30,18,0.0462918363408188,1
256,31,18,0.0510229347635488,1
257,16,18,0.0411539568172308,1
257,22,18,0.0494877843261266,1
257,23,18,0.049567712086959,1
257,30,18,0.0427161949960972,1
257,31,18,0.0496104090718263,1
257,32,18,0.0548030371921935,1
257,33,18,0.0585075264343916,1
258,10,18,0.0427989558859748,1
258,11,18,0.0411892060248846,1
258,12,18,0.0415921510473883,1
258,13,18,0.0413558686256867,1
258,31,18,0.0435284460646194,1
258,32,18,0.0498601840002692,1
258,33,18,0.0556974408929262,1
258,34,18,0.0614904761014968,1
259,9,18,0.0435477345910869,1
259,10,18,0.0430725664048682,1
259,11,18,0.0426800834142397,1
259,12,18,0.0425588292758168,1
259,32,18,0.0430956801962204,1
259,33,18,0.0488548881683946,1
259,34,18,0.0549126641473878,1
259,35,18,0.0599542172834367,1
260,8,18,0.0433108952756989,1
260,9,18,0.0425643306284953,1
260,10,18,0.0430630370347494,1
260,11,18,0.0437739902230663,1
260,12,18,0.0424072622786299,1
260,34,18,0.0443350660188274,1
260,35,18,0.0503799334184397,1
260,36,18,0.0559024696840053,1
261,7,18,0.0422976893907838,1
261,8,18,0.0422935937891583,1
261,9,18,0.0426039511812504,1
261,10,18,0.0430394447473658,1
261,11,18,0.0435247721883097,1
261,12,18,0.0410490661617382,1
261,35,18,0.0413827941650864,1
261,36,18,0.0509606816188404,1
261,37,18,0.0673402279583209,1
262,8,18,0.0419246787556067,1
262,9,18,0.0433445792336226,1
262,10,18,0.0431399992015334,1
262,11,18,0.0422980192016078,1
262,36,18,0.0458893211537332,1
262,37,18,0.0670645493633591,1
262,38,18,0.0738343706911027,1
263,7,18,0.0416649338081571,1
263,8,18,0.0430382444522359,1
263,9,18,0.0440230568692479,1
263,10,18,0.0424344689682402,1
263,37,18,0.0534073156322891,1
263,38,18,0.0647782628844437,1
264,6,18,0.0417460753809564,1
264,7,18,0.0442539704032741,1
264,8,18,0.0448500683238266,1
264,9,18,0.0440509312906084,1
264,38,18,0.0554776138686468,1
264,39,18,0.0690804342204963,1
265,6,18,0.0424310816488759,1
265,7,18,0.0454042667528976,1
265,8,18,0.0455677664138304,1
265,9,18,0.042981287204283,1
265,38,18,0.0515457498003617,1
265,39,18,0.066555586381153,1
266,5,18,0.0423044721396145,1
266,6,18,0.0419114079249929,1
266,7,18,0.0441633102738256,1
266,8,18,0.0441473658128438,1
266,9,18,0.0411978135467168,1
266,38,18,0.0458425366773426,1
266,39,18,0.0595720584529454,1
266,40,18,0.0700609780203686,1
267,5,18,0.0440823795636843,1
267,6,18,0.0434354664459335,1
267,7,18,0.0443218708825011,1
267,8,18,0.0428800704251,1
267,39,18,0.0516185298577631,1
267,40,18,0.0623840904189458,1
268,4,18,0.0442597529061632,1
268,5,18,0.0471517558868745,1
268,6,18,0.0465245908680508,1
268,7,18,0.0452368228789141,1
268,8,18,0.041213555255143,1
268,39,18,0.0451875837449156,1
268,40,18,0.056763167799875,1
269,4,18,0.0448041759586811,1
269,7,18,0.0450825389974806,1
269,40,18,0.0538084953558743,1
270,7,18,0.0435311223983549,1
270,40,18,0.0490133865996197,1
270,41,18,0.0615381364689281,1
271,5,18,0.0448545153632154,1
271,6,18,0.0439154114823649,1
271,7,18,0.0420963777298929,1
271,40,18,0.0434687367886435,1
271,41,18,0.05579840625894,1
272,5,18,0.0433904013112154,1
272,6,18,0.0430584304966834,1
272,41,18,0.0509641203021854,1
273,5,18,0.043833645431694,1
273,6,18,0.0432055288275422,1
273,41,18,0.0461461518711152,1
274,5,18,0.0447650284952227,1
274,6,18,0.0419317967219962,1
274,41,18,0.0413813424567874,1
275,5,18,0.0437626063429045,1
276,5,18,0.041434020274131,1
276,42,18,0.0439729715812502,1
277,42,18,0.0467110637452305,1
278,42,18,0.050898758284956,1
279,42,18,0.0522265874757357,1
280,42,18,0.0563093697330293,1
281,42,18,0.0571943008343587,1
282,42,18,0.053002302533717,1
283,42,18,0.0510705572838364,1
284,42,18,0.0517816726741979,1
253,19,19,0.047651976178878,1
253,20,19,0.0509167951523129,1
253,21,19,0.0518011315128122,1
253,22,19,0.0537154238226965,1
253,23,19,0.0539980284449616,1
253,24,19,0.0541124511739405,1
253,25,19,0.0551668023108298,1
253,26,19,0.0546267343832088,1
254,16,19,0.0439249219289119,1
254,17,19,0.0456997664377066,1
254,18,19,0.0464048533187447,1
254,19,19,0.0479066171686582,1
254,20,19,0.0512674002783993,1
254,21,19,0.0564421753603935,1
254,22,19,0.0682555773497432,1
254,23,19,0.0682714893703161,1
254,24,19,0.0559598892077853,1
254,25,19,0.0503807119882536,1
254,26,19,0.0474916827116929,1
254,27,19,0.044266173403761,1
255,15,19,0.041129861703509,1
255,16,19,0.0455862412267077,1
255,17,19,0.0473078915749836,1
255,18,19,0.046157462760357,1
255,19,19,0.0457586890337663,1
255,20,19,0.0497993095729398,1
255,21,19,0.0649712454703457,1
255,22,19,0.0934516915164524,1
255,23,19,0.0957368588012603,1
255,24,19,0.0651011368676424,1
255,25,19,0.0452492637757331,1
255,29,19,0.0451194183356824,1
255,30,19,0.0498009910674685,1
256,15,19,0.0409979157469811,1
256,16,19,0.0443270667546624,1
256,17,19,0.0452137847818495,1
256,18,19,0.043207375227483,1
256,19,19,0.0415845924321111,1
256,20,19,0.043074399287972,1
256,21,19,0.0546390401116573,1
256,22,19,0.081434563759115,1
256,23,19,0.0860541915300774,1
256,24,19,0.0581965202341211,1
256,29,19,0.0414016690763402,1
256,30,19,0.046902116126802,1
256,31,19,0.0516972897638745,1
256,32,19,0.056086012110913,1
257,10,19,0.045488141430148,1
257,11,19,0.0425420251439987,1
257,12,19,0.0410526832673322,1
257,16,19,0.0416642471528351,1
257,22,19,0.0477238587182993,1
257,23,19,0.0503745483105597,1
257,30,19,0.0424251234271051,1
257,31,19,0.049361839845248,1
257,32,19,0.0560130049706492,1
257,33,19,0.0604319401518574,1
257,34,19,0.0646684899474093,1
258,9,19,0.046267457373519,1
258,10,19,0.0444832538067522,1
258,11,19,0.0431522887097775,1
258,12,19,0.0431201321544402,1
258,13,19,0.0426746199087049,1
258,31,19,0.0439109265958324,1
258,32,19,0.0512321699943173,1
258,33,19,0.0570768124867373,1
258,34,19,0.0624551024740613,1
258,35,19,0.0653401523937951,1
259,8,19,0.0468833006896312,1
259,9,19,0.0447875178087031,1
259,10,19,0.0447056355132337,1
259,11,19,0.0440367575352798,1
259,12,19,0.0433379100262231,1
259,32,19,0.0436861713327653,1
259,33,19,0.0491506203428008,1
259,34,19,0.0540060141922896,1
259,35,19,0.0587321221987815,1
259,36,19,0.0627279857871215,1
260,8,19,0.0447775423829617,1
260,9,19,0.0439705304404793,1
260,10,19,0.0444944646713998,1
260,11,19,0.0446400842602856,1
260,12,19,0.0430225892515669,1
260,34,19,0.0443082459107567,1
260,35,19,0.0506171917557761,1
260,36,19,0.058071159680603,1
260,37,19,0.0661756821590814,1
261,7,19,0.0452854645687151,1
261,8,19,0.044333822469819,1
261,9,19,0.0444044452400275,1
261,10,19,0.0441037091325461,1
261,11,19,0.0435925537193707,1
261,35,19,0.0421034308154645,1
261,36,19,0.0516869845273091,1
261,37,19,0.0655098373593611,1
262,6,19,0.0439099155364212,1
262,7,19,0.0444145233937305,1
262,8,19,0.0448054762784051,1
262,9,19,0.0461688439371514,1
262,10,19,0.0445587561551351,1
262,11,19,0.0415623058711863,1
262,36,19,0.0446196251757297,1
262,37,19,0.0622320097819511,1
262,38,19,0.0732118446507539,1
263,6,19,0.04366053529962,1
263,7,19,0.0453984923601107,1
263,8,19,0.0459014430531979,1
263,9,19,0.0465918073953232,1
263,10,19,0.0433860056358074,1
263,37,19,0.0516761169903225,1
263,38,19,0.0654767265153283,1
263,39,19,0.0734781479675392,1
264,6,19,0.0450621880476211,1
264,7,19,0.0483253904073451,1
264,8,19,0.0477005340642893,1
264,9,19,0.0451476955587869,1
264,37,19,0.041029634356798,1
264,38,19,0.0563157280531767,1
264,39,19,0.0689045909839712,1
265,5,19,0.0444293054067262,1
265,6,19,0.0453306486515993,1
265,7,19,0.0488399709870284,1
265,8,19,0.047546198818875,1
265,9,19,0.0420567058131569,1
265,38,19,0.0505950890238352,1
265,39,19,0.0650664202233682,1
266,5,19,0.0444025826198822,1
266,6,19,0.0438323748490115,1
266,7,19,0.0458687539344809,1
266,8,19,0.0444724457438486,1
266,38,19,0.044823948387915,1
266,39,19,0.0591655747225026,1
266,40,19,0.0697697064021882,1
267,5,19,0.0459611279988671,1
267,6,19,0.0454063699727423,1
267,7,19,0.0452640160516873,1
267,8,19,0.0422947346102051,1
267,39,19,0.0522710632763585,1
267,40,19,0.0635680950567997,1
268,4,19,0.0459750935949051,1
268,7,19,0.0466651659733502,1
268,39,19,0.0452049474737875,1
268,40,19,0.0578502675295642,1
269,40,19,0.0544061233823806,1
269,41,19,0.0680929103259725,1
270,40,19,0.0494165722218228,1
270,41,19,0.0618887145613404,1
271,40,19,0.0441037307594853,1
271,41,19,0.0565240333255563,1
272,41,19,0.0520222885938571,1
273,41,19,0.0477835977313168,1
274,41,19,0.0436758985366088,1
274,42,19,0.0530271681071506,1
275,42,19,0.0483458224582269,1
276,42,19,0.0456934567781726,1
277,42,19,0.0473237116810646,1
278,42,19,0.0517012799341711,1
279,42,19,0.0554854698543391,1
280,42,19,0.0604293881730228,1
281,42,19,0.0611441260757131,1
282,42,19,0.0548885717370334,1
283,42,19,0.0511980913447518,1
284,42,19,0.0514739321417582,1
285,42,19,0.051235678965215,1
288,41,19,0.0410510206963753,1
291,40,19,0.0420677896195363,1
253,17,20,0.0461890867523145,1
253,18,20,0.0481979536676564,1
253,19,20,0.0513739724284207,1
253,20,20,0.0544021710592278,1
253,21,20,0.0544476200721181,1
253,22,20,0.0551699274035553,1
253,23,20,0.054854758017474,1
253,24,20,0.0546014470844593,1
253,25,20,0.0556564848766707,1
253,26,20,0.0554100999709593,1
253,27,20,0.05317865941005,1
254,15,20,0.0428382871784171,1
254,16,20,0.0471569571657706,1
254,17,20,0.0497191385090405,1
254,18,20,0.0510955796525797,1
254,19,20,0.0525458551668099,1
254,20,20,0.0554626101795235,1
254,21,20,0.0577094112740542,1
254,22,20,0.0640546200895061,1
254,23,20,0.0656661622831888,1
254,24,20,0.0564244358634517,1
254,25,20,0.0502607906099636,1
254,26,20,0.0468725250671365,1
254,27,20,0.0442646568146442,1
254,28,20,0.0444276482425041,1
254,29,20,0.0490425505272345,1
255,12,20,0.0420301857788687,1
255,15,20,0.04276754816341,1
255,16,20,0.0489662777191399,1
255,17,20,0.0515482152714393,1
255,18,20,0.0501393877863331,1
255,19,20,0.0493087943699368,1
255,20,20,0.0525857839034497,1
255,21,20,0.0602236835400912,1
255,22,20,0.0774784072312872,1
255,23,20,0.0832883276726983,1
255,24,20,0.0624053659204594,1
255,25,20,0.0452539243811473,1
255,29,20,0.0450810197049964,1
255,30,20,0.0513415266127706,1
255,31,20,0.0554624966380923,1
256,11,20,0.0459893890017671,1
256,12,20,0.0416467455522253,1
256,15,20,0.0411367336634642,1
256,16,20,0.0458118913043873,1
256,17,20,0.047456360513119,1
256,18,20,0.0450538373456929,1
256,19,20,0.0431827529571163,1
256,20,20,0.0445270483587878,1
256,21,20,0.0518089334311563,1
256,22,20,0.0704365892949938,1
256,23,20,0.0777995294324044,1
256,24,20,0.0562612065392598,1
256,30,20,0.0470785649176269,1
256,31,20,0.0527308249717098,1
256,32,20,0.05720727159119,1
257,10,20,0.047997207010554,1
257,11,20,0.0449467758861703,1
257,12,20,0.0426027779197947,1
257,13,20,0.0416701053500117,1
257,22,20,0.0442303375653793,1
257,23,20,0.047448526154366,1
257,30,20,0.0420538240234983,1
257,31,20,0.0495239067214538,1
257,32,20,0.0562406717604164,1
257,33,20,0.0612268166780381,1
257,34,20,0.0674510660221147,1
258,9,20,0.0473695553855966,1
258,10,20,0.0458961282328706,1
258,11,20,0.0446863118429898,1
258,12,20,0.0440505230821295,1
258,13,20,0.0429892513246717,1
258,31,20,0.0440154522967247,1
258,32,20,0.0514660166819829,1
258,33,20,0.0577873493564731,1
258,34,20,0.0640738356250536,1
258,35,20,0.0677954047425456,1
259,8,20,0.048247668594319,1
259,9,20,0.045602499278309,1
259,10,20,0.0459323966100378,1
259,11,20,0.0448805839351462,1
259,12,20,0.0435218525515074,1
259,32,20,0.0426575211098392,1
259,33,20,0.0487195846295439,1
259,34,20,0.0536236499058752,1
259,35,20,0.058570136423598,1
259,36,20,0.065439382197932,1
260,7,20,0.0494991006221032,1
260,8,20,0.0461487741375025,1
260,9,20,0.0451196832656886,1
260,10,20,0.0457318067482452,1
260,11,20,0.0449732202261711,1
260,12,20,0.0427516172192652,1
260,34,20,0.0436060624463165,1
260,35,20,0.0500336915273524,1
260,36,20,0.0597689014475083,1
260,37,20,0.0678869840169133,1
261,7,20,0.0477176085328483,1
261,8,20,0.0461949098057148,1
261,9,20,0.0457543798661154,1
261,10,20,0.0447795672051515,1
261,11,20,0.042785255219943,1
261,35,20,0.0411719936845877,1
261,36,20,0.05117033316819,1
261,37,20,0.0635011002056549,1
261,38,20,0.0734927731852251,1
262,6,20,0.0469791350643016,1
262,7,20,0.0471758374837593,1
262,8,20,0.0470319858971594,1
262,9,20,0.0474631297451127,1
262,10,20,0.044805660107389,1
262,36,20,0.0422214328028937,1
262,37,20,0.0572642423559799,1
262,38,20,0.0706231378664609,1
263,6,20,0.0468668696225156,1
263,7,20,0.0482987838652998,1
263,8,20,0.0481181935156034,1
263,9,20,0.0472921633833945,1
263,10,20,0.0428024837804444,1
263,37,20,0.0486691830475593,1
263,38,20,0.0638195676999759,1
263,39,20,0.0728793142391682,1
264,5,20,0.0468778182605245,1
264,6,20,0.0483584201503557,1
264,7,20,0.0511873265357268,1
264,8,20,0.0496161672444087,1
264,9,20,0.0444191164149594,1
264,38,20,0.0542198938082678,1
264,39,20,0.0670750222087039,1
265,5,20,0.0468967796795355,1
265,6,20,0.048519065055304,1
265,7,20,0.0512278283862575,1
265,8,20,0.0484411161594155,1
265,38,20,0.0479138513798463,1
265,39,20,0.0632314879671603,1
265,40,20,0.0753280893196052,1
266,5,20,0.045988615838688,1
266,6,20,0.0460672946437771,1
266,7,20,0.0468751581469935,1
266,8,20,0.0435399705198865,1
266,38,20,0.042812870118032,1
266,39,20,0.0587742568832276,1
266,40,20,0.0710767412908532,1
267,4,20,0.0454857138062141,1
267,7,20,0.0451126734339955,1
267,39,20,0.0525310893740186,1
267,40,20,0.0649009092570826,1
268,39,20,0.0440874240472706,1
268,40,20,0.0576276884772619,1
269,40,20,0.0526996227050682,1
269,41,20,0.0675498092201179,1
270,40,20,0.0477437663159037,1
270,41,20,0.0610522548376652,1
271,40,20,0.0432378692118633,1
271,41,20,0.0568203602407926,1
272,41,20,0.0532033249342952,1
273,41,20,0.049943507190568,1
274,41,20,0.0472165718238872,1
274,42,20,0.0575054746434085,1
275,41,20,0.0431061503381978,1
275,42,20,0.0528615111590249,1
276,42,20,0.0486042806027895,1
277,42,20,0.0489135999017964,1
278,42,20,0.0556555549182817,1
279,41,20,0.0425883635647667,1
279,42,20,0.0654874805108837,1
280,41,20,0.0438410959122749,1
280,42,20,0.0729203081025674,1
281,41,20,0.0432442383454803,1
281,42,20,0.0709846537834124,1
282,42,20,0.0602239430633625,1
283,42,20,0.0531241433028679,1
284,42,20,0.0520595464034962,1
285,42,20,0.0515721725134232,1
286,42,20,0.0515451280258575,1
287,42,20,0.0515103194670915,1
289,41,20,0.0468962984801366,1
290,41,20,0.0521276226016049,1
291,40,20,0.0443741242711613,1
291,41,20,0.0602300040130949,1
292,40,20,0.065620161783347,1
293,39,20,0.0442330598563608,1
293,40,20,0.0864879252040091,1
294,39,20,0.0596260555135849,1
252,18,21,0.0485809883891884,1
252,19,21,0.0523400315857123,1
252,20,21,0.0562524746625268,1
252,21,21,0.0570569697699508,1
252,22,21,0.0552177283460919,1
252,23,21,0.0548797966064218,1
252,24,21,0.0579725732779095,1
253,15,21,0.0464907825552263,1
253,16,21,0.0478695053408592,1
253,17,21,0.049410916777202,1
253,18,21,0.0504426623558121,1
253,19,21,0.0532963099597159,1
253,20,21,0.0563300234600387,1
253,21,21,0.0570280978060162,1
253,22,21,0.0562404230506147,1
253,23,21,0.0560257324244136,1
253,24,21,0.0556400970634336,1
253,25,21,0.0559521900174028,1
253,26,21,0.055701333741996,1
253,27,21,0.0553083560351315,1
254,13,21,0.0445629031207414,1
254,14,21,0.0432654678897479,1
254,15,21,0.0452295048633363,1
254,16,21,0.0494092028422643,1
254,17,21,0.0528400626419971,1
254,18,21,0.0531448240635514,1
254,19,21,0.0550927732976852,1
254,20,21,0.0578024828072321,1
254,21,21,0.0594810739194078,1
254,22,21,0.0613204451049023,1
254,23,21,0.0621494543479967,1
254,24,21,0.0554809930779088,1
254,25,21,0.0492762998936733,1
254,26,21,0.0457943734835731,1
254,27,21,0.0441495339135063,1
254,28,21,0.0446284084164435,1
254,29,21,0.0496735272941057,1
254,30,21,0.0562379359525979,1
255,11,21,0.050594678111989,1
255,12,21,0.0448952091528321,1
255,13,21,0.0419649183794986,1
255,14,21,0.0413700234574434,1
255,15,21,0.0445908370161848,1
255,16,21,0.0514411240748752,1
255,17,21,0.0553648834476663,1
255,18,21,0.0526288918001633,1
255,19,21,0.0525826696241939,1
255,20,21,0.0552474762010672,1
255,21,21,0.0596735807126457,1
255,22,21,0.0679960648918908,1
255,23,21,0.0719938532778265,1
255,24,21,0.0581973042106699,1
255,25,21,0.0441979214867708,1
255,29,21,0.0442967701161029,1
255,30,21,0.0514741592246206,1
255,31,21,0.0570607382641198,1
255,32,21,0.0601498707963394,1
256,10,21,0.0533965346030596,1
256,11,21,0.0486692965889905,1
256,12,21,0.0440151630364119,1
256,13,21,0.0413753436845055,1
256,15,21,0.0410932337784763,1
256,16,21,0.046379274056315,1
256,17,21,0.0493897169699758,1
256,18,21,0.045955537435064,1
256,19,21,0.0450605579170731,1
256,20,21,0.0466890042671681,1
256,21,21,0.0517087358214867,1
256,22,21,0.0622011913934817,1
256,23,21,0.0669164480831914,1
256,24,21,0.0511902191388551,1
256,30,21,0.0461109053668288,1
256,31,21,0.0529756905849369,1
256,32,21,0.0574722772916186,1
256,33,21,0.0611583025344091,1
257,9,21,0.0542415531879536,1
257,10,21,0.0504655220306277,1
257,11,21,0.0476333121302821,1
257,12,21,0.0446794696200761,1
257,13,21,0.0424941863543183,1
257,22,21,0.0430808603360809,1
257,23,21,0.0447016615631415,1
257,31,21,0.0485945701070542,1
257,32,21,0.0550571050680829,1
257,33,21,0.0603732987060083,1
257,34,21,0.0681031074278415,1
258,8,21,0.0544073669313891,1
258,9,21,0.0489650125431922,1
258,10,21,0.0479303257008404,1
258,11,21,0.0465094195701481,1
258,12,21,0.0445645413613916,1
258,13,21,0.0421441327151835,1
258,31,21,0.0421871541041399,1
258,32,21,0.0501920980440856,1
258,33,21,0.0571691757376538,1
258,34,21,0.0642711868526895,1
258,35,21,0.0689368259369634,1
259,7,21,0.0563776459803262,1
259,8,21,0.0506577855207988,1
259,9,21,0.0471130815127127,1
259,10,21,0.0472717313325127,1
259,11,21,0.0453507319680852,1
259,12,21,0.042440289318273,1
259,33,21,0.0480007105747169,1
259,34,21,0.0539778667308208,1
259,35,21,0.0594237841572635,1
259,36,21,0.0693864500045287,1
260,7,21,0.0518768528339552,1
260,8,21,0.0477155377534126,1
260,9,21,0.0457925189735301,1
260,10,21,0.0456239640155413,1
260,11,21,0.0433324032668097,1
260,34,21,0.0438236700059526,1
260,35,21,0.0512219404520394,1
260,36,21,0.0642723114535319,1
260,37,21,0.0746849149589819,1
261,6,21,0.0511973668422861,1
261,7,21,0.0498058030614576,1
261,8,21,0.0476426765949889,1
261,9,21,0.0461001513712734,1
261,10,21,0.0441963373134687,1
261,35,21,0.0410942042873763,1
261,36,21,0.052812520734828,1
261,37,21,0.065382200570484,1
261,38,21,0.0734080172101992,1
262,6,21,0.0502068043627938,1
262,7,21,0.0498496084269628,1
262,8,21,0.0485704831034346,1
262,9,21,0.0467341018422952,1
262,10,21,0.0427906835817014,1
262,36,21,0.0412113601208064,1
262,37,21,0.0550283196119054,1
262,38,21,0.0681029506325317,1
263,5,21,0.0511213968113414,1
263,6,21,0.0511479817264474,1
263,7,21,0.051135940928005,1
263,8,21,0.0494633026308653,1
263,9,21,0.045773741383503,1
263,37,21,0.0471445378958909,1
263,38,21,0.0618041910759117,1
263,39,21,0.0715860178636788,1
264,5,21,0.0515764222069911,1
264,6,21,0.0523080723761959,1
264,7,21,0.0523178585662187,1
264,8,21,0.0488988016685962,1
264,9,21,0.0414366046933746,1
264,38,21,0.0531857314191935,1
264,39,21,0.0655981347456936,1
265,5,21,0.0509122967489433,1
265,6,21,0.0513139036045793,1
265,7,21,0.0504189916707736,1
265,8,21,0.04522393862984,1
265,38,21,0.0465273266758694,1
265,39,21,0.0617324869587393,1
265,40,21,0.0752336012219048,1
266,4,21,0.0483541866769922,1
266,5,21,0.0488683076842159,1
266,6,21,0.0479355540134106,1
266,7,21,0.0460285932359412,1
266,38,21,0.0413146395693229,1
266,39,21,0.0580321392754128,1
266,40,21,0.0717470682737386,1
267,6,21,0.0482026521202143,1
267,7,21,0.0442149932519624,1
267,39,21,0.0521450593213968,1
267,40,21,0.0657683874184156,1
268,7,21,0.0437531310401338,1
268,39,21,0.0428401254682557,1
268,40,21,0.0573153522202259,1
269,40,21,0.0517245397073633,1
269,41,21,0.0677037443671555,1
270,40,21,0.0471147900409156,1
270,41,21,0.0621983582644364,1
271,40,21,0.0436055920603873,1
271,41,21,0.0589713053337136,1
272,41,21,0.0561434100077537,1
273,41,21,0.0538480942816902,1
274,41,21,0.0530076389809836,1
274,42,21,0.0636573386217255,1
275,41,21,0.0498455047152351,1
275,42,21,0.0608927831941726,1
276,41,21,0.0444101033880158,1
276,42,21,0.0554529375309319,1
277,41,21,0.0423849838278073,1
277,42,21,0.054625382699504,1
278,41,21,0.0449943091953334,1
278,42,21,0.0638519432280733,1
279,41,21,0.0499940006870446,1
279,42,21,0.0817154165992987,1
280,41,21,0.0527208062920898,1
280,42,21,0.0913513480547044,1
281,41,21,0.0516831078984437,1
281,42,21,0.084705481529426,1
282,41,21,0.0461316618217997,1
282,42,21,0.0684873045973596,1
283,41,21,0.0413417273107671,1
283,42,21,0.0583629881924697,1
284,42,21,0.0549475213667672,1
285,42,21,0.0531929872573209,1
286,42,21,0.0522460517210848,1
287,42,21,0.0517601268359433,1
288,42,21,0.0546960433168562,1
289,41,21,0.0453540003392834,1
289,42,21,0.0592667455444396,1
290,41,21,0.0514077320806318,1
291,40,21,0.0456678883292125,1
291,41,21,0.0609274133306897,1
292,40,21,0.0765031998786815,1
292,41,21,0.113478226473329,1
293,39,21,0.0479165493405211,1
293,40,21,0.11826193242585,1
293,41,21,0.185154174557255,1
294,39,21,0.0599194465718144,1
294,40,21,0.125641509086299,1
251,19,22,0.0540058195498361,1
251,20,22,0.0588319791841575,1
251,21,22,0.0615770325192175,1
252,15,22,0.0502539078365387,1
252,16,22,0.0494516727442691,1
252,17,22,0.0495941996808383,1
252,18,22,0.0509316961134746,1
252,19,22,0.054239087716876,1
252,20,22,0.0590592675024873,1
252,21,22,0.0606901874337621,1
252,22,22,0.0581635715921329,1
252,23,22,0.0586251121032397,1
253,13,22,0.0527876065007811,1
253,14,22,0.049658626332944,1
253,15,22,0.0490615335731847,1
253,16,22,0.0494683092673078,1
253,17,22,0.0507850059910947,1
253,18,22,0.0514148635638583,1
253,19,22,0.0543450921597414,1
253,20,22,0.0578346799130805,1
253,21,22,0.0594236652090975,1
253,22,22,0.0576524675429383,1
253,23,22,0.0575360659490156,1
253,24,22,0.0567829456358437,1
253,25,22,0.0559690968771824,1
253,26,22,0.0559585104904064,1
253,27,22,0.0577963731968864,1
254,12,22,0.0522431428977521,1
254,13,22,0.0485688502695192,1
254,14,22,0.046481612732973,1
254,15,22,0.0476978901709627,1
254,16,22,0.050254199800219,1
254,17,22,0.0533495068236021,1
254,18,22,0.0528808456427384,1
254,19,22,0.0558052187448122,1
254,20,22,0.0581166952012503,1
254,21,22,0.060157656494479,1
254,22,22,0.0598906448954325,1
254,23,22,0.0592579487868887,1
254,24,22,0.0539116612629596,1
254,25,22,0.0482713392793575,1
254,26,22,0.0453662411869141,1
254,27,22,0.0444606266215338,1
254,28,22,0.0448689297182434,1
254,29,22,0.0498974364031736,1
254,30,22,0.058708570461909,1
255,11,22,0.0538421901272676,1
255,12,22,0.0485520947983145,1
255,13,22,0.0446744629836335,1
255,14,22,0.0434565391948913,1
255,15,22,0.0463218166853913,1
255,16,22,0.0514661518503533,1
255,17,22,0.0554918660216302,1
255,18,22,0.0523097700909292,1
255,19,22,0.053767863743708,1
255,20,22,0.0552202586979873,1
255,21,22,0.0583580788772539,1
255,22,22,0.0617849430999553,1
255,23,22,0.0625321322250306,1
255,24,22,0.0529552585340551,1
255,25,22,0.0424861897935207,1
255,29,22,0.0433785281215524,1
255,30,22,0.0522417047062902,1
255,31,22,0.0602320856060002,1
255,32,22,0.0633993454563574,1
256,10,22,0.0560533986864835,1
256,11,22,0.052160306313587,1
256,12,22,0.0470783648684386,1
256,13,22,0.0427959254111087,1
256,15,22,0.0414349718594592,1
256,16,22,0.0458486787280972,1
256,17,22,0.049621244168404,1
256,18,22,0.0460735880831066,1
256,19,22,0.0463447196140854,1
256,20,22,0.0466802237298217,1
256,21,22,0.0496983766473348,1
256,22,22,0.0545956132175894,1
256,23,22,0.0556731754670575,1
256,24,22,0.044634866761185,1
256,30,22,0.0462101676113746,1
256,31,22,0.0550097853249452,1
256,32,22,0.0591896779463266,1
256,33,22,0.0629953758576055,1
256,34,22,0.0709145122126029,1
257,9,22,0.0578280891033359,1
257,10,22,0.052750467639308,1
257,11,22,0.0506156129892089,1
257,12,22,0.0466709998402202,1
257,13,22,0.0427143945534024,1
257,31,22,0.049071303543003,1
257,32,22,0.0550157813938597,1
257,33,22,0.0614170904897957,1
257,34,22,0.0714157705976916,1
257,35,22,0.0771240390177667,1
258,8,22,0.0574129545971823,1
258,9,22,0.0512658809859151,1
258,10,22,0.0497846140677011,1
258,11,22,0.0482049878296562,1
258,12,22,0.0444518109404111,1
258,32,22,0.0482131790329073,1
258,33,22,0.0566621699934522,1
258,34,22,0.0654769157510469,1
258,35,22,0.0702657689151157,1
258,36,22,0.07310041184613,1
259,7,22,0.059354896948932,1
259,8,22,0.0532138464402534,1
259,9,22,0.0485689259638067,1
259,10,22,0.0473646785107897,1
259,11,22,0.0447914674284886,1
259,33,22,0.0461330946065268,1
259,34,22,0.0539588242107876,1
259,35,22,0.060428815059132,1
259,36,22,0.072440330625727,1
259,37,22,0.0811043690569712,1
260,6,22,0.0558937269938027,1
260,7,22,0.0531880346882265,1
260,8,22,0.0486582560364897,1
260,9,22,0.045898626144357,1
260,10,22,0.0443341874244193,1
260,34,22,0.0435155780357497,1
260,35,22,0.0527165944456656,1
260,36,22,0.0687020546976437,1
260,37,22,0.0822051099786092,1
260,38,22,0.079721320883483,1
261,6,22,0.0530136566768374,1
261,7,22,0.0508401006189024,1
261,8,22,0.0476969061452256,1
261,9,22,0.0451404748644359,1
261,10,22,0.0423106871812892,1
261,36,22,0.0544403209801121,1
261,37,22,0.0689672063799125,1
261,38,22,0.0747976453799624,1
262,5,22,0.0531331022624633,1
262,6,22,0.053692082948482,1
262,7,22,0.0524253444544246,1
262,8,22,0.0492647132609558,1
262,9,22,0.0449015323292032,1
262,36,22,0.0410655810332435,1
262,37,22,0.055399313534995,1
262,38,22,0.06842120185746,1
262,39,22,0.0776150462336382,1
263,5,22,0.0548511300984104,1
263,6,22,0.0558061432964663,1
263,7,22,0.0536884225890093,1
263,8,22,0.0497395164925741,1
263,9,22,0.0426532362724949,1
263,37,22,0.046092836059063,1
263,38,22,0.0612466972419683,1
263,39,22,0.0729327868465301,1
264,5,22,0.0567688016175566,1
264,6,22,0.0571618063580952,1
264,7,22,0.053012802412736,1
264,8,22,0.0467688995875916,1
264,38,22,0.0538234720113235,1
264,39,22,0.0673837143264718,1
265,5,22,0.0553230569471049,1
265,6,22,0.0542739233093162,1
265,7,22,0.0483817556178354,1
265,38,22,0.046203755223879,1
265,39,22,0.0617307892440061,1
265,40,22,0.0758635939630389,1
266,4,22,0.0507029587902132,1
266,5,22,0.0519408685742146,1
266,6,22,0.0497280812484315,1
266,7,22,0.0440741667334939,1
266,39,22,0.0571294470502023,1
266,40,22,0.0714713302046938,1
267,6,22,0.0486095251355641,1
267,7,22,0.0418648099809536,1
267,39,22,0.0511754209056549,1
267,40,22,0.0657846670969563,1
268,7,22,0.0412007169633147,1
268,39,22,0.0422869678356373,1
268,40,22,0.0574707904395433,1
268,41,22,0.0700083867107822,1
269,40,22,0.0513624128293772,1
269,41,22,0.0676213078813671,1
270,40,22,0.0474110034147207,1
270,41,22,0.0647639134102335,1
271,40,22,0.0447314851124043,1
271,41,22,0.0630296167092155,1
272,40,22,0.0427284412504627,1
272,41,22,0.06146211777737,1
273,41,22,0.06013146086428,1
273,42,22,0.0708891600330356,1
274,41,22,0.0618001035843884,1
274,42,22,0.0756308502492764,1
275,41,22,0.061107257550981,1
275,42,22,0.0776683241985467,1
276,41,22,0.0541912327069912,1
276,42,22,0.069594885038544,1
277,41,22,0.0495852461279777,1
277,42,22,0.0644397742510872,1
278,41,22,0.0523124572381343,1
278,42,22,0.0759865106724187,1
279,41,22,0.0582815141054791,1
279,42,22,0.101276101877417,1
280,41,22,0.0627569604790177,1
280,42,22,0.114416738316716,1
281,41,22,0.0609195951921411,1
281,42,22,0.10068388058573,1
282,41,22,0.0543851398445473,1
282,42,22,0.0800952398501097,1
283,41,22,0.0473327949955609,1
283,42,22,0.0676549107382684,1
284,41,22,0.043302144475394,1
284,42,22,0.0612440479419069,1
285,42,22,0.056287218340475,1
286,42,22,0.0534656218605794,1
287,42,22,0.0534288019964606,1
288,42,22,0.0545295429180987,1
289,41,22,0.0435483833992652,1
289,42,22,0.0562581895812307,1
290,41,22,0.0496422006725632,1
291,40,22,0.0435191032268518,1
291,41,22,0.0585420916900908,1
292,40,22,0.0742294948716904,1
292,41,22,0.117261664857357,1
293,39,22,0.0481678003075697,1
293,40,22,0.134040190379351,1
293,41,22,0.22554810666095,1
293,42,22,0.185985643864693,1
294,39,22,0.057839686549523,1
294,40,22,0.141599140874163,1
294,41,22,0.238167728506131,1
251,19,23,0.056719416501718,1
251,20,23,0.0613935171259839,1
252,14,23,0.0538521168923957,1
252,15,23,0.0532077152029684,1
252,19,23,0.0574150470035573,1
252,20,23,0.0619001389920133,1
252,21,23,0.0646148389177983,1
253,12,23,0.0591691972348314,1
253,13,23,0.0550360836831058,1
253,14,23,0.0523697307800742,1
253,15,23,0.0515449225699344,1
253,16,23,0.0519965579428525,1
253,17,23,0.0533140656768622,1
253,18,23,0.0546439602403428,1
253,19,23,0.0563515314511495,1
253,20,23,0.0598189299647905,1
253,21,23,0.0614420371642515,1
253,22,23,0.0600203092098667,1
253,23,23,0.0593835310165345,1
253,24,23,0.0595062260497868,1
253,25,23,0.0572691949250743,1
253,26,23,0.0578494619260762,1
253,27,23,0.0602435857309607,1
253,28,23,0.0603959745518401,1
253,29,23,0.0616156095721525,1
254,11,23,0.0604299288465047,1
254,15,23,0.0500996590988816,1
254,16,23,0.0516770145083024,1
254,17,23,0.0535730104275585,1
254,18,23,0.0534411455720529,1
254,19,23,0.0555451493932735,1
254,20,23,0.0583396689451945,1
254,21,23,0.0598622162837531,1
254,22,23,0.0589345719773519,1
254,23,23,0.0567205356958256,1
254,24,23,0.053341256146268,1
254,25,23,0.0481751048063104,1
254,26,23,0.0454861571584693,1
254,27,23,0.0450894082540684,1
254,28,23,0.0467201957203401,1
254,29,23,0.0520993615987049,1
254,30,23,0.0617207597509165,1
255,10,23,0.0607720021450463,1
255,11,23,0.0571841145459593,1
255,14,23,0.0465568582614519,1
255,15,23,0.0476636168789437,1
255,16,23,0.0506892040568332,1
255,17,23,0.0531565783050483,1
255,18,23,0.0508706432638962,1
255,19,23,0.0520485923587525,1
255,20,23,0.0535650030532913,1
255,21,23,0.0551554157273006,1
255,22,23,0.0559261619959831,1
255,23,23,0.0538223257835418,1
255,24,23,0.0479871612972599,1
255,29,23,0.0439431939892334,1
255,30,23,0.0533106432137217,1
255,31,23,0.0631446017386156,1
255,32,23,0.0673540367590492,1
255,33,23,0.0693992207121717,1
256,9,23,0.0720098950600351,1
256,10,23,0.0599641548620344,1
256,11,23,0.0558484834368355,1
256,12,23,0.0511667809434138,1
256,13,23,0.0456007096490839,1
256,14,23,0.0420879594437793,1
256,15,23,0.0419037492851215,1
256,16,23,0.0447174708557529,1
256,17,23,0.0473856079812749,1
256,18,23,0.0445201736954652,1
256,19,23,0.0444970626074805,1
256,20,23,0.0443764789041751,1
256,21,23,0.0456910129340343,1
256,22,23,0.0475871061745171,1
256,23,23,0.0459959095239591,1
256,30,23,0.0458060358105781,1
256,31,23,0.055481733800579,1
256,32,23,0.0601373704254374,1
256,33,23,0.0651507490663434,1
256,34,23,0.0737777459573411,1
257,8,23,0.0747312939302611,1
257,9,23,0.0646431323611073,1
257,10,23,0.0573307181605821,1
257,11,23,0.0539307740705455,1
257,12,23,0.0491701873161115,1
257,13,23,0.0435290894660629,1
257,31,23,0.0478465591582864,1
257,32,23,0.0545046773446652,1
257,33,23,0.0635218674740955,1
257,34,23,0.0755799458409536,1
257,35,23,0.0803770064284779,1
258,7,23,0.067882269344151,1
258,8,23,0.0638819506063199,1
258,9,23,0.0575402183213568,1
258,10,23,0.0542359139635372,1
258,11,23,0.05025402137797,1
258,12,23,0.0443219736104627,1
258,32,23,0.0456723542921732,1
258,33,23,0.0563899517087747,1
258,34,23,0.0669023419120481,1
258,35,23,0.071562266077618,1
258,36,23,0.0736018540602027,1
259,6,23,0.0660918831761185,1
259,7,23,0.0640049376032524,1
259,8,23,0.0574979214348661,1
259,9,23,0.0520021755403296,1
259,10,23,0.0490318776327014,1
259,11,23,0.0443485531188339,1
259,33,23,0.0447958252567529,1
259,34,23,0.0545608100655582,1
259,35,23,0.0617747568115559,1
259,36,23,0.0744655475071622,1
259,37,23,0.0845953355276891,1
260,6,23,0.059730751526624,1
260,7,23,0.0563120352532951,1
260,8,23,0.0511381360623416,1
260,9,23,0.0475305246946341,1
260,10,23,0.0442973080862174,1
260,34,23,0.043781565058548,1
260,35,23,0.0538409087311155,1
260,36,23,0.0720711263318626,1
260,37,23,0.08744578234458,1
260,38,23,0.0849776998141035,1
261,6,23,0.055904632377933,1
261,7,23,0.0533680573307668,1
261,8,23,0.0495006902021401,1
261,9,23,0.0458550370482446,1
261,10,23,0.0412748351875839,1
261,35,23,0.0410529184602969,1
261,36,23,0.0571275600997504,1
261,37,23,0.073970912372227,1
261,38,23,0.0797550913491637,1
261,39,23,0.082507016644179,1
262,5,23,0.0556522081494287,1
262,6,23,0.056857282832873,1
262,7,23,0.0553314698264836,1
262,8,23,0.0506974006668191,1
262,9,23,0.0439459730509305,1
262,36,23,0.0422510968534793,1
262,37,23,0.0583178149230552,1
262,38,23,0.071900770931179,1
262,39,23,0.0816532013017341,1
263,5,23,0.0574087968181063,1
263,6,23,0.0598221631922124,1
263,7,23,0.0569125288492556,1
263,8,23,0.0502663487333577,1
263,37,23,0.0467490622775399,1
263,38,23,0.0632501141686124,1
263,39,23,0.0766312529861396,1
264,5,23,0.0600226395125738,1
264,6,23,0.0610516817237743,1
264,7,23,0.054807000328816,1
264,8,23,0.0450334809890986,1
264,38,23,0.0562764156843062,1
264,39,23,0.0711266941138478,1
264,40,23,0.0837609844305934,1
265,4,23,0.055367343512009,1
265,5,23,0.0590270217360256,1
265,6,23,0.0564849047856697,1
265,7,23,0.0473666249353246,1
265,38,23,0.0477246264746437,1
265,39,23,0.0633824385965777,1
265,40,23,0.0773957490693712,1
266,4,23,0.0544608233185466,1
266,5,23,0.0561753151499218,1
266,6,23,0.051656063410878,1
266,7,23,0.0422607262481923,1
266,39,23,0.056332824148675,1
266,40,23,0.0710102979266599,1
267,3,23,0.0507923483369792,1
267,39,23,0.0496016123142754,1
267,40,23,0.0654626960384724,1
268,39,23,0.0415540065332388,1
268,40,23,0.057850213462216,1
268,41,23,0.0702318200271859,1
269,40,23,0.0517512435706354,1
269,41,23,0.0673367784615062,1
270,40,23,0.0481542564368476,1
270,41,23,0.0662758689552813,1
271,40,23,0.0461959424920653,1
271,41,23,0.0656895193776078,1
272,40,23,0.0455027125804857,1
272,41,23,0.065810035496728,1
273,40,23,0.0447382516410305,1
273,41,23,0.0668795146776414,1
273,42,23,0.0801198296800675,1
274,40,23,0.0446718542340832,1
274,41,23,0.0711299165278001,1
274,42,23,0.0908970093143767,1
275,40,23,0.0436059543116201,1
275,41,23,0.0734305578876605,1
275,42,23,0.0995246225731438,1
276,41,23,0.0651587834742847,1
276,42,23,0.0904440979520413,1
277,41,23,0.0585236763512966,1
277,42,23,0.0817519715334114,1
278,41,23,0.0606768436122283,1
278,42,23,0.0899509875163251,1
279,41,23,0.0666625424093466,1
279,42,23,0.112474130936584,1
280,41,23,0.0738846857653302,1
280,42,23,0.128179927830039,1
281,40,23,0.0426421119156044,1
281,41,23,0.0720553765133343,1
281,42,23,0.111778597755971,1
282,41,23,0.064665240499783,1
282,42,23,0.0913540946759926,1
283,41,23,0.0547449688602352,1
283,42,23,0.0775500789080506,1
284,41,23,0.0483060991775102,1
284,42,23,0.0686715282728545,1
285,41,23,0.0425420548810402,1
285,42,23,0.060866036077022,1
286,42,23,0.055449017648188,1
287,42,23,0.0554089213027688,1
289,41,23,0.0429390524952427,1
290,41,23,0.0491505933091267,1
291,40,23,0.0432342331826974,1
291,41,23,0.0582810491262846,1
292,40,23,0.0687345005132938,1
293,39,23,0.0487462398322026,1
293,40,23,0.130197526622113,1
293,41,23,0.224254426407289,1
252,13,24,0.0570312391189462,1
252,14,24,0.0550723142131293,1
252,20,24,0.0631123289384797,1
253,19,24,0.0587764249838901,1
253,20,24,0.0608933022407153,1
253,21,24,0.0623370301990794,1
253,22,24,0.0620894504049731,1
253,23,24,0.0608931778858144,1
253,24,24,0.0612099909192807,1
253,25,24,0.0591341399662637,1
253,26,24,0.0603040276195046,1
253,27,24,0.063031784809878,1
253,28,24,0.0645263252620731,1
253,29,24,0.0662348264312687,1
254,10,24,0.0666766431737551,1
254,16,24,0.0536805017224992,1
254,17,24,0.054052836515824,1
254,18,24,0.0538210876412683,1
254,19,24,0.0548122232346513,1
254,20,24,0.0570113477415463,1
254,21,24,0.0573786380512847,1
254,22,24,0.0563117324761453,1
254,23,24,0.0535061237111101,1
254,24,24,0.0515805962062715,1
254,25,24,0.0479799865601549,1
254,26,24,0.0456122259942488,1
254,27,24,0.0459902270456641,1
254,28,24,0.0489006453651696,1
254,29,24,0.0552213887055645,1
254,30,24,0.0647494287676529,1
255,9,24,0.0733620383372967,1
255,10,24,0.0653361514100289,1
255,15,24,0.0497099038059693,1
255,16,24,0.0492496500977494,1
255,17,24,0.0492459410776635,1
255,18,24,0.0476266672531893,1
255,19,24,0.0478876070890339,1
255,20,24,0.0488306497762001,1
255,21,24,0.0487401194083873,1
255,22,24,0.0482434080872815,1
255,23,24,0.0450793652441418,1
255,24,24,0.0419293069206119,1
255,29,24,0.0438140595348115,1
255,30,24,0.0538101390032594,1
255,31,24,0.0665546402025596,1
255,32,24,0.074356488259124,1
255,33,24,0.0778540887934651,1
256,8,24,0.0951928115168123,1
256,9,24,0.0838679674924611,1
256,10,24,0.0672494380672368,1
256,11,24,0.0596093973636069,1
256,14,24,0.0437658584938982,1
256,15,24,0.0412404618709707,1
256,16,24,0.0411277638903992,1
256,17,24,0.041839436174447,1
256,30,24,0.0438891671915525,1
256,31,24,0.0554594904935328,1
256,32,24,0.0624828173967446,1
256,33,24,0.0687475739980866,1
256,34,24,0.0764209201882028,1
257,7,24,0.0802201300176986,1
257,8,24,0.0987078487709454,1
257,9,24,0.0898370568002147,1
257,10,24,0.0701171648086098,1
257,11,24,0.0565881842341862,1
257,12,24,0.0514081105520691,1
257,13,24,0.0435913507208735,1
257,31,24,0.0462450518644282,1
257,32,24,0.054741476109542,1
257,33,24,0.0649184270778969,1
257,34,24,0.0768417533928559,1
257,35,24,0.0803804072646792,1
258,7,24,0.0781902795645234,1
258,8,24,0.0914223709232895,1
258,9,24,0.0858411283310569,1
258,10,24,0.067149245864302,1
258,11,24,0.0505963596065177,1
258,12,24,0.0435413411271632,1
258,32,24,0.0431006868326629,1
258,33,24,0.0545698609396455,1
258,34,24,0.0660410058014697,1
258,35,24,0.0714550721530924,1
258,36,24,0.0755111992077274,1
259,6,24,0.0694557535314413,1
259,7,24,0.070845095144259,1
259,8,24,0.0726556754668413,1
259,9,24,0.0666535456026074,1
259,10,24,0.0541291201373882,1
259,11,24,0.0422334546777642,1
259,33,24,0.0421516507799496,1
259,34,24,0.053592674722096,1
259,35,24,0.062538550019261,1
259,36,24,0.0759529564761307,1
259,37,24,0.0872355901217484,1
260,6,24,0.0633763506131713,1
260,7,24,0.0597998820380224,1
260,8,24,0.0547257371044833,1
260,9,24,0.0492532942370176,1
260,10,24,0.0427458941904591,1
260,34,24,0.0423550061866022,1
260,35,24,0.0530405335556237,1
260,36,24,0.071187698302813,1
260,37,24,0.0878020861691658,1
260,38,24,0.088700869325102,1
261,5,24,0.0600462345033248,1
261,6,24,0.0588305085522866,1
261,7,24,0.0562382116960737,1
261,8,24,0.0511549510076294,1
261,9,24,0.0451452625281183,1
261,36,24,0.0566740323696456,1
261,37,24,0.0759451978116652,1
261,38,24,0.0842783224450345,1
261,39,24,0.0854394836282772,1
262,5,24,0.0574619288011746,1
262,6,24,0.0588293947649139,1
262,7,24,0.0571434937472626,1
262,8,24,0.0503832910007624,1
262,9,24,0.0413321276530956,1
262,36,24,0.0417440694823384,1
262,37,24,0.060294176548664,1
262,38,24,0.0760935694285739,1
262,39,24,0.0851406317678803,1
263,5,24,0.0592298770197074,1
263,6,24,0.0619579748343744,1
263,7,24,0.0587538951198985,1
263,8,24,0.048126163042727,1
263,37,24,0.0470549861470803,1
263,38,24,0.0663314988498361,1
263,39,24,0.0815186979596367,1
263,40,24,0.0908801727421497,1
264,4,24,0.0559913564044331,1
264,5,24,0.0615345085498644,1
264,6,24,0.0623452862831484,1
264,7,24,0.0555849862154214,1
264,8,24,0.0416691645781531,1
264,38,24,0.057812593401344,1
264,39,24,0.0755153515800685,1
264,40,24,0.0895523651783094,1
265,4,24,0.0589547769453713,1
265,5,24,0.0629431197655778,1
265,6,24,0.0579171596527475,1
265,7,24,0.0466286164459724,1
265,38,24,0.0483098298245355,1
265,39,24,0.0660353503568488,1
265,40,24,0.0815824758035641,1
266,3,24,0.0539260215506394,1
266,6,24,0.0571510361423354,1
266,7,24,0.04132257395267,1
266,39,24,0.0562658238907954,1
266,40,24,0.0724287980603577,1
267,39,24,0.048891032190661,1
267,40,24,0.0660131124565374,1
267,41,24,0.0771636217233781,1
268,39,24,0.0415871552244154,1
268,40,24,0.0582936900722919,1
268,41,24,0.0707591226538988,1
269,40,24,0.0514476554105368,1
269,41,24,0.0665956665063678,1
270,40,24,0.0473252417870184,1
270,41,24,0.0662354914596514,1
271,40,24,0.0464531246472106,1
271,41,24,0.0673838008342289,1
272,40,24,0.0468750283853578,1
272,41,24,0.0678061046707528,1
273,40,24,0.0466185004451257,1
273,41,24,0.0698080671857305,1
273,42,24,0.0859684515293144,1
274,40,24,0.0471448352663059,1
274,41,24,0.0765697675977756,1
274,42,24,0.101945585409671,1
275,40,24,0.0472925256346274,1
275,41,24,0.0838303258046497,1
275,42,24,0.121244146777019,1
276,40,24,0.04425401636052,1
276,41,24,0.0827636202786986,1
276,42,24,0.132308824128605,1
277,40,24,0.0416085226404209,1
277,41,24,0.0802299108009866,1
277,42,24,0.137422524734082,1
278,41,24,0.0764892613163176,1
278,42,24,0.12954179782324,1
279,40,24,0.0420892408399315,1
279,41,24,0.076670208510512,1
279,42,24,0.126878418624359,1
280,40,24,0.046924575703241,1
280,41,24,0.0860404962707804,1
280,42,24,0.138283622948328,1
281,40,24,0.0500288416862196,1
281,41,24,0.0877187629788669,1
281,42,24,0.128469004313882,1
282,40,24,0.0474340901723987,1
282,41,24,0.0803457068406095,1
282,42,24,0.112613213783073,1
283,41,24,0.0662303766885125,1
283,42,24,0.0949317959866802,1
284,41,24,0.0564364280012807,1
284,42,24,0.0828995942526668,1
285,41,24,0.0477900101188123,1
285,42,24,0.0705641395761137,1
286,41,24,0.0417667696584769,1
286,42,24,0.0621205120965094,1
252,13,25,0.0579975361725698,1
252,20,25,0.0619684476797192,1
252,29,25,0.0761788011962639,1
253,19,25,0.0573888243396841,1
253,20,25,0.058856217576352,1
253,21,25,0.0621152837839393,1
253,22,25,0.0649900284671076,1
253,23,25,0.0636746509866166,1
253,24,25,0.0621203931483434,1
253,25,25,0.0605506287946087,1
253,26,25,0.0616093810136408,1
253,27,25,0.0644808059616302,1
253,28,25,0.0680846218014946,1
253,29,25,0.0708030091204263,1
253,30,25,0.0766527771974549,1
254,17,25,0.0527167782746495,1
254,18,25,0.0524705231305739,1
254,19,25,0.051553816648712,1
254,20,25,0.0519354672461302,1
254,21,25,0.052837553917041,1
254,22,25,0.053699976781318,1
254,23,25,0.0515542708144368,1
254,24,25,0.0489488139656739,1
254,25,25,0.0460343730354629,1
254,26,25,0.0450908464455303,1
254,27,25,0.0471274904610059,1
254,28,25,0.0522697386263278,1
254,29,25,0.0592187607729191,1
254,30,25,0.0686433591844464,1
254,31,25,0.082475733276515,1
255,9,25,0.0733117070428647,1
255,16,25,0.0467579076957041,1
255,17,25,0.0451917766677679,1
255,18,25,0.0442218760253873,1
255,19,25,0.0425660770038419,1
255,20,25,0.0415759740968093,1
255,21,25,0.0413827130640641,1
255,22,25,0.0415577047398552,1
255,29,25,0.0453945616638971,1
255,30,25,0.056020725787971,1
255,31,25,0.0687223191397461,1
255,32,25,0.0805872635321273,1
256,8,25,0.0978543199854459,1
256,9,25,0.0910173740449219,1
256,10,25,0.0724268786694969,1
256,30,25,0.0426620843940266,1
256,31,25,0.0542858992269407,1
256,32,25,0.0639636679963774,1
256,33,25,0.0710993468491323,1
256,34,25,0.0764981932422389,1
256,35,25,0.0788535831988787,1
257,7,25,0.0868100638712723,1
257,8,25,0.130941623094872,1
257,10,25,0.0852295617421866,1
257,11,25,0.0555339087915844,1
257,12,25,0.0496450392083433,1
257,13,25,0.0417668480561318,1
257,31,25,0.042084023340831,1
257,32,25,0.0523056447522621,1
257,33,25,0.062436270816686,1
257,34,25,0.072566323767219,1
257,35,25,0.0760626807525517,1
257,36,25,0.0777140651751172,1
258,6,25,0.0647334626797318,1
258,7,25,0.0904918934878431,1
258,9,25,0.141336395188888,1
258,10,25,0.0884925640527223,1
258,11,25,0.0474933317658128,1
258,33,25,0.0498188278856371,1
258,34,25,0.0616431947332001,1
258,35,25,0.0690318438946761,1
258,36,25,0.0774912914803614,1
258,37,25,0.0823505078913674,1
259,6,25,0.0673022348327463,1
259,7,25,0.0753248128383048,1
259,8,25,0.0985333950652688,1
259,9,25,0.0963732206760114,1
259,10,25,0.0628769791785345,1
259,34,25,0.0500804273431296,1
259,35,25,0.0605742183786249,1
259,36,25,0.0747415126590694,1
260,6,25,0.0648465715721496,1
260,7,25,0.0604982375342106,1
260,8,25,0.0577773414903228,1
260,9,25,0.0520655803195545,1
260,35,25,0.0499253459683103,1
260,36,25,0.0665299097974966,1
260,37,25,0.083361486201537,1
261,5,25,0.0634632638753901,1
261,6,25,0.0627328842888677,1
261,7,25,0.0575749728127746,1
261,8,25,0.0503733480154299,1
261,9,25,0.0424419951431085,1
261,36,25,0.0539692808359279,1
261,37,25,0.073595652535365,1
261,38,25,0.0849239082093872,1
261,39,25,0.0858661020391868,1
262,5,25,0.0609465369517452,1
262,6,25,0.0612855500383792,1
262,7,25,0.0563425778982889,1
262,8,25,0.0469521338306145,1
262,36,25,0.0419350732032966,1
262,37,25,0.0608751139847835,1
262,38,25,0.0784169569218187,1
262,39,25,0.0859266953163057,1
263,5,25,0.0609085221992313,1
263,6,25,0.0623960447096311,1
263,7,25,0.0562330536710562,1
263,8,25,0.0426730141084636,1
263,37,25,0.047288351635347,1
263,38,25,0.0684781239616366,1
263,39,25,0.08440047139807,1
264,4,25,0.055940760179995,1
264,5,25,0.0606017927262029,1
264,6,25,0.0611702243846855,1
264,7,25,0.0532744937847204,1
264,38,25,0.0586702258985712,1
264,39,25,0.0790365795455696,1
264,40,25,0.0928406764145338,1
265,4,25,0.0601197390631919,1
265,5,25,0.0631579834072931,1
265,6,25,0.0572522339979465,1
265,7,25,0.0451138710257579,1
265,38,25,0.0479416257766126,1
265,39,25,0.068105664813411,1
265,40,25,0.0857710516410651,1
265,41,25,0.0950205529454723,1
266,3,25,0.0565804201629858,1
266,6,25,0.0615998164997456,1
266,39,25,0.0566073997697337,1
266,40,25,0.07591514717954,1
267,7,25,0.0415547175188676,1
267,39,25,0.048426296299276,1
267,40,25,0.066886765109034,1
267,41,25,0.0791916068530407,1
268,39,25,0.0417045868013212,1
268,40,25,0.0581255514328842,1
268,41,25,0.0702631844958722,1
269,40,25,0.0517422954245096,1
269,41,25,0.0666505773051917,1
270,40,25,0.047682989209801,1
270,41,25,0.0669094788020094,1
271,40,25,0.0477972659569397,1
271,41,25,0.0698294400084708,1
272,40,25,0.0482220785184197,1
272,41,25,0.0699859055074039,1
273,40,25,0.0486004634480071,1
273,41,25,0.0723095092700415,1
274,40,25,0.050169865550509,1
274,41,25,0.0805455073191186,1
274,42,25,0.105903964105509,1
275,40,25,0.0522312048272713,1
275,41,25,0.0938888260265854,1
275,42,25,0.135578492943173,1
276,40,25,0.0516009417493962,1
276,41,25,0.108769252409479,1
276,42,25,0.182096082089633,1
276,43,25,0.214318664472484,1
277,40,25,0.0505564200564083,1
277,41,25,0.119935662883423,1
277,42,25,0.221723793361689,1
277,43,25,0.275784912995256,2
278,40,25,0.0476683477719105,1
278,41,25,0.106611629999056,1
278,42,25,0.194335459088449,1
278,43,25,0.252860335734875,2
279,40,25,0.0508670261583021,1
279,41,25,0.0953684006368009,1
279,42,25,0.152531439730435,1
279,43,25,0.196472352077575,1
280,40,25,0.0587549872803319,1
280,41,25,0.102448368493979,1
280,42,25,0.146170859567892,1
280,43,25,0.173367600786079,1
281,40,25,0.0654856314075755,1
281,41,25,0.112411207356758,1
281,42,25,0.149635830457599,1
281,43,25,0.16152395352215,1
282,40,25,0.0630526223658712,1
282,41,25,0.106889114443448,1
282,42,25,0.139509156716328,1
283,40,25,0.0528230963081344,1
283,41,25,0.086569750728763,1
283,42,25,0.115239773117836,1
284,40,25,0.0427728602803699,1
284,41,25,0.0693450938898966,1
284,42,25,0.0971257192146791,1
285,41,25,0.0570198309084776,1
286,41,25,0.0496899042938731,1
250,20,26,0.0533131681588822,1
252,20,26,0.059834825765159,1
252,28,26,0.0751719428180265,1
252,29,26,0.0780299536569294,1
253,19,26,0.0547605240363101,1
253,20,26,0.0555889493520439,1
253,21,26,0.0588092492709775,1
253,22,26,0.0648912582354303,1
253,24,26,0.0628602723679431,1
253,25,26,0.0608541250402153,1
253,26,26,0.0601623333200976,1
253,27,26,0.0623986886029577,1
253,28,26,0.0682524035964043,1
253,29,26,0.0743191385349929,1
253,30,26,0.0801394290937871,1
254,18,26,0.0506654144236287,1
254,19,26,0.0477893450904296,1
254,20,26,0.0462998491218208,1
254,21,26,0.0472470982486764,1
254,22,26,0.0502536104661237,1
254,23,26,0.0492249791667694,1
254,24,26,0.0460319400047943,1
254,25,26,0.0438051897863405,1
254,26,26,0.0441029305627321,1
254,27,26,0.0471963181952544,1
254,28,26,0.0539399492995337,1
254,29,26,0.0624565839194018,1
254,30,26,0.0722233151035537,1
254,31,26,0.0840303371458167,1
255,9,26,0.0684459376692578,1
255,16,26,0.0449680243540098,1
255,17,26,0.0414745734886424,1
255,29,26,0.047105625625397,1
255,30,26,0.0589657796507284,1
255,31,26,0.071000814513787,1
255,32,26,0.0851577332701135,1
256,8,26,0.0928827840653057,1
256,10,26,0.0721944215126798,1
256,30,26,0.0421881002827333,1
256,31,26,0.0535654680324857,1
256,32,26,0.0658998035149313,1
256,33,26,0.0735956146882213,1
256,34,26,0.0776812841419084,1
257,7,26,0.0908039269677292,1
257,11,26,0.0525840591550424,1
257,32,26,0.0497620950171791,1
257,33,26,0.0597758761354251,1
257,34,26,0.0679959567571944,1
257,35,26,0.0712980551672078,1
257,36,26,0.0768284636386702,1
258,6,26,0.0628110170137401,1
258,10,26,0.106778600783743,1
258,11,26,0.0440925036746333,1
258,33,26,0.0454679580890679,1
258,34,26,0.0572538668318619,1
258,35,26,0.0667890708175857,1
258,36,26,0.0796426907390072,1
259,6,26,0.0636127709066108,1
259,7,26,0.0780490123971671,1
259,9,26,0.126270853019255,1
259,10,26,0.0699375801115898,1
259,34,26,0.0469197583025171,1
259,35,26,0.0589396921552257,1
259,36,26,0.0746522042133257,1
260,5,26,0.0656510126122254,1
260,6,26,0.0661556934604548,1
260,7,26,0.0610718758783241,1
260,8,26,0.0604700360053936,1
260,9,26,0.0560318690684334,1
260,35,26,0.0481545970611412,1
260,36,26,0.0639741570619267,1
260,37,26,0.0803113362273638,1
261,5,26,0.0686059337660278,1
261,6,26,0.0708973674564911,1
261,7,26,0.0611164327799692,1
261,8,26,0.0482834233316784,1
261,36,26,0.051801915489361,1
261,37,26,0.0704367569037732,1
261,38,26,0.0839973885038284,1
262,5,26,0.0663172737305268,1
262,6,26,0.0683908862953287,1
262,7,26,0.0576528892682542,1
262,8,26,0.0428445454739704,1
262,36,26,0.0418034976081038,1
262,37,26,0.0596844320294279,1
262,38,26,0.0785249780767717,1
263,4,26,0.0558376050863793,1
263,5,26,0.0617478204586866,1
263,6,26,0.0634604145261403,1
263,7,26,0.053161222690258,1
263,37,26,0.0466418196924009,1
263,38,26,0.068987946614679,1
264,4,26,0.0556238390118323,1
264,5,26,0.0589298681180592,1
264,6,26,0.0596492341857548,1
264,7,26,0.0497630844496511,1
264,38,26,0.0599745790467658,1
264,39,26,0.084650424748762,1
265,5,26,0.0607745270902069,1
265,6,26,0.0551077878002782,1
265,7,26,0.0428726226478865,1
265,38,26,0.0485768089831731,1
265,39,26,0.0723082116536849,1
265,40,26,0.0938123964231811,1
265,41,26,0.105017865149459,1
266,6,26,0.0616315378129299,1
266,39,26,0.0601468592450451,1
266,40,26,0.0860768890028484,1
267,39,26,0.0493341357360344,1
267,40,26,0.071147861480665,1
267,41,26,0.0869536667480705,1
268,39,26,0.0421273069564261,1
268,40,26,0.060039378763574,1
268,41,26,0.0733785937593131,1
269,40,26,0.0553457273862019,1
269,41,26,0.0709056992348475,1
270,40,26,0.0528732221466433,1
270,41,26,0.0722564583879954,1
271,40,26,0.0520949497030924,1
271,41,26,0.0737759725483204,1
272,40,26,0.0505890172606333,1
272,41,26,0.0723534281769779,1
273,40,26,0.0509232670138915,1
273,41,26,0.0743828190576935,1
274,40,26,0.0543138196055471,1
274,41,26,0.0830417264975942,1
275,40,26,0.0589318956436164,1
275,41,26,0.100180654149167,1
275,42,26,0.145247464955059,1
276,40,26,0.0630316442347727,1
276,41,26,0.133616334809934,1
276,42,26,0.231834668623818,1
276,43,26,0.273446608320645,2
277,40,26,0.0651427416920762,1
277,41,26,0.162412485508869,1
277,42,26,0.309596988907197,2
277,43,26,0.38066895064447,2
277,44,26,0.295925281347016,2
278,40,26,0.060965952536481,1
278,41,26,0.143750221135454,1
278,42,26,0.267246489234066,2
278,43,26,0.33658029386166,2
278,44,26,0.281385079159356,2
279,40,26,0.0623881616902647,1
279,41,26,0.116932881313001,1
279,42,26,0.181135651343288,1
279,43,26,0.221431159246334,2
280,40,26,0.0718634212070479,1
280,41,26,0.119407943938129,1
280,42,26,0.152923071160329,1
280,43,26,0.16623770713958,1
281,40,26,0.0831423620527841,1
281,41,26,0.140495345147352,1
281,42,26,0.169710582675593,1
281,43,26,0.164211414317916,1
282,40,26,0.0849335105704261,1
282,41,26,0.14549892137803,1
282,42,26,0.172519835579897,1
283,40,26,0.0705934927394472,1
283,41,26,0.11999734291424,1
283,42,26,0.146307909482089,1
284,40,26,0.0523188696256299,1
284,41,26,0.0865996661925176,1
285,40,26,0.0421472361809697,1
252,28,27,0.0720715264302392,1
252,29,27,0.07748266233159,1
253,21,27,0.0547591345054615,1
253,28,27,0.0652364295930234,1
253,29,27,0.0737545348447623,1
253,30,27,0.0799499338518435,1
254,10,27,0.0614372143567928,1
254,19,27,0.0446079763655617,1
254,20,27,0.0414873198659787,1
254,21,27,0.0422185915637462,1
254,22,27,0.0464236957895896,1
254,23,27,0.046868442982348,1
254,24,27,0.0440363006661876,1
254,25,27,0.0428965258225222,1
254,26,27,0.0442176803991676,1
254,27,27,0.0475039992536111,1
254,28,27,0.0534597231128917,1
254,29,27,0.0630598241366504,1
254,30,27,0.0736925087829163,1
254,31,27,0.0842624320514008,1
254,32,27,0.0974687873524275,1
255,9,27,0.0642241266328231,1
255,17,27,0.0411681008355179,1
255,29,27,0.0484883169543871,1
255,30,27,0.0619497079368358,1
255,32,27,0.087351905207914,1
255,33,27,0.0942735260224417,1
256,8,27,0.0826313985786949,1
256,30,27,0.044098791707228,1
256,31,27,0.0560023428895857,1
256,32,27,0.068839850741246,1
256,33,27,0.0771008387186575,1
256,34,27,0.0817252406364652,1
257,7,27,0.086828344041696,1
257,32,27,0.0491589683413617,1
257,33,27,0.0588948595101048,1
257,35,27,0.0692483403703068,1
257,36,27,0.0761491128153716,1
258,6,27,0.0618160264184309,1
258,11,27,0.0469427044850898,1
258,33,27,0.0432484691154763,1
258,34,27,0.0536835078670587,1
259,6,27,0.0619039453333261,1
259,7,27,0.0795168327658857,1
259,10,27,0.0785417984287942,1
259,34,27,0.0439163657710605,1
259,35,27,0.0572846581866573,1
260,5,27,0.0643163384951647,1
260,6,27,0.0687564788903339,1
260,9,27,0.0647381719457593,1
260,10,27,0.0425175542622069,1
260,35,27,0.047078143192311,1
261,4,27,0.0576604857306752,1
261,5,27,0.0727625558007474,1
261,8,27,0.0493921175602356,1
261,36,27,0.0500471380768478,1
262,4,27,0.0580322852572529,1
262,5,27,0.0709943210252692,1
262,8,27,0.0418386981551442,1
262,37,27,0.0570759365956966,1
263,4,27,0.0571194770311957,1
263,5,27,0.0627539381142537,1
263,6,27,0.0653667210886967,1
263,7,27,0.0515976112007476,1
263,37,27,0.046003895271287,1
263,38,27,0.0671055324132887,1
264,4,27,0.0569947436589165,1
264,5,27,0.0594289854361596,1
264,6,27,0.0585487311604488,1
264,7,27,0.0464057292097854,1
264,38,27,0.0613018891910028,1
265,5,27,0.0600046242721562,1
265,6,27,0.053569436575843,1
265,7,27,0.041064786243225,1
265,38,27,0.0513486580959971,1
265,39,27,0.0775370054232578,1
266,6,27,0.058810730716318,1
266,38,27,0.0424837324325454,1
266,39,27,0.0659185162241406,1
266,40,27,0.0937638547579742,1
267,39,27,0.051607586626489,1
267,40,27,0.0736662969325128,1
268,39,27,0.0431908333223036,1
268,40,27,0.0614110295400633,1
268,41,27,0.0766132539659265,1
269,40,27,0.0591664776472174,1
269,41,27,0.074604435711198,1
270,40,27,0.0603196747100714,1
270,41,27,0.0775873853783032,1
271,40,27,0.0592796892675968,1
271,41,27,0.0778571976659861,1
272,40,27,0.0560941276198766,1
272,41,27,0.0753929431037616,1
273,40,27,0.0567701208608525,1
273,41,27,0.0774447340868332,1
274,40,27,0.0613412069666081,1
274,41,27,0.0848040246782409,1
275,39,27,0.0449609604549685,1
275,40,27,0.0693124480250582,1
275,41,27,0.105012490855049,1
275,42,27,0.15034967084231,1
276,39,27,0.0461832907325883,1
276,40,27,0.0779002677155559,1
276,41,27,0.149045879994536,1
276,42,27,0.25665432806527,2
276,43,27,0.296358166163581,2
276,44,27,0.234883310118977,2
277,39,27,0.0423967002221606,1
277,40,27,0.0824478561517872,1
277,41,27,0.187158061869829,2
277,42,27,0.3492412447878,2
277,43,27,0.417017996295219,2
277,44,27,0.32741386703775,2
277,45,27,0.199802835845389,2
278,40,27,0.0777681163031048,1
278,41,27,0.168597227841622,1
278,42,27,0.305253758826927,2
278,43,27,0.366883333995118,2
278,44,27,0.300680872278477,2
279,39,27,0.0410348897030422,1
279,40,27,0.0741276265809617,1
279,41,27,0.130141264139585,1
279,42,27,0.196415840885244,1
279,43,27,0.227857885402655,2
280,39,27,0.0442362119827604,1
280,40,27,0.0826184656690073,1
280,41,27,0.129701977748994,1
280,42,27,0.158165170904292,1
280,43,27,0.16281709310233,1
281,39,27,0.0448071550695665,1
281,40,27,0.0962110618853137,1
281,42,27,0.179500665547429,1
281,43,27,0.16469219199151,1
282,39,27,0.0437258594697057,1
282,40,27,0.104727761386,1
282,42,27,0.196332858319239,1
282,43,27,0.16639920630863,1
283,40,27,0.0876115420206672,1
283,42,27,0.172134876060769,1
283,43,27,0.153762272098558,1
284,40,27,0.0632611655345829,1
284,41,27,0.10472656109087,1
284,42,27,0.136608194776021,1
285,40,27,0.0513850670482697,1
285,41,27,0.0852888952500926,1
285,42,27,0.13120035698291,1
286,40,27,0.0458382329164265,1
286,41,27,0.0786959768788987,1
252,28,28,0.0702074789070299,1
253,30,28,0.0826063059223989,1
254,10,28,0.0604263387745847,1
254,32,28,0.0965747513096626,1
254,33,28,0.10331261342789,1
255,9,28,0.0635796384356387,1
255,33,28,0.0987646627404256,1
256,8,28,0.0753785665958774,1
256,9,28,0.0783184029595342,1
257,7,28,0.0782657521758647,1
257,8,28,0.12217898204073,1
258,6,28,0.0622780481289367,1
258,7,28,0.0960737200074362,1
259,6,28,0.0637747620885291,1
260,5,28,0.0636000867067249,1
261,4,28,0.0576167452459878,1
262,4,28,0.0590159271161765,1
263,4,28,0.0580540311446957,1
264,4,28,0.0575568332174562,1
265,4,28,0.059378821750507,1
266,3,28,0.0606571090301382,1
266,40,28,0.0935780144687684,1
267,2,28,0.0645211293899118,1
267,40,28,0.0734714760567723,1
268,1,28,0.0586115952661917,1
268,40,28,0.0623657669946435,1
269,40,28,0.0623127107058626,1
269,41,28,0.0764696348689239,1
270,40,28,0.0674710222803324,1
270,41,28,0.0815684561401779,1
271,40,28,0.0684974097847367,1
271,41,28,0.0846382595954188,1
272,40,28,0.0653693974224322,1
272,41,28,0.0836405926663741,1
273,40,28,0.065008022080586,1
273,41,28,0.0839330483594799,1
274,40,28,0.0691701806117604,1
274,41,28,0.0879264086295986,1
275,41,28,0.109616509382588,1
276,42,28,0.244416616340779,1
276,43,28,0.283056928073212,2
277,42,28,0.328156492878638,2
277,43,28,0.387472180186661,2
277,44,28,0.308931744255041,2
278,42,28,0.290773787665153,2
278,43,28,0.340521500767713,2
278,44,28,0.281439319523062,2
279,42,28,0.194118822037713,1
279,43,28,0.217437182608446,2
280,43,28,0.159250497224961,1
281,43,28,0.162588755877445,1
282,43,28,0.168851301124246,1
283,43,28,0.157513313327549,1
284,43,28,0.161656634794614,1
285,43,28,0.192599443045758,1
277,43,29,0.305518386055918,2
278,43,29,0.273401667540828,2
