x,y,z,signal,cytoplasm.p
439,90,3,0.0501540670713673,1
439,91,3,0.0517613109108687,1
440,91,3,0.0538852655835722,1
438,90,4,0.0516952297979084,1
438,91,4,0.0520499710761314,1
439,87,4,0.069589440456581,1
439,88,4,0.0574153065268286,1
439,89,4,0.0517759956026377,1
439,90,4,0.0525266017841187,1
439,91,4,0.0539955791940885,1
439,92,4,0.0549198280710232,1
440,89,4,0.0525739701878698,1
440,90,4,0.0530297741533334,1
440,91,4,0.0553984971180373,1
440,92,4,0.0594162742025996,1
441,90,4,0.0525707099267738,1
441,91,4,0.0569249967797487,1
441,92,4,0.0619576828706942,1
442,90,4,0.0510733741926772,1
442,91,4,0.0591673427247885,1
442,92,4,0.0639420464638354,1
438,87,5,0.071081531657903,1
438,88,5,0.0610528063246167,1
438,89,5,0.0542096804861944,1
438,90,5,0.0540109181007706,1
438,91,5,0.0541427288889281,1
439,86,5,0.0749651514313963,1
439,87,5,0.0712992338353984,1
439,88,5,0.0602847417964045,1
439,89,5,0.0558050565427677,1
439,90,5,0.0565201783236302,1
439,91,5,0.0568358667562541,1
439,92,5,0.0562631908109384,1
440,87,5,0.0638451361489359,1
440,88,5,0.0556503482326508,1
440,89,5,0.0556426003816549,1
440,90,5,0.057230477297034,1
440,91,5,0.058330023330277,1
440,92,5,0.0607879033521496,1
440,93,5,0.0606978379635313,1
441,89,5,0.0546209221432781,1
441,90,5,0.0572674052958492,1
441,91,5,0.0603433616153144,1
441,92,5,0.0639720105882034,1
441,93,5,0.0609198871558213,1
442,89,5,0.0508670207515673,1
442,90,5,0.0554860916288433,1
442,91,5,0.0623203720491015,1
442,92,5,0.0665421398316576,1
442,93,5,0.0600503219948481,1
443,90,5,0.0539722058794651,1
443,91,5,0.0645358194884156,1
443,92,5,0.075278633916214,1
444,92,5,0.0971811598735153,1
445,92,5,0.124216845274907,1
445,93,5,0.144384387875869,1
446,93,5,0.150090104317109,1
428,92,6,0.0450388688003459,1
428,93,6,0.0463577930988783,1
430,94,6,0.0420563273417196,1
431,93,6,0.0431875487309009,1
437,85,6,0.0533511450642523,1
437,86,6,0.0531220238628188,1
438,86,6,0.0688422351113013,1
438,87,6,0.0656773812579387,1
438,88,6,0.0583360031789871,1
438,89,6,0.0542359518106809,1
438,90,6,0.0554392368649001,1
438,91,6,0.0567138313446498,1
439,85,6,0.0740937209469105,1
439,86,6,0.0754614139935121,1
439,87,6,0.0694562022904313,1
439,88,6,0.0605597283293094,1
439,89,6,0.0580511493550371,1
439,90,6,0.0608485669168211,1
439,91,6,0.0616240927390839,1
439,92,6,0.0594170419589439,1
440,86,6,0.0744393789106372,1
440,87,6,0.0661512274974941,1
440,88,6,0.0575850780001517,1
440,89,6,0.0594607175628135,1
440,90,6,0.065162124836403,1
440,91,6,0.065929956875018,1
440,92,6,0.0644836444974103,1
440,93,6,0.0626273772656057,1
441,87,6,0.0674221183638926,1
441,88,6,0.0585024927642749,1
441,89,6,0.0611633091708517,1
441,90,6,0.0677458033573141,1
441,91,6,0.069233531323637,1
441,92,6,0.0679107844635875,1
441,93,6,0.0625070503822042,1
442,88,6,0.0566731402584004,1
442,89,6,0.0574912062702206,1
442,90,6,0.0639939294911605,1
442,91,6,0.0682596215873879,1
442,92,6,0.0683821381983912,1
442,93,6,0.0604096103370541,1
443,89,6,0.0525712830406646,1
443,90,6,0.0587847297285724,1
443,91,6,0.066322172232273,1
443,92,6,0.0758727475650878,1
443,93,6,0.0749384908220028,1
444,90,6,0.0542095939784372,1
444,91,6,0.069233201512813,1
444,92,6,0.116034336053397,1
444,93,6,0.143273476886036,1
445,91,6,0.0767131866455899,1
445,92,6,0.167528132538881,1
445,93,6,0.220739745997654,1
445,94,6,0.151463404147718,1
446,92,6,0.166461470266808,1
446,93,6,0.211127869105459,1
446,94,6,0.141065982753641,1
447,93,6,0.123281339576079,1
426,82,7,0.041647291632442,1
427,81,7,0.0459694868108976,1
427,82,7,0.0423665522688087,1
428,81,7,0.0441888543924789,1
428,82,7,0.0417503548115658,1
428,91,7,0.0421803551351048,1
428,92,7,0.0496752304155737,1
429,80,7,0.0435091791650911,1
429,81,7,0.0426144132131256,1
429,91,7,0.045483237521667,1
429,92,7,0.0575350278559303,1
430,80,7,0.0440286852801947,1
430,81,7,0.0432287804906322,1
430,82,7,0.04146694728918,1
430,91,7,0.0479889022658717,1
430,92,7,0.0609350206065803,1
430,93,7,0.0590597108547425,1
431,80,7,0.0438868017450691,1
431,81,7,0.0434903907615944,1
431,82,7,0.0423387481350009,1
431,83,7,0.0417741985121185,1
431,84,7,0.0412499669107829,1
431,85,7,0.041294972571418,1
431,86,7,0.0417477703923222,1
431,87,7,0.0411250199724784,1
431,91,7,0.0464503185518394,1
431,92,7,0.0545480123242411,1
431,93,7,0.0523397450287669,1
432,81,7,0.0431140901282798,1
432,82,7,0.0426989664355958,1
432,83,7,0.0428159708804509,1
432,84,7,0.0427545125257609,1
432,85,7,0.0427838683924618,1
432,86,7,0.0427657747543893,1
432,87,7,0.04198940007476,1
432,91,7,0.0434227741359454,1
432,92,7,0.0461289800813294,1
432,93,7,0.0447890073641458,1
432,94,7,0.0429968342702556,1
433,81,7,0.0417304391038592,1
433,82,7,0.0417055681236909,1
433,83,7,0.0428094016976455,1
433,84,7,0.0442820881277014,1
433,85,7,0.0450765645555054,1
433,86,7,0.0434798854758407,1
433,92,7,0.0412363473457733,1
433,93,7,0.0413122849363091,1
433,94,7,0.0411107786329646,1
434,82,7,0.0422406618552782,1
434,83,7,0.0436605001558437,1
434,84,7,0.0469894781480108,1
434,85,7,0.0489339075977773,1
434,86,7,0.0458262624055368,1
434,93,7,0.041364397749864,1
434,94,7,0.0416863525881434,1
434,95,7,0.0415765904645787,1
435,83,7,0.042440394749602,1
435,84,7,0.0471179367605804,1
435,85,7,0.0504895603736339,1
435,86,7,0.0481011028268399,1
435,87,7,0.0419370601783427,1
435,92,7,0.0427996912019102,1
435,93,7,0.0446368942867422,1
435,94,7,0.0452764028811582,1
436,84,7,0.0463193836547226,1
436,85,7,0.0493414997088581,1
436,86,7,0.048504142467203,1
436,87,7,0.0449206397300543,1
436,88,7,0.042588220286294,1
436,89,7,0.0415090873803609,1
436,90,7,0.0421688036461636,1
436,91,7,0.044161669329808,1
436,92,7,0.0475694910324761,1
436,93,7,0.0494381342802818,1
437,84,7,0.0505566309190662,1
437,85,7,0.0542991565407174,1
437,86,7,0.0525688554167308,1
437,87,7,0.0503787006829009,1
437,88,7,0.048459909969647,1
437,89,7,0.0471024680922626,1
437,90,7,0.0476138208512588,1
437,91,7,0.0491854991891195,1
438,85,7,0.070212198986527,1
438,86,7,0.0672664260280387,1
438,87,7,0.0636618532452996,1
438,88,7,0.0598531708164005,1
438,89,7,0.0564921714372667,1
438,90,7,0.0565668600720592,1
438,91,7,0.0574174367803474,1
438,92,7,0.0566366339849011,1
439,86,7,0.0763145372739001,1
439,87,7,0.0717244897491336,1
439,88,7,0.0661465993324888,1
439,89,7,0.0625709850214414,1
439,90,7,0.0646272149337995,1
439,91,7,0.0650308871621364,1
439,92,7,0.0616799875636448,1
439,93,7,0.0595282152402965,1
440,86,7,0.0779667327066884,1
440,87,7,0.0719637431716183,1
440,88,7,0.0644678514250034,1
440,89,7,0.0652587594078267,1
440,90,7,0.0742976467640865,1
440,91,7,0.0750202352457344,1
440,92,7,0.068635297742831,1
440,93,7,0.0636589498287017,1
441,86,7,0.0868309825282878,1
441,87,7,0.0783052754073931,1
441,88,7,0.0663720385475105,1
441,89,7,0.0692258267265197,1
441,90,7,0.0821942262214182,1
441,91,7,0.0827239672855345,1
441,92,7,0.0737814063168137,1
441,93,7,0.0643440642313176,1
441,94,7,0.0564603149557119,1
442,87,7,0.0746740149815864,1
442,88,7,0.0632667939455297,1
442,89,7,0.0654091639570274,1
442,90,7,0.0773520734655016,1
442,91,7,0.0788848341261337,1
442,92,7,0.0712192087533393,1
442,93,7,0.0607475258565198,1
443,89,7,0.0593557890601771,1
443,90,7,0.0685603117376234,1
443,91,7,0.0726206019780691,1
443,92,7,0.0741966002970503,1
443,93,7,0.0739930962051902,1
444,90,7,0.0604692682490493,1
444,91,7,0.0746123187305644,1
444,92,7,0.123226774808284,1
444,93,7,0.16596646206717,1
444,94,7,0.119061999417457,1
445,91,7,0.0840095212167628,1
445,92,7,0.192673169281753,1
445,93,7,0.278464728667987,1
445,94,7,0.192230595596392,1
445,95,7,0.0812359149151225,1
446,91,7,0.0811474445132758,1
446,92,7,0.179147681458023,1
446,93,7,0.250528151484079,1
446,94,7,0.168793600450256,1
447,92,7,0.109194524543419,1
447,93,7,0.12829143632895,1
425,82,8,0.0429357111331245,1
426,81,8,0.0495687772137184,1
426,82,8,0.0436593890718384,1
427,80,8,0.0511063282414002,1
427,81,8,0.0479844471163807,1
427,82,8,0.0431581144665452,1
428,80,8,0.047099197017697,1
428,81,8,0.0441497745132057,1
428,91,8,0.0438691649760888,1
429,79,8,0.0429820549606273,1
429,80,8,0.0431420429472951,1
429,91,8,0.0460306207614984,1
430,79,8,0.0424242286124926,1
430,80,8,0.0428425557955569,1
430,91,8,0.049154561852484,1
430,92,8,0.0715412717263151,1
431,79,8,0.0415361453847636,1
431,80,8,0.0417073144990375,1
431,91,8,0.0467893100115341,1
431,92,8,0.0633511281952397,1
432,86,8,0.0411654542388239,1
432,87,8,0.0419504878042662,1
432,91,8,0.042994744567248,1
432,92,8,0.0491421047354606,1
432,93,8,0.0494416054040358,1
433,83,8,0.0419823983531691,1
433,84,8,0.0422019334137682,1
433,85,8,0.0415925619592346,1
433,92,8,0.0411313161151754,1
433,93,8,0.0416425472226382,1
434,83,8,0.0433527785469759,1
434,84,8,0.045720360690633,1
434,85,8,0.0461278014131388,1
434,86,8,0.0423340199454015,1
434,93,8,0.0411003679650702,1
434,94,8,0.042892286942424,1
435,83,8,0.0417897374679889,1
435,84,8,0.0465635085452795,1
435,85,8,0.0493176830419795,1
435,86,8,0.0457010802742677,1
435,93,8,0.0434587883965761,1
435,94,8,0.0458273815996443,1
435,95,8,0.046662332844305,1
436,84,8,0.0446696563963792,1
436,85,8,0.0479600681490809,1
436,86,8,0.0468192146618191,1
436,87,8,0.0441474496172335,1
436,88,8,0.042560540507387,1
436,89,8,0.0411623588831399,1
436,91,8,0.0420337731474212,1
436,92,8,0.0446884637234478,1
436,93,8,0.0466419981146499,1
436,94,8,0.0484587961822743,1
437,84,8,0.0468181279081205,1
437,85,8,0.0514857134169292,1
437,86,8,0.0498873690629402,1
437,87,8,0.0490314559073855,1
437,88,8,0.0485169726489289,1
437,89,8,0.0469687973873273,1
437,90,8,0.0461202806450053,1
437,91,8,0.0470439131541706,1
437,92,8,0.0489266030990366,1
437,93,8,0.0491149142660548,1
438,84,8,0.0555461982998284,1
438,85,8,0.063790674109102,1
438,86,8,0.0599494647635306,1
438,87,8,0.0586372664431133,1
438,88,8,0.0581237834305983,1
438,89,8,0.055610478970094,1
438,90,8,0.0541785431003705,1
438,91,8,0.0548674314038903,1
438,92,8,0.0551321397339039,1
439,85,8,0.0694034758124744,1
439,86,8,0.0684016889514974,1
439,87,8,0.0681578722448253,1
439,88,8,0.0666004730936221,1
439,89,8,0.0630554609016513,1
439,90,8,0.0632534609374655,1
439,91,8,0.0641550123416292,1
439,92,8,0.0609135450558784,1
439,93,8,0.0588881389387246,1
440,86,8,0.0732070326567648,1
440,87,8,0.0720377775914977,1
440,88,8,0.0673178927367828,1
440,89,8,0.0674967150841932,1
440,90,8,0.076952250832356,1
440,91,8,0.0786793511693297,1
440,92,8,0.0692935731138043,1
440,93,8,0.0636932014937813,1
441,86,8,0.0874260207288157,1
441,87,8,0.0806923380166038,1
441,88,8,0.0702333609466094,1
441,89,8,0.0744556910295868,1
441,90,8,0.0915147395809408,1
441,91,8,0.0915921423966126,1
441,92,8,0.0761187485926269,1
441,93,8,0.0656376958243657,1
441,94,8,0.0603107806312938,1
441,95,8,0.0523340030763889,1
442,87,8,0.0774597918433047,1
442,88,8,0.0673653909021695,1
442,89,8,0.0727064447067936,1
442,90,8,0.0894848404671523,1
442,91,8,0.0878642257724429,1
442,92,8,0.0725689352201367,1
442,93,8,0.0609008338223184,1
442,94,8,0.0550569482727731,1
442,95,8,0.0491492037782782,1
443,88,8,0.0608943078933916,1
443,89,8,0.0661334934072871,1
443,90,8,0.0787669673070749,1
443,91,8,0.0783048590888121,1
443,92,8,0.070975008168495,1
443,93,8,0.0694447075722057,1
443,94,8,0.0592485681019774,1
443,95,8,0.049529762215263,1
444,89,8,0.0597095679396024,1
444,90,8,0.0680935266937419,1
444,91,8,0.0772398350573897,1
444,92,8,0.110670714537637,1
444,93,8,0.156790908674885,1
444,94,8,0.120484024742257,1
444,95,8,0.0684018565602768,1
445,90,8,0.0629528518882524,1
445,91,8,0.0864421571937645,1
445,92,8,0.176401557589468,1
445,93,8,0.273190437224911,1
445,94,8,0.201650144117598,1
445,95,8,0.0937087385032272,1
446,91,8,0.0790138063785111,1
446,92,8,0.155684442021074,1
446,93,8,0.234008651813804,1
446,94,8,0.166678442535103,1
446,95,8,0.0777808924174826,1
447,92,8,0.0938067842324387,1
447,93,8,0.114179631367955,1
447,94,8,0.0796244321955228,1
449,92,8,0.0640619245882469,1
450,92,8,0.0517333580918534,1
424,82,9,0.0444678851630286,1
425,81,9,0.0579881446741889,1
425,82,9,0.0459437129060144,1
426,80,9,0.0643180902772461,1
426,81,9,0.0563669838992628,1
426,82,9,0.047269660553077,1
427,79,9,0.0572257680310065,1
427,80,9,0.0554717259344287,1
427,81,9,0.050597965406759,1
427,82,9,0.0445128908236637,1
427,91,9,0.0427922893819427,1
428,79,9,0.0489436829743305,1
428,80,9,0.0478453913035655,1
428,81,9,0.044154013393304,1
428,91,9,0.0461890543119056,1
429,79,9,0.0433836266724869,1
429,80,9,0.0425655174067881,1
429,91,9,0.0473392992975484,1
430,91,9,0.051258198015737,1
430,92,9,0.076075743423875,1
431,91,9,0.0477072330087303,1
431,92,9,0.0661876742969104,1
432,87,9,0.0411695525438168,1
432,91,9,0.0424018149932995,1
432,92,9,0.0494628971257538,1
432,93,9,0.0529992098814005,1
433,93,9,0.0418175524152663,1
434,83,9,0.0421603204792322,1
434,84,9,0.0439605279810638,1
434,85,9,0.0430017949494522,1
434,94,9,0.043771024629018,1
435,83,9,0.0419655239337984,1
435,84,9,0.046554641500176,1
435,85,9,0.0472886435990272,1
435,86,9,0.0424581666869527,1
435,93,9,0.0428548507105358,1
435,94,9,0.0465181352266767,1
435,95,9,0.048278411288501,1
436,84,9,0.0452189563237041,1
436,85,9,0.0476175623117537,1
436,86,9,0.0447867500523588,1
436,87,9,0.0419902137883503,1
436,91,9,0.0410746508309027,1
436,92,9,0.0432237360070459,1
436,93,9,0.045885887877123,1
436,94,9,0.0486404732856693,1
436,95,9,0.0513279178612307,1
437,84,9,0.0457820461281853,1
437,85,9,0.0510537747789575,1
437,86,9,0.0494029094029347,1
437,87,9,0.0481651023468949,1
437,88,9,0.0478928948756871,1
437,89,9,0.0464881332551649,1
437,90,9,0.0449948417587131,1
437,91,9,0.0458789834767589,1
437,92,9,0.0480696031897832,1
437,93,9,0.0497747143362472,1
437,94,9,0.0510390684602493,1
438,84,9,0.049585954410239,1
438,85,9,0.0572450430406369,1
438,86,9,0.0544344546728333,1
438,87,9,0.0540722196601508,1
438,88,9,0.0554333435239471,1
438,89,9,0.0534524023939465,1
438,90,9,0.0517319847812093,1
438,91,9,0.0528576831907729,1
438,92,9,0.0542585681824296,1
438,93,9,0.054372228561799,1
439,85,9,0.0607690284408958,1
439,86,9,0.0607510294206826,1
439,87,9,0.063078915317297,1
439,88,9,0.0649751275059459,1
439,89,9,0.0620414169728392,1
439,90,9,0.0621749957632826,1
439,91,9,0.0642469809009039,1
439,92,9,0.0617324112644519,1
439,93,9,0.0588879118558622,1
440,86,9,0.0672097580403986,1
440,87,9,0.0694629607089553,1
440,88,9,0.0686034520747458,1
440,89,9,0.0687648647360384,1
440,90,9,0.0778772025848172,1
440,91,9,0.0813426384537188,1
440,92,9,0.071113052921899,1
440,93,9,0.0641177923791337,1
440,94,9,0.0618537275803253,1
440,95,9,0.0554539323701387,1
441,86,9,0.0784785504448791,1
441,87,9,0.075607298512404,1
441,88,9,0.0709006169041175,1
441,89,9,0.0774114664474906,1
441,90,9,0.0955814368021473,1
441,91,9,0.0970094960430054,1
441,92,9,0.0784882771608189,1
441,93,9,0.0682566803236463,1
441,94,9,0.0654661130948782,1
441,95,9,0.0571768749280364,1
441,96,9,0.0477432310491566,1
442,87,9,0.071591186702166,1
442,88,9,0.067667903122039,1
442,89,9,0.0774592673900272,1
442,90,9,0.096571658657346,1
442,91,9,0.0951542398706121,1
442,92,9,0.0760848267383712,1
442,93,9,0.0659395700495266,1
442,94,9,0.0629614107494712,1
442,95,9,0.0549610976778982,1
442,96,9,0.0465800261201522,1
443,88,9,0.0617075997583665,1
443,89,9,0.0706751668756262,1
443,90,9,0.0863135850397637,1
443,91,9,0.0857672020458738,1
443,92,9,0.0747257141799277,1
443,93,9,0.0724374812764773,1
443,94,9,0.0669238012425455,1
443,95,9,0.0551708195148005,1
443,96,9,0.0457384570320728,1
444,88,9,0.056322627046806,1
444,89,9,0.0626762974022499,1
444,90,9,0.0750499019996874,1
444,91,9,0.0814091575121995,1
444,92,9,0.0990345669426005,1
444,93,9,0.13392749239878,1
444,94,9,0.11561197274279,1
444,95,9,0.071223107009144,1
445,89,9,0.0613593195282524,1
445,90,9,0.0731020014261669,1
445,91,9,0.0895716023407961,1
445,92,9,0.146090104576632,1
445,93,9,0.220636563870364,1
445,94,9,0.181961021853849,1
445,95,9,0.0952429211351167,1
446,90,9,0.0683034864269762,1
446,91,9,0.0811619075289172,1
446,92,9,0.125664293066827,1
446,93,9,0.182209969551865,1
446,94,9,0.14410652496004,1
447,91,9,0.0674548074826096,1
447,92,9,0.0828081771803437,1
447,93,9,0.0957360153506285,1
448,92,9,0.0779610664485979,1
449,91,9,0.0682255915984358,1
449,92,9,0.0754095579998611,1
449,93,9,0.0619408354849975,1
450,91,9,0.0631612058212454,1
450,92,9,0.0661734221439269,1
450,93,9,0.0553221378021857,1
451,92,9,0.0519294657704809,1
424,81,10,0.0609930186509859,1
424,82,10,0.0430755211854469,1
425,80,10,0.0862021143879961,1
425,81,10,0.0678583553560456,1
425,82,10,0.0469598113940578,1
426,79,10,0.0824443255539503,1
426,80,10,0.0803900258459226,1
426,81,10,0.0657781627949687,1
426,82,10,0.0492741750468894,1
426,83,10,0.0412927098528962,1
427,78,10,0.0536618863345167,1
427,79,10,0.0638454767732295,1
427,80,10,0.0626334165883988,1
427,81,10,0.05550577755032,1
427,82,10,0.0455618081920597,1
428,78,10,0.0459544182409565,1
428,79,10,0.0506215387705708,1
428,80,10,0.0502611420477269,1
428,81,10,0.0459412366214672,1
428,91,10,0.0455672581807574,1
429,78,10,0.0413727376383227,1
429,79,10,0.0426017722671183,1
429,80,10,0.0417660154189696,1
429,91,10,0.0461574789805614,1
430,91,10,0.0496034884512577,1
430,92,10,0.0701182245286344,1
431,91,10,0.0462232465029023,1
431,92,10,0.0611202931886301,1
432,92,10,0.0468986287828436,1
433,93,10,0.04167583648892,1
435,83,10,0.0416141077974891,1
435,84,10,0.0445294732793542,1
435,85,10,0.0422521917172802,1
435,93,10,0.042101249197965,1
435,94,10,0.0465259425517556,1
436,84,10,0.044337709912154,1
436,85,10,0.0446997908328941,1
436,86,10,0.0411230248873301,1
436,92,10,0.0417483570230501,1
436,93,10,0.0456879581288614,1
436,94,10,0.0504120223895917,1
436,95,10,0.0535626727505842,1
437,84,10,0.0446661312052771,1
437,85,10,0.0490032327516292,1
437,86,10,0.0472055799319997,1
437,87,10,0.0450374170920469,1
437,88,10,0.0449602224356657,1
437,89,10,0.044141407591073,1
437,90,10,0.0432090080613984,1
437,91,10,0.0443606101374807,1
437,92,10,0.0464800069327317,1
437,93,10,0.0506099683580577,1
437,94,10,0.0546622782579103,1
437,95,10,0.0569029859622997,1
438,84,10,0.0451015517804724,1
438,85,10,0.0505017850010602,1
438,86,10,0.0490827441938805,1
438,87,10,0.0484311839875526,1
438,88,10,0.0504299997828655,1
438,89,10,0.049401346856572,1
438,90,10,0.0481581817263263,1
438,91,10,0.049779893988204,1
438,92,10,0.0517348179102546,1
438,93,10,0.0541294661684166,1
438,94,10,0.0555867812513814,1
439,84,10,0.0459044329775529,1
439,85,10,0.0524938315643795,1
439,86,10,0.0528395111550455,1
439,87,10,0.0550508981365104,1
439,88,10,0.0586794876353165,1
439,89,10,0.0578547497127294,1
439,90,10,0.058209144959924,1
439,91,10,0.0616410320392724,1
439,92,10,0.0602101991434521,1
439,93,10,0.0575036579805093,1
440,86,10,0.059696899959921,1
440,87,10,0.0627307053747356,1
440,88,10,0.0651612651655668,1
440,89,10,0.0669806909063132,1
440,90,10,0.0735448346347993,1
440,91,10,0.0785506222200192,1
440,92,10,0.0699221817308247,1
440,93,10,0.0628166346112173,1
440,94,10,0.0616461414036766,1
440,95,10,0.0569274676575611,1
441,86,10,0.0659556983394922,1
441,87,10,0.0667137225611452,1
441,88,10,0.0676798520059895,1
441,89,10,0.0759473442853884,1
441,90,10,0.0900141760261572,1
441,91,10,0.0933392206187433,1
441,92,10,0.0768600011228707,1
441,93,10,0.0690329036147007,1
441,94,10,0.0703967578795807,1
441,95,10,0.0631676722760892,1
441,96,10,0.0510685297582792,1
442,84,10,0.0418784025122891,1
442,85,10,0.0527829242684277,1
442,87,10,0.0630234368113172,1
442,88,10,0.0649259965066438,1
442,89,10,0.0770280424410517,1
442,90,10,0.093074831286084,1
442,91,10,0.0937342150376953,1
442,92,10,0.0765096879604646,1
442,93,10,0.0705687569276493,1
442,94,10,0.0719858513102941,1
442,95,10,0.0627546896503936,1
442,96,10,0.0502770324413605,1
443,84,10,0.0416334098407937,1
443,85,10,0.0473530810646025,1
443,87,10,0.0564806118382232,1
443,88,10,0.060295912110541,1
443,89,10,0.0706988591876039,1
443,90,10,0.0845153753264478,1
443,91,10,0.086148198428379,1
443,92,10,0.0770374771933112,1
443,93,10,0.0767724174255343,1
443,94,10,0.0748176286718542,1
443,95,10,0.0609656984199445,1
443,96,10,0.0492555758791113,1
444,87,10,0.0526177809601098,1
444,88,10,0.0564779733516315,1
444,89,10,0.0630073193348211,1
444,90,10,0.0747589385653917,1
444,91,10,0.0812425057248671,1
444,92,10,0.0902855292332636,1
444,93,10,0.110660128150861,1
444,94,10,0.103418563803407,1
444,95,10,0.0691598807819298,1
444,96,10,0.0496799072411924,1
445,88,10,0.0545277208484646,1
445,89,10,0.0619455988183732,1
445,90,10,0.0759643863135385,1
445,91,10,0.0888591244532602,1
445,92,10,0.117764437128195,1
445,93,10,0.157879262767053,1
445,94,10,0.142701628171147,1
445,95,10,0.0846808268186504,1
446,89,10,0.0611309552696936,1
446,90,10,0.0724452831948214,1
446,91,10,0.0819175257535756,1
446,92,10,0.101370752177162,1
446,93,10,0.127790945700205,1
446,94,10,0.111655324202094,1
447,90,10,0.0615206781221969,1
447,91,10,0.0677393639361445,1
447,92,10,0.075550717032521,1
447,93,10,0.0796876801794379,1
448,91,10,0.0694876694870791,1
448,92,10,0.0782342200983991,1
448,93,10,0.068575693898184,1
449,90,10,0.0574369659065144,1
449,91,10,0.077277238848869,1
449,92,10,0.0888213530038132,1
449,93,10,0.0714652043741436,1
449,94,10,0.0511776484804004,1
450,90,10,0.0569564369427224,1
450,91,10,0.0747865994207268,1
450,92,10,0.0832527081037093,1
450,93,10,0.0663631606889374,1
450,94,10,0.0485116578286017,1
451,91,10,0.0581150785875394,1
451,92,10,0.0601124724115949,1
451,93,10,0.0513917822129151,1
424,80,11,0.0765927624409617,1
424,81,11,0.0600108636441375,1
424,82,11,0.0425699238956658,1
425,79,11,0.0918383975406883,1
425,80,11,0.099890604453056,1
425,81,11,0.0744888991948464,1
425,82,11,0.047602391013851,1
426,78,11,0.0643942657641139,1
426,79,11,0.0946852705058636,1
426,80,11,0.101170421838641,1
426,81,11,0.0763785530141595,1
426,82,11,0.0491086532671341,1
427,78,11,0.0557340444876522,1
427,79,11,0.0757974155288518,1
427,80,11,0.0816655502840612,1
427,81,11,0.0658747108586353,1
427,82,11,0.0459020107603539,1
428,78,11,0.0482118976367551,1
428,79,11,0.0560297820687932,1
428,80,11,0.0591339236968709,1
428,81,11,0.0508135751778794,1
428,91,11,0.0433264531551412,1
429,78,11,0.0429187799430381,1
429,79,11,0.0436368970549905,1
429,80,11,0.0435261671258931,1
429,91,11,0.0431276691427782,1
430,91,11,0.0444023690538569,1
430,92,11,0.0579573641328631,1
431,91,11,0.0416499463392383,1
431,92,11,0.0522970426371648,1
432,92,11,0.0442471281803604,1
433,93,11,0.0432946615544042,1
435,93,11,0.0411213920534147,1
435,94,11,0.0464667658391594,1
436,84,11,0.0416472375650938,1
436,93,11,0.0454932778282262,1
436,94,11,0.0546286970279481,1
437,84,11,0.0426129128442133,1
437,85,11,0.0448944981672034,1
437,86,11,0.0427159084391518,1
437,89,11,0.0411671276232504,1
437,90,11,0.0420481469519381,1
437,91,11,0.0431668084961344,1
437,92,11,0.0451305859464515,1
437,93,11,0.0517218850005671,1
437,94,11,0.0621296224446798,1
437,95,11,0.0661964440207871,1
438,84,11,0.0421845832017334,1
438,85,11,0.045082752563506,1
438,86,11,0.0439329320065466,1
438,87,11,0.0433663602648418,1
438,88,11,0.0459289903671017,1
438,89,11,0.0463632160539019,1
438,90,11,0.0468306066520832,1
438,91,11,0.0483576307670721,1
438,92,11,0.0510334941166507,1
438,93,11,0.0559598838010505,1
438,94,11,0.0612718223386732,1
439,84,11,0.0453981301088778,1
439,85,11,0.0491762644860483,1
439,86,11,0.0486166674322603,1
439,87,11,0.049424341699758,1
439,88,11,0.0537266427974463,1
439,89,11,0.0547633301316812,1
439,90,11,0.0562971667325423,1
439,91,11,0.0597459660784053,1
439,92,11,0.060259427463981,1
439,93,11,0.0584001270539429,1
440,85,11,0.0554557274060986,1
440,86,11,0.0573158928937078,1
440,87,11,0.0589126098205163,1
440,88,11,0.0636317323256218,1
440,89,11,0.0664559672921091,1
440,90,11,0.0712675719962971,1
440,91,11,0.0754800888555776,1
440,92,11,0.0702430876625492,1
440,93,11,0.06244078544026,1
440,94,11,0.0614488820905326,1
440,95,11,0.0581226534230211,1
441,84,11,0.049847780950594,1
441,85,11,0.0575862026009941,1
441,86,11,0.0607442115280756,1
441,87,11,0.0618077378939531,1
441,88,11,0.0667986839920942,1
441,89,11,0.0744198227507962,1
441,90,11,0.083894736236551,1
441,91,11,0.0863063778622497,1
441,92,11,0.0754982662980398,1
441,93,11,0.0682003042996864,1
441,94,11,0.0719490476663797,1
441,95,11,0.0667677845026025,1
441,96,11,0.0546614077736044,1
442,83,11,0.0428114130029983,1
442,84,11,0.0502115028153517,1
442,85,11,0.0555670682962306,1
442,86,11,0.057596015824691,1
442,87,11,0.058126784168423,1
442,88,11,0.0639024421312847,1
442,89,11,0.0753205739582065,1
442,90,11,0.0867098067875197,1
442,91,11,0.0866959871733218,1
442,92,11,0.075494195026721,1
442,93,11,0.0723060922136358,1
442,94,11,0.0775123453057474,1
442,95,11,0.0691248126998924,1
442,96,11,0.0546011551207791,1
443,83,11,0.0463911039920994,1
443,84,11,0.0509131888601885,1
443,85,11,0.0532879673678899,1
443,86,11,0.0536825616884653,1
443,87,11,0.0548490268785657,1
443,88,11,0.0608455607722617,1
443,89,11,0.071267636877115,1
443,90,11,0.0803935456302899,1
443,91,11,0.0803754060349715,1
443,92,11,0.0751512079899949,1
443,93,11,0.0772746544296254,1
443,94,11,0.0786650395422632,1
443,95,11,0.066032473973925,1
443,96,11,0.0530611332152848,1
444,83,11,0.0474395293476268,1
444,84,11,0.0484770493190239,1
444,85,11,0.0490338456841756,1
444,87,11,0.0534450330143879,1
444,88,11,0.058937799798039,1
444,89,11,0.0660089925246052,1
444,90,11,0.0730109790454855,1
444,91,11,0.0761633811885595,1
444,92,11,0.08090328718231,1
444,93,11,0.0913256768777828,1
444,94,11,0.0880636802199235,1
444,95,11,0.0657129954201928,1
444,96,11,0.0516507810309597,1
445,82,11,0.0465819076638693,1
445,83,11,0.047490455382889,1
445,84,11,0.0462344438507129,1
445,87,11,0.0515713128425869,1
445,88,11,0.0562132217677393,1
445,89,11,0.0632810677254524,1
445,90,11,0.0743158350200183,1
445,91,11,0.0839584113525168,1
445,92,11,0.0962108239889817,1
445,93,11,0.110152943984411,1
445,94,11,0.102381379049569,1
445,95,11,0.0707723853744103,1
446,82,11,0.0492579980963103,1
446,83,11,0.0488488975062149,1
446,84,11,0.0470556025148497,1
446,88,11,0.0532683949878444,1
446,89,11,0.0602333399684783,1
446,90,11,0.0727920441324513,1
446,91,11,0.0828914679302336,1
446,92,11,0.0885129420362559,1
446,93,11,0.0921322103242337,1
446,94,11,0.082956710999297,1
447,89,11,0.0559024480570661,1
447,90,11,0.0645367710737438,1
447,91,11,0.0721026475958586,1
447,92,11,0.0741343795927509,1
447,93,11,0.0701369588647829,1
447,94,11,0.0623818249970566,1
448,90,11,0.0581092987880177,1
448,91,11,0.0696353274149916,1
448,92,11,0.076265703645013,1
448,93,11,0.0664470732133315,1
449,90,11,0.0579524115637687,1
449,91,11,0.081733442653186,1
449,92,11,0.0970765503682332,1
449,93,11,0.077749300865934,1
449,94,11,0.053832490445002,1
450,90,11,0.0576245417575971,1
450,91,11,0.0843751192185028,1
450,92,11,0.100737504581667,1
450,93,11,0.0793597617126529,1
450,94,11,0.0534465090529935,1
451,91,11,0.0648571309252515,1
451,92,11,0.072518117319571,1
451,93,11,0.0607277966811645,1
451,94,11,0.047945113120571,1
452,92,11,0.0501566677108153,1
452,93,11,0.0466011880802346,1
424,80,12,0.0692334394091451,1
424,81,12,0.0540723980823999,1
424,82,12,0.0423693042968316,1
425,79,12,0.0851108082186176,1
425,80,12,0.100250022556898,1
425,81,12,0.0727680760769978,1
425,82,12,0.0479281521934431,1
426,78,12,0.0620881744155558,1
426,79,12,0.0987802665771138,1
426,80,12,0.123280820529536,1
426,81,12,0.0891450434039695,1
426,82,12,0.0520486139856918,1
427,77,12,0.0540504629592383,1
427,78,12,0.0583557539812816,1
427,79,12,0.086902243293205,1
427,80,12,0.110755384004906,1
427,81,12,0.08359914463725,1
427,82,12,0.0496753926176183,1
428,77,12,0.0564992434464102,1
428,78,12,0.0517209820758523,1
428,79,12,0.0596684443145675,1
428,80,12,0.0712844896695464,1
428,81,12,0.0576358256131648,1
429,78,12,0.0445652063897744,1
429,79,12,0.0417635391344224,1
429,80,12,0.0423312084432955,1
430,92,12,0.0473235386655504,1
431,92,12,0.0446066030549176,1
432,92,12,0.0423728673350775,1
432,93,12,0.0542664187613871,1
433,93,12,0.0457656583149483,1
434,94,12,0.0423498022043388,1
435,94,12,0.0440251600890926,1
436,93,12,0.042800475178459,1
436,94,12,0.0538040996804663,1
437,92,12,0.0419102887308854,1
437,93,12,0.049396080696858,1
437,94,12,0.063564645559985,1
437,95,12,0.0702151078098598,1
438,85,12,0.0420290557712915,1
438,86,12,0.0410723286382978,1
438,88,12,0.0431606907756865,1
438,89,12,0.0441870917969279,1
438,90,12,0.0454960785168626,1
438,91,12,0.0459624148017541,1
438,92,12,0.0489086851798457,1
438,93,12,0.0554345600392814,1
438,94,12,0.0633745123233328,1
439,84,12,0.0465551172928401,1
439,85,12,0.0491437916367242,1
439,86,12,0.0472445300496373,1
439,87,12,0.0464778063916602,1
439,88,12,0.0504393426206331,1
439,89,12,0.0529379137287551,1
439,90,12,0.0552290878959471,1
439,91,12,0.0569335556409675,1
439,92,12,0.0585674492763929,1
439,93,12,0.0584801629494716,1
440,84,12,0.0530286765861651,1
440,85,12,0.0579094118017516,1
440,86,12,0.0558400813709265,1
440,87,12,0.0550745742282838,1
440,88,12,0.0605929473080386,1
440,89,12,0.0648563415419679,1
440,90,12,0.0691232123063859,1
440,91,12,0.0716757642549429,1
440,92,12,0.0689045477300927,1
440,93,12,0.0614599929305861,1
440,95,12,0.0581119751217532,1
441,83,12,0.0467722409497098,1
441,84,12,0.0602281386895822,1
441,85,12,0.0648683228663273,1
441,86,12,0.0594744668894587,1
441,87,12,0.0572242541452571,1
441,88,12,0.0637359741729361,1
441,89,12,0.0708068911560265,1
441,90,12,0.0775319284992626,1
441,91,12,0.0791944075416771,1
441,92,12,0.0731912503978275,1
441,93,12,0.0658076457199379,1
441,94,12,0.0677376013405934,1
441,95,12,0.0662379461172594,1
441,96,12,0.0571808434713937,1
442,83,12,0.0544837965347934,1
442,84,12,0.0728990704481976,1
442,85,12,0.0740034392888993,1
442,86,12,0.0605376364108381,1
442,87,12,0.054777063238122,1
442,88,12,0.0618497374100287,1
442,89,12,0.0719577687296431,1
442,90,12,0.079076102777098,1
442,91,12,0.0778958504132086,1
442,92,12,0.0721220902142685,1
442,93,12,0.0707768567441058,1
442,94,12,0.0763000742582587,1
442,95,12,0.0713555179448664,1
442,96,12,0.0575394559717473,1
443,77,12,0.0576507373877962,1
443,78,12,0.0494163667658997,1
443,79,12,0.04421244938323,1
443,82,12,0.041746805290157,1
443,83,12,0.059236857114359,1
443,84,12,0.0760007844523414,1
443,85,12,0.074185932809252,1
443,86,12,0.0587604102353556,1
443,87,12,0.0534433190794502,1
443,88,12,0.0618063429563697,1
443,89,12,0.0724189848366608,1
443,90,12,0.0758787598542068,1
443,91,12,0.0721419869984032,1
443,92,12,0.0701611648165685,1
443,93,12,0.0749007518129647,1
443,94,12,0.0781456794089998,1
443,95,12,0.0686282527673615,1
443,96,12,0.0551084690488654,1
444,77,12,0.0772183919470967,1
444,78,12,0.0608496320435805,1
444,79,12,0.049423773992602,1
444,80,12,0.04371974985936,1
444,82,12,0.0456932729491887,1
444,83,12,0.0547046508386884,1
444,84,12,0.0617165965651057,1
444,85,12,0.0598957758867759,1
444,86,12,0.0528139967734337,1
444,87,12,0.0529316256961604,1
444,88,12,0.0613604927897082,1
444,89,12,0.0702675639510757,1
444,90,12,0.071335161588272,1
444,91,12,0.0699824506038544,1
444,92,12,0.073658484200699,1
444,93,12,0.0802137879177557,1
444,94,12,0.0775806756203925,1
444,95,12,0.0634228593460861,1
444,96,12,0.0521926602147451,1
445,78,12,0.0690007065088523,1
445,79,12,0.0521337700590943,1
445,81,12,0.0462429973051969,1
445,82,12,0.0490558348746853,1
445,83,12,0.0521422964799042,1
445,84,12,0.0519348076244823,1
445,85,12,0.0506969086539505,1
445,87,12,0.051422708736081,1
445,88,12,0.0569230611686835,1
445,89,12,0.0647965052077237,1
445,90,12,0.0708747889318861,1
445,91,12,0.0785006748037593,1
445,92,12,0.0846049757358718,1
445,93,12,0.0859624987142785,1
445,94,12,0.0768890515090543,1
445,95,12,0.060465299705692,1
446,81,12,0.0484577743093934,1
446,82,12,0.051209450894607,1
446,83,12,0.0528578670197567,1
446,84,12,0.0511796381588139,1
446,85,12,0.0493708474654568,1
446,88,12,0.0516233851056307,1
446,89,12,0.0588006309356757,1
446,90,12,0.0709908661217197,1
446,91,12,0.0848195257869676,1
446,92,12,0.0863814611886841,1
446,93,12,0.0783612188925675,1
446,94,12,0.0667002814183846,1
447,82,12,0.052180013862003,1
447,83,12,0.0529421580155882,1
447,84,12,0.0507265213405553,1
447,85,12,0.0485171889183217,1
447,89,12,0.0552315371468202,1
447,90,12,0.0668727454456477,1
447,91,12,0.0792391644925105,1
447,92,12,0.0776381870586645,1
447,93,12,0.0674170684735715,1
447,94,12,0.057749491399269,1
448,83,12,0.0540242889559785,1
448,84,12,0.0526868249637511,1
448,90,12,0.0600270405947166,1
448,91,12,0.0719258365538009,1
448,92,12,0.0753634385518532,1
448,93,12,0.0646693550249804,1
448,94,12,0.0536236499058752,1
449,90,12,0.0567396485034115,1
449,91,12,0.0786242619482568,1
449,92,12,0.0949234047342408,1
449,93,12,0.0779723665243701,1
449,94,12,0.0553113405527517,1
450,90,12,0.056269332861693,1
450,91,12,0.0849198531582728,1
450,92,12,0.108318947093326,1
450,93,12,0.0885653116697148,1
450,94,12,0.0593278849017752,1
451,90,12,0.0505665522774594,1
451,91,12,0.0668510968794316,1
451,92,12,0.0810485445199628,1
451,93,12,0.0694692703684893,1
451,94,12,0.0532439943936053,1
451,95,12,0.0468584134892584,1
452,91,12,0.0533464195780204,1
452,92,12,0.0558738788702814,1
452,93,12,0.0514144418385424,1
452,94,12,0.046615710569959,1
453,92,12,0.0459633772005519,1
453,93,12,0.0437966931025722,1
420,88,13,0.046287851577257,1
421,86,13,0.0426317093578123,1
421,87,13,0.0447158163948982,1
421,88,13,0.0420312617190977,1
423,82,13,0.041424793681162,1
424,81,13,0.0485758628045798,1
424,82,13,0.0423761194860713,1
425,80,13,0.0875731920505946,1
425,81,13,0.0633927222062039,1
425,82,13,0.0466799533930808,1
426,78,13,0.0596736672204028,1
426,79,13,0.0897630223803353,1
426,80,13,0.121434236759793,1
426,81,13,0.0894436249276254,1
426,82,13,0.0532675947910911,1
427,79,13,0.088100148646279,1
427,80,13,0.122114209357596,1
427,81,13,0.092955266752292,1
427,82,13,0.0535070752964383,1
428,79,13,0.0600860280715942,1
428,80,13,0.0746761019812266,1
428,81,13,0.0598437306574062,1
428,82,13,0.0410036171488479,1
428,92,13,0.0456279541858379,1
429,77,13,0.0561509686230309,1
429,78,13,0.0481748831301828,1
429,79,13,0.0416795292888016,1
429,80,13,0.0415534496395525,1
429,92,13,0.0438168656301826,1
430,93,13,0.051247162869971,1
431,93,13,0.0495841647810138,1
432,93,13,0.0500221859956571,1
432,94,13,0.0509500411647162,1
433,93,13,0.0428761181019471,1
433,94,13,0.0433481638988077,1
435,95,13,0.0436932622654807,1
436,94,13,0.0488827869200617,1
436,95,13,0.0560419742558105,1
437,93,13,0.0451350951632907,1
437,94,13,0.058995338269985,1
437,95,13,0.0674605980956009,1
438,89,13,0.0416717165569878,1
438,90,13,0.0432594528972616,1
438,91,13,0.0436279786459062,1
438,92,13,0.045716830092796,1
438,93,13,0.0518526793225785,1
438,94,13,0.0606375150231534,1
439,84,13,0.0477862848785219,1
439,85,13,0.051025767892594,1
439,86,13,0.0479859393751908,1
439,87,13,0.0458551127425321,1
439,88,13,0.0488065952129895,1
439,89,13,0.0516212656655816,1
439,90,13,0.0540549235154642,1
439,91,13,0.0550020104402752,1
439,92,13,0.0561700814306168,1
439,93,13,0.0570631064139706,1
440,84,13,0.0571788808266543,1
440,85,13,0.0629764739126775,1
440,86,13,0.0580376271112543,1
440,87,13,0.0540747824524551,1
440,88,13,0.0575229600238139,1
440,89,13,0.0618685744741388,1
440,90,13,0.0653714303547242,1
440,91,13,0.0676420913700121,1
440,92,13,0.0662801132421144,1
440,93,13,0.0601583864036796,1
441,83,13,0.0519890858353323,1
441,84,13,0.0699219979018409,1
441,85,13,0.0737631531800641,1
441,86,13,0.0624567893753249,1
441,87,13,0.0560996208624529,1
441,88,13,0.0603114997270248,1
441,89,13,0.0663693676205099,1
441,90,13,0.0708584389657928,1
441,91,13,0.0739965727356789,1
441,92,13,0.0717157470589309,1
441,93,13,0.0643053520100121,1
441,94,13,0.0611863797083253,1
441,95,13,0.0618275265433914,1
442,77,13,0.0460000835232395,1
442,78,13,0.0431488581365347,1
442,79,13,0.0413344660659049,1
442,82,13,0.0417239212850347,1
442,83,13,0.064499621398801,1
442,84,13,0.091200932692034,1
442,85,13,0.0880500065875657,1
442,86,13,0.0638698935876731,1
442,87,13,0.0533056257638094,1
442,88,13,0.0587000386343643,1
442,89,13,0.0671390271354937,1
442,90,13,0.0702221635987988,1
442,91,13,0.0702688507539627,1
442,92,13,0.0685316344161423,1
442,93,13,0.0672596838297192,1
442,94,13,0.0691670284853608,1
442,95,13,0.0684721062657828,1
442,96,13,0.0599714539540403,1
443,76,13,0.057008963371491,1
443,77,13,0.0546122605540978,1
443,78,13,0.0519894697135045,1
443,79,13,0.0486777419087781,1
443,80,13,0.0439769644549142,1
443,81,13,0.0413262613458167,1
443,82,13,0.0463414323193154,1
443,83,13,0.0700761763519454,1
443,84,13,0.095234508255738,1
443,85,13,0.0876311522478565,1
443,86,13,0.0616212217628949,1
443,87,13,0.0524986868122471,1
443,88,13,0.06161164643553,1
443,89,13,0.0727025410442542,1
443,90,13,0.0716384740048948,1
443,91,13,0.0664369301788107,1
443,92,13,0.0661366617538911,1
443,93,13,0.0712058865587448,1
443,94,13,0.0737505122340568,1
443,95,13,0.0689310082902979,1
443,96,13,0.0580831301914927,1
444,76,13,0.0627634215271266,1
444,77,13,0.0630524817907659,1
444,78,13,0.0585712556177056,1
444,79,13,0.0529441044401231,1
444,80,13,0.0479754286827023,1
444,81,13,0.0465466341259088,1
444,82,13,0.0495349743076287,1
444,83,13,0.0605110406822625,1
444,84,13,0.0709152367150686,1
444,85,13,0.0655217592096374,1
444,86,13,0.0538273918940674,1
444,87,13,0.0526628298746234,1
444,88,13,0.0634106725658036,1
444,89,13,0.0756066497042256,1
444,90,13,0.072748211733272,1
444,91,13,0.0671603512976207,1
444,92,13,0.0691471154810216,1
444,93,13,0.0750136282157853,1
444,94,13,0.073511529148313,1
444,95,13,0.064776251579091,1
444,96,13,0.054106038786445,1
445,77,13,0.067757233194722,1
445,78,13,0.0608991739547289,1
445,79,13,0.0524752053629273,1
445,80,13,0.0474625458177522,1
445,81,13,0.0486100225551675,1
445,82,13,0.0527524086571081,1
445,83,13,0.057157745900246,1
445,84,13,0.0573357788643729,1
445,85,13,0.0540007372191061,1
445,86,13,0.051270995757054,1
445,87,13,0.0519974446473628,1
445,88,13,0.0586013657239138,1
445,89,13,0.0687080237328841,1
445,90,13,0.0704598706951253,1
445,91,13,0.0729355010274094,1
445,92,13,0.0761754598341456,1
445,93,13,0.0761432519148276,1
445,94,13,0.0696798897233716,1
445,95,13,0.0599934323310804,1
446,78,13,0.0578851842230267,1
446,79,13,0.0515588124716849,1
446,80,13,0.0476508029174222,1
446,81,13,0.0486999527754154,1
446,82,13,0.0533449867932933,1
446,83,13,0.0573665648124334,1
446,84,13,0.0561091529359392,1
446,85,13,0.052620646529564,1
446,86,13,0.0505857569995373,1
446,88,13,0.0517324876075475,1
446,89,13,0.0584992270964441,1
446,90,13,0.0676363440108993,1
446,91,13,0.0803900636930663,1
446,92,13,0.0826799348371669,1
446,93,13,0.0737930416101447,1
446,94,13,0.0639784013487597,1
447,81,13,0.0496503864690795,1
447,82,13,0.0521883834875031,1
447,83,13,0.0544521779495706,1
447,84,13,0.0530648692690449,1
447,85,13,0.0504908633967254,1
447,86,13,0.0491295286702711,1
447,89,13,0.0544411103633957,1
447,90,13,0.0662327664653026,1
447,91,13,0.0814203927071539,1
447,92,13,0.0813383833534161,1
447,93,13,0.0686062203229733,1
447,94,13,0.0577621918193593,1
448,82,13,0.0521515852503236,1
448,83,13,0.0537553741862756,1
448,84,13,0.052927570645046,1
448,85,13,0.0513127898172065,1
448,86,13,0.049272271876233,1
448,90,13,0.06165261867199,1
448,91,13,0.0740888386653687,1
448,92,13,0.0763924645428493,1
448,93,13,0.0650386350131323,1
448,94,13,0.0545318461871317,1
449,83,13,0.0544880678553006,1
449,84,13,0.0543790302342016,1
449,86,13,0.0504477771269511,1
449,91,13,0.0704312095938487,1
449,92,13,0.0829905571592652,1
449,93,13,0.0719539407613911,1
449,94,13,0.0558265429069392,1
450,91,13,0.0748139088382986,1
450,92,13,0.0970818273414168,1
450,93,13,0.085456476995814,1
450,94,13,0.0623246866234872,1
450,95,13,0.0491807088220697,1
451,90,13,0.0480629474992208,1
451,91,13,0.062772472401214,1
451,92,13,0.0788818712354527,1
451,93,13,0.071835965807636,1
451,94,13,0.0570991963688888,1
451,95,13,0.0490660590102284,1
452,90,13,0.0466594294277071,1
452,91,13,0.0536769711246623,1
452,92,13,0.059397512832777,1
452,93,13,0.0558048456801097,1
452,94,13,0.0496829782665697,1
452,95,13,0.045816654637763,1
453,91,13,0.0460211535688299,1
453,92,13,0.0455663660695123,1
453,93,13,0.0435997365665781,1
453,94,13,0.0410521047467066,1
420,87,14,0.0513419969986999,1
420,88,14,0.0423175456244074,1
421,86,14,0.0451381418583614,1
421,87,14,0.0430039306097058,1
423,82,14,0.0430840962668702,1
424,81,14,0.045552735691033,1
424,82,14,0.0418082636448469,1
425,81,14,0.053775308817554,1
425,82,14,0.0435974819581584,1
426,80,14,0.099139490038502,1
426,81,14,0.0783835595208405,1
426,82,14,0.0500810166772249,1
427,80,14,0.109391935245137,1
427,81,14,0.0876462640716762,1
427,82,14,0.0522169634877575,1
428,80,14,0.0679384939795359,1
428,81,14,0.05603944931065,1
428,93,14,0.0469423530473266,1
428,94,14,0.0466177813493947,1
429,79,14,0.0427681347941379,1
429,80,14,0.0412112682063144,1
429,93,14,0.0492099700709113,1
429,94,14,0.0512606310464056,1
430,78,14,0.0411975296931388,1
430,93,14,0.0438009590163445,1
430,94,14,0.0466430362077352,1
431,93,14,0.0421251983298466,1
431,94,14,0.0438700300536599,1
432,93,14,0.0432333032243085,1
432,94,14,0.0433902742529471,1
436,94,14,0.0423480963795033,1
436,95,14,0.0479427611909246,1
436,96,14,0.0420510665887405,1
437,94,14,0.0509143783418487,1
437,95,14,0.0582854826488364,1
438,90,14,0.0416566560971489,1
438,91,14,0.0422787901492233,1
438,92,14,0.0434170078532607,1
438,93,14,0.047784068117246,1
438,94,14,0.0545153772728724,1
439,84,14,0.047190619496755,1
439,85,14,0.0499382248106497,1
439,86,14,0.0469810544551625,1
439,87,14,0.0456874985564018,1
439,88,14,0.0485185135683524,1
439,89,14,0.0517687073241014,1
439,90,14,0.0543966237493033,1
439,91,14,0.0550978177812715,1
439,92,14,0.0551950470935254,1
440,84,14,0.059527182553946,1
440,85,14,0.0655198235985722,1
440,86,14,0.0589562583907118,1
440,87,14,0.0531808383241821,1
440,88,14,0.0555035283486353,1
440,89,14,0.0607288564011891,1
440,90,14,0.0650463828641282,1
440,91,14,0.0672027995726863,1
440,92,14,0.066033879724978,1
441,77,14,0.0425024289215502,1
441,83,14,0.055676451948358,1
441,84,14,0.0762480074019497,1
441,85,14,0.0799618178549761,1
441,86,14,0.0654984724027711,1
441,87,14,0.0551945442671872,1
441,91,14,0.0728187371822538,1
441,92,14,0.0724225857220504,1
441,93,14,0.0646049986604274,1
442,76,14,0.0488050705137704,1
442,77,14,0.0485125877869906,1
442,78,14,0.0477828894490555,1
442,79,14,0.0469256462367352,1
442,80,14,0.0442070615719826,1
442,81,14,0.0420171609546892,1
442,82,14,0.0476519221115298,1
442,83,14,0.0695272413792209,1
442,84,14,0.098409191553002,1
442,85,14,0.0931216752365576,1
442,86,14,0.0662991665756173,1
442,87,14,0.0526506268741365,1
442,88,14,0.0558193519496296,1
442,89,14,0.0623073958855354,1
442,90,14,0.0642408064097404,1
442,91,14,0.0659698910183927,1
442,92,14,0.0668276857176645,1
442,93,14,0.0644519285909608,1
442,94,14,0.063962602869618,1
442,95,14,0.0674895079066792,1
442,96,14,0.0651997557107447,1
443,76,14,0.053799233619129,1
443,77,14,0.0551987236732024,1
443,78,14,0.0563436268048438,1
443,79,14,0.0547311330258329,1
443,80,14,0.049170890191638,1
443,81,14,0.044737475774584,1
443,82,14,0.0500593464840696,1
443,83,14,0.0732352612192559,1
443,84,14,0.0993472384171953,1
443,85,14,0.0886904667673098,1
443,86,14,0.0618156317267891,1
443,87,14,0.0518226070635141,1
443,88,14,0.0590187061778736,1
443,89,14,0.0684815464247771,1
443,90,14,0.0663660911392094,1
443,91,14,0.0618685366269951,1
443,92,14,0.0629354638290738,1
443,93,14,0.0671735437305795,1
443,94,14,0.0691429252615367,1
443,95,14,0.0695609902179623,1
443,96,14,0.0636270338730639,1
443,97,14,0.0546863220076513,1
444,76,14,0.0551197474976982,1
444,77,14,0.0568866576231457,1
444,78,14,0.058537987978363,1
444,79,14,0.056498172912916,1
444,80,14,0.0512460490825982,1
444,81,14,0.0480549671586276,1
444,82,14,0.05077139183282,1
444,83,14,0.0617438789490034,1
444,84,14,0.0724742687001872,1
444,85,14,0.0648893604715088,1
444,86,14,0.0533264849467419,1
444,87,14,0.0518518683123556,1
444,88,14,0.0618790851666274,1
444,89,14,0.0752616892092905,1
444,90,14,0.0727115702914022,1
444,91,14,0.0645916332119543,1
444,92,14,0.064560658028175,1
444,93,14,0.0701281999543758,1
444,94,14,0.0704405686518207,1
444,95,14,0.06695162970666,1
444,96,14,0.0580961874560811,1
445,77,14,0.0555689228062736,1
445,78,14,0.0552477735714823,1
445,79,14,0.0518741710934849,1
445,80,14,0.0480036410249889,1
445,81,14,0.0489217424444341,1
445,82,14,0.0537156238718848,1
445,83,14,0.0598141017505969,1
445,84,14,0.0605659406676167,1
445,85,14,0.0559220853179294,1
445,86,14,0.0523200537005553,1
445,87,14,0.0519474215368155,1
445,88,14,0.0584764809630597,1
445,89,14,0.0702790046019532,1
445,90,14,0.0715537612837474,1
445,91,14,0.0681704050561362,1
445,92,14,0.0679606994394384,1
445,93,14,0.0683720708581578,1
445,94,14,0.0653049491433872,1
445,95,14,0.0600790263500033,1
446,78,14,0.0535749514453586,1
446,79,14,0.050026376215142,1
446,80,14,0.0469707384051274,1
446,81,14,0.0484198839117804,1
446,82,14,0.0543665298632996,1
446,83,14,0.0607520242598894,1
446,84,14,0.060271598024059,1
446,85,14,0.055856663826617,1
446,86,14,0.0527181245516195,1
446,87,14,0.0510871235193224,1
446,88,14,0.0527329768521678,1
446,89,14,0.0588701723589203,1
446,90,14,0.0653148650950456,1
446,91,14,0.0727182854560477,1
446,92,14,0.0752138450128754,1
446,93,14,0.0679322167604108,1
447,79,14,0.0523482606361071,1
447,80,14,0.0490038112722549,1
447,81,14,0.048432368062478,1
447,82,14,0.0519398683282731,1
447,83,14,0.0561681728532257,1
447,84,14,0.056001229102213,1
447,85,14,0.053717143164369,1
447,86,14,0.0520441047688526,1
447,87,14,0.0504363959501566,1
447,89,14,0.0545427840116709,1
447,90,14,0.0641709459891414,1
447,91,14,0.0772822400785767,1
447,92,14,0.0801964593326601,1
447,93,14,0.067051632673876,1
447,94,14,0.0562755289797959,1
448,81,14,0.0491803195371627,1
448,82,14,0.0514777925504191,1
448,83,14,0.0542404448073157,1
448,84,14,0.054564643440545,1
448,85,14,0.0543513910058058,1
448,86,14,0.0533141900317631,1
448,87,14,0.0503006544657856,1
448,90,14,0.061951794936476,1
448,91,14,0.0728666300392823,1
448,92,14,0.0751235687615991,1
448,93,14,0.0630677990705088,1
448,94,14,0.0533863050607816,1
449,82,14,0.0504704259391087,1
449,83,14,0.0528246426342927,1
449,84,14,0.0530980666208349,1
449,85,14,0.0535479826520804,1
449,86,14,0.0525646003164281,1
449,87,14,0.0491548538161643,1
449,91,14,0.0632919622961131,1
449,92,14,0.0694454320746714,1
449,93,14,0.063048740330271,1
449,94,14,0.0542320535548762,1
450,86,14,0.0471752751833381,1
450,91,14,0.0628943618309782,1
450,92,14,0.0778447135152886,1
450,93,14,0.0748720907116881,1
450,94,14,0.0613895593960963,1
450,95,14,0.0493981028156804,1
451,90,14,0.0458689107297907,1
451,91,14,0.0577392023829081,1
451,92,14,0.0728548757977854,1
451,93,14,0.071770263166113,1
451,94,14,0.0597352445232588,1
451,95,14,0.049342970340729,1
452,90,14,0.0441774759190519,1
452,91,14,0.0527134963866142,1
452,92,14,0.0618514243112923,1
452,93,14,0.0608908908369859,1
452,94,14,0.0536133662962491,1
452,95,14,0.0464667766526291,1
453,91,14,0.0428437452772171,1
453,92,14,0.0448543315342315,1
453,93,14,0.0442692957931191,1
453,94,14,0.041624580642834,1
421,87,15,0.0431281990027905,1
424,81,15,0.0466024208157733,1
424,82,15,0.0429667052404756,1
425,81,15,0.0495206518670926,1
425,82,15,0.0429478222191195,1
426,80,15,0.0741070323280353,1
426,81,15,0.0635315239024826,1
426,82,15,0.0465938241074108,1
427,79,15,0.0756282712367677,1
427,80,15,0.0849065309636782,1
427,81,15,0.0719396940151425,1
427,82,15,0.0490791865623695,1
428,80,15,0.0600385244994726,1
428,81,15,0.0514946453428506,1
429,79,15,0.0470663673238748,1
429,80,15,0.044419457039253,1
429,94,15,0.0415161810164437,1
430,78,15,0.0447795023243337,1
430,79,15,0.0412106599486473,1
437,94,15,0.0437216908771601,1
438,92,15,0.0422832642222862,1
439,84,15,0.0468272436630256,1
439,85,15,0.0487148969904557,1
439,86,15,0.046370661127748,1
439,87,15,0.0463483583466188,1
439,88,15,0.0489588272385591,1
439,89,15,0.0511756696154566,1
439,90,15,0.0535552493036774,1
439,91,15,0.0541138677384632,1
440,84,15,0.0592297364446021,1
440,85,15,0.0653447535251262,1
440,86,15,0.058651031989963,1
440,87,15,0.0531838715024157,1
440,88,15,0.0544140820960345,1
440,92,15,0.0672343532770912,1
441,77,15,0.0526822454593592,1
441,78,15,0.0522528804271615,1
441,79,15,0.0478248403045177,1
441,80,15,0.042594648893994,1
441,81,15,0.0446089225441551,1
441,82,15,0.0500603034761326,1
441,83,15,0.0592531638265737,1
441,84,15,0.0741946268388413,1
441,85,15,0.0791044124406113,1
441,86,15,0.0656079371559208,1
441,91,15,0.0777734851907803,1
441,92,15,0.0754471294001197,1
441,93,15,0.0645670055348528,1
442,76,15,0.0524671168876378,1
442,77,15,0.059173306353294,1
442,78,15,0.0599111202001928,1
442,79,15,0.0563343866950377,1
442,80,15,0.0513051230672329,1
442,81,15,0.0526698153760099,1
442,82,15,0.059169478385042,1
442,83,15,0.0717810766357514,1
442,84,15,0.0878502169225263,1
442,85,15,0.0842766463572405,1
442,86,15,0.0643979801909347,1
442,89,15,0.0573757400414216,1
442,91,15,0.0674266870548149,1
442,92,15,0.0674693461925384,1
442,93,15,0.0605094024416122,1
443,76,15,0.055341953485298,1
443,77,15,0.0610357967368755,1
443,78,15,0.0639146613519761,1
443,79,15,0.0628724321145515,1
443,80,15,0.0570800403074243,1
443,81,15,0.054155321174322,1
443,82,15,0.0589938460111749,1
443,83,15,0.0731548684792291,1
443,84,15,0.0868897699559771,1
443,85,15,0.0776149218787374,1
443,86,15,0.0592915894909339,1
443,87,15,0.0526987522207623,1
443,88,15,0.0565015737491173,1
443,89,15,0.0616466766704237,1
443,90,15,0.0610083683711377,1
443,91,15,0.0585772895337639,1
443,92,15,0.0604629153356367,1
443,93,15,0.0609724514317337,1
443,94,15,0.061252179671075,1
443,95,15,0.0651593944353193,1
443,96,15,0.0659244474122372,1
444,76,15,0.0534585228177618,1
444,77,15,0.0573295989664745,1
444,78,15,0.0612225886114095,1
444,79,15,0.061206395440626,1
444,80,15,0.0561313097352283,1
444,81,15,0.0520137405461079,1
444,82,15,0.0540330316461812,1
444,83,15,0.061979758568961,1
444,84,15,0.0683298766996287,1
444,85,15,0.0609689749012449,1
444,86,15,0.0529811676073088,1
444,87,15,0.0525769168583462,1
444,88,15,0.0600625304020699,1
444,89,15,0.0703536986434805,1
444,90,15,0.0696239894920758,1
444,91,15,0.0615353844409051,1
444,92,15,0.0607081972674449,1
444,93,15,0.0631644066082584,1
444,94,15,0.0635260306599063,1
444,95,15,0.0638188540109797,1
445,77,15,0.0528974983859815,1
445,78,15,0.0551618821821443,1
445,79,15,0.0541387603455708,1
445,80,15,0.051033634691756,1
445,81,15,0.0505694286603833,1
445,82,15,0.0538898126475552,1
445,83,15,0.0591482839845507,1
445,84,15,0.0604298369320128,1
445,85,15,0.0560472782626682,1
445,86,15,0.0531418179189919,1
445,87,15,0.0531117672868667,1
445,88,15,0.0588621163240397,1
445,89,15,0.0682482890712069,1
445,90,15,0.0695518636495875,1
445,91,15,0.0631841411903485,1
445,92,15,0.0612950767051306,1
446,77,15,0.0521346675770743,1
446,78,15,0.0529448992301415,1
446,79,15,0.0510366354295807,1
446,80,15,0.0487121611826372,1
446,81,15,0.0494044719492975,1
446,82,15,0.0536093653124829,1
446,83,15,0.0587865896453502,1
446,84,15,0.0592864530928556,1
446,85,15,0.0565437895345857,1
446,86,15,0.0550697189804161,1
446,87,15,0.054088661540736,1
446,88,15,0.055446384568331,1
446,89,15,0.0582633853236303,1
446,90,15,0.0616216434882108,1
446,91,15,0.0645805115584312,1
446,92,15,0.0665260547955705,1
446,93,15,0.0609152157369375,1
447,78,15,0.0536592802883338,1
447,79,15,0.0517319739677397,1
447,80,15,0.0490377709736543,1
447,81,15,0.0481654051240448,1
447,82,15,0.0512065474780091,1
447,83,15,0.0558714025857342,1
447,84,15,0.0568332282696623,1
447,85,15,0.0564252414669397,1
447,86,15,0.0570173113700519,1
447,87,15,0.0553322808367065,1
447,88,15,0.0541582624380637,1
447,89,15,0.0537351367778473,1
447,90,15,0.0598675256973455,1
447,91,15,0.0702905966414055,1
447,92,15,0.0739535567534573,1
447,93,15,0.0617067833414088,1
448,81,15,0.0476081437796987,1
448,82,15,0.0500229699722059,1
448,83,15,0.0538377349777766,1
448,84,15,0.0552214319594431,1
448,85,15,0.0573853640293998,1
448,86,15,0.0598724836731747,1
448,87,15,0.0562861748406549,1
448,88,15,0.0523365496484887,1
448,90,15,0.0602109074257134,1
448,91,15,0.0699453279625857,1
448,92,15,0.0707271039702995,1
448,93,15,0.0576250121435264,1
449,82,15,0.048100172868451,1
449,83,15,0.0506550767466543,1
449,84,15,0.0513562113045396,1
449,85,15,0.0539326556142626,1
449,86,15,0.0568825701316224,1
449,87,15,0.0532784028539947,1
449,91,15,0.0591015319485691,1
449,92,15,0.0588293785447094,1
450,85,15,0.0461225190332204,1
450,86,15,0.0471144872637657,1
450,92,15,0.0590273785805236,1
450,93,15,0.0585622047436183,1
450,94,15,0.0536202328494695,1
451,91,15,0.0513135143196723,1
451,92,15,0.0614792517200121,1
451,93,15,0.0619452095334663,1
451,94,15,0.0541386468041396,1
451,95,15,0.0452479120920283,1
452,91,15,0.047794535555856,1
452,92,15,0.0574006218350596,1
452,93,15,0.0579277784799324,1
452,94,15,0.0515223656722687,1
452,95,15,0.0436549528459192,1
453,92,15,0.0419819063403006,1
453,93,15,0.0424729838437248,1
422,86,16,0.0412092514942269,1
424,82,16,0.0446810159462344,1
425,81,16,0.0472193941394628,1
425,82,16,0.0426676317039511,1
426,80,16,0.0599425765833709,1
426,81,16,0.0525415297789545,1
426,82,16,0.0433286834332541,1
427,80,16,0.0656875675463381,1
427,81,16,0.05655278093459,1
427,82,16,0.0441369227045405,1
428,80,16,0.054100924015306,1
428,81,16,0.0474327330819591,1
429,79,16,0.0499955199795288,1
429,80,16,0.0455222417066527,1
430,78,16,0.0477257564822209,1
430,79,16,0.0441892815245297,1
430,80,16,0.0414194004631798,1
439,84,16,0.0461345598316628,1
439,85,16,0.046850260133151,1
439,86,16,0.0458758637907682,1
439,87,16,0.0465143937661818,1
439,88,16,0.0483344575016369,1
439,89,16,0.0494354363196071,1
440,77,16,0.0446251751890216,1
440,78,16,0.0482586712996761,1
440,88,16,0.0527797829554977,1
440,92,16,0.0653704571424567,1
441,76,16,0.0470237027794164,1
441,77,16,0.0618656494306016,1
441,78,16,0.0682782045349615,1
441,79,16,0.0584543187570358,1
441,80,16,0.0470268062452026,1
441,81,16,0.0479674915959877,1
441,82,16,0.0547128366352047,1
441,83,16,0.0592441129524864,1
441,84,16,0.0665549159460354,1
441,85,16,0.0690877873798505,1
441,91,16,0.080072234193454,1
441,92,16,0.0750269666305843,1
441,93,16,0.0640322416140894,1
442,76,16,0.0530258164234458,1
442,77,16,0.0675434508999705,1
442,78,16,0.0737947231046734,1
442,79,16,0.0664637908373925,1
442,80,16,0.0582428829851958,1
442,81,16,0.0617546437580285,1
442,82,16,0.0695882834153297,1
442,83,16,0.0708126222949349,1
442,84,16,0.072796212724997,1
442,85,16,0.0694531853324022,1
442,86,16,0.0586677550207588,1
442,92,16,0.0659102601400716,1
443,76,16,0.0549904778749058,1
443,77,16,0.0647544840647088,1
443,78,16,0.0712619273651459,1
443,79,16,0.0704856824471522,1
443,80,16,0.0645577383913727,1
443,81,16,0.0646297236587556,1
443,82,16,0.0700500564160338,1
443,83,16,0.0718852049416345,1
443,84,16,0.0717958099881337,1
443,85,16,0.064434578378926,1
443,86,16,0.0554979485983018,1
443,87,16,0.0514631619259983,1
443,88,16,0.0522147467264816,1
443,89,16,0.0534472173352548,1
443,90,16,0.0548306169465063,1
444,76,16,0.0522292638094712,1
444,77,16,0.0576691256929163,1
444,78,16,0.0649873629468418,1
444,79,16,0.0670890094316812,1
444,80,16,0.0613671430735358,1
444,81,16,0.057305928281436,1
444,82,16,0.0603801220053502,1
444,83,16,0.0637077131700361,1
444,84,16,0.0644304746671982,1
444,85,16,0.0573044846832393,1
444,86,16,0.0521919140853401,1
444,87,16,0.0520228941481568,1
444,88,16,0.0565849834471732,1
444,89,16,0.062099442050919,1
444,90,16,0.0623189122307003,1
444,91,16,0.0572100452461522,1
445,77,16,0.0526351906462277,1
445,78,16,0.0590747415775399,1
445,79,16,0.0606933774073054,1
445,80,16,0.0560774045890808,1
445,81,16,0.0521801382169038,1
445,82,16,0.0541655453098652,1
445,83,16,0.057936791506876,1
445,84,16,0.0595243440181659,1
445,85,16,0.0554622911821692,1
445,86,16,0.0531686947977782,1
445,87,16,0.053923431724661,1
445,88,16,0.0584434782537233,1
445,89,16,0.0636398694615247,1
445,90,16,0.0637654570979052,1
445,91,16,0.0579194196679019,1
446,77,16,0.0511433319345029,1
446,78,16,0.0553325619869171,1
446,79,16,0.0557599157137621,1
446,80,16,0.0528634954307035,1
446,81,16,0.0505164588793595,1
446,82,16,0.0524995464830834,1
446,83,16,0.0562632502850214,1
446,84,16,0.0580396005694633,1
446,85,16,0.0575399371711462,1
446,86,16,0.0586385424325307,1
446,87,16,0.0593808925299427,1
446,88,16,0.0590424849976085,1
446,89,16,0.0577589261515285,1
446,90,16,0.0576304729456938,1
446,91,16,0.0584944962034773,1
446,92,16,0.0590263296739687,1
447,78,16,0.0535116764277694,1
447,79,16,0.0527740301896501,1
447,80,16,0.0500275819170067,1
447,81,16,0.0477870796685403,1
447,82,16,0.0498855145528972,1
447,83,16,0.0545919690783213,1
447,84,16,0.0568682855382301,1
447,85,16,0.0598329550349115,1
447,86,16,0.0654575380134549,1
447,87,16,0.0655206616424692,1
447,88,16,0.0599274863864905,1
447,89,16,0.0532800843485235,1
447,91,16,0.0634539156308877,1
447,92,16,0.0660082734288742,1
447,93,16,0.0551406337143048,1
448,79,16,0.0499360783369264,1
448,80,16,0.0473765679206572,1
448,81,16,0.0454589720957983,1
448,82,16,0.0474827453790368,1
448,83,16,0.0516638058551391,1
448,84,16,0.0541366354987869,1
448,85,16,0.0598502133324544,1
448,86,16,0.0688082754099019,1
448,87,16,0.0674037624991814,1
448,88,16,0.0584355519804783,1
448,91,16,0.0663306445857347,1
448,92,16,0.066399985959791,1
448,93,16,0.0527313169845783,1
449,82,16,0.0450665756129269,1
449,83,16,0.0471912358645244,1
449,84,16,0.0483184481598373,1
449,85,16,0.0532954881360234,1
449,86,16,0.0611554910323031,1
449,87,16,0.0592953417648984,1
449,92,16,0.0548470155732129,1
450,86,16,0.0472825772425601,1
450,93,16,0.0494444763802248,1
451,92,16,0.0531840931785433,1
451,93,16,0.0542341675881906,1
451,94,16,0.0488839709949871,1
452,91,16,0.0427120777675324,1
452,92,16,0.0513936745701019,1
452,93,16,0.0535567145288134,1
452,94,16,0.0480627744837066,1
425,82,17,0.041540022013629,1
426,81,17,0.0461150090785566,1
427,81,17,0.0476383512071336,1
428,80,17,0.0512823823405833,1
428,81,17,0.0443442277309785,1
429,80,17,0.0456346423168092,1
430,79,17,0.0476870334474457,1
430,80,17,0.0428859691727877,1
439,88,17,0.0477389651353842,1
440,78,17,0.0511366059563878,1
441,77,17,0.0647389991761866,1
441,78,17,0.0773602592620179,1
441,79,17,0.0640431361847501,1
441,80,17,0.0501053523906462,1
441,81,17,0.0481212483207763,1
441,82,17,0.0543577222922791,1
441,92,17,0.073005583124136,1
442,76,17,0.0522121839341773,1
442,77,17,0.0714170141467,1
442,78,17,0.0846079169996134,1
442,79,17,0.0737065068193632,1
442,80,17,0.0630277567924377,1
442,81,17,0.0636609503205848,1
442,82,17,0.069258472591358,1
442,83,17,0.0639623271261422,1
442,84,17,0.0590173707143733,1
442,85,17,0.0548996447299431,1
443,76,17,0.0528673342124252,1
443,77,17,0.0658730780247199,1
443,78,17,0.0766081283813179,1
443,79,17,0.0745527040724478,1
443,80,17,0.0695998538278428,1
443,81,17,0.0704900402754165,1
443,82,17,0.0741852677808693,1
443,83,17,0.0660796585486922,1
443,84,17,0.0591243916233847,1
443,85,17,0.0534243576604392,1
443,86,17,0.0504884736199353,1
443,87,17,0.0489644772764451,1
443,88,17,0.0489359189031301,1
443,89,17,0.0484098868590997,1
444,77,17,0.0576659519395774,1
444,78,17,0.067291567344948,1
444,79,17,0.0704287116823622,1
444,80,17,0.0660729217571075,1
444,81,17,0.0636761216184875,1
444,82,17,0.0666058365745627,1
444,83,17,0.0634176580671901,1
444,84,17,0.0610516384698958,1
444,85,17,0.0547199194578178,1
444,86,17,0.0513608016224011,1
444,87,17,0.0524475715412663,1
444,88,17,0.055697294911086,1
444,89,17,0.056108888005933,1
444,90,17,0.0538847086898859,1
445,77,17,0.0525861623748871,1
445,78,17,0.0619254965783154,1
445,79,17,0.06633676500955,1
445,80,17,0.061220301562581,1
445,81,17,0.0563013245116183,1
445,82,17,0.0568273295219746,1
445,83,17,0.0576120522001648,1
445,84,17,0.0593600711941539,1
445,85,17,0.0555450682922512,1
445,86,17,0.0535373638248955,1
445,87,17,0.0566727996341068,1
445,88,17,0.0613001914762696,1
445,89,17,0.0606273449549584,1
445,90,17,0.0563204805730827,1
446,77,17,0.0510058494815201,1
446,78,17,0.0580707974293701,1
446,79,17,0.0614810467559721,1
446,80,17,0.057120812494696,1
446,81,17,0.0523415400647268,1
446,82,17,0.0520082202698575,1
446,83,17,0.0542342000285995,1
446,84,17,0.0569185735787835,1
446,85,17,0.0569449638514361,1
446,86,17,0.0594166472673021,1
446,87,17,0.0628614942900122,1
446,88,17,0.0624494254025011,1
446,89,17,0.057232661617901,1
446,90,17,0.0531477491070886,1
447,78,17,0.0536475260468369,1
447,79,17,0.0548076004763809,1
447,80,17,0.0510415771852054,1
447,81,17,0.0472278773063941,1
447,82,17,0.0475405541877237,1
447,83,17,0.0515875546739838,1
447,84,17,0.0545926016662951,1
447,85,17,0.0588380509473594,1
447,86,17,0.0678745755605032,1
447,87,17,0.0711795719803797,1
447,88,17,0.0630291949838996,1
447,89,17,0.0522910898221288,1
447,92,17,0.0605829718822972,1
448,79,17,0.0480499659289199,1
448,80,17,0.0454273967644542,1
448,81,17,0.0432183400856963,1
448,82,17,0.0441370984234221,1
448,83,17,0.0478537338953915,1
448,84,17,0.0506717943707153,1
448,85,17,0.0570047623385365,1
448,86,17,0.0696602200220993,1
448,87,17,0.0727561758536607,1
448,88,17,0.0614105104935207,1
448,91,17,0.0625999705268072,1
448,92,17,0.064101128822421,1
448,93,17,0.0512192965587128,1
449,82,17,0.041204671989835,1
449,83,17,0.0431061692617696,1
449,84,17,0.0444232741940353,1
449,85,17,0.0494795985296103,1
449,86,17,0.059060651626601,1
449,87,17,0.0608845595505126,1
449,92,17,0.0561917029631589,1
451,93,17,0.0475564067342137,1
452,92,17,0.0448707409744078,1
452,93,17,0.0471803467005985,1
441,77,18,0.0589237044403653,1
441,78,18,0.0725262328285346,1
441,79,18,0.0606981569608856,1
442,76,18,0.0496643466583827,1
442,77,18,0.0693940302467452,1
442,78,18,0.0863811367845949,1
442,79,18,0.0744394383847202,1
442,80,18,0.0627675090186499,1
442,81,18,0.0601877936343613,1
442,82,18,0.0612726711960398,1
442,83,18,0.0556755760573173,1
442,84,18,0.0514077428941014,1
443,77,18,0.0646359251835932,1
443,78,18,0.0781177806573327,1
443,79,18,0.0744931164480053,1
443,80,18,0.0709299538472465,1
443,81,18,0.071796280374063,1
443,82,18,0.071226664640655,1
443,83,18,0.0590894965568615,1
443,84,18,0.0523068558608616,1
443,85,18,0.0487529333699088,1
443,88,18,0.0454856921792749,1
444,77,18,0.0567970842473959,1
444,78,18,0.0672620303526307,1
444,79,18,0.0706389093119286,1
444,80,18,0.0689393076282454,1
444,81,18,0.0691890771499535,1
444,82,18,0.0702449313591225,1
444,83,18,0.0619406300290744,1
444,84,18,0.0582219967685892,1
444,85,18,0.053167353927543,1
444,86,18,0.0502357952748944,1
444,87,18,0.0525035745005237,1
444,88,18,0.0551616172521382,1
444,89,18,0.0516431845685387,1
445,77,18,0.0529519928662243,1
445,78,18,0.0650814239124915,1
445,79,18,0.0716058659872001,1
445,80,18,0.0655241435796927,1
445,81,18,0.060704693703282,1
445,82,18,0.0608696477758812,1
445,83,18,0.058484904655908,1
445,84,18,0.0589563557119385,1
445,85,18,0.0548266105560053,1
445,86,18,0.0527051321678489,1
445,87,18,0.0581741741991133,1
445,88,18,0.0634677622787597,1
445,89,18,0.0578666229023923,1
445,90,18,0.0497996664174378,1
446,77,18,0.0518546149336438,1
446,78,18,0.0638268884189211,1
446,79,18,0.0699711234944082,1
446,80,18,0.0616494881725297,1
446,81,18,0.0537370129148296,1
446,82,18,0.0523871350594572,1
446,83,18,0.0525361176374005,1
446,84,18,0.0545354416657865,1
446,85,18,0.0538904722692031,1
446,86,18,0.0565731643248584,1
446,87,18,0.0620349721449348,1
446,88,18,0.0625630371212571,1
446,89,18,0.0551049006038847,1
447,77,18,0.0494984301869857,1
447,78,18,0.056332705200509,1
447,79,18,0.0594232488905164,1
447,80,18,0.0533490094039988,1
447,81,18,0.0473309026383741,1
447,82,18,0.0464180673786428,1
447,83,18,0.0483936342142332,1
447,84,18,0.0508579320303362,1
447,85,18,0.0548182571507096,1
447,86,18,0.0648835266046389,1
447,87,18,0.0700224280011076,1
447,88,18,0.0612594246957328,1
448,78,18,0.0479917191747125,1
448,79,18,0.0475134285991358,1
448,80,18,0.0448304337663306,1
448,82,18,0.0426678182363023,1
448,83,18,0.0450035438984046,1
448,84,18,0.0472932717640324,1
448,85,18,0.0525724833357945,1
448,86,18,0.0655174392285169,1
448,87,18,0.0717149144217687,1
448,88,18,0.0601924434263058,1
448,92,18,0.0608562066331207,1
449,84,18,0.0419922088734986,1
449,85,18,0.0456823080909754,1
449,86,18,0.0540198013660786,1
449,87,18,0.0584945286438862,1
441,78,19,0.0628857651226157,1
442,77,19,0.0636350466540659,1
442,78,19,0.0798490441801171,1
442,79,19,0.0692030859998701,1
442,80,19,0.0593554322156791,1
442,81,19,0.0551317342287924,1
442,82,19,0.0523556786762791,1
443,77,19,0.0598650061589198,1
443,78,19,0.0732372833380783,1
443,79,19,0.0701007445549639,1
443,80,19,0.0697994326302242,1
443,81,19,0.0694284062667257,1
443,82,19,0.0639735947615055,1
443,83,19,0.0526811695191302,1
443,84,19,0.0481348192251725,1
443,85,19,0.0451790356971664,1
444,77,19,0.0534040499644583,1
444,78,19,0.0630253345752387,1
444,79,19,0.0677693010268384,1
444,80,19,0.070886964898699,1
444,81,19,0.07197670311498,1
444,82,19,0.0691628707062848,1
444,83,19,0.0596873624796999,1
444,84,19,0.0559111150529812,1
444,85,19,0.0501328780776108,1
444,86,19,0.0470855071651347,1
444,88,19,0.0534830045130232,1
445,77,19,0.052690955709153,1
445,78,19,0.0663122995344931,1
445,79,19,0.074464417499585,1
445,80,19,0.0690193921843875,1
445,81,19,0.0640428388143351,1
445,82,19,0.0632620576458281,1
445,83,19,0.0594130517886474,1
445,84,19,0.0586181698557319,1
445,85,19,0.0525223520905508,1
445,86,19,0.0499146622603076,1
445,87,19,0.0562046304661116,1
445,88,19,0.0623733418301252,1
445,89,19,0.0549157135458258,1
446,77,19,0.0538743547927071,1
446,78,19,0.0705199232987622,1
446,79,19,0.078090017074036,1
446,80,19,0.0654593763032934,1
446,81,19,0.0545895360476526,1
446,82,19,0.0525162587004095,1
446,83,19,0.0511691328730602,1
446,84,19,0.0520125240307736,1
446,85,19,0.0497847167956627,1
446,86,19,0.0513757890913199,1
446,87,19,0.0573093345243721,1
446,88,19,0.0594050281941757,1
447,78,19,0.0602259219283064,1
447,79,19,0.064372492842997,1
447,80,19,0.0552713577487637,1
447,81,19,0.0475348500824895,1
447,82,19,0.0458252189057167,1
447,83,19,0.0462470956101898,1
447,84,19,0.047619287060161,1
447,85,19,0.0504320110882183,1
447,86,19,0.05840394961546,1
447,87,19,0.0634122621458405,1
447,88,19,0.0571050680829025,1
448,79,19,0.0486428252153156,1
448,80,19,0.0450705603764887,1
448,83,19,0.04286048182485,1
448,84,19,0.0445190707215621,1
448,85,19,0.0489624227172138,1
448,86,19,0.0595054582934424,1
448,87,19,0.0662709271996565,1
448,88,19,0.0578022124704911,1
449,86,19,0.0498823732399672,1
449,87,19,0.0550901239976238,1
442,78,20,0.0710257341545688,1
442,80,20,0.0545045097358858,1
442,81,20,0.0505720347065661,1
442,82,20,0.0464710317529318,1
443,78,20,0.0668376773636104,1
443,79,20,0.0650778068068975,1
443,80,20,0.068130395218474,1
443,81,20,0.0669645463961431,1
443,82,20,0.0577904474155245,1
443,83,20,0.0482193210836619,1
443,84,20,0.0455168133448942,1
444,78,20,0.0584136601111953,1
444,79,20,0.0656468656466191,1
444,80,20,0.0744227423875985,1
444,81,20,0.0743844464848741,1
444,82,20,0.0659463230613157,1
444,83,20,0.0562996051699458,1
444,84,20,0.0527183678546863,1
444,85,20,0.047446671644323,1
445,77,20,0.0502129626337529,1
445,78,20,0.0645998730758188,1
445,79,20,0.0746533666613118,1
445,80,20,0.0723450747716822,1
445,81,20,0.066039383781024,1
445,82,20,0.0619594130258363,1
445,83,20,0.0576318678832772,1
445,84,20,0.0557240798753804,1
445,85,20,0.0499499952723511,1
445,88,20,0.0582215696365385,1
446,77,20,0.0526471935975263,1
446,78,20,0.0714590136627756,1
446,79,20,0.0793985928821244,1
446,80,20,0.0653025052992489,1
446,81,20,0.0529997667750868,1
446,82,20,0.0502928849878504,1
446,83,20,0.0490731310193719,1
446,84,20,0.0488211933970013,1
446,85,20,0.0469854501305705,1
447,78,20,0.0578870495465393,1
447,79,20,0.0620610380134982,1
447,80,20,0.0522467816302854,1
447,81,20,0.0455557202086532,1
447,86,20,0.0532449513856683,1
447,87,20,0.0565848266518635,1
448,79,20,0.0463523917707939,1
448,86,20,0.0550394791125723,1
448,87,20,0.0598725485539926,1
442,81,21,0.0466246154622062,1
443,79,21,0.0627378314512273,1
443,80,21,0.0668791199859996,1
443,81,21,0.0650229933293003,1
443,82,21,0.0547919101319356,1
444,78,21,0.0565599448582255,1
444,79,21,0.0639062646928019,1
444,80,21,0.0779741777805345,1
444,81,21,0.0783635491952746,1
444,82,21,0.0652289088248899,1
444,83,21,0.0530697245169126,1
444,84,21,0.0492761917589769,1
445,78,21,0.0622083120632386,1
445,79,21,0.0718317755881511,1
445,80,21,0.0753152212907355,1
445,81,21,0.0699942426924951,1
445,82,21,0.0611914782592598,1
445,83,21,0.0545529324529266,1
445,84,21,0.051553697700546,1
446,77,21,0.0512685897600595,1
446,78,21,0.0671589996139159,1
446,79,21,0.0741554117911976,1
446,80,21,0.0637242469651132,1
446,81,21,0.0531410015020342,1
446,82,21,0.0495663820301935,1
447,78,21,0.0534390369454734,1
447,79,21,0.0570877232776024,1
447,80,21,0.0495405756849014,1
447,81,21,0.044837016465973,1
443,80,22,0.064136386140177,1
443,81,22,0.0663892373709704,1
443,82,22,0.0555759407480689,1
444,79,22,0.0617399590662595,1
444,80,22,0.0796346292973918,1
444,81,22,0.0863950374998151,1
444,82,22,0.0689589989564569,1
444,83,22,0.0519160624748641,1
445,78,22,0.0582470461710066,1
445,79,22,0.0674772778725182,1
445,80,22,0.0757840284534394,1
445,81,22,0.0755089932599211,1
445,82,22,0.0622668453743913,1
445,83,22,0.0524280370083645,1
446,78,22,0.0597741676072223,1
446,79,22,0.0664859692636209,1
446,80,22,0.0610890909219884,1
446,81,22,0.0535856135264221,1
446,82,22,0.0494492397136005,1
447,79,22,0.051139590474008,1
447,80,22,0.0465812912960999,1
444,80,23,0.0722127124965732,1
444,81,23,0.0850668839049463,1
444,82,23,0.0692527684861238,1
445,79,23,0.059857582712013,1
445,80,23,0.0670760332681151,1
445,81,23,0.0731358475861351,1
445,82,23,0.0607883791448137,1
446,79,23,0.0583274443177683,1
446,80,23,0.0561913515253956,1
