x,y,z,signal,cytoplasm.p
867,848,56,0.123346458290242,1
868,830,56,0.110508761202863,1
868,847,56,0.119587609736171,1
868,848,56,0.161269198990939,1
868,849,56,0.195526151857274,2
868,850,56,0.198054557328128,2
869,847,56,0.125621644742573,1
869,848,56,0.172127014668342,1
869,849,56,0.201707131102592,2
869,850,56,0.198332268855382,2
870,847,56,0.125043297132432,1
870,848,56,0.167092976893692,1
871,847,56,0.108063641075163,1
871,848,56,0.138887111875378,1
861,839,57,0.0497378944721284,1
861,840,57,0.0687850967377319,1
861,841,57,0.0623223238803712,1
862,839,57,0.0656597985563066,1
862,840,57,0.0904564739680425,1
862,841,57,0.0758570464071728,1
863,831,57,0.0650365858606358,1
863,839,57,0.0545541597817305,1
863,840,57,0.0700925533517128,1
863,841,57,0.0593050847010426,1
864,828,57,0.0918108231931103,1
864,830,57,0.113373898118257,1
864,831,57,0.0743596133518495,1
864,832,57,0.043712529165009,1
864,840,57,0.0466244640736313,1
864,841,57,0.0428082338429246,1
865,830,57,0.116890816916107,1
865,831,57,0.0798636802112727,1
865,832,57,0.0495407108532719,1
865,847,57,0.0444080839725608,1
866,831,57,0.0850236678735364,1
866,832,57,0.0526854300261677,1
866,845,57,0.0474350796048706,1
866,846,57,0.0612527095310873,1
866,847,57,0.08117632729068,1
866,848,57,0.0975322516057354,1
866,849,57,0.119125550178522,1
867,831,57,0.0844578855151152,1
867,832,57,0.0516969112924371,1
867,844,57,0.0414764820660336,1
867,845,57,0.0570089958119,1
867,846,57,0.0905564877487282,1
867,847,57,0.136208247787975,1
867,848,57,0.180180324554613,1
867,849,57,0.240431571628812,2
867,850,57,0.243546002273251,2
868,828,57,0.0630066975603169,1
868,830,57,0.0932343624036596,1
868,831,57,0.0716976344972866,1
868,832,57,0.0490403878333068,1
868,844,57,0.0425243937817532,1
868,845,57,0.0618670335547153,1
868,846,57,0.11354578903163,1
868,847,57,0.184569663269421,1
868,848,57,0.252542700877716,2
868,849,57,0.33441632394456,2
868,850,57,0.341915724662073,2
868,851,57,0.230769779760766,2
869,829,57,0.047594854025513,1
869,830,57,0.0607214491744867,1
869,831,57,0.058448928242421,1
869,832,57,0.0506070757549294,1
869,833,57,0.0416628251815776,1
869,840,57,0.0412747027225808,1
869,844,57,0.0429063471563213,1
869,845,57,0.0608172132616046,1
869,846,57,0.119805555216734,1
869,847,57,0.205713737873018,1
869,848,57,0.273392454464696,2
869,849,57,0.319963905503425,2
869,850,57,0.313093199910689,2
869,851,57,0.219748713132232,2
870,830,57,0.0491574490488775,1
870,831,57,0.0599459071320196,1
870,832,57,0.0608170023989466,1
870,833,57,0.0507362264295558,1
870,840,57,0.0413949782420015,1
870,841,57,0.04249256703724,1
870,842,57,0.0429718713755953,1
870,843,57,0.0437670209418843,1
870,844,57,0.0452483959947947,1
870,845,57,0.0590225936202086,1
870,846,57,0.115223736742362,1
870,847,57,0.209790329418944,1
870,848,57,0.27633534022679,2
870,849,57,0.272388618451222,2
870,850,57,0.231246329367731,2
871,830,57,0.0458896293376179,1
871,831,57,0.0629783716765991,1
871,832,57,0.0684952038369305,1
871,833,57,0.0584766593853088,1
871,834,57,0.0446585942169391,1
871,840,57,0.0436051027508861,1
871,841,57,0.0464074215177838,1
871,842,57,0.0483169721212316,1
871,843,57,0.0475544494962091,1
871,844,57,0.0469752476219666,1
871,845,57,0.0546515999566423,1
871,846,57,0.0918225666211376,1
871,847,57,0.165082125706671,1
871,848,57,0.222027176065864,1
871,849,57,0.204025560620008,1
872,831,57,0.0581537097078226,1
872,832,57,0.0674872641117293,1
872,833,57,0.0621531633680826,1
872,834,57,0.0502513720779085,1
872,839,57,0.0422373394167318,1
872,840,57,0.0484240038437127,1
872,841,57,0.0538113663320633,1
872,842,57,0.0535237550733556,1
872,843,57,0.049909715097948,1
872,844,57,0.0488069250238134,1
872,845,57,0.0539055732795532,1
872,846,57,0.072591594845764,1
872,847,57,0.110058780290799,1
872,848,57,0.142653616365953,1
872,849,57,0.134667631141651,1
873,831,57,0.047239334177476,1
873,832,57,0.0587965704778265,1
873,833,57,0.0616460548959195,1
873,834,57,0.0550483623778802,1
873,835,57,0.0436299764344219,1
873,839,57,0.0427608113718253,1
873,840,57,0.0527112796253384,1
873,841,57,0.0601877611939524,1
873,842,57,0.0564190940094503,1
873,843,57,0.0498057868412532,1
873,844,57,0.0491573463209159,1
873,845,57,0.0522892623457599,1
873,846,57,0.0583875888358971,1
873,847,57,0.0686629153442875,1
873,848,57,0.0788177581739666,1
873,849,57,0.0813491481624412,1
874,832,57,0.0494069806742536,1
874,833,57,0.0590248320084238,1
874,834,57,0.058165063850943,1
874,835,57,0.0469643152041622,1
874,839,57,0.042357122923284,1
874,840,57,0.0511974695702476,1
874,841,57,0.0565808472950365,1
874,842,57,0.0519239995615787,1
874,843,57,0.047679220715632,1
874,844,57,0.0490208370802006,1
874,845,57,0.0517881499425113,1
874,846,57,0.0541793162634497,1
874,847,57,0.0584309832895561,1
874,848,57,0.0630023397320526,1
875,832,57,0.0427409740617736,1
875,833,57,0.0536391293876626,1
875,834,57,0.0568890798403447,1
875,835,57,0.0482888246597628,1
875,840,57,0.0432204108651321,1
875,841,57,0.0443104167147866,1
875,842,57,0.0431297264053769,1
875,843,57,0.0445911911573155,1
875,844,57,0.0479894537528233,1
875,845,57,0.0501205453154882,1
875,846,57,0.052126033021568,1
875,847,57,0.0558977387910385,1
875,848,57,0.060517036751177,1
876,833,57,0.0453144284471416,1
876,834,57,0.048662132665355,1
876,835,57,0.0453113195746206,1
876,843,57,0.0455416735115929,1
876,844,57,0.04908440406147,1
876,845,57,0.0502494472803129,1
876,846,57,0.051560066834163,1
876,847,57,0.0545621941896719,1
876,848,57,0.0599996392626529,1
877,834,57,0.0437368432514909,1
877,835,57,0.044172882897823,1
877,836,57,0.0428284225907395,1
877,837,57,0.0422161396095057,1
877,838,57,0.0410933229896008,1
877,842,57,0.0412151718688539,1
877,843,57,0.0464981411213153,1
877,844,57,0.0497836516689033,1
877,845,57,0.0504383153410175,1
877,846,57,0.0516969329193764,1
877,847,57,0.0531927980216022,1
877,848,57,0.0574420157968355,1
878,835,57,0.0433111142484591,1
878,836,57,0.0443495479580406,1
878,837,57,0.0456583832894004,1
878,838,57,0.0449404202693903,1
878,839,57,0.043273659092999,1
878,843,57,0.0454177998101501,1
878,844,57,0.0478897643762267,1
878,845,57,0.0481363277041871,1
878,846,57,0.049068821851721,1
878,847,57,0.0498133454565304,1
879,835,57,0.041581291620504,1
879,836,57,0.0437961280987836,1
879,837,57,0.0470573002295829,1
879,838,57,0.049161590607749,1
879,839,57,0.0486457610723225,1
879,840,57,0.0426475970480785,1
879,843,57,0.0424222821879577,1
879,844,57,0.0438723792799388,1
879,845,57,0.0433815396728467,1
879,846,57,0.0444935049759694,1
879,847,57,0.0466768715542338,1
880,836,57,0.0441577737773707,1
880,837,57,0.0499632363659233,1
880,838,57,0.0524954211444163,1
880,839,57,0.0503724883445936,1
880,840,57,0.0437713490331071,1
880,843,57,0.0413739190098807,1
880,844,57,0.0426422768210164,1
880,845,57,0.0420460194017867,1
880,846,57,0.0435554959589199,1
881,836,57,0.045961338861525,1
881,837,57,0.0551863638774057,1
881,838,57,0.0575232898346378,1
881,839,57,0.0517257940698413,1
881,840,57,0.0438333913151575,1
881,843,57,0.0416149296211817,1
881,844,57,0.0436595107233718,1
881,845,57,0.0434111118089404,1
882,836,57,0.0458238996624208,1
882,837,57,0.0573857208738979,1
882,838,57,0.061631326950272,1
882,839,57,0.0559475888860716,1
882,840,57,0.0463305539688591,1
882,841,57,0.0413605805950817,1
882,843,57,0.0427058573191229,1
882,844,57,0.0448274762823845,1
883,837,57,0.0527334093909534,1
883,838,57,0.0586134659964392,1
883,839,57,0.0566996711061583,1
883,840,57,0.0487811348987258,1
883,841,57,0.043834529432837,1
883,842,57,0.0425725488654205,1
858,841,58,0.096613766308118,1
859,840,58,0.0532735962667404,1
859,841,58,0.0858065738888273,1
859,842,58,0.0951659508582305,1
859,843,58,0.0610293086550924,1
860,840,58,0.0474916610847536,1
860,841,58,0.0614786840128561,1
860,842,58,0.0598283214631714,1
860,843,58,0.0410718960995123,1
861,840,58,0.0473592555557661,1
861,841,58,0.0502166824673085,1
861,842,58,0.041253478585048,1
862,840,58,0.0498825678824207,1
862,841,58,0.0488839277411086,1
863,831,58,0.0500342484210388,1
863,840,58,0.0417706003300963,1
863,841,58,0.0413471394523211,1
864,828,58,0.0630343476021823,1
864,829,58,0.07628613028916,1
864,830,58,0.0743626032762045,1
864,831,58,0.0558720135467687,1
865,827,58,0.0582437913166455,1
865,828,58,0.0841466792656564,1
865,829,58,0.095865193058929,1
865,830,58,0.0859044628227291,1
865,831,58,0.062422602591063,1
865,832,58,0.0435284325477823,1
865,847,58,0.0440861156174444,1
865,848,58,0.0472685846128479,1
865,849,58,0.0522104051184218,1
866,827,58,0.0673045002546356,1
866,830,58,0.101142793423715,1
866,831,58,0.0688754486832957,1
866,832,58,0.0461220270203519,1
866,845,58,0.0520608818669966,1
866,846,58,0.0703840412392859,1
866,847,58,0.0922831771738556,1
866,848,58,0.114324867078669,1
866,849,58,0.149993064240574,2
866,850,58,0.15457982447057,2
867,827,58,0.0571257109964422,1
867,828,58,0.0916480696615825,1
867,830,58,0.0962895027940708,1
867,831,58,0.0668449007613288,1
867,832,58,0.0437887776427968,1
867,844,58,0.0443345469722847,1
867,845,58,0.0688973405525787,1
867,846,58,0.115097316468819,1
867,847,58,0.176211770383844,1
867,848,58,0.2412788718558,2
867,849,58,0.338752806419775,2
867,850,58,0.344982922071131,2
867,851,58,0.216650610826948,2
868,828,58,0.0547431251636619,1
868,829,58,0.0685062660163706,1
868,830,58,0.0723955520479544,1
868,831,58,0.0576266449774418,1
868,844,58,0.0459563592587566,1
868,845,58,0.0745492870160421,1
868,846,58,0.14412086362078,1
868,847,58,0.243551819919916,2
868,848,58,0.332852328576877,2
868,849,58,0.448136609935745,2
868,850,58,0.457841958459494,2
868,851,58,0.291189176287843,2
869,830,58,0.049551800066386,1
869,831,58,0.0491813035628998,1
869,832,58,0.0426162136558204,1
869,844,58,0.0464638137619481,1
869,845,58,0.0739774977752368,1
869,846,58,0.158653842410722,1
869,847,58,0.282283743367126,2
869,848,58,0.359577667399647,2
869,849,58,0.40521414259956,2
869,850,58,0.38474930527783,2
869,851,58,0.256155286441458,2
870,830,58,0.0426553935596878,1
870,831,58,0.0520273709245871,1
870,832,58,0.0521663942969934,1
870,833,58,0.043101089634407,1
870,841,58,0.042292853066488,1
870,842,58,0.0436997881944075,1
870,843,58,0.0454004441913804,1
870,844,58,0.048316782885513,1
870,845,58,0.0688404454820762,1
870,846,58,0.149871628976534,1
870,847,58,0.285161899699965,2
870,848,58,0.360215662108313,2
870,849,58,0.329258428688671,2
870,850,58,0.253961514602034,2
871,830,58,0.0418067632759346,1
871,831,58,0.0561033461027434,1
871,832,58,0.0607232874643253,1
871,833,58,0.0523777111206673,1
871,834,58,0.0410306156791676,1
871,840,58,0.0416065735125186,1
871,841,58,0.0468379057440891,1
871,842,58,0.0495395970658991,1
871,843,58,0.049349907181502,1
871,844,58,0.048934994351476,1
871,845,58,0.0596969053666558,1
871,846,58,0.115140213502875,1
871,847,58,0.22532740374563,1
871,848,58,0.297954515432422,2
871,849,58,0.253359442239506,2
871,850,58,0.169957313612333,1
872,831,58,0.0565457792129991,1
872,832,58,0.0648775900098074,1
872,833,58,0.0603197990649723,1
872,834,58,0.048786601107628,1
872,840,58,0.0435623976559166,1
872,841,58,0.0501098075401372,1
872,842,58,0.0515943401261819,1
872,843,58,0.0491478412811038,1
872,844,58,0.0478858174598087,1
872,845,58,0.0526713454819637,1
872,846,58,0.0768299829311545,1
872,847,58,0.130358506744621,1
872,848,58,0.171334311649558,1
872,849,58,0.151793582629658,1
872,850,58,0.122626465041307,1
873,831,58,0.0491135463621455,1
873,832,58,0.059319455802192,1
873,833,58,0.0606096054580166,1
873,834,58,0.0532473681961325,1
873,840,58,0.0430640697210999,1
873,841,58,0.0488752931856023,1
873,842,58,0.048385805262215,1
873,843,58,0.0447324772482436,1
873,844,58,0.0446135453024255,1
873,845,58,0.0471263226062849,1
873,846,58,0.0538564909408644,1
873,847,58,0.0666847749029232,1
873,848,58,0.0779604284538892,1
873,849,58,0.0810359468278341,1
873,850,58,0.0982763264515547,1
874,832,58,0.0489435856531037,1
874,833,58,0.0552917465457669,1
874,834,58,0.0534164530141336,1
874,835,58,0.0419787920610447,1
874,841,58,0.0428102397415425,1
874,842,58,0.0422994952402134,1
874,843,58,0.041390177061482,1
874,844,58,0.0429786135739149,1
874,845,58,0.0449230430236814,1
874,846,58,0.0480972153845049,1
874,847,58,0.0532582411398539,1
874,848,58,0.0589059433164842,1
874,849,58,0.0711241529484828,1
875,832,58,0.0413411433834066,1
875,833,58,0.0492833989364909,1
875,834,58,0.0513678357844009,1
875,835,58,0.0437781452987749,1
875,844,58,0.0414640465759494,1
875,845,58,0.0425017233426563,1
875,846,58,0.0451371253922154,1
875,847,58,0.0497618517141123,1
875,848,58,0.0584593091732739,1
875,849,58,0.0811795821450412,1
875,850,58,0.119473689833531,1
876,833,58,0.0433002115676962,1
876,834,58,0.045955299538732,1
876,835,58,0.0430822282399902,1
876,844,58,0.0422126468588125,1
876,845,58,0.0434046561675662,1
876,846,58,0.0460073285478972,1
876,847,58,0.049951282075238,1
876,848,58,0.06037175237985,1
876,849,58,0.0907594295401671,1
876,850,58,0.142351401516498,1
877,834,58,0.0432998979770767,1
877,835,58,0.0436739034514605,1
877,844,58,0.0430943528428222,1
877,845,58,0.0442739374749614,1
877,846,58,0.0473845915151289,1
877,847,58,0.0500249866842935,1
877,848,58,0.057611446645865,1
877,849,58,0.0847458049577077,1
878,835,58,0.042992771109039,1
878,836,58,0.0427098718197261,1
878,837,58,0.0416612545251126,1
878,844,58,0.0436480133017788,1
878,845,58,0.043965485956893,1
878,846,58,0.0462903711156828,1
878,847,58,0.0487347829611207,1
878,848,58,0.0542862236310299,1
879,835,58,0.0412962026035894,1
879,836,58,0.0432025226829827,1
879,837,58,0.0448082580434696,1
879,838,58,0.0456896234031858,1
879,839,58,0.0430209320873448,1
879,844,58,0.0423210897390814,1
879,845,58,0.0417546693859515,1
879,846,58,0.0437063087165995,1
879,847,58,0.0487164162829399,1
879,848,58,0.0582323776994421,1
880,836,58,0.0434415138788288,1
880,837,58,0.047837540724608,1
880,838,58,0.0495691448716861,1
880,839,58,0.0458323395754736,1
880,844,58,0.0425419034924652,1
880,845,58,0.0423358041678918,1
880,846,58,0.0440928118585179,1
880,847,58,0.0520965122494552,1
881,836,58,0.0438363325788992,1
881,837,58,0.0507298302622647,1
881,838,58,0.0524953454501288,1
881,839,58,0.0465020285636503,1
881,844,58,0.0433956052934789,1
881,845,58,0.0440386471890991,1
881,846,58,0.0464497940985619,1
882,836,58,0.0430895732892421,1
882,837,58,0.0513614990911928,1
882,838,58,0.053478733192516,1
882,839,58,0.0473616777729651,1
882,840,58,0.0418158060399197,1
882,843,58,0.0415689156045028,1
882,844,58,0.0443896307866228,1
882,845,58,0.0452554301567944,1
883,836,58,0.0417955605213892,1
883,837,58,0.0482034360967631,1
883,838,58,0.0500831523374785,1
883,839,58,0.0462750916830837,1
883,840,58,0.0427862770928238,1
883,841,58,0.0418191203683639,1
883,842,58,0.0411737806104455,1
883,843,58,0.0417069765781113,1
883,844,58,0.0435038643447639,1
884,837,58,0.0474743865670063,1
884,838,58,0.0466074274522159,1
884,839,58,0.0440923658028954,1
884,840,58,0.0427789239334697,1
884,841,58,0.042817760509676,1
884,842,58,0.0426054785838369,1
852,844,59,0.260940290010335,1
853,845,59,0.1789471024097,1
854,844,59,0.0678772573009735,1
856,841,59,0.0467226287510088,1
856,842,59,0.0440710605643403,1
857,840,59,0.0440903112436641,1
857,841,59,0.0553617745751453,1
857,842,59,0.0544912037614957,1
858,840,59,0.0453549681448161,1
858,841,59,0.0587780902582144,1
858,842,59,0.0600845195925796,1
858,843,59,0.0430600362969247,1
859,840,59,0.0453929666771255,1
859,841,59,0.0562507823545283,1
859,842,59,0.0558361506747129,1
859,843,59,0.0414792638310981,1
860,840,59,0.0447836249596333,1
860,841,59,0.051326501296708,1
860,842,59,0.0481200426189116,1
861,841,59,0.0415982038870184,1
863,831,59,0.0434961867813206,1
864,829,59,0.0556168535104459,1
864,830,59,0.0560132536804509,1
864,831,59,0.0475161319665454,1
865,827,59,0.049761143431851,1
865,828,59,0.0648216519313679,1
865,829,59,0.0716184366456548,1
865,830,59,0.0657092377394935,1
865,831,59,0.0524488799710926,1
865,846,59,0.0434692477250839,1
865,847,59,0.0465835729381936,1
865,848,59,0.050322562555273,1
865,849,59,0.0570942762402033,1
865,850,59,0.0648023498880633,1
866,827,59,0.0552756669164146,1
866,828,59,0.080024384590304,1
866,829,59,0.0905271183651902,1
866,830,59,0.0773504730719951,1
866,831,59,0.0565354253158204,1
866,832,59,0.0416234776689308,1
866,845,59,0.0555265664456999,1
866,846,59,0.0775821138118545,1
866,847,59,0.0978332120927117,1
866,848,59,0.122919326239524,1
866,849,59,0.161429551932207,2
866,850,59,0.171830563398205,2
866,851,59,0.117198384433033,1
867,827,59,0.0457918431316777,1
867,828,59,0.0680439144950408,1
867,829,59,0.0793715592080284,1
867,830,59,0.070780500883374,1
867,831,59,0.0530588948270697,1
867,844,59,0.0465449093775014,1
867,845,59,0.0769225408245245,1
867,846,59,0.12938298039466,1
867,847,59,0.1931233340228,1
867,848,59,0.270243053059446,2
867,849,59,0.374601556084233,2
867,850,59,0.39006204941894,2
867,851,59,0.240810129573914,2
868,828,59,0.0434299515764179,1
868,829,59,0.052440164314564,1
868,830,59,0.0533922795027569,1
868,831,59,0.0458817949788649,1
868,844,59,0.0481849234367421,1
868,845,59,0.0817812111553137,1
868,846,59,0.158106767354775,1
868,847,59,0.269424884319664,2
868,848,59,0.371630966212925,2
868,849,59,0.482227932887628,2
868,850,59,0.492939020595507,2
868,851,59,0.310215411235818,2
868,852,59,0.141619762160763,2
869,844,59,0.0514530405184168,1
869,845,59,0.0860205183856234,1
869,846,59,0.180907151916359,2
869,847,59,0.326429798046776,2
869,848,59,0.414299403520364,2
869,849,59,0.441964757258801,2
869,850,59,0.400952121676275,2
869,851,59,0.262625093460818,2
870,831,59,0.0421507640754393,1
870,832,59,0.0418608089971874,1
870,842,59,0.0410802603182776,1
870,843,59,0.044844402065736,1
870,844,59,0.0538021748828707,1
870,845,59,0.0812674686195274,1
870,846,59,0.169912924319467,2
870,847,59,0.326373308481385,2
870,848,59,0.409084456398663,2
870,849,59,0.359805031412264,2
870,850,59,0.254203801202752,2
870,851,59,0.163784217386381,1
871,831,59,0.046678542235293,1
871,832,59,0.0504410187084271,1
871,833,59,0.0454619079528052,1
871,841,59,0.044200067960494,1
871,842,59,0.0463364148694031,1
871,843,59,0.0477924161158069,1
871,844,59,0.0527777229895316,1
871,845,59,0.0690280429600982,1
871,846,59,0.131163428984095,1
871,847,59,0.258270595745185,2
871,848,59,0.336704324358413,2
871,849,59,0.280506528005113,2
871,850,59,0.173913756697106,1
871,851,59,0.129239993885632,1
872,831,59,0.0501518773437655,1
872,832,59,0.0576766086139061,1
872,833,59,0.0555224519205025,1
872,834,59,0.0444374317291594,1
872,841,59,0.043576365955322,1
872,842,59,0.0453256663454634,1
872,843,59,0.0449885726496902,1
872,844,59,0.0468832304020785,1
872,845,59,0.0535086973168841,1
872,846,59,0.0778520612679079,1
872,847,59,0.134340361483044,1
872,848,59,0.175178824510104,2
872,849,59,0.153624638257,1
872,850,59,0.125225428401552,1
873,831,59,0.0468921461077954,1
873,832,59,0.0565366580513591,1
873,833,59,0.0583161388352613,1
873,834,59,0.0498385786879317,1
873,845,59,0.0442074968141356,1
873,846,59,0.0524649325667708,1
873,847,59,0.0663929517977912,1
873,848,59,0.0777384711760911,1
873,849,59,0.0832594719289681,1
873,850,59,0.107290705078879,1
874,832,59,0.0469787079322509,1
874,833,59,0.0517255453600397,1
874,834,59,0.0488193659206324,1
874,846,59,0.0441496366414678,1
874,847,59,0.0496712186183379,1
874,848,59,0.0573177582172205,1
874,849,59,0.0837134592315326,1
874,850,59,0.13138579717374,1
875,833,59,0.0448830980668371,1
875,834,59,0.0462067505549689,1
875,846,59,0.0410878486705964,1
875,847,59,0.0463401022625498,1
875,848,59,0.0624141572712754,1
875,849,59,0.118454249983369,1
875,850,59,0.197957473997715,1
875,851,59,0.217133562007938,1
876,834,59,0.0434427493177349,1
876,835,59,0.0413992144187323,1
876,846,59,0.0416740468596949,1
876,847,59,0.0469912028964181,1
876,848,59,0.0677134062022774,1
876,849,59,0.135463880978475,1
876,850,59,0.229035364111582,1
876,851,59,0.25142560458325,3
877,834,59,0.0425766958310268,1
877,835,59,0.0427097339479883,1
877,846,59,0.0435597429491204,1
877,847,59,0.0479930600449477,1
877,848,59,0.0635830014246963,1
877,849,59,0.11438105386691,1
877,850,59,0.185426284707237,1
878,835,59,0.0428047329821291,1
878,846,59,0.0436640631940896,1
878,847,59,0.0489717655549814,1
878,848,59,0.0636298507819047,1
878,849,59,0.100422637972736,1
879,835,59,0.0419856045469169,1
879,836,59,0.0424495537583857,1
879,846,59,0.0434404109049256,1
879,847,59,0.0529312850718668,1
879,848,59,0.077474557636096,1
879,849,59,0.121181493533934,1
880,836,59,0.0434417950290394,1
880,837,59,0.0443360960018104,1
880,838,59,0.0436026048393996,1
880,845,59,0.0413095896790017,1
880,846,59,0.0443041800461726,1
880,847,59,0.0567687151097995,1
880,848,59,0.0870041440243426,1
881,836,59,0.0425241558854212,1
881,837,59,0.0457497300741709,1
881,838,59,0.0454900229738651,1
881,844,59,0.041718663235423,1
881,845,59,0.0433114954232639,1
881,846,59,0.046966834742588,1
881,847,59,0.0598242231581785,1
882,836,59,0.0419796679520854,1
882,837,59,0.0465718349169011,1
882,838,59,0.0462037173767353,1
882,839,59,0.0410088806051944,1
882,844,59,0.0421233870736822,1
882,845,59,0.0445023449873988,1
882,846,59,0.0484124172109951,1
883,836,59,0.0429197342317337,1
883,837,59,0.0466313522537909,1
883,838,59,0.0453612615841456,1
883,844,59,0.041223482020271,1
883,845,59,0.0433540193926169,1
884,836,59,0.0482988757797917,1
884,837,59,0.0501377333254784,1
884,838,59,0.0457035727790193,1
884,839,59,0.0411892492787632,1
885,839,59,0.0421018223118558,1
851,843,60,0.0743979903555962,1
851,844,60,0.158987178425796,1
852,843,60,0.110261922131427,1
852,844,60,0.237268091086094,1
852,845,60,0.243553031028516,1
853,843,60,0.0750872409103488,1
853,844,60,0.157115983199155,1
853,845,60,0.16020600784262,1
853,846,60,0.094678230937129,1
854,844,60,0.0599001012746312,1
854,845,60,0.0638175347676839,1
854,846,60,0.0598918722242364,1
854,847,60,0.0698377014992746,1
855,846,60,0.0480317452325791,1
855,847,60,0.0604535184305209,1
856,846,60,0.0425567044290328,1
856,847,60,0.0476198061067037,1
857,841,60,0.0420034765088618,1
857,848,60,0.0410195994569735,1
859,841,60,0.0412144879168993,1
859,842,60,0.0412182915548446,1
860,841,60,0.041140777901109,1
860,849,60,0.0438597842911775,1
861,849,60,0.0436450558178327,1
861,850,60,0.0487416332941367,1
863,850,60,0.0430170446450098,1
864,828,60,0.0410861266255564,1
864,829,60,0.0427171033275468,1
864,830,60,0.0425331580988952,1
864,850,60,0.0497599485434559,1
865,827,60,0.0414177135619162,1
865,828,60,0.0496263156856644,1
865,829,60,0.0534631780164411,1
865,830,60,0.0511814331947739,1
865,831,60,0.0440600470455135,1
865,846,60,0.0426486540647357,1
865,847,60,0.0461428537628755,1
865,848,60,0.0503425188134907,1
865,849,60,0.0590107744978938,1
865,850,60,0.0678594691434184,1
866,827,60,0.0430234056685246,1
866,828,60,0.0555808230296107,1
866,829,60,0.0626968808417066,1
866,830,60,0.0573055173695898,1
866,831,60,0.0458991938515131,1
866,845,60,0.054354105186685,1
866,846,60,0.0746332806414585,1
866,847,60,0.0925702423523466,1
866,848,60,0.114647411251043,1
866,849,60,0.148361971293785,2
866,850,60,0.161093512549724,2
866,851,60,0.116769176196145,1
867,828,60,0.0456825730209815,1
867,829,60,0.0541791702816096,1
867,830,60,0.0511198937390616,1
867,831,60,0.0419445214723932,1
867,844,60,0.0442375528529955,1
867,845,60,0.0748987296941423,1
867,846,60,0.120306337809158,1
867,847,60,0.176250515045559,1
867,848,60,0.244750514656274,2
867,849,60,0.330270937104795,2
867,850,60,0.349138603333992,2
867,851,60,0.228317284846774,2
868,844,60,0.046195742442877,1
868,845,60,0.0791169722855964,1
868,846,60,0.144995294843091,1
868,847,60,0.250160536770252,2
868,848,60,0.350065512324457,2
868,849,60,0.432945458502791,2
868,850,60,0.434234337575933,2
868,851,60,0.28554783243136,2
869,844,60,0.0512842963247093,1
869,845,60,0.0853503590115174,1
869,846,60,0.16670812550926,2
869,847,60,0.309321699597142,2
869,848,60,0.407352960386281,2
869,849,60,0.414748595049144,2
869,850,60,0.352632954420706,2
869,851,60,0.235498618168342,2
870,844,60,0.0551596654208685,1
870,845,60,0.0849794245625108,1
870,846,60,0.162489423345347,2
870,847,60,0.313305143915602,2
870,848,60,0.406138391476494,2
870,849,60,0.351568779246651,2
870,850,60,0.233633164894079,2
870,851,60,0.150898454426459,1
871,832,60,0.0432205271099307,1
871,843,60,0.0420348382741806,1
871,844,60,0.0518591079302786,1
871,845,60,0.0712729138502985,1
871,846,60,0.125070752531844,1
871,847,60,0.237521320918086,2
871,848,60,0.311117514126933,2
871,849,60,0.259071873845392,2
871,850,60,0.162580602521338,1
871,851,60,0.127298770629613,1
872,831,60,0.0436103635038652,1
872,832,60,0.0509910890954636,1
872,833,60,0.0488674912672582,1
872,844,60,0.0428298148249554,1
872,845,60,0.0517510002675685,1
872,846,60,0.0731888876547116,1
872,847,60,0.119168339077881,1
872,848,60,0.154163614024188,1
872,849,60,0.139265226468225,1
872,850,60,0.125410879405851,1
873,831,60,0.0418628311160098,1
873,832,60,0.051452824249024,1
873,833,60,0.0529397520185936,1
873,834,60,0.0437946142130342,1
873,846,60,0.0496731163822594,1
873,847,60,0.0637227655197728,1
873,848,60,0.0768321834722259,1
873,849,60,0.0905825428038219,1
873,850,60,0.12531163338151,1
874,832,60,0.043489206686669,1
874,833,60,0.0476207901324408,1
874,834,60,0.0438452077341049,1
874,847,60,0.0484853162165625,1
874,848,60,0.0650750115249959,1
874,849,60,0.114168320478713,1
874,850,60,0.192093437547498,1
874,851,60,0.214862452233661,1
875,833,60,0.0418388143999428,1
875,834,60,0.0427562426809031,1
875,847,60,0.0457561694953406,1
875,848,60,0.0785538392272366,1
875,849,60,0.176474840473208,1
875,850,60,0.302480882434487,3
875,851,60,0.313937493993118,3
876,834,60,0.042649092010256,1
876,847,60,0.0464479449952538,1
876,848,60,0.0877370431492907,1
876,849,60,0.196439825160902,1
876,850,60,0.323529668743631,3
876,851,60,0.327847443916372,3
876,852,60,0.195001568818175,3
877,834,60,0.0424034316070105,1
877,835,60,0.0410184667460289,1
877,847,60,0.048934215781662,1
877,848,60,0.0816630794062488,1
877,849,60,0.155789397557384,1
877,850,60,0.23316033512067,1
877,851,60,0.235927415493384,3
878,835,60,0.0413605508580402,1
878,847,60,0.0546502212392634,1
878,848,60,0.087613164041113,1
878,849,60,0.135329112706372,1
878,850,60,0.173093436076866,1
879,835,60,0.0412919691302259,1
879,846,60,0.0417404442666422,1
879,847,60,0.0608422194101434,1
879,848,60,0.106226724547277,1
879,849,60,0.158734759604026,1
880,835,60,0.0412299025178688,1
880,836,60,0.0426505842690661,1
880,846,60,0.042101143766636,1
880,847,60,0.061114134917671,1
880,848,60,0.106697456507576,1
881,836,60,0.0422905849412314,1
881,846,60,0.0436582833945678,1
881,847,60,0.0584262199561804,1
882,836,60,0.0433469122396971,1
882,837,60,0.043557212597225,1
882,846,60,0.0455325577566878,1
883,836,60,0.0462612991025599,1
883,837,60,0.0464317626379399,1
883,838,60,0.0420067746171015,1
884,836,60,0.0528451990400753,1
884,837,60,0.05129249834143,1
884,838,60,0.0449453512115455,1
885,837,60,0.058271230495853,1
885,838,60,0.0477288599480071,1
885,839,60,0.0412333033540701,1
850,844,61,0.0569444988722416,1
851,843,61,0.0620610217932937,1
851,844,61,0.119001357479725,1
851,845,61,0.131272493638868,1
852,843,61,0.0852172722339426,1
852,844,61,0.167895649931482,1
852,845,61,0.18001771159819,1
852,846,61,0.10989996286222,1
853,843,61,0.0605536673795771,1
853,844,61,0.112061478121712,1
853,845,61,0.119558067337119,1
853,846,61,0.0813471368570884,1
853,847,61,0.0617308324978847,1
854,844,61,0.0520583893622449,1
854,845,61,0.0579178787484784,1
854,846,61,0.0576295159536308,1
854,847,61,0.06222920368658,1
854,848,61,0.0608484641888596,1
855,846,61,0.0483033201158131,1
855,847,61,0.0562798435541816,1
855,848,61,0.0554213513861181,1
856,846,61,0.0429311262219978,1
856,847,61,0.0468024267502055,1
856,848,61,0.0467392598673127,1
857,847,61,0.0410567950891622,1
857,848,61,0.0439451187868291,1
857,849,61,0.0424826727125208,1
858,848,61,0.0424045751314247,1
858,849,61,0.0430821471389679,1
859,849,61,0.0467836113130346,1
860,849,61,0.0514313108511784,1
860,850,61,0.0538282083110251,1
861,849,61,0.0480186014602336,1
861,850,61,0.0526095410962453,1
862,850,61,0.0468215395577914,1
863,850,61,0.045077353938789,1
864,849,61,0.0415106904772347,1
864,850,61,0.050258325138886,1
865,847,61,0.0453675712436796,1
865,848,61,0.0501030491216132,1
865,849,61,0.0570290331711399,1
865,850,61,0.0654164900827075,1
866,829,61,0.0424364153927751,1
866,830,61,0.0420545971865774,1
866,845,61,0.04746350821655,1
866,846,61,0.064648674264297,1
866,847,61,0.0805127425061141,1
866,848,61,0.0967920371685769,1
866,849,61,0.117573990300923,1
866,850,61,0.128108375101441,1
867,845,61,0.0625818417449583,1
867,846,61,0.098035337467193,1
867,847,61,0.142093630027258,1
867,848,61,0.189532050994247,1
867,849,61,0.238216627015836,2
867,850,61,0.249439170210673,2
867,851,61,0.179111759111884,1
868,844,61,0.0417836765182566,1
868,845,61,0.0689803339320535,1
868,846,61,0.121051407494184,1
868,847,61,0.203919913021641,1
868,848,61,0.283803641405623,2
868,849,61,0.326248088502972,2
868,850,61,0.314337765385253,2
868,851,61,0.220594694115924,2
869,844,61,0.046808482293203,1
869,845,61,0.076068595720444,1
869,846,61,0.140094305998872,1
869,847,61,0.253919125801051,2
869,848,61,0.347176996687704,2
869,849,61,0.336181536355274,2
869,850,61,0.2697737268502,2
869,851,61,0.18620522217917,1
870,844,61,0.0511105779349681,1
870,845,61,0.0797334049358039,1
870,846,61,0.142598575805493,1
870,847,61,0.258056835077373,2
870,848,61,0.347188285950007,2
870,849,61,0.299010450742613,2
870,850,61,0.200927825972691,1
870,851,61,0.136109780333448,1
871,844,61,0.046009307412841,1
871,845,61,0.0659173051155411,1
871,846,61,0.107407933903229,1
871,847,61,0.18020224345757,1
871,848,61,0.237601751505257,2
871,849,61,0.20176251769408,1
871,850,61,0.142012366802925,1
871,851,61,0.119099500530163,1
872,832,61,0.0435587102627699,1
872,833,61,0.0412817044441717,1
872,845,61,0.0485862275152282,1
872,846,61,0.068338570729218,1
872,847,61,0.0968978794093977,1
872,848,61,0.123357325827228,1
872,849,61,0.124105888262948,1
872,850,61,0.128961601109791,1
873,832,61,0.0445408517527812,1
873,833,61,0.0452017412800397,1
873,846,61,0.0477934704290966,1
873,847,61,0.0625118245290496,1
873,848,61,0.0849863722167535,1
873,849,61,0.119772671455563,1
873,850,61,0.162469342732228,1
873,851,61,0.178020831413942,1
874,833,61,0.043398397872013,1
874,847,61,0.0558767822868793,1
874,848,61,0.0966420435312224,1
874,849,61,0.177791953515576,1
874,850,61,0.268604790782287,3
874,851,61,0.272210044813613,3
875,847,61,0.0546701396503374,1
875,848,61,0.114113420493359,1
875,849,61,0.243541222719671,3
875,850,61,0.377854593782497,3
875,851,61,0.370199003309527,3
875,852,61,0.221298542854689,3
876,834,61,0.041624607676508,1
876,847,61,0.0544950371364825,1
876,848,61,0.12186348825056,1
876,849,61,0.254551865163473,3
876,850,61,0.374796717584267,3
876,851,61,0.353096160206138,3
876,852,61,0.208498444201242,3
877,834,61,0.0415399814631178,1
877,847,61,0.0574359494403683,1
877,848,61,0.116599923769364,1
877,849,61,0.207203509585103,1
877,850,61,0.264142720670691,3
877,851,61,0.236577196883956,3
878,847,61,0.0668038420171118,1
878,848,61,0.129447493554523,1
878,849,61,0.19438057288378,1
879,847,61,0.0696258818492625,1
879,848,61,0.135595297074991,1
880,835,61,0.0415927457882185,1
880,836,61,0.041053348295715,1
880,847,61,0.0636073479515872,1
880,848,61,0.114040234930846,1
881,836,61,0.0424979656619569,1
881,846,61,0.0413132905889855,1
881,847,61,0.0559206795668764,1
882,835,61,0.0415999691859369,1
882,836,61,0.0454326737376377,1
882,837,61,0.0424857221109588,1
882,846,61,0.043650054344173,1
883,835,61,0.0436215932920847,1
883,836,61,0.0488297792918942,1
883,837,61,0.0466983416982009,1
884,835,61,0.0479611224623706,1
884,836,61,0.0535611210176911,1
884,837,61,0.0503565763240207,1
884,838,61,0.0439139327403919,1
885,836,61,0.0629485481273363,1
885,837,61,0.0554093808752284,1
885,838,61,0.0469430018555049,1
886,838,61,0.0519967633987756,1
850,844,62,0.043009456292691,1
850,845,62,0.0489957768643135,1
851,843,62,0.0436556476113435,1
851,844,62,0.0703472375953716,1
851,845,62,0.0811831668102263,1
851,846,62,0.063921062926002,1
852,843,62,0.0544638997506587,1
852,844,62,0.0911526505500985,1
852,845,62,0.102944036315264,1
852,846,62,0.0776107046255784,1
852,847,62,0.0549682724150033,1
853,843,62,0.0433217087453373,1
853,844,62,0.0660207143256932,1
853,845,62,0.0736778078709429,1
853,846,62,0.0621110611240455,1
853,847,62,0.0531974748472208,1
853,848,62,0.0471242139797055,1
854,844,62,0.0410822716236304,1
854,845,62,0.0467122261932166,1
854,846,62,0.0496799288681316,1
854,847,62,0.0515652518928546,1
854,848,62,0.0487452990603441,1
855,846,62,0.0430488659827882,1
855,847,62,0.0476953868527414,1
855,848,62,0.0469167521579576,1
855,849,62,0.0435766308853282,1
856,847,62,0.0418396389270028,1
856,848,62,0.0429658861201505,1
856,849,62,0.0414410922832745,1
857,848,62,0.0427115425007853,1
857,849,62,0.0426692591311317,1
858,848,62,0.0440894677930323,1
858,849,62,0.0468913459110422,1
859,848,62,0.0435058513198099,1
859,849,62,0.0515351471933813,1
859,850,62,0.0483210109521416,1
860,849,62,0.0519051624974686,1
860,850,62,0.0515215005946976,1
861,849,62,0.0446554502006418,1
861,850,62,0.0489520039392172,1
862,850,62,0.0455516543440692,1
863,850,62,0.0451396719643152,1
864,850,62,0.0490869722605091,1
865,848,62,0.0450131111156672,1
865,849,62,0.0513541621520431,1
865,850,62,0.0601434962559875,1
866,846,62,0.0506614026263928,1
866,847,62,0.0624055173090343,1
866,848,62,0.0729255634488117,1
866,849,62,0.0837776696142455,1
866,850,62,0.0932253547834508,1
867,845,62,0.0476909803638637,1
867,846,62,0.0720533057338985,1
867,847,62,0.101296301438702,1
867,848,62,0.128030291037182,1
867,849,62,0.146987503608455,1
867,850,62,0.15277322891155,1
867,851,62,0.125767723903919,1
868,845,62,0.0552242650884884,1
868,846,62,0.0915234011701212,1
868,847,62,0.145674715953942,1
868,848,62,0.196719396604934,1
868,849,62,0.208995993566245,2
868,850,62,0.195218119361154,2
868,851,62,0.152748682335471,1
869,845,62,0.0615486417546818,1
869,846,62,0.106973318931522,1
869,847,62,0.182759553332768,1
869,848,62,0.251307218717649,2
869,849,62,0.235767505904371,2
869,850,62,0.186858398999209,1
869,851,62,0.140641067464199,1
870,844,62,0.0415327364384601,1
870,845,62,0.0655169742493224,1
870,846,62,0.110930659534275,1
870,847,62,0.184781953305362,1
870,848,62,0.249602475229153,2
870,849,62,0.219633982219369,1
870,850,62,0.158707250137266,1
870,851,62,0.119714722071771,1
871,845,62,0.0540240023990331,1
871,846,62,0.0825274811354697,1
871,847,62,0.121262616183162,1
871,848,62,0.157808326406225,1
871,849,62,0.143749983239122,1
871,850,62,0.118872190584894,1
872,846,62,0.0566143474239763,1
872,847,62,0.0734961307675479,1
872,848,62,0.0963578979895338,1
872,849,62,0.117436962013665,1
872,850,62,0.133484021195439,1
873,846,62,0.0410342435982313,1
873,847,62,0.0567347554084001,1
873,848,62,0.096304868734427,1
873,849,62,0.163123471137595,1
873,850,62,0.211105788000457,3
874,847,62,0.0581953740063395,1
874,848,62,0.125471542970522,1
874,849,62,0.24016129976867,3
874,850,62,0.326663801529751,3
874,851,62,0.296026473795892,3
875,847,62,0.0595434838594259,1
875,848,62,0.139561645297953,1
875,849,62,0.281250191939086,3
875,850,62,0.390957274943366,3
875,851,62,0.357713663130316,3
875,852,62,0.213552703164116,3
876,834,62,0.0410235734070656,1
876,847,62,0.0589506083528257,1
876,848,62,0.141748312687825,1
876,849,62,0.271400375460967,3
876,850,62,0.355080842796633,3
876,851,62,0.31380226074182,3
876,852,62,0.192144433870313,3
877,847,62,0.066082686320191,1
877,848,62,0.148842965236771,1
877,849,62,0.241839939541459,1
877,850,62,0.264084998369761,3
877,851,62,0.21182942538866,3
878,847,62,0.0770360281883796,1
878,848,62,0.165616722018655,1
878,849,62,0.241099887306345,1
879,847,62,0.0735963067502781,1
879,848,62,0.149201475009163,1
880,847,62,0.0611216773127438,1
880,848,62,0.104844828008305,1
881,847,62,0.0520249378939185,1
882,835,62,0.0414944729761445,1
882,836,62,0.0438625444293027,1
882,846,62,0.042601109942103,1
882,847,62,0.0505296404988487,1
883,835,62,0.0438891888184918,1
883,836,62,0.0473583958849298,1
883,837,62,0.0419799815427049,1
883,846,62,0.0423134148790055,1
884,835,62,0.046679407312864,1
884,836,62,0.0494498344544306,1
884,837,62,0.0442114058834099,1
885,835,62,0.0561073524932444,1
885,836,62,0.0570539203715128,1
885,837,62,0.0489852337314161,1
885,838,62,0.0415082682600357,1
886,837,62,0.0603496874950528,1
886,838,62,0.049020912774488,1
851,845,63,0.047424093119718,1
851,846,63,0.0467239534010395,1
851,847,63,0.0421641051936057,1
852,844,63,0.0460697925552635,1
852,845,63,0.0544149201399315,1
852,846,63,0.0528436743408563,1
852,847,63,0.046275589102687,1
853,845,63,0.0462100756968827,1
853,846,63,0.0470010053066453,1
853,847,63,0.0444126742904223,1
854,846,63,0.0413112900971024,1
854,847,63,0.0417891265069543,1
857,848,63,0.0413805233364623,1
857,849,63,0.0435346746231311,1
858,848,63,0.0443258475359606,1
858,849,63,0.0492197400407296,1
858,850,63,0.0456232016659318,1
859,848,63,0.0460606551734191,1
859,849,63,0.0533385095249799,1
859,850,63,0.0492293478085033,1
860,848,63,0.0429702763888236,1
860,849,63,0.0515627756083074,1
860,850,63,0.0496539170669164,1
861,849,63,0.0433877547145214,1
861,850,63,0.0462043175243002,1
862,850,63,0.0438537125279755,1
863,850,63,0.0435924023307958,1
864,850,63,0.0461595930138758,1
864,851,63,0.0520511875914657,1
865,849,63,0.0449705574092726,1
865,850,63,0.0526975465188976,1
865,851,63,0.057494574666013,1
866,847,63,0.0453158206813576,1
866,848,63,0.0532698980601241,1
866,849,63,0.0599085844415626,1
866,850,63,0.0677050906441255,1
866,851,63,0.0689296457931234,1
867,846,63,0.0477707891765301,1
867,847,63,0.0656893301418892,1
867,848,63,0.0812288645329182,1
867,849,63,0.0885037776207374,1
867,850,63,0.0923642133153259,1
867,851,63,0.085901835149607,1
868,846,63,0.0627941642213086,1
868,847,63,0.094862989879371,1
868,848,63,0.122671957308076,1
868,849,63,0.125618811613528,1
868,850,63,0.11743862728799,1
869,845,63,0.0456586536261413,1
869,846,63,0.0742934511378668,1
869,847,63,0.117638006041183,1
869,848,63,0.155011855023034,1
869,849,63,0.149467389041042,1
869,850,63,0.125693976040985,1
870,845,63,0.0491795842212273,1
870,846,63,0.0778036493643367,1
870,847,63,0.118173899969523,1
870,848,63,0.151990874383211,1
870,849,63,0.14468012545701,1
870,850,63,0.119439097544157,1
871,845,63,0.042396643451445,1
871,846,63,0.0603839986342155,1
871,847,63,0.0806927327082456,1
871,848,63,0.100282073680906,1
871,849,63,0.104238441071392,1
871,850,63,0.0999969008596016,1
872,846,63,0.0464036097697362,1
872,847,63,0.0593739719093741,1
872,848,63,0.0808297664022384,1
872,849,63,0.111868187351926,1
872,850,63,0.129757234578846,1
873,847,63,0.0553749237542256,1
873,848,63,0.106507355711333,1
873,849,63,0.188780060688652,1
873,850,63,0.231720348622801,3
874,847,63,0.0623605711224823,1
874,848,63,0.143730886651741,1
874,849,63,0.266639983348987,3
874,850,63,0.332105398975073,3
874,851,63,0.273703471478436,3
875,847,63,0.0673152596569258,1
875,848,63,0.155921462462078,1
875,849,63,0.286560340847484,3
875,850,63,0.355569265593261,3
875,851,63,0.30211238101615,3
876,847,63,0.0658326626819464,1
876,848,63,0.146972018719933,1
876,849,63,0.252718765790369,1
876,850,63,0.294506662265152,3
876,851,63,0.248811988971645,3
877,847,63,0.0761969245713778,1
877,848,63,0.162954975653689,1
877,849,63,0.243910113422916,1
878,847,63,0.0836741360491925,1
878,848,63,0.175121080582235,1
878,849,63,0.24663411293259,1
879,847,63,0.0744928461112644,1
879,848,63,0.143564240271143,1
880,847,63,0.0584678031536749,1
880,848,63,0.0905919829628163,1
881,847,63,0.0508306063925599,1
882,846,63,0.0427655692984662,1
882,847,63,0.0484487234353061,1
883,835,63,0.0426257430259393,1
883,836,63,0.0434380265348704,1
883,846,63,0.0432885654608956,1
884,835,63,0.0454396808659634,1
884,836,63,0.0465384429226577,1
885,835,63,0.0524193970461234,1
885,836,63,0.0527220390276286,1
885,837,63,0.0456436283100788,1
886,836,63,0.0689743432698738,1
886,837,63,0.0585993760455003,1
886,838,63,0.0467289059701339,1
887,838,63,0.0592344132702207,1
889,836,63,0.139074931029528,1
857,849,64,0.0436970415731193,1
857,850,64,0.0415031913360405,1
858,848,64,0.0417334830955624,1
858,849,64,0.0489292794327721,1
858,850,64,0.0465594102402865,1
859,848,64,0.0433672253424128,1
859,849,64,0.0507435525552359,1
859,850,64,0.047593659137118,1
860,848,64,0.0417102476526769,1
860,849,64,0.0487903587883274,1
860,850,64,0.0467018020084852,1
861,849,64,0.0417835062061097,1
861,850,64,0.0433240336413096,1
862,850,64,0.0410516830213907,1
864,850,64,0.0426610625211457,1
864,851,64,0.0477902696420837,1
865,850,64,0.0471157145925697,1
865,851,64,0.0516079705046612,1
866,848,64,0.0415682019155067,1
866,849,64,0.0474087271793618,1
866,850,64,0.0552957745632072,1
866,851,64,0.0589874930977623,1
867,847,64,0.0445493241062429,1
867,848,64,0.053433397721057,1
867,849,64,0.0581531582208711,1
867,850,64,0.0648281346064161,1
867,851,64,0.0671416926557596,1
868,846,64,0.0443325140399927,1
868,847,64,0.0608409488274609,1
868,848,64,0.0733848331312945,1
868,849,64,0.0756041031321258,1
868,850,64,0.0778547808555219,1
868,851,64,0.0775750309892413,1
869,846,64,0.0514933098793502,1
869,847,64,0.0719311892212719,1
869,848,64,0.0869272115946001,1
869,849,64,0.0885058051462946,1
869,850,64,0.0877253537886115,1
870,846,64,0.0539308011042196,1
870,847,64,0.0728084914197714,1
870,848,64,0.0867562181992078,1
870,849,64,0.0910318965346463,1
870,850,64,0.0919169465841417,1
871,846,64,0.0463329599658537,1
871,847,64,0.058840008185364,1
871,848,64,0.0704572916826165,1
871,849,64,0.0807070335218424,1
871,850,64,0.0872434298872363,1
872,847,64,0.0527371021908349,1
872,848,64,0.0739624508322349,1
872,849,64,0.104469870948593,1
872,850,64,0.121068838807241,1
873,847,64,0.0566056425809174,1
873,848,64,0.10882067045761,1
873,849,64,0.186879485265004,1
873,850,64,0.219767701584917,1
874,847,64,0.0663993425583475,1
874,848,64,0.147341504164008,1
874,849,64,0.260717078370059,1
874,850,64,0.30437564021147,3
875,847,64,0.0726481330717685,1
875,848,64,0.156763193752202,1
875,849,64,0.26851527688062,1
875,850,64,0.305682902182997,3
876,847,64,0.0716580680118796,1
876,848,64,0.141449266184974,1
876,849,64,0.222606994307876,1
877,847,64,0.081251929663657,1
877,848,64,0.155356318098366,1
877,849,64,0.218079243181696,1
878,847,64,0.0853022931389746,1
878,848,64,0.164412242076041,1
878,849,64,0.222676092378866,1
879,847,64,0.0715763938757006,1
879,848,64,0.127626764790685,1
880,847,64,0.0551211965026298,1
880,848,64,0.0791662817071475,1
881,847,64,0.0494880276291935,1
882,846,64,0.0421332516613598,1
882,847,64,0.0471983457208116,1
883,846,64,0.0429625420546648,1
884,835,64,0.0422927827789354,1
884,836,64,0.0430401422161574,1
885,835,64,0.0476291002838579,1
885,836,64,0.0497685993191666,1
885,837,64,0.0418514039819694,1
886,835,64,0.0664597465997477,1
886,836,64,0.0722841246500653,1
886,837,64,0.0579225123202185,1
886,838,64,0.0438732903147559,1
887,836,64,0.135602347457195,1
887,837,64,0.101845333732653,1
887,838,64,0.0621042486381733,1
887,839,64,0.0451260199588967,1
888,836,64,0.211471240020357,1
889,835,64,0.178535368739747,1
889,836,64,0.209413090717138,1
889,837,64,0.163412050201836,1
890,836,64,0.14633060695486,1
857,849,65,0.0433756571453634,1
857,850,65,0.0419392282790052,1
858,849,65,0.0474098085263257,1
858,850,65,0.0463232224364443,1
859,849,65,0.0472511641132605,1
859,850,65,0.0462691388680477,1
860,849,65,0.0463165559324122,1
860,850,65,0.0460476627896485,1
861,849,65,0.0424305436787614,1
861,850,65,0.0443054208918137,1
861,851,65,0.0439545265054145,1
862,850,65,0.0419554214497887,1
862,851,65,0.0437389897252142,1
864,850,65,0.0417365595276746,1
864,851,65,0.0454264992464742,1
865,850,65,0.0445847760664525,1
865,851,65,0.0478031701113623,1
866,849,65,0.0429382658153265,1
866,850,65,0.0501379387814016,1
866,851,65,0.0532393608218652,1
867,848,65,0.0429103102929438,1
867,849,65,0.0482767784545856,1
867,850,65,0.0558830757262088,1
867,851,65,0.0593483331728614,1
868,847,65,0.0436551339715357,1
868,848,65,0.0516443956771382,1
868,849,65,0.0564994164619244,1
868,850,65,0.0643437290137588,1
868,851,65,0.067884988931765,1
869,847,65,0.0478047542846643,1
869,848,65,0.0557568284681803,1
869,849,65,0.0619511785687067,1
869,850,65,0.0724917973344711,1
870,847,65,0.0478056842430532,1
870,848,65,0.0559269838196756,1
870,849,65,0.0650888365459287,1
870,850,65,0.0782035963523831,1
871,847,65,0.0455596022442534,1
871,848,65,0.0555786278952741,1
871,849,65,0.0668213273975171,1
871,850,65,0.0785607868814793,1
872,847,65,0.0482722043569286,1
872,848,65,0.0685656211512158,1
872,849,65,0.0921412179444425,1
872,850,65,0.105993445566767,1
873,847,65,0.0567908556888842,1
873,848,65,0.101433059389219,1
873,849,65,0.158109459908715,1
873,850,65,0.177905300304326,1
874,847,65,0.0679628567266312,1
874,848,65,0.138038514032034,1
874,849,65,0.225722203522129,1
874,850,65,0.249308521870502,1
875,847,65,0.075508160622759,1
875,848,65,0.147086241399723,1
875,849,65,0.232226635271271,1
875,850,65,0.247710096415491,1
876,846,65,0.0434959326647841,1
876,847,65,0.079987959417827,1
876,848,65,0.136312868106727,1
876,849,65,0.192069042359994,1
877,846,65,0.0458881803326863,1
877,847,65,0.0850073395343824,1
877,848,65,0.138244932353962,1
878,846,65,0.0436205822326735,1
878,847,65,0.0846489324899519,1
878,848,65,0.142951949179807,1
878,849,65,0.182314730445722,1
879,847,65,0.0688021766130258,1
879,848,65,0.109755246198049,1
880,847,65,0.0550245619312061,1
880,848,65,0.0746429046294367,1
881,847,65,0.0498399357783713,1
882,847,65,0.0475653602870743,1
883,846,65,0.0418984317614268,1
883,847,65,0.0457500004109118,1
884,846,65,0.0415095739864946,1
885,835,65,0.0437871637324533,1
885,836,65,0.0475429493712486,1
886,834,65,0.0455515948699862,1
886,835,65,0.0668426731865833,1
886,836,65,0.0777613092239675,1
886,837,65,0.0613988697934549,1
886,838,65,0.0446791425126195,1
887,835,65,0.13696919164643,1
887,836,65,0.166073601924348,1
887,837,65,0.121892890074507,1
887,838,65,0.0692483998443899,1
887,839,65,0.0462687225494667,1
887,840,65,0.0420168771011112,1
888,835,65,0.228130860630207,1
888,836,65,0.275718366903101,1
888,837,65,0.203177654838721,1
888,838,65,0.107031506211646,1
888,839,65,0.0577290269079783,1
888,840,65,0.0440829770078818,1
889,835,65,0.228238281637595,1
889,836,65,0.270374890881278,1
889,837,65,0.206111522167137,1
890,836,65,0.177518113210453,1
858,849,66,0.0420195669516838,1
858,850,66,0.0428499386919525,1
859,849,66,0.0419243732750894,1
859,850,66,0.0429188069767122,1
860,850,66,0.0429159495173602,1
861,850,66,0.0430131599060422,1
862,850,66,0.0417040163907978,1
862,851,66,0.0415868578540003,1
863,851,66,0.0413917504213144,1
864,851,66,0.042562619396925,1
865,850,66,0.0413798474946099,1
865,851,66,0.0442144931289916,1
866,850,66,0.0445948758470948,1
866,851,66,0.0476444229703355,1
867,850,66,0.0484566551152859,1
867,851,66,0.0525067428471277,1
868,849,66,0.0444613213869581,1
868,850,66,0.0553479171138036,1
868,851,66,0.0608482479194668,1
869,849,66,0.0473125413669281,1
869,850,66,0.0623485952048577,1
869,851,66,0.0694917245381935,1
870,849,66,0.0507447366301613,1
870,850,66,0.0679218466430276,1
871,848,66,0.0448159274968107,1
871,849,66,0.0560116154398007,1
871,850,66,0.070114110003437,1
872,847,66,0.0445897989230995,1
872,848,66,0.0616469524138995,1
872,849,66,0.0778803330842775,1
872,850,66,0.0890331077730074,1
873,847,66,0.0555028254731088,1
873,848,66,0.0883753622620464,1
873,849,66,0.121667613061529,1
873,850,66,0.132367919740179,1
874,847,66,0.0678041095856045,1
874,848,66,0.120741504267817,1
874,849,66,0.175736258869965,1
874,850,66,0.186013564243299,1
875,846,66,0.0429134570126086,1
875,847,66,0.0859165955356634,1
875,848,66,0.145955498506573,1
875,849,66,0.195462049609257,1
875,850,66,0.192722673345758,1
876,846,66,0.054137468135949,1
876,847,66,0.108677446052249,1
876,848,66,0.162453263102876,1
876,849,66,0.182818573250054,1
876,850,66,0.158051272628591,1
877,846,66,0.055759948154171,1
877,847,66,0.108474963833269,1
877,848,66,0.153834376314107,1
877,849,66,0.160922735423724,1
878,846,66,0.0486278377463968,1
878,847,66,0.0913895736698762,1
878,848,66,0.133539829512242,1
879,847,66,0.0685351271668355,1
879,848,66,0.0972224348871251,1
880,847,66,0.0562536154835736,1
880,848,66,0.0722169405632018,1
881,847,66,0.0500401201350524,1
881,848,66,0.0575719828884196,1
882,847,66,0.0471505393715402,1
885,835,66,0.0420529913863361,1
885,836,66,0.0448102720521898,1
886,834,66,0.0452891303349226,1
886,835,66,0.0664128864290696,1
886,836,66,0.0799489552328412,1
886,837,66,0.0664257328310001,1
886,838,66,0.0468541583889557,1
887,834,66,0.0758785922454274,1
887,835,66,0.142307001410163,1
887,836,66,0.175814267239936,1
887,837,66,0.134998501685647,1
887,838,66,0.0781782117324069,1
887,839,66,0.0476267159138026,1
887,840,66,0.042582775704331,1
888,836,66,0.290740028012942,1
888,837,66,0.216441067412294,1
888,838,66,0.11620829233947,1
888,839,66,0.0600446557367576,1
888,840,66,0.0454537708169023,1
889,836,66,0.291817071215867,1
889,837,66,0.218788087743434,1
858,850,67,0.0410102079585925,1
859,849,67,0.0424846299505253,1
859,850,67,0.0424720971392144,1
860,850,67,0.0416124154894907,1
861,850,67,0.0419337458498985,1
862,850,67,0.0410843883603121,1
862,851,67,0.0415750495451552,1
863,851,67,0.0417960984915037,1
864,851,67,0.0429776917256282,1
865,850,67,0.0415197954186703,1
865,851,67,0.044587346968859,1
866,850,67,0.0435475291351638,1
866,851,67,0.0464965299143392,1
867,850,67,0.0466489241419533,1
867,851,67,0.0502232138029701,1
868,849,67,0.0426844844963825,1
868,850,67,0.0529937058253545,1
868,851,67,0.0578364479153663,1
869,849,67,0.0440635803467179,1
869,850,67,0.0583220267694794,1
869,851,67,0.0646975511470626,1
870,849,67,0.0462183047472775,1
870,850,67,0.0624190719932261,1
871,849,67,0.0502016193041022,1
871,850,67,0.0642513062887593,1
872,848,67,0.0539453181872092,1
872,849,67,0.0659630893459901,1
872,850,67,0.0765376840333584,1
873,847,67,0.0503497313977396,1
873,848,67,0.0726919816911522,1
873,849,67,0.091171714697071,1
873,850,67,0.0980476756360504,1
874,847,67,0.0646045066475588,1
874,848,67,0.101114710843064,1
874,849,67,0.128847172974077,1
874,850,67,0.130001467604099,1
875,846,67,0.0482958750419671,1
875,847,67,0.100948464560843,1
875,848,67,0.154529368821238,1
875,849,67,0.170013651789149,1
875,850,67,0.146870945219222,1
876,846,67,0.0674788133852069,1
876,847,67,0.148575591386492,1
876,848,67,0.212641689974019,1
876,849,67,0.198650703909294,1
876,850,67,0.140574218594894,1
877,846,67,0.0683835006955656,1
877,847,67,0.14410053429786,1
877,848,67,0.199339630059958,1
877,849,67,0.177546952733978,1
877,850,67,0.11709770021723,1
878,846,67,0.0535126063861583,1
878,847,67,0.10021347302952,1
878,848,67,0.137055688590068,1
878,849,67,0.130305217966242,1
879,847,67,0.0655642939924602,1
879,848,67,0.0860636965698896,1
880,847,67,0.0538256238917816,1
880,848,67,0.0664291336672014,1
881,847,67,0.0489054303254846,1
881,848,67,0.05632161058066,1
882,847,67,0.0462258849894941,1
882,848,67,0.050861527508991,1
883,847,67,0.0451333379744745,1
885,836,67,0.0412822370075513,1
886,834,67,0.045083887977818,1
886,835,67,0.0635178232364507,1
886,836,67,0.0760914445817899,1
886,837,67,0.0689617996450933,1
886,838,67,0.0471058797419335,1
887,834,67,0.0733319660782323,1
887,835,67,0.131462551181233,1
887,836,67,0.162611799381245,1
887,837,67,0.13598501452076,1
887,838,67,0.0817613954722013,1
887,839,67,0.0469292092749811,1
888,835,67,0.213521322475226,1
888,836,67,0.252608490026996,1
888,837,67,0.195498945167664,1
888,838,67,0.109949942718889,1
888,839,67,0.0581173386026938,1
888,840,67,0.0441747563314379,1
889,836,67,0.258777098663049,1
889,837,67,0.195329865756397,1
859,849,68,0.0423193595839392,1
859,850,68,0.0414971411997778,1
867,851,68,0.0431806659574761,1
868,850,68,0.0449846068097003,1
868,851,68,0.0482525725028,1
869,850,68,0.047117287952402,1
869,851,68,0.051300813899582,1
870,850,68,0.050189513624842,1
871,849,68,0.0468842468682246,1
871,850,68,0.0574239735227438,1
872,848,68,0.0489600221269541,1
872,849,68,0.062461212084407,1
872,850,68,0.0704478947775008,1
873,847,68,0.0436688157139957,1
873,848,68,0.0614209022378432,1
873,849,68,0.0750153583709274,1
873,850,68,0.0785773423034957,1
874,847,68,0.0619602456629985,1
874,848,68,0.0866924619822197,1
874,849,68,0.0950668345955248,1
874,850,68,0.0879684892466965,1
875,846,68,0.0544766650515668,1
875,847,68,0.117765507661689,1
875,848,68,0.165144562680363,1
875,849,68,0.152256950617133,1
875,850,68,0.108672904395001,1
876,846,68,0.0787333752636432,1
876,847,68,0.181372942121034,1
876,848,68,0.253035686958532,1
876,849,68,0.213050157976141,1
876,850,68,0.12583884409373,1
877,846,68,0.0768973400335321,1
877,847,68,0.169416867213275,1
877,848,68,0.23336161704452,1
877,849,68,0.193284670989805,1
877,850,68,0.11087190995373,1
878,846,68,0.0549003313852651,1
878,847,68,0.101339576944195,1
878,848,68,0.134223413808905,1
878,849,68,0.115847208961304,1
879,847,68,0.0600141184984987,1
879,848,68,0.0728591957789059,1
879,849,68,0.0687650701919616,1
880,847,68,0.0489728414952105,1
880,848,68,0.0574546567428428,1
881,847,68,0.0454499158149762,1
881,848,68,0.0523226435265337,1
882,847,68,0.0431220893924448,1
882,848,68,0.0483920878880749,1
883,847,68,0.0424472153455764,1
886,834,68,0.0421347682504766,1
886,835,68,0.0567935860899679,1
886,836,68,0.0654509958643237,1
886,837,68,0.0615074154016854,1
886,838,68,0.0410549676127934,1
887,834,68,0.0628886955728877,1
887,835,68,0.105685802355554,1
887,836,68,0.129074904644662,1
887,837,68,0.115194702576383,1
887,838,68,0.0720546249771944,1
887,839,68,0.0415953248007272,1
888,834,68,0.0862002382510138,1
888,835,68,0.155354339233422,1
888,836,68,0.180582845148433,1
888,837,68,0.146860456153673,1
888,838,68,0.0882789547734851,1
888,839,68,0.0513875865866954,1
889,835,68,0.164628695297793,1
889,836,68,0.183597791872198,1
868,850,69,0.0410394962411082,1
868,851,69,0.0432455602921436,1
869,850,69,0.0421921391136433,1
869,851,69,0.0447574049991276,1
870,850,69,0.0460483710719098,1
871,849,69,0.0490557105197845,1
871,850,69,0.0558359776591987,1
872,848,69,0.0474029906337186,1
872,849,69,0.0633664833221263,1
872,850,69,0.0682340855788368,1
873,847,69,0.0434926588868511,1
873,848,69,0.0588827538308446,1
873,849,69,0.0721271076641807,1
873,850,69,0.0724994478642403,1
874,847,69,0.0653807515655525,1
874,848,69,0.0845234367680633,1
874,849,69,0.0861623640736053,1
874,850,69,0.0747371007634569,1
875,846,69,0.0597940481711525,1
875,847,69,0.120374419414002,1
875,848,69,0.159477915304926,1
875,849,69,0.139688617058447,1
875,850,69,0.094135978688641,1
876,846,69,0.0804851627518014,1
876,847,69,0.173899039564928,1
876,848,69,0.236362679273269,1
876,849,69,0.197551730989942,1
876,850,69,0.116480078085362,1
877,846,69,0.0776422745501878,1
877,847,69,0.160243033162662,1
877,848,69,0.216112727220193,1
877,849,69,0.180833112089745,1
877,850,69,0.106613846760332,1
878,846,69,0.0565822476393547,1
878,847,69,0.0960180522657376,1
878,848,69,0.122547407764781,1
878,849,69,0.106511356695099,1
879,846,69,0.0435582020296969,1
879,847,69,0.0599577857284174,1
879,848,69,0.0689414973558471,1
879,849,69,0.0646927445598083,1
880,847,69,0.0474300675616932,1
880,848,69,0.0537733299526102,1
881,847,69,0.0437561777352044,1
881,848,69,0.0498185845825702,1
886,835,69,0.0489205043021605,1
886,836,69,0.0540799242572682,1
886,837,69,0.0504015116971031,1
887,834,69,0.0514376745780606,1
887,835,69,0.076298630660062,1
887,836,69,0.0899525068088093,1
887,837,69,0.0823297135892527,1
887,838,69,0.0557960110754151,1
888,834,69,0.0607841456714503,1
888,835,69,0.095528364293162,1
888,836,69,0.108710729911796,1
888,837,69,0.0933128141258863,1
888,838,69,0.0627557764040923,1
888,839,69,0.0422631430586565,1
871,849,70,0.0459309476051063,1
872,848,70,0.0446127991730204,1
872,849,70,0.0588950163054146,1
873,847,70,0.0410608339200722,1
873,848,70,0.0553909060623512,1
873,849,70,0.0663617279042103,1
874,847,70,0.0620535010251602,1
874,848,70,0.0784037753023295,1
874,849,70,0.0783350557027773,1
875,846,70,0.0555986436275748,1
875,847,70,0.101932068572623,1
875,848,70,0.130354905859231,1
875,849,70,0.115104096514282,1
876,846,70,0.0700937482401078,1
876,847,70,0.136433038194818,1
876,848,70,0.179464667507003,1
876,849,70,0.154188831035385,1
877,846,70,0.0672568669208784,1
877,847,70,0.12468450620983,1
877,848,70,0.162557267053858,1
877,849,70,0.14124454557778,1
878,846,70,0.0531371410933733,1
878,847,70,0.0826646716247723,1
878,848,70,0.101190296995836,1
879,846,70,0.0434290864988468,1
879,847,70,0.0567429357981816,1
879,848,70,0.0631960900742989,1
880,847,70,0.045909185497459,1
881,847,70,0.0419175986363609,1
886,836,70,0.0428890510116347,1
887,834,70,0.0413541060301357,1
887,835,70,0.0542017271792753,1
887,836,70,0.0606610180994125,1
887,837,70,0.0558688235732254,1
887,838,70,0.0423280617236307,1
