x,y,z,signal,mito.p
20,22,12,0.257290092884624,1
21,21,12,0.304972838775251,2
21,22,12,0.300540449865028,2
22,21,12,0.270600520367951,2
22,22,12,0.278755859698128,2
19,22,13,0.202138316386578,1
20,21,13,0.276378251498865,2
20,22,13,0.274571256077335,2
20,23,13,0.217896895504704,1
21,20,13,0.277156561109505,2
21,21,13,0.33689679356414,2
21,22,13,0.355303189326427,2
21,23,13,0.268880697318681,2
22,20,13,0.261561868877678,2
22,21,13,0.319862308635327,2
22,22,13,0.327578347258929,2
22,23,13,0.25741930867339,2
23,21,13,0.268214809683939,2
23,22,13,0.239154282426992,2
20,21,14,0.274655790431305,2
20,22,14,0.274983399327758,2
20,23,14,0.23189532757969,2
21,20,14,0.269802590496275,2
21,21,14,0.337133178845957,2
21,22,14,0.388918655575433,2
21,23,14,0.316438985274959,2
21,24,14,0.208742807160486,2
22,20,14,0.265478878518127,2
22,21,14,0.347189210354448,2
22,22,14,0.366635032430666,2
22,23,14,0.283052225790247,2
23,20,14,0.277678794516088,2
23,21,14,0.324707877160301,2
23,22,14,0.263834191882667,2
24,21,14,0.220875053278548,2
20,21,15,0.263915475821243,2
20,22,15,0.256897357911624,2
21,20,15,0.252201284941023,2
21,21,15,0.310309879529242,2
21,22,15,0.3665818952051,2
21,23,15,0.312427972679175,2
22,20,15,0.261422124569485,2
22,21,15,0.348055964239024,2
22,22,15,0.357699028116376,2
22,23,15,0.273485075599951,2
23,20,15,0.318298317095075,2
23,21,15,0.369509671540343,2
23,22,15,0.273252246932079,2
24,21,15,0.242394993681946,2
20,21,16,0.249724138658764,2
20,22,16,0.233748346998896,2
21,20,16,0.245850774088781,2
21,21,16,0.286204634093673,2
21,22,16,0.318553144951191,2
21,23,16,0.276457839568541,2
22,20,16,0.274532039108998,2
22,21,16,0.343971299114719,2
22,22,16,0.323481292870153,2
22,23,16,0.24346595844669,2
23,19,16,0.188442773563439,2
23,20,16,0.336191217886367,2
23,21,16,0.376971541812402,2
23,22,16,0.262205050712133,2
24,20,16,0.237527473076197,2
24,21,16,0.234292650254927,2
21,20,17,0.246329597962244,2
21,21,17,0.269893201713807,2
21,22,17,0.260306855229702,2
22,19,17,0.203914315093196,2
22,20,17,0.30074020908933,2
22,21,17,0.342350967040976,2
22,22,17,0.278367811918341,2
23,20,17,0.320996114764348,2
23,21,17,0.345369189717608,2
23,22,17,0.239442132619209,2
24,21,17,0.202887725564696,2
21,20,18,0.262105371306727,2
21,21,18,0.263521845806323,2
22,19,18,0.221963754005548,2
22,20,18,0.335736206838723,2
22,21,18,0.33519263374847,2
22,22,18,0.242048824442521,2
23,20,18,0.284786840584932,2
23,21,18,0.28638472594947,2
20,20,19,0.217732066469016,1
21,19,19,0.204931742218882,1
21,20,19,0.292960222075917,2
21,21,19,0.266324646025053,2
22,19,19,0.240967920001718,2
22,20,19,0.370125955009729,2
22,21,19,0.318328795627824,2
22,22,19,0.216402764341681,2
23,20,19,0.253933167502479,2
23,21,19,0.23254882594996,2
20,20,20,0.243175588004855,2
20,21,20,0.224886513395292,1
21,19,20,0.232663980159088,2
21,20,20,0.344296835282515,2
21,21,20,0.285341413269307,2
21,22,20,0.208337635815545,1
22,19,20,0.264756202828935,2
22,20,20,0.391577518921186,2
22,21,20,0.301724284126629,2
22,22,20,0.20756476711763,2
23,20,20,0.244328613981422,2
23,21,20,0.210407891330228,2
15,19,21,0.294323841994764,2
15,20,21,0.268865198961224,2
19,19,21,0.261988450567494,1
19,20,21,0.249565221610495,2
19,21,21,0.226809817158952,1
20,19,21,0.244796084954741,2
20,20,21,0.295116707813471,2
20,21,21,0.275552057145506,2
20,22,21,0.225079347821581,1
21,18,21,0.14871684434976,1
21,19,21,0.268001978136858,2
21,20,21,0.376778801601051,2
21,21,21,0.312889060590381,2
21,22,21,0.220202853242897,2
22,18,21,0.147362657701676,1
22,19,21,0.271275829496587,2
22,20,21,0.369286853209733,2
22,21,21,0.286694104255237,2
22,22,21,0.205931056522557,1
23,19,21,0.190675962038163,1
23,20,21,0.241866023907229,2
23,21,21,0.218058474124998,1
14,19,22,0.226972243713697,2
14,20,22,0.234974224677003,2
15,18,22,0.216228843564385,2
15,19,22,0.351645388536755,2
15,20,22,0.320795272068248,2
15,21,22,0.236977422708891,2
16,19,22,0.305710400424796,2
16,20,22,0.300616834626779,2
18,19,22,0.251959623622625,1
18,20,22,0.23331008265665,1
19,18,22,0.193184776316776,1
19,19,22,0.282847331851772,1
19,20,22,0.271638439242859,2
19,21,22,0.262982323958444,2
20,18,22,0.171292675127671,1
20,19,22,0.278119602661685,2
20,20,22,0.326163450859561,2
20,21,22,0.332198812741025,2
20,22,22,0.258249130301899,2
21,18,22,0.151312489471481,1
21,19,22,0.273225042368458,2
21,20,22,0.356210149436199,2
21,21,22,0.33607198888113,2
21,22,22,0.248401384469685,2
22,19,22,0.245215011680768,2
22,20,22,0.311910261589662,2
22,21,22,0.279476038691437,2
22,22,22,0.213693001375161,1
23,20,22,0.239207537421232,2
23,21,22,0.250717187668998,1
14,5,23,0.137542069325613,1
14,19,23,0.221858115505254,2
14,20,23,0.243154766503348,2
15,5,23,0.128618230515314,1
15,18,23,0.218126167558631,2
15,19,23,0.354124466225263,2
15,20,23,0.353354235545638,2
15,21,23,0.255050462463449,2
16,18,23,0.223351186750214,2
16,19,23,0.317343425135114,2
16,20,23,0.334481475835564,2
16,21,23,0.247069774076345,2
17,19,23,0.243828827284043,2
17,20,23,0.268496418136451,2
18,19,23,0.25318250997642,1
18,20,23,0.259326101269,2
18,21,23,0.220934926872249,1
19,18,23,0.189145970314003,1
19,19,23,0.281230839036792,2
19,20,23,0.295267828575542,2
19,21,23,0.287067289628405,2
19,22,23,0.240075162793993,1
20,18,23,0.181214838984785,1
20,19,23,0.289024981844781,2
20,20,23,0.330873750285942,2
20,21,23,0.35735688656559,2
20,22,23,0.290930714522328,2
20,23,23,0.194655341968195,1
21,18,23,0.159799795139037,1
21,19,23,0.266862424896561,2
21,20,23,0.323178203411561,2
21,21,23,0.348931998295086,2
21,22,23,0.294339787873181,2
21,23,23,0.215696222960784,2
22,19,23,0.226422311115064,1
22,20,23,0.28112586004107,2
22,21,23,0.297909003066508,2
22,22,23,0.251047717228558,2
22,23,23,0.220620296083636,1
23,20,23,0.248421452251681,1
23,21,23,0.294957908533876,2
23,22,23,0.231031729895568,1
24,21,23,0.259134091223426,1
11,1,24,0.121389424448475,1
12,1,24,0.115718438843387,1
14,5,24,0.123947960661118,1
14,10,24,0.115088317554843,1
14,20,24,0.242166239810183,2
15,5,24,0.124455555421561,1
15,19,24,0.310820830696885,2
15,20,24,0.352573853206342,2
15,21,24,0.29282573025057,2
16,18,24,0.236121856848314,2
16,19,24,0.3002356409838,2
16,20,24,0.336577334259906,2
16,21,24,0.27224709130219,2
17,15,24,0.166266755655817,1
17,18,24,0.217845030180814,1
17,19,24,0.250790133585478,2
17,20,24,0.288374215707741,2
17,21,24,0.23271381986179,1
18,18,24,0.201747866125848,1
18,19,24,0.260403354880918,2
18,20,24,0.31517704682897,2
18,21,24,0.254115991591505,2
18,22,24,0.189295171446693,1
19,18,24,0.197204150488391,1
19,19,24,0.282002106080745,2
19,20,24,0.344547494127583,2
19,21,24,0.317468613235239,2
19,22,24,0.25245517064775,2
20,18,24,0.192383018963206,1
20,19,24,0.281850113830489,2
20,20,24,0.327737334968402,2
20,21,24,0.35889430949306,2
20,22,24,0.336577192937497,2
20,23,24,0.247882613462109,2
21,18,24,0.175891730264891,1
21,19,24,0.267121845730952,2
21,20,24,0.303708332972176,2
21,21,24,0.347817176476263,2
21,22,24,0.355740040444589,2
21,23,24,0.275363391730265,2
21,24,24,0.192137730369658,1
22,19,24,0.227070297911406,1
22,20,24,0.273367989984575,2
22,21,24,0.31393404558571,2
22,22,24,0.309466985577954,2
22,23,24,0.255284845677814,2
22,24,24,0.238277683081296,1
23,20,24,0.246294408682547,1
23,21,24,0.303791995837961,2
23,22,24,0.264051145333327,2
23,23,24,0.215132605642269,1
23,24,24,0.241019549788261,1
23,25,24,0.215221756528247,1
24,21,24,0.281042786018654,1
12,1,25,0.114283356893349,1
14,20,25,0.23331326241084,2
14,21,25,0.246610594017653,2
15,19,25,0.255411847415515,2
15,20,25,0.321065975141577,2
15,21,25,0.32055982893582,2
15,22,25,0.275362378919671,2
16,16,25,0.152477728059508,1
16,19,25,0.258750118239748,2
16,20,25,0.303527628719276,2
16,21,25,0.284282296033137,2
16,22,25,0.24202202029239,1
17,15,25,0.141669413817261,1
17,16,25,0.228025166317632,1
17,18,25,0.226760707622026,1
17,19,25,0.244799358923869,2
17,20,25,0.291138670446319,2
17,21,25,0.24667527257324,2
17,22,25,0.191559309528861,1
18,11,25,0.124156211006792,1
18,12,25,0.113842007011853,1
18,15,25,0.150792069702473,1
18,17,25,0.225250607026852,1
18,18,25,0.223070850199378,1
18,19,25,0.267941845452075,2
18,20,25,0.352266100108272,2
18,21,25,0.279482445307286,2
18,22,25,0.190275772308119,1
19,10,25,0.126569891750804,1
19,11,25,0.158530743465158,1
19,12,25,0.137551726356855,1
19,18,25,0.219116484335636,1
19,19,25,0.275122531238847,2
19,20,25,0.36081631780131,2
19,21,25,0.31124939090042,2
19,22,25,0.253166281453186,2
19,23,25,0.208912723802877,2
20,11,25,0.145324176175152,1
20,12,25,0.13967889947153,1
20,18,25,0.199689858553228,1
20,19,25,0.257392528076994,2
20,20,25,0.307536757016281,2
20,21,25,0.32855024501537,2
20,22,25,0.367238196469804,2
20,23,25,0.314937175594411,2
20,24,25,0.192573003387592,2
21,11,25,0.12957175635866,1
21,18,25,0.183238481658424,1
21,19,25,0.268533774359744,2
21,20,25,0.300542357717541,2
21,21,25,0.339873702990043,2
21,22,25,0.407721837553095,2
21,23,25,0.345183845378965,2
21,24,25,0.211140977770174,2
22,19,25,0.235680342090675,1
22,20,25,0.273518569010747,2
22,21,25,0.323289329932048,2
22,22,25,0.371437144315052,2
22,23,25,0.30574945251699,2
22,24,25,0.233761254445532,2
22,25,25,0.204450939831702,1
23,20,25,0.222546544064139,1
23,21,25,0.27869883610633,2
23,22,25,0.291268569293392,2
23,23,25,0.237620157022386,2
23,24,25,0.235725588815104,1
23,25,25,0.250074877322728,1
23,26,25,0.158726062810462,1
24,21,25,0.257423242147091,1
24,22,25,0.215657053099916,1
24,24,25,0.156428925945927,1
24,25,25,0.161382829873824,1
14,21,26,0.244388581790061,2
15,20,26,0.283813977125367,2
15,21,26,0.321866448816604,2
15,22,26,0.266716344633724,2
16,16,26,0.140778599792652,1
16,17,26,0.191684697835732,1
16,18,26,0.224444339133079,1
16,19,26,0.229843467531836,1
16,20,26,0.263667266564588,2
16,21,26,0.281902544444013,2
16,22,26,0.244628971206784,1
17,15,26,0.118943993270038,1
17,16,26,0.183934447412424,1
17,17,26,0.226263064314509,1
17,18,26,0.252309396583465,1
17,19,26,0.250497713968721,2
17,20,26,0.283160455201362,2
17,21,26,0.26943852041845,2
17,22,26,0.20486529713319,1
18,11,26,0.113802495621832,1
18,15,26,0.132510249643208,1
18,16,26,0.201643169774943,1
18,17,26,0.240583570158285,1
18,18,26,0.272032069257778,2
18,19,26,0.291940887097716,2
18,20,26,0.361189550281948,2
18,21,26,0.316235481006834,2
18,22,26,0.203433371383607,2
19,11,26,0.145159464908139,1
19,12,26,0.131076663355326,1
19,15,26,0.120665571072547,1
19,16,26,0.182539866109266,1
19,17,26,0.229026624011167,1
19,18,26,0.254534800548859,1
19,19,26,0.275983961979373,2
19,20,26,0.337581406417997,2
19,21,26,0.297378243207951,2
19,22,26,0.243110014407348,2
19,23,26,0.22447736146918,2
20,11,26,0.135557101884412,1
20,12,26,0.132873142034297,1
20,18,26,0.212005234958868,1
20,19,26,0.245068012822276,2
20,20,26,0.288769777128909,2
20,21,26,0.302844075783482,2
20,22,26,0.35961623146274,2
20,23,26,0.355206124385577,2
20,24,26,0.226574609563872,2
21,11,26,0.117931912842137,1
21,12,26,0.136043050762632,1
21,13,26,0.119780374613672,1
21,18,26,0.190363827945432,1
21,19,26,0.274986060899783,2
21,20,26,0.318610239204193,2
21,21,26,0.351800796078548,2
21,22,26,0.418386733104529,2
21,23,26,0.379005124162099,2
21,24,26,0.222507327095802,2
22,11,26,0.116675120887188,1
22,12,26,0.136245683542572,1
22,19,26,0.246025330816915,1
22,20,26,0.286640519508711,2
22,21,26,0.343579011662679,2
22,22,26,0.402469590244156,2
22,23,26,0.34225585706011,2
22,24,26,0.227199136840415,2
22,25,26,0.190467982560438,1
23,20,26,0.205164476671816,1
23,21,26,0.258087834326422,2
23,22,26,0.304038061704755,2
23,23,26,0.267316870654571,2
23,24,26,0.218560945948136,1
23,25,26,0.238383250920386,1
23,26,26,0.17178033165166,1
24,22,26,0.200165220027684,2
24,23,26,0.166962697856083,1
24,24,26,0.143266474801084,1
24,25,26,0.157574556049786,1
14,17,27,0.135607436215544,1
15,17,27,0.141743089899518,1
15,20,27,0.253737435966817,1
15,21,27,0.292854607129358,2
16,16,27,0.133337633460172,1
16,17,27,0.184944372673598,1
16,18,27,0.212696395750982,1
16,19,27,0.216479313979575,1
16,20,27,0.241415393854246,2
16,21,27,0.27343285697004,2
16,22,27,0.245479567229331,1
17,16,27,0.155219194352983,1
17,17,27,0.228640672513771,1
17,18,27,0.279402197733038,2
17,19,27,0.269209954976565,2
17,20,27,0.282321376955101,2
17,21,27,0.297661170669608,2
17,22,27,0.233356648390225,2
17,23,27,0.19259897138014,1
18,16,27,0.17146581863172,1
18,17,27,0.246100161032174,2
18,18,27,0.320125945588235,2
18,19,27,0.324133495785012,2
18,20,27,0.357914968756442,2
18,21,27,0.361687405573077,2
18,22,27,0.241363834728908,2
18,23,27,0.170364351780493,1
19,11,27,0.117952816781716,1
19,15,27,0.114832158912714,1
19,16,27,0.185542001585072,1
19,17,27,0.240494442826041,1
19,18,27,0.283424563228965,2
19,19,27,0.288678577068008,2
19,20,27,0.312167539034191,2
19,21,27,0.306644541544454,2
19,22,27,0.246453561268163,2
19,23,27,0.226312951124681,2
20,16,27,0.166182056425704,1
20,18,27,0.230219173154621,1
20,19,27,0.252265421760711,2
20,20,27,0.287264881909111,2
20,21,27,0.302215026189869,2
20,22,27,0.326730554130816,2
20,23,27,0.341070868665506,2
20,24,27,0.240973455129382,2
21,18,27,0.203834656362316,1
21,19,27,0.278519168217759,2
21,20,27,0.345545889835602,2
21,21,27,0.386499380819421,2
21,22,27,0.399019344964984,2
21,23,27,0.366517899707821,2
21,24,27,0.233749501131898,2
22,12,27,0.117613701885844,1
22,13,27,0.117601112414627,1
22,19,27,0.243192570247601,2
22,20,27,0.303601163479124,2
22,21,27,0.376031323829182,2
22,22,27,0.404662395840674,2
22,23,27,0.350928883926065,2
22,24,27,0.226513204977413,2
23,20,27,0.197538354430571,2
23,21,27,0.252415270621106,2
23,22,27,0.308978740210597,2
23,23,27,0.292058726432604,2
23,24,27,0.204251981434381,1
23,25,27,0.190540822485111,1
24,22,27,0.190840355329758,2
24,23,27,0.171306088979603,1
13,17,28,0.137140478148352,1
14,17,28,0.143062252144049,1
15,17,28,0.134321496513859,1
15,21,28,0.244709642748257,1
16,16,28,0.121610228934764,1
16,17,28,0.17246309553734,1
16,18,28,0.201377153894827,1
16,19,28,0.21691543493196,2
16,20,28,0.235806990522354,2
16,21,28,0.26429959012733,2
16,22,28,0.24216254187383,1
17,16,28,0.134920515095683,1
17,17,28,0.223809777965538,1
17,18,28,0.297288126618848,2
17,19,28,0.303225575625013,2
17,20,28,0.285631100652834,2
17,21,28,0.304414992121747,2
17,22,28,0.257469101268623,2
17,23,28,0.195158579287712,1
18,16,28,0.150761061210692,1
18,17,28,0.246316619854404,2
18,18,28,0.351493066534213,2
18,19,28,0.361214022612339,2
18,20,28,0.338139488608849,2
18,21,28,0.361337773934646,2
18,22,28,0.272631865112849,2
18,23,28,0.188896583370611,1
19,16,28,0.177649698587567,1
19,17,28,0.239262252747025,2
19,18,28,0.299907937872408,2
19,19,28,0.307906150238157,2
19,20,28,0.29033032982389,2
19,21,28,0.307073502161479,2
19,22,28,0.255568479751514,2
19,23,28,0.227287816651699,2
20,16,28,0.174861984535937,1
20,17,28,0.222487989479583,1
20,18,28,0.252143931596939,2
20,19,28,0.268200536120689,2
20,20,28,0.281565678929809,2
20,21,28,0.300036447049132,2
20,22,28,0.288293897472289,2
20,23,28,0.306230584656457,2
20,24,28,0.262526276546472,2
21,16,28,0.129417938693962,1
21,18,28,0.227066270222766,1
21,19,28,0.276895020438989,2
21,20,28,0.349008948346471,2
21,21,28,0.405900191708558,2
21,22,28,0.366115578364783,2
21,23,28,0.336279002655731,2
21,24,28,0.262501969092224,2
22,19,28,0.231589600102807,2
22,20,28,0.306196455294823,2
22,21,28,0.396628640889208,2
22,22,28,0.386508401899825,2
22,23,28,0.333175350583209,2
22,24,28,0.226984868515515,2
23,20,28,0.191431612955986,2
23,21,28,0.249699430791025,2
23,22,28,0.297122661632323,2
23,23,28,0.284295933645549,2
23,24,28,0.182626944266588,1
24,22,28,0.182662663505316,1
24,23,28,0.165588608302145,1
12,17,29,0.114347552597374,1
13,17,29,0.14317224808527,1
14,17,29,0.143389531288216,1
15,17,29,0.135174659893492,1
15,18,29,0.174126024540354,1
16,16,29,0.114384873490064,1
16,17,29,0.173846206171681,1
16,18,29,0.209170919843061,2
16,19,29,0.236209311865392,2
16,20,29,0.248164457451968,2
16,21,29,0.255937095700143,2
16,22,29,0.226106549747184,1
17,16,29,0.131639703607339,1
17,17,29,0.232655477260848,2
17,18,29,0.316213222727507,2
17,19,29,0.342323950907233,2
17,20,29,0.30158157204786,2
17,21,29,0.298421932747869,2
17,22,29,0.272884902885125,2
17,23,29,0.190923370467837,1
18,16,29,0.147614058489388,1
18,17,29,0.257770447750844,2
18,18,29,0.364898910196958,2
18,19,29,0.382374344593777,2
18,20,29,0.31782679487938,2
18,21,29,0.327042334917526,2
18,22,29,0.301785076315985,2
18,23,29,0.212366619910933,1
19,16,29,0.166552756879857,1
19,17,29,0.240246610429141,2
19,18,29,0.307873551869281,2
19,19,29,0.32338759611337,2
19,20,29,0.283185587036326,2
19,21,29,0.296787256449672,2
19,22,29,0.276090848827608,2
19,23,29,0.227694754526745,1
20,16,29,0.17210504343874,1
20,17,29,0.226314552778644,1
20,18,29,0.272204647472194,2
20,19,29,0.292150279799526,2
20,20,29,0.283532604210202,2
20,21,29,0.289332028330809,2
20,22,29,0.258372834516736,2
20,23,29,0.257650111720075,2
21,16,29,0.153559362666087,1
21,17,29,0.203551917330537,1
21,18,29,0.246031831647702,1
21,19,29,0.272367568655368,2
21,20,29,0.330912661055727,2
21,21,29,0.382546098427477,2
21,22,29,0.320864779139456,2
21,23,29,0.287810339298144,2
21,24,29,0.28714334463787,2
22,15,29,0.122744046840653,1
22,16,29,0.143895453733493,1
22,19,29,0.218382031779076,2
22,20,29,0.296123465097322,2
22,21,29,0.382842922592629,2
22,22,29,0.352005784231962,2
22,23,29,0.290976243891574,2
22,24,29,0.224027273152096,1
23,15,29,0.127148724781958,1
23,20,29,0.190689540766239,2
23,21,29,0.243371248879313,2
23,22,29,0.272890909087483,2
23,23,29,0.246713806483269,1
12,17,30,0.126510960306493,1
13,17,30,0.138303031610619,1
14,17,30,0.131521664065706,1
15,17,30,0.132262982535942,1
15,18,30,0.166759099373018,1
16,17,30,0.177887461762867,1
16,18,30,0.216281980789951,2
16,19,30,0.242232637788406,2
16,20,30,0.24722047087119,2
16,21,30,0.236744311396201,1
17,16,30,0.127775701646915,1
17,17,30,0.242771264594365,2
17,18,30,0.324413997211992,2
17,19,30,0.352299098890638,2
17,20,30,0.310120790146776,2
17,21,30,0.28532148680972,2
17,22,30,0.257879313112797,1
18,16,30,0.140250430844916,1
18,17,30,0.262360175609109,2
18,18,30,0.354639916156242,2
18,19,30,0.369446500423779,2
18,20,30,0.297750227340648,2
18,21,30,0.28507678705954,2
18,22,30,0.29453714461654,2
18,23,30,0.211361110975023,1
19,16,30,0.147891757021934,1
19,17,30,0.23491861430929,2
19,18,30,0.303435627831394,2
19,19,30,0.325910884161979,2
19,20,30,0.273521630996263,2
19,21,30,0.265812799815489,2
19,22,30,0.269636748649994,1
20,16,30,0.158806004186158,1
20,17,30,0.219712935560373,1
20,18,30,0.28110169390923,2
20,19,30,0.31638832119154,2
20,20,30,0.282173553715894,2
20,21,30,0.260562036391839,2
20,22,30,0.228249350764856,1
21,15,30,0.121297447114328,1
21,16,30,0.182794399543698,1
21,17,30,0.229734013326515,1
21,18,30,0.250610159498354,1
21,19,30,0.267666313863125,2
21,20,30,0.299332143273035,2
21,21,30,0.326334474527484,2
21,22,30,0.265325402382583,2
21,23,30,0.232239965826357,2
22,15,30,0.143053690361473,1
22,16,30,0.196213668835243,1
22,17,30,0.229315275030365,1
22,19,30,0.209765416107815,1
22,20,30,0.280310476851955,2
22,21,30,0.346622672372826,2
22,22,30,0.302059430218198,2
22,23,30,0.233369650051799,1
23,15,30,0.139131110262758,1
23,16,30,0.153660113766423,1
23,20,30,0.1924729942299,1
23,21,30,0.236750199829886,2
23,22,30,0.237557739625334,1
12,17,31,0.128351449138819,1
13,17,31,0.125784845772029,1
14,17,31,0.115795553770915,1
14,18,31,0.15667920793124,1
15,17,31,0.126237654545475,1
15,18,31,0.164347008506102,1
15,19,31,0.181425338712127,1
16,17,31,0.177425808562028,1
16,18,31,0.230233281841729,2
16,19,31,0.246865563196178,2
16,20,31,0.234572445069864,2
17,16,31,0.121248737990893,1
17,17,31,0.244270153611805,2
17,18,31,0.328664009554149,2
17,19,31,0.342384460451772,2
17,20,31,0.305523878399416,2
17,21,31,0.259411695541033,2
18,16,31,0.130783996424355,1
18,17,31,0.252844349006805,2
18,18,31,0.331590678863858,2
18,19,31,0.3346146722055,2
18,20,31,0.280686300243414,2
18,21,31,0.250162779860765,2
18,22,31,0.252535747974285,1
19,16,31,0.130574862813627,1
19,17,31,0.220582209694566,1
19,18,31,0.288350709080473,2
19,19,31,0.311398062074078,2
19,20,31,0.258623210716987,2
19,21,31,0.229027047978392,1
20,16,31,0.145237310001443,1
20,17,31,0.211856092710515,1
20,18,31,0.279161290134151,2
20,19,31,0.324405046792792,2
20,20,31,0.273236607252214,2
20,21,31,0.226051645991512,1
21,15,31,0.125628578518919,1
21,16,31,0.208170357191445,1
21,17,31,0.256284348411367,1
21,18,31,0.250645537207929,1
21,19,31,0.260922432087046,2
21,20,31,0.26565169226989,2
21,21,31,0.264317208320913,2
21,22,31,0.219264919971947,1
22,15,31,0.161538119646943,1
22,16,31,0.256358636890726,1
22,17,31,0.288222129242546,1
22,20,31,0.260858601465909,1
22,21,31,0.30378667269391,2
22,22,31,0.251694785429245,1
23,9,31,0.11729307667174,1
23,15,31,0.15402426628232,1
23,16,31,0.194490642478049,1
23,21,31,0.235912841006261,1
24,9,31,0.116709968637731,1
24,15,31,0.132935547654481,1
12,17,32,0.123933157138836,1
13,17,32,0.120283529495117,1
14,18,32,0.147285319013668,1
15,17,32,0.121248502453545,1
15,18,32,0.168158367869389,1
15,19,32,0.17894057279668,1
16,17,32,0.168008483678392,1
16,18,32,0.241620405561395,1
16,19,32,0.252745564643319,2
17,17,32,0.222132021886507,1
17,18,32,0.313649775561172,2
17,19,32,0.323458587069866,2
17,20,32,0.281025638899766,2
18,16,32,0.117652577325027,1
18,17,32,0.222665137118538,1
18,18,32,0.294079024475911,2
18,19,32,0.296313402414239,2
18,20,32,0.256877902526732,2
19,16,32,0.116404794673615,1
19,17,32,0.198479408571374,1
19,18,32,0.262179212265127,1
19,19,32,0.28492163860883,2
19,20,32,0.241311215685506,1
20,16,32,0.135351548441365,1
20,17,32,0.206244768715515,1
20,18,32,0.264651388709357,1
20,19,32,0.304911104436506,2
20,20,32,0.258600811115252,1
21,15,32,0.120167126938048,1
21,16,32,0.212955698816698,1
21,17,32,0.272149060658216,1
21,18,32,0.25132400253702,1
21,19,32,0.246571400603051,1
22,15,32,0.166325875530006,1
22,16,32,0.284730829803728,1
22,17,32,0.318539931306004,1
22,18,32,0.234857374598974,1
22,21,32,0.256566851905799,1
23,8,32,0.125807586902918,1
23,9,32,0.15536366118499,1
23,10,32,0.138733476112933,1
23,15,32,0.168764994307533,1
23,16,32,0.230974117460402,1
23,17,32,0.234515044618311,1
24,8,32,0.12984241232452,1
24,9,32,0.159049031621172,1
24,10,32,0.148683928005466,1
24,14,32,0.118081691041328,1
24,15,32,0.144209165926451,1
24,16,32,0.151969226480277,1
13,17,33,0.120687052078627,1
14,17,33,0.116900282814404,1
14,18,33,0.146118490548546,1
15,17,33,0.116586971034936,1
15,18,33,0.169698369930812,1
15,19,33,0.172453403175496,1
16,17,33,0.145326131135136,1
16,18,33,0.233253059064853,1
16,19,33,0.251345624865508,1
17,17,33,0.178297237862949,1
17,18,33,0.269745307813396,1
17,19,33,0.296042605125971,2
18,17,33,0.180772358524021,1
18,18,33,0.240764957469492,1
18,19,33,0.253883987304349,2
19,17,33,0.167693629129299,1
19,18,33,0.215118426293957,1
19,19,33,0.235323926976639,1
20,16,33,0.127161090492695,1
20,17,33,0.192427405976317,1
20,18,33,0.228999890522241,1
20,19,33,0.254899035502827,1
21,16,33,0.198889620415548,1
21,17,33,0.266635625984782,1
21,18,33,0.246264966514126,1
22,15,33,0.157607260410468,1
22,16,33,0.270490100459505,1
22,17,33,0.313701852868675,1
22,18,33,0.243617903589476,1
23,5,33,0.134288344632217,1
23,6,33,0.127641150937231,1
23,7,33,0.125809671408442,1
23,8,33,0.147112293278292,1
23,9,33,0.176238099711062,1
23,10,33,0.150767444272806,1
23,15,33,0.175572223853187,1
23,16,33,0.246073757295534,1
23,17,33,0.257722751438003,1
24,5,33,0.124990967142728,1
24,6,33,0.149823328146487,1
24,7,33,0.155481924487103,1
24,8,33,0.157953853617119,1
24,9,33,0.185667860966638,1
24,10,33,0.181307617145913,1
24,11,33,0.134916970258605,1
24,14,33,0.129837312940949,1
24,15,33,0.152902531442352,1
24,16,33,0.16713911532926,1
25,7,33,0.113810303684897,1
25,9,33,0.11715113008935,1
25,10,33,0.123914420142852,1
25,11,33,0.117840241706542,1
25,15,33,0.128816388085654,1
13,17,34,0.12079833169839,1
14,17,34,0.130146125957082,1
15,17,34,0.119766737001259,1
15,18,34,0.167070456192503,1
16,17,34,0.125253838599258,1
16,18,34,0.204864967380904,1
16,19,34,0.226174973346594,1
17,17,34,0.134453267882843,1
17,18,34,0.209825478131394,1
17,19,34,0.249998115701221,1
18,17,34,0.13662540507713,1
18,18,34,0.182963173829954,1
18,19,34,0.207898994613543,1
19,17,34,0.133642701432482,1
19,18,34,0.163774028578029,1
19,19,34,0.181014844223136,1
20,16,34,0.114103100161409,1
20,17,34,0.165343178386189,1
20,18,34,0.185655283272288,1
21,16,34,0.171763408293251,1
21,17,34,0.235962327402943,1
21,18,34,0.23210059837792,1
22,15,34,0.141735187621514,1
22,16,34,0.232093249612682,1
22,17,34,0.286942784586587,1
23,5,34,0.132447420055798,1
23,6,34,0.131309550907535,1
23,7,34,0.130191101813562,1
23,8,34,0.149514256039272,1
23,9,34,0.162228691595688,1
23,10,34,0.138955434732224,1
23,14,34,0.117229481587951,1
23,15,34,0.173668010391531,1
23,16,34,0.2404215911245,1
24,5,34,0.14984626948412,1
24,6,34,0.192415287579795,1
24,7,34,0.183579975481504,1
24,8,34,0.163979735120352,1
24,9,34,0.17865345277024,1
24,10,34,0.187602223208757,1
24,11,34,0.149164188656747,1
24,13,34,0.116419303774213,1
24,14,34,0.140538233929664,1
24,15,34,0.158144120686322,1
25,5,34,0.113792296854691,1
25,6,34,0.151181024301048,1
25,7,34,0.144045208378949,1
25,8,34,0.121830668338165,1
25,9,34,0.124979166721625,1
25,10,34,0.140930168075682,1
25,11,34,0.137491970531828,1
13,17,35,0.118656885020465,1
14,17,35,0.146621916297941,1
15,17,35,0.137168259778474,1
16,17,35,0.120672566531763,1
16,18,35,0.180335872488748,1
17,17,35,0.113786325982935,1
17,18,35,0.167739700234444,1
18,18,35,0.151290855366125,1
19,18,35,0.137512297404906,1
20,17,35,0.140594256487735,1
21,16,35,0.15146151395116,1
21,17,35,0.200451704103287,1
21,18,35,0.214370218356311,1
22,15,35,0.132912877184797,1
22,16,35,0.196370831130274,1
22,17,35,0.25570749389393,1
23,6,35,0.117971730430709,1
23,7,35,0.122570444038776,1
23,8,35,0.136523735381139,1
23,9,35,0.130700003806284,1
23,10,35,0.116069283499158,1
23,14,35,0.119401183038145,1
23,15,35,0.16199660487046,1
23,16,35,0.212968064527435,1
24,5,35,0.155314940284687,1
24,6,35,0.200424311109788,1
24,7,35,0.183003038525996,1
24,8,35,0.157380143523269,1
24,9,35,0.156519077865632,1
24,10,35,0.175827039932437,1
24,11,35,0.15815572090068,1
24,12,35,0.125370429586204,1
24,13,35,0.125768558364459,1
24,14,35,0.144341361262661,1
24,15,35,0.15866874479698,1
25,5,35,0.141944756976334,1
25,6,35,0.182743994551362,1
25,7,35,0.157254543232786,1
25,8,35,0.128054318775115,1
25,9,35,0.134632040729495,1
25,10,35,0.16772060993244,1
25,11,35,0.163873825752108,1
25,12,35,0.128897330495077,1
25,13,35,0.118375076361208,1
26,6,35,0.118178084700738,1
26,10,35,0.122359696997219,1
26,11,35,0.114270755645265,1
14,16,36,0.121084509575441,1
14,17,36,0.158905071194461,1
15,17,36,0.159203638335983,1
16,17,36,0.122467514217976,1
21,16,36,0.132474118214122,1
21,17,36,0.16715683951465,1
22,15,36,0.126003530422192,1
22,16,36,0.164637873576365,1
23,14,36,0.117132204663489,1
23,15,36,0.144975050942017,1
24,5,36,0.141610600141624,1
24,6,36,0.177730087484224,1
24,7,36,0.163101698996837,1
24,8,36,0.144547456441607,1
24,9,36,0.13368602852753,1
24,10,36,0.151888649153743,1
24,11,36,0.148144806571077,1
24,12,36,0.128740050431373,1
24,13,36,0.122713497646699,1
24,14,36,0.134031844460934,1
25,5,36,0.158224721566591,1
25,6,36,0.191779466287445,1
25,7,36,0.158311257988014,1
25,8,36,0.13408699553082,1
25,9,36,0.144584718449961,1
25,10,36,0.188658207798208,1
25,11,36,0.173866544821627,1
25,12,36,0.134112492448673,1
25,13,36,0.119673122682548,1
26,5,36,0.135068774078983,1
26,6,36,0.13547767869088,1
26,7,36,0.125324382034794,1
26,8,36,0.1300557856075,1
26,9,36,0.136668732172178,1
26,10,36,0.153600346164529,1
26,11,36,0.13074817119382,1
14,16,37,0.129956907029075,1
15,16,37,0.121519299741813,1
15,17,37,0.178755134243098,1
21,16,37,0.115788310997484,1
22,15,37,0.11896958440283,1
24,5,37,0.113839086348745,1
24,6,37,0.135103209639168,1
24,7,37,0.131184256815603,1
24,8,37,0.124068049377673,1
24,10,37,0.124359126431549,1
24,11,37,0.125132112898138,1
24,12,37,0.120095134947826,1
25,5,37,0.151573547290435,1
25,6,37,0.173371845730952,1
25,7,37,0.15085053007209,1
25,8,37,0.138592047712706,1
25,9,37,0.147541571870736,1
25,10,37,0.185168050715525,1
25,11,37,0.162671454701269,1
25,12,37,0.130293843204484,1
26,4,37,0.140645273877175,1
26,5,37,0.150570758810887,1
26,6,37,0.148489032627387,1
26,7,37,0.138502025338543,1
26,8,37,0.137216438942878,1
26,9,37,0.141546863735426,1
26,10,37,0.16823104291792,1
26,11,37,0.140941203000407,1
27,5,37,0.199037844068246,1
27,6,37,0.151018668407507,1
14,16,38,0.12915920091788,1
15,16,38,0.12800896605888,1
25,5,38,0.134468931116443,1
25,6,38,0.15220800246617,1
25,7,38,0.14826620251991,1
25,8,38,0.14476506939684,1
25,9,38,0.14691969438935,1
25,10,38,0.167814730656448,1
25,11,38,0.148711156122822,1
26,4,38,0.154200707309233,1
26,5,38,0.168280293777254,1
26,6,38,0.167935090240953,1
26,7,38,0.160516405741534,1
26,8,38,0.150463353780487,1
26,9,38,0.144248830415748,1
27,5,38,0.236795964736479,1
27,6,38,0.179925589983369,1
27,7,38,0.149987026602907,1
27,8,38,0.138145386464027,1
14,16,39,0.115953269578712,1
15,16,39,0.123140114667118,1
25,5,39,0.129351187409719,1
25,6,39,0.151625023977702,1
25,7,39,0.171262703000218,1
25,8,39,0.168429506686811,1
25,9,39,0.151726823219234,1
25,10,39,0.151094393664686,1
26,3,39,0.122779130128543,1
26,4,39,0.17202095660573,1
26,5,39,0.202855810254128,1
26,6,39,0.216305911384443,1
26,7,39,0.219161142216697,1
26,8,39,0.189949082007321,1
26,9,39,0.154043344807457,1
27,4,39,0.250956163861637,1
27,5,39,0.271295850171113,1
27,6,39,0.221706523668489,1
27,7,39,0.181311597727083,1
27,8,39,0.153102243559184,1
15,16,40,0.114708937549439,1
25,4,40,0.113930439508922,1
25,5,40,0.12779760662022,1
25,6,40,0.154477133940103,1
25,7,40,0.194566438396432,1
25,8,40,0.194911559494661,1
25,9,40,0.163564624099352,1
25,10,40,0.146070393822213,1
26,3,40,0.133491415794268,1
26,4,40,0.189415660576739,1
26,5,40,0.235301409606231,1
26,6,40,0.263433778392143,1
26,7,40,0.279569829663159,1
26,8,40,0.236398424801593,1
26,9,40,0.176676458268247,1
27,4,40,0.241766462270497,1
27,5,40,0.307487341280803,3
27,6,40,0.276339199406672,3
27,7,40,0.223631334871172,1
27,8,40,0.17663137641996,1
24,8,41,0.121772679043244,1
24,9,41,0.11842160676418,1
25,4,41,0.117835118769236,1
25,5,41,0.126800211945927,1
25,6,41,0.154296029273712,1
25,7,41,0.210642816280492,1
25,8,41,0.225242669418245,1
25,9,41,0.189662927684005,1
25,10,41,0.153084413381988,1
26,2,41,0.116352552489969,1
26,3,41,0.141203379621761,1
26,4,41,0.196200514074393,1
26,5,41,0.246378448408088,3
26,6,41,0.283170818844646,3
26,7,41,0.313559070128701,3
26,8,41,0.2791693926189,1
26,9,41,0.220400869490829,1
27,4,41,0.233476136486544,3
27,5,41,0.333645271144941,3
27,6,41,0.330505181444782,3
27,7,41,0.266591651162028,3
28,5,41,0.297443769697988,3
28,6,41,0.267765616408775,3
24,8,42,0.132329227414889,1
24,9,42,0.130215998111179,1
24,10,42,0.114180957031581,1
25,4,42,0.115731228521349,1
25,5,42,0.124195263098986,1
25,6,42,0.151269233037637,1
25,7,42,0.213292093256208,3
25,8,42,0.250979199414209,1
25,9,42,0.228214538344915,1
26,3,42,0.151454377169534,1
26,4,42,0.198733482707979,1
26,5,42,0.239745339846475,3
26,6,42,0.278953899499794,3
26,7,42,0.316468662980727,3
26,8,42,0.308439642329943,3
26,9,42,0.281854141519129,3
27,4,42,0.252432676831077,3
27,5,42,0.34868124523508,3
27,6,42,0.371072532501327,3
27,7,42,0.301388360761814,3
27,8,42,0.22854374889533,3
28,5,42,0.29677983702323,3
28,6,42,0.301479655037654,3
28,7,42,0.225545641108164,3
24,8,43,0.137607160071558,1
24,9,43,0.140054864185397,1
25,5,43,0.118662926553425,1
25,6,43,0.147526097067014,1
25,7,43,0.204358020348166,3
25,8,43,0.25802671238478,3
25,9,43,0.256963355476356,3
26,4,43,0.185298597290303,1
26,5,43,0.215732990340708,3
26,6,43,0.259068234981102,3
26,7,43,0.30115298829059,3
26,8,43,0.317075312972606,3
26,9,43,0.329667846174892,3
26,10,43,0.314825625106698,3
27,4,43,0.274872437683413,3
27,5,43,0.325138274555145,3
27,6,43,0.364361319755328,3
27,7,43,0.316765463592144,3
27,8,43,0.247792449765537,3
27,9,43,0.256145357822685,3
28,5,43,0.28889355200495,3
28,6,43,0.317590315382624,3
28,7,43,0.257554271573431,3
29,6,43,0.206332647699818,3
25,8,44,0.250773057127794,3
25,9,44,0.261534263900566,3
25,10,44,0.239878442001472,3
26,6,44,0.247588333100308,3
26,7,44,0.297424196544422,3
26,8,44,0.315904480372579,3
26,9,44,0.342868254163264,3
26,10,44,0.35231323113148,3
26,11,44,0.267368947962074,3
27,5,44,0.277375304644005,3
27,6,44,0.327671973354508,3
27,7,44,0.325901768866636,3
27,8,44,0.274146676454971,3
27,9,44,0.270893269736993,3
27,10,44,0.286285541172494,3
28,6,44,0.305592985057134,3
28,7,44,0.290349596778904,3
25,8,45,0.25759191044154,3
25,9,45,0.252964755698779,3
25,10,45,0.251017756877973,3
26,7,45,0.298641783307902,3
26,8,45,0.315746623242373,3
26,9,45,0.323978959731405,3
26,10,45,0.340663129963479,3
26,11,45,0.290745699935972,3
27,6,45,0.274512065541941,3
27,7,45,0.317172165929843,3
27,8,45,0.306467652996582,3
27,9,45,0.273241388660365,3
27,10,45,0.253325975774701,3
28,6,45,0.272469273681961,3
28,7,45,0.310688364492726,3
28,8,45,0.277042843678196,3
29,7,45,0.243072634630321,3
25,8,46,0.274357647257007,3
25,9,46,0.242769992692689,3
26,7,46,0.285677148204244,3
26,8,46,0.312950535838044,3
26,9,46,0.2991469402568,3
26,10,46,0.296650338589648,3
27,6,46,0.221850272111587,3
27,7,46,0.290399342266668,3
27,8,46,0.330165513036144,3
27,9,46,0.282461568784254,3
28,6,46,0.235718240049866,3
28,7,46,0.315371435801752,3
28,8,46,0.33173588763851,3
28,9,46,0.242434681724978,3
29,7,46,0.252057489390456,3
29,8,46,0.226296722601448,3
25,8,47,0.288873437115485,3
26,7,47,0.254944023136174,3
26,8,47,0.30539068202948,3
26,9,47,0.276742038931874,3
27,7,47,0.255988584164278,3
27,8,47,0.334932247210955,3
27,9,47,0.299728222876367,3
27,10,47,0.211443407724193,3
28,7,47,0.301657980363346,3
28,8,47,0.367598851256092,3
28,9,47,0.295879872372675,3
29,8,47,0.243509980376913,3
26,8,48,0.291510324826729,3
26,9,48,0.265597989754691,3
27,7,48,0.236121621310967,3
27,8,48,0.323435410194885,3
27,9,48,0.313960943950779,3
27,10,48,0.217838670672435,3
28,7,48,0.278647206319787,3
28,8,48,0.360941411686496,3
28,9,48,0.326996122489973,3
28,10,48,0.19994779550233,3
29,8,48,0.240329236930598,3
29,9,48,0.201480225038035,3
26,8,49,0.264331905851388,3
26,9,49,0.256358919535543,3
27,7,49,0.242667204194298,3
27,8,49,0.319771061466957,3
27,9,49,0.323876336109157,3
27,10,49,0.236817115990272,3
28,7,49,0.269377963766442,3
28,8,49,0.336792309196848,3
28,9,49,0.327299871453137,3
28,10,49,0.222983936918199,3
29,8,49,0.227402711769745,3
29,9,49,0.20343348915228,3
27,8,50,0.305353208037514,3
27,9,50,0.303843130996074,3
28,8,50,0.299823921700602,3
28,9,50,0.289601153303911,3
