x,y,z,signal,mito.p
380,1022,6,0.167407616128392,1
381,1021,6,0.16812458003691,1
381,1022,6,0.15405375555821,1
386,1022,6,0.158172550044149,1
390,1021,6,0.143089386046466,1
380,1021,7,0.126846377266011,1
380,1022,7,0.143464632371424,1
381,1021,7,0.143526131172821,1
381,1022,7,0.142665230391327,1
382,1020,7,0.156212938198392,1
382,1021,7,0.164284214249293,1
382,1022,7,0.123651419140782,1
383,1019,7,0.165977197817831,1
383,1021,7,0.194111321356982,1
384,1021,7,0.179306915809907,1
385,1021,7,0.144883556459433,1
386,1022,7,0.126673233761961,1
386,1023,7,0.146153950696192,1
387,1022,7,0.139397302795885,1
387,1023,7,0.157897548414231,1
390,1021,7,0.132542353383654,1
392,1018,7,0.158354679298001,1
396,1020,7,0.141433452502669,1
380,1022,8,0.116852668939633,1
381,1021,8,0.121823613994612,1
381,1022,8,0.123987707588486,1
382,1020,8,0.123857172790575,1
382,1021,8,0.127591852970427,1
383,1018,8,0.114184937612752,1
383,1019,8,0.132162196105004,1
383,1020,8,0.181835703655577,1
383,1021,8,0.14762058287391,1
384,1019,8,0.160156540005359,1
384,1020,8,0.196485879347595,1
384,1021,8,0.141170145302047,1
385,1020,8,0.163973776025464,1
385,1021,8,0.114399311929458,1
386,1021,8,0.125276850598095,1
388,1021,8,0.116269843550441,1
390,1020,8,0.17033353171859,1
391,1018,8,0.164230240866144,1
391,1019,8,0.182306849011516,1
391,1021,8,0.132739780788217,1
392,1017,8,0.120157611229215,1
392,1018,8,0.146603862360265,1
392,1022,8,0.121179195589083,1
395,1018,8,0.130245369618396,1
395,1022,8,0.152187451832612,1
396,1019,8,0.13250943703936,1
396,1020,8,0.124540266428542,1
383,1020,9,0.130304819244871,1
384,1019,9,0.123597563526307,1
384,1020,9,0.140354397030044,1
385,1019,9,0.136452132027539,1
385,1020,9,0.123326577808161,1
386,1020,9,0.138138579434688,1
388,1020,9,0.127648323049459,1
389,1020,9,0.130247701438135,1
390,1018,9,0.181871729092857,1
390,1019,9,0.186400146579602,1
390,1020,9,0.145878030470619,1
391,1018,9,0.150527349277767,1
391,1019,9,0.174969024483448,1
391,1020,9,0.158721670038933,1
392,1018,9,0.139271066554563,1
392,1021,9,0.147861667125807,1
393,1022,9,0.128887520364559,1
395,1018,9,0.140878008330108,1
395,1022,9,0.121854116081096,1
396,1019,9,0.130565653303345,1
396,1020,9,0.113898747958833,1
386,1019,10,0.12958164892725,1
387,1019,10,0.133223692268383,1
388,1019,10,0.126888373575046,1
389,1019,10,0.141573691439291,1
390,1018,10,0.155281576419433,1
390,1019,10,0.152484052237284,1
391,1017,10,0.12284631715688,1
391,1018,10,0.134592517562607,1
391,1019,10,0.157480682639993,1
391,1020,10,0.133090272137967,1
392,1018,10,0.125840750561427,1
392,1019,10,0.179067032798481,1
392,1020,10,0.166754671270888,1
393,1018,10,0.136596598859547,1
393,1021,10,0.148477126214478,1
395,1018,10,0.158632790020904,1
395,1021,10,0.1252030803009,1
396,1018,10,0.127149831807491,1
396,1019,10,0.138839444365513,1
380,1019,11,0.13040466352642,1
380,1020,11,0.12412377751406,1
381,1019,11,0.131250772562499,1
381,1020,11,0.122791578277351,1
384,1016,11,0.155070346526314,1
384,1017,11,0.137540055481293,1
385,1018,11,0.141465367813237,1
388,1018,11,0.148245098373586,1
389,1018,11,0.150898838782035,1
389,1019,11,0.114585939946644,1
390,1018,11,0.147748785852082,1
390,1019,11,0.131011784592993,1
391,1017,11,0.122665766003255,1
391,1018,11,0.134310261382389,1
391,1019,11,0.153355717075553,1
391,1020,11,0.120004064432466,1
392,1018,11,0.122197553087292,1
392,1019,11,0.178048098233771,1
392,1020,11,0.157067208603557,1
393,1018,11,0.125695530009908,1
393,1019,11,0.210985428905972,1
393,1020,11,0.194547925160929,1
394,1018,11,0.149122345446988,1
394,1021,11,0.119495421530827,1
395,1018,11,0.171179970506956,1
395,1019,11,0.229713639345967,1
395,1020,11,0.171064992950838,1
396,1018,11,0.143669326103153,1
396,1019,11,0.148808574369693,1
380,1018,12,0.133779619292506,1
380,1019,12,0.163146886836929,1
380,1020,12,0.135278461202477,1
381,1018,12,0.129641781612033,1
381,1019,12,0.155103368862415,1
381,1020,12,0.126897630192798,1
384,1016,12,0.114931013937404,1
385,1015,12,0.14229490679693,1
385,1016,12,0.153109910299841,1
385,1017,12,0.161888304798141,1
385,1018,12,0.118599590560718,1
386,1018,12,0.138507878441625,1
387,1018,12,0.127071927829849,1
388,1017,12,0.161014355247603,1
388,1018,12,0.116533939801176,1
389,1018,12,0.123723528899679,1
390,1017,12,0.162512219677581,1
390,1018,12,0.131662668498708,1
391,1017,12,0.115815868867126,1
391,1018,12,0.120218780278326,1
391,1019,12,0.129030833063565,1
392,1019,12,0.15125637269847,1
392,1020,12,0.128488261007037,1
393,1019,12,0.169408623662949,1
393,1020,12,0.15565910745666,1
394,1018,12,0.121803605096953,1
394,1019,12,0.189248452613843,1
394,1020,12,0.15940682462869,1
395,1018,12,0.15510518249999,1
395,1019,12,0.19641394624171,1
395,1020,12,0.139994366417726,1
396,1018,12,0.140336036893816,1
396,1019,12,0.136093655961714,1
379,1018,13,0.128058393571225,1
379,1019,13,0.138759679642827,1
380,1017,13,0.125465716220082,1
380,1018,13,0.196056282779733,1
380,1019,13,0.218221301093232,1
380,1020,13,0.14889697153616,1
381,1017,13,0.122556712211424,1
381,1018,13,0.183401167304251,1
381,1019,13,0.200745654712801,1
381,1020,13,0.137138370089093,1
382,1018,13,0.122594621947483,1
382,1019,13,0.127743962989357,1
385,1016,13,0.11595166792475,1
385,1017,13,0.122213911156066,1
386,1015,13,0.137915407798057,1
386,1016,13,0.161158880963947,1
386,1017,13,0.157514505803075,1
386,1018,13,0.11641103641332,1
387,1016,13,0.183208768622054,1
387,1017,13,0.152070425101573,1
388,1016,13,0.16356839269691,1
388,1017,13,0.127521026890074,1
389,1017,13,0.13722922862084,1
390,1017,13,0.147725137902406,1
390,1018,13,0.11845678426701,1
391,1016,13,0.124210337489217,1
392,1019,13,0.12948722200469,1
393,1019,13,0.140301094928334,1
393,1020,13,0.125771337705158,1
394,1019,13,0.149391117114068,1
394,1020,13,0.126995060216536,1
395,1018,13,0.131425965241471,1
395,1019,13,0.159268152015427,1
395,1020,13,0.11785940266975,1
396,1018,13,0.12590262622258,1
396,1019,13,0.119198020299174,1
379,1018,14,0.141453002102501,1
379,1019,14,0.14177847938596,1
380,1017,14,0.151172097435582,1
380,1018,14,0.250188476985363,1
380,1019,14,0.24260575250037,1
380,1020,14,0.14004854000762,1
381,1017,14,0.150663230773463,1
381,1018,14,0.240130843822911,1
381,1019,14,0.229687023625715,1
381,1020,14,0.131928401734007,1
382,1018,14,0.142978365517785,1
382,1019,14,0.136639313557492,1
386,1016,14,0.12951810095093,1
386,1017,14,0.117809456975241,1
387,1014,14,0.126494967320606,1
387,1015,14,0.136298526346454,1
387,1016,14,0.144744789631231,1
387,1017,14,0.11700725210071,1
388,1015,14,0.158963084043117,1
388,1016,14,0.128588705908822,1
389,1016,14,0.137336009477269,1
390,1016,14,0.145728440701306,1
390,1017,14,0.12451154264903,1
391,1016,14,0.117558044410661,1
392,1015,14,0.120682317777944,1
394,1019,14,0.118355738744989,1
395,1019,14,0.124459371126588,1
379,1018,15,0.146258234856739,1
379,1019,15,0.137426078958902,1
380,1017,15,0.173536745427843,1
380,1018,15,0.28756870153348,1
380,1019,15,0.243571337855902,1
380,1020,15,0.128155847148698,1
381,1017,15,0.182636177330604,1
381,1018,15,0.298400239758177,1
381,1019,15,0.250986289088365,1
381,1020,15,0.127254504604661,1
382,1017,15,0.125347252711223,1
382,1018,15,0.17253080074784,1
382,1019,15,0.151837702425507,1
387,1016,15,0.114381870388885,1
388,1015,15,0.128827305241705,1
389,1015,15,0.166848780218028,1
390,1016,15,0.121862724971142,1
391,1016,15,0.118270191580425,1
391,1017,15,0.114497554557045,1
392,1015,15,0.122897899835953,1
379,1018,16,0.133800111041727,1
379,1019,16,0.121495074725637,1
380,1017,16,0.174823968808072,1
380,1018,16,0.278326333791469,1
380,1019,16,0.211727136012831,1
381,1017,16,0.197100890915306,1
381,1018,16,0.314841382555237,1
381,1019,16,0.237032114480949,1
381,1020,16,0.113888396092417,1
382,1017,16,0.134979717407944,1
382,1018,16,0.181370222972843,1
382,1019,16,0.145560184597214,1
389,1015,16,0.136685255117096,1
391,1015,16,0.138613834917338,1
391,1016,16,0.117896911992318,1
392,1014,16,0.150339225598425,1
392,1015,16,0.129049228530394,1
392,1016,16,0.124151641582253,1
393,1015,16,0.114924748643964,1
393,1016,16,0.115694885108651,1
395,1016,16,0.114403681147252,1
395,1017,16,0.120359631612052,1
396,1017,16,0.114655293918576,1
379,1018,17,0.120065363027118,1
380,1017,17,0.161947954631361,1
380,1018,17,0.238880164062126,1
380,1019,17,0.174420505108899,1
381,1017,17,0.196609359801953,1
381,1018,17,0.29591923066342,1
381,1019,17,0.207752113523725,1
382,1017,17,0.145110673346631,1
382,1018,17,0.188276672626076,1
382,1019,17,0.139382452166133,1
386,1015,17,0.117909795885219,1
389,1014,17,0.159630950191577,1
390,1015,17,0.125800426567558,1
391,1015,17,0.1388028536386,1
391,1016,17,0.123587046783747,1
392,1014,17,0.144840076265109,1
392,1015,17,0.154084080991684,1
392,1016,17,0.14761633142479,1
393,1015,17,0.143063594706929,1
393,1016,17,0.138492486075974,1
394,1015,17,0.120700666137304,1
394,1016,17,0.132090957834293,1
395,1016,17,0.137811759588349,1
395,1017,17,0.131759073934985,1
396,1016,17,0.115652453055522,1
396,1017,17,0.124899213569062,1
401,1022,17,0.121859804308035,1
378,1020,18,0.118281120513343,1
380,1017,18,0.136413397910765,1
380,1018,18,0.184632898085439,1
380,1019,18,0.138071828150444,1
381,1017,18,0.17845927578107,1
381,1018,18,0.24818351242337,1
381,1019,18,0.166313132959514,1
382,1017,18,0.149124759704798,1
382,1018,18,0.183143336346955,1
382,1019,18,0.122691604450261,1
386,1015,18,0.122768813592728,1
389,1014,18,0.120022353907489,1
390,1014,18,0.174602127957454,1
391,1014,18,0.175193444468019,1
391,1015,18,0.141138371313888,1
391,1016,18,0.127892846146628,1
392,1014,18,0.140481634305091,1
392,1015,18,0.180164189316252,1
392,1016,18,0.16609051483565,1
393,1014,18,0.114442297495352,1
393,1015,18,0.179165817161967,1
393,1016,18,0.159540598065127,1
394,1015,18,0.148415203445855,1
394,1016,18,0.147617120474904,1
395,1015,18,0.119074904927705,1
395,1016,18,0.149783322128037,1
395,1017,18,0.13006674987102,1
396,1016,18,0.124765911207319,1
396,1017,18,0.12397457638137,1
400,1022,18,0.116899894177781,1
401,1021,18,0.121259961345495,1
401,1022,18,0.13064197918076,1
402,1021,18,0.144723143749008,1
402,1022,18,0.115236941621032,1
377,1020,19,0.136564789540785,1
377,1021,19,0.118928047391622,1
378,1019,19,0.129300429111361,1
378,1020,19,0.150491276733018,1
378,1021,19,0.11575915147388,1
379,1019,19,0.116414404597388,1
380,1017,19,0.116649294217049,1
380,1018,19,0.148774739429743,1
380,1019,19,0.121594836569114,1
381,1017,19,0.161431091476299,1
381,1018,19,0.209953798878239,1
381,1019,19,0.141992877256401,1
382,1017,19,0.159621870226836,1
382,1018,19,0.186611800439946,1
382,1019,19,0.117177840024541,1
383,1017,19,0.123317085653062,1
383,1018,19,0.114624768278358,1
386,1014,19,0.115643137553434,1
386,1015,19,0.115220583552257,1
390,1013,19,0.189467478793159,1
390,1014,19,0.141483091998627,1
391,1014,19,0.156743874709959,1
391,1015,19,0.152190631586802,1
391,1016,19,0.138902085523046,1
392,1014,19,0.148621381062873,1
392,1015,19,0.215512338953694,1
392,1016,19,0.188929358392497,1
392,1017,19,0.117851853697767,1
393,1014,19,0.139804228894064,1
393,1015,19,0.233848426817792,1
393,1016,19,0.190072032502647,1
394,1014,19,0.1173785531751,1
394,1015,19,0.188013271210515,1
394,1016,19,0.162379635704748,1
395,1015,19,0.133387802915161,1
395,1016,19,0.147245784069912,1
395,1017,19,0.121640059739808,1
396,1016,19,0.120992131827804,1
396,1017,19,0.115743476463412,1
399,1017,19,0.125067811202307,1
400,1021,19,0.12849401989518,1
400,1022,19,0.116871370605014,1
401,1019,19,0.126959517630818,1
401,1020,19,0.138882771460561,1
401,1021,19,0.140787220459565,1
401,1022,19,0.128402466528259,1
402,1020,19,0.187626483555536,1
402,1021,19,0.146094724830196,1
403,1021,19,0.148992305277506,1
377,1019,20,0.116347500213868,1
377,1020,20,0.154140680616256,1
377,1021,20,0.133934638197676,1
378,1019,20,0.147105333149677,1
378,1020,20,0.173761824916987,1
378,1021,20,0.12951742966949,1
379,1019,20,0.125752836246522,1
379,1020,20,0.121030583299761,1
380,1018,20,0.127039694543862,1
380,1019,20,0.116425309976571,1
381,1017,20,0.13877304638729,1
381,1018,20,0.173120468496974,1
381,1019,20,0.126191665878402,1
382,1017,20,0.155696192812003,1
382,1018,20,0.173641795084769,1
383,1017,20,0.126577311177246,1
390,1013,20,0.145572774068431,1
390,1014,20,0.121581929122478,1
390,1015,20,0.113926129175465,1
391,1013,20,0.15877448928908,1
391,1014,20,0.144446269597178,1
391,1015,20,0.15753014548294,1
391,1016,20,0.142898129720404,1
392,1014,20,0.156335182081675,1
392,1015,20,0.230278222367606,1
392,1016,20,0.192507665327433,1
392,1017,20,0.114268883123353,1
393,1014,20,0.161280818648679,1
393,1015,20,0.260563661599536,1
393,1016,20,0.196010352996996,1
394,1014,20,0.136158570054648,1
394,1015,20,0.206286341057325,1
394,1016,20,0.157578383531681,1
395,1015,20,0.135403979054888,1
395,1016,20,0.129617073744294,1
399,1017,20,0.128552503818531,1
400,1020,20,0.126554570046358,1
400,1021,20,0.135218787815521,1
401,1020,20,0.19393142970793,1
401,1021,20,0.159081194245955,1
401,1022,20,0.119368902644689,1
402,1021,20,0.157402095604044,1
403,1021,20,0.139496051828768,1
375,1023,21,0.118322728185756,1
377,1019,21,0.116208544955789,1
377,1020,21,0.160601646707546,1
377,1021,21,0.145580287709812,1
378,1019,21,0.163747459965246,1
378,1020,21,0.196433224973592,1
378,1021,21,0.144112183423673,1
379,1018,21,0.116251801389633,1
379,1019,21,0.152660858347086,1
379,1020,21,0.144993340417041,1
380,1018,21,0.127202309528484,1
380,1019,21,0.134619251051533,1
381,1017,21,0.124696027276355,1
381,1018,21,0.151767370973583,1
381,1019,21,0.127100757601167,1
382,1017,21,0.150531329858938,1
382,1018,21,0.157205480803329,1
383,1017,21,0.136404011747472,1
384,1016,21,0.127265869281671,1
384,1017,21,0.131308820741758,1
385,1016,21,0.12835981071465,1
388,1015,21,0.123905222409438,1
388,1016,21,0.126177875166713,1
389,1015,21,0.133588362966444,1
389,1016,21,0.13512969581388,1
390,1013,21,0.125613810327239,1
390,1014,21,0.123189235980911,1
390,1015,21,0.137324739015198,1
390,1016,21,0.12951233028592,1
391,1013,21,0.141352651415655,1
391,1014,21,0.154097907033974,1
391,1015,21,0.180916106967119,1
391,1016,21,0.157789354333718,1
392,1014,21,0.182414242265048,1
392,1015,21,0.247829829542564,1
392,1016,21,0.198477312288982,1
392,1017,21,0.116415723606533,1
393,1014,21,0.187649177578955,1
393,1015,21,0.269291804204775,1
393,1016,21,0.200799545657878,1
393,1017,21,0.117965100054381,1
394,1014,21,0.153520451896302,1
394,1015,21,0.207962047961434,1
394,1016,21,0.158792119259531,1
395,1015,21,0.133742192408009,1
395,1016,21,0.120097184122748,1
399,1017,21,0.114211871308423,1
400,1019,21,0.11454178847088,1
400,1020,21,0.146870855720373,1
400,1021,21,0.136023642485209,1
401,1021,21,0.177191189810315,1
403,1021,21,0.136957182984631,1
375,1023,22,0.148031725090606,1
376,1022,22,0.123862637257034,1
376,1023,22,0.128853285011119,1
377,1020,22,0.152113693312284,1
377,1021,22,0.149101111755123,1
377,1022,22,0.115405327270665,1
378,1019,22,0.174809377269402,1
378,1020,22,0.212899994234046,1
378,1021,22,0.156655018245665,1
379,1018,22,0.134931008284508,1
379,1019,22,0.19627924243275,1
379,1020,22,0.184341538386746,1
380,1018,22,0.146769845528955,1
380,1019,22,0.176336059693832,1
380,1020,22,0.128172134556268,1
381,1017,22,0.119800230412055,1
381,1018,22,0.147337078345751,1
381,1019,22,0.142104039107491,1
382,1017,22,0.142149780460349,1
382,1018,22,0.139138612127272,1
383,1017,22,0.141621116884184,1
384,1016,22,0.138283387795849,1
384,1017,22,0.143829091085872,1
385,1015,22,0.114807568813649,1
385,1016,22,0.144496592151443,1
385,1017,22,0.122665601127112,1
388,1015,22,0.149872343468474,1
388,1016,22,0.137397390509993,1
389,1014,22,0.126370886246013,1
389,1015,22,0.167311222468982,1
389,1016,22,0.154598365012793,1
390,1013,22,0.122277847769009,1
390,1014,22,0.135672974482449,1
390,1015,22,0.167911724936094,1
390,1016,22,0.151528842301905,1
391,1013,22,0.134043727320109,1
391,1014,22,0.165211359909735,1
391,1015,22,0.203676563694763,1
391,1016,22,0.174480743785488,1
392,1013,22,0.145768929571318,1
392,1014,22,0.198573741278994,1
392,1015,22,0.242460543725718,1
392,1016,22,0.195790102023473,1
392,1017,22,0.115146436395306,1
393,1013,22,0.143386492856435,1
393,1014,22,0.199625910163418,1
393,1015,22,0.239380916462629,1
393,1016,22,0.193187696979884,1
393,1017,22,0.124684709706814,1
394,1014,22,0.16034811430684,1
394,1015,22,0.186806330735137,1
394,1016,22,0.162235745939242,1
394,1017,22,0.125704609974649,1
395,1014,22,0.115811440764995,1
395,1015,22,0.128338082394356,1
395,1016,22,0.122107542489995,1
400,1021,22,0.139217564246109,1
376,1022,23,0.126976676526574,1
376,1023,23,0.137815339756029,1
377,1020,23,0.13219581906134,1
377,1021,23,0.139765094363799,1
377,1022,23,0.119194216371014,1
378,1019,23,0.168068109957878,1
378,1020,23,0.207405261225993,1
378,1021,23,0.15614756480763,1
379,1018,23,0.147350739511899,1
379,1019,23,0.230110402007607,1
379,1020,23,0.215544372032936,1
379,1021,23,0.122328535406162,1
380,1018,23,0.175802944461801,1
380,1019,23,0.228077997344646,1
380,1020,23,0.160492781345593,1
381,1017,23,0.118343420141722,1
381,1018,23,0.158509215351608,1
381,1019,23,0.168420073416049,1
382,1017,23,0.134079599658113,1
382,1018,23,0.128900321819388,1
383,1016,23,0.117119426762394,1
383,1017,23,0.142423945932685,1
384,1016,23,0.138482087102088,1
384,1017,23,0.144435093350046,1
385,1015,23,0.114587812468556,1
385,1016,23,0.147000330600221,1
385,1017,23,0.119753064058244,1
386,1016,23,0.117049554608298,1
388,1014,23,0.129374823582527,1
388,1015,23,0.162617893508478,1
388,1016,23,0.133543728639118,1
389,1014,23,0.15124836442866,1
389,1015,23,0.200548580614259,1
389,1016,23,0.164963833711386,1
390,1013,23,0.122371214773505,1
390,1014,23,0.158973918761096,1
390,1015,23,0.21637869242478,1
390,1016,23,0.18115628440023,1
391,1013,23,0.131003199256682,1
391,1014,23,0.185639101856524,1
391,1015,23,0.245584357795174,1
391,1016,23,0.205392853683823,1
392,1012,23,0.124999799793255,1
392,1013,23,0.161331529839567,1
392,1014,23,0.216193442301076,1
392,1015,23,0.245772104614761,1
392,1016,23,0.201774505399835,1
392,1017,23,0.116607415676687,1
393,1012,23,0.120595828463991,1
393,1013,23,0.181101451305763,1
393,1014,23,0.213152867130179,1
393,1015,23,0.211783288116444,1
393,1016,23,0.186087871164463,1
393,1017,23,0.128399027682987,1
394,1013,23,0.147007655811724,1
394,1014,23,0.164971429790839,1
394,1015,23,0.16638099126929,1
394,1016,23,0.168153986874728,1
394,1017,23,0.140360662323484,1
395,1014,23,0.116572073297715,1
395,1015,23,0.127667354467126,1
395,1016,23,0.139470024951884,1
395,1017,23,0.130702488725298,1
400,1018,23,0.128541245133327,1
400,1021,23,0.135072413131,1
401,1022,23,0.123936160240014,1
403,1022,23,0.128872787503481,1
376,1022,24,0.117612830397659,1
376,1023,24,0.127272075690775,1
377,1021,24,0.122583893221311,1
377,1022,24,0.113821161956611,1
378,1019,24,0.145671735084927,1
378,1020,24,0.177050856658754,1
378,1021,24,0.139842362390602,1
379,1018,24,0.143678924250059,1
379,1019,24,0.222074079699055,1
379,1020,24,0.211423175066054,1
379,1021,24,0.122191181802045,1
380,1018,24,0.185009004121715,1
380,1019,24,0.241625186969546,1
380,1020,24,0.169890144439039,1
381,1018,24,0.162722672297454,1
381,1019,24,0.174654487909774,1
382,1017,24,0.117265177272945,1
382,1018,24,0.117458765418746,1
383,1017,24,0.125378072773126,1
384,1016,24,0.121685330017972,1
384,1017,24,0.124617934868836,1
385,1016,24,0.12643136045995,1
388,1014,24,0.128167953768353,1
388,1015,24,0.14637355394201,1
389,1013,24,0.114379550346014,1
389,1014,24,0.161324699256493,1
389,1015,24,0.208792293557168,1
389,1016,24,0.156565784921615,1
390,1013,24,0.119822323815238,1
390,1014,24,0.179014178217732,1
390,1015,24,0.260909901500166,1
390,1016,24,0.202240021413171,1
391,1013,24,0.126753245798862,1
391,1014,24,0.201917311693544,1
391,1015,24,0.290624327540873,1
391,1016,24,0.236109444030108,1
391,1017,24,0.117084908764137,1
392,1012,24,0.12012653207623,1
392,1013,24,0.164576904733999,1
392,1014,24,0.222224281865471,1
392,1015,24,0.255516849964971,1
392,1016,24,0.213374437112847,1
392,1017,24,0.119640006131508,1
393,1012,24,0.129751765776386,1
393,1013,24,0.204886801693005,1
393,1014,24,0.224414590766107,1
393,1015,24,0.203474496204457,1
393,1016,24,0.18120367451452,1
393,1017,24,0.126699979027755,1
394,1012,24,0.121567125600196,1
394,1013,24,0.17787827580632,1
394,1014,24,0.178878202507097,1
394,1015,24,0.162296726558475,1
394,1016,24,0.168983596519625,1
394,1017,24,0.14422559465643,1
395,1013,24,0.113985555248205,1
395,1014,24,0.123885284172983,1
395,1015,24,0.139844105366973,1
395,1016,24,0.167574894752492,1
395,1017,24,0.150301468961642,1
396,1015,24,0.125940029553342,1
396,1016,24,0.158770108294419,1
396,1017,24,0.140299787696057,1
397,1016,24,0.124599869154293,1
378,1019,25,0.123823620495442,1
378,1020,25,0.141526065787654,1
378,1021,25,0.121716232517947,1
379,1017,25,0.119191966989347,1
379,1018,25,0.138471417260252,1
379,1019,25,0.191259941560358,1
379,1020,25,0.185748320524498,1
379,1021,25,0.117912834317,1
380,1018,25,0.179831693019841,1
380,1019,25,0.227899342266668,1
380,1020,25,0.166883533753632,1
381,1018,25,0.163288904080524,1
381,1019,25,0.170871922987201,1
388,1014,25,0.116630392344923,1
388,1015,25,0.122687247009335,1
389,1014,25,0.151685368646097,1
389,1015,25,0.186530092534144,1
389,1016,25,0.132838211845682,1
390,1013,25,0.114961633792562,1
390,1014,25,0.185130447178018,1
390,1015,25,0.268663414115734,1
390,1016,25,0.192157103316479,1
391,1013,25,0.12497230080795,1
391,1014,25,0.214910776568519,1
391,1015,25,0.31617365245315,1
391,1016,25,0.242005532678075,1
391,1017,25,0.114307841000608,1
392,1012,25,0.114239016987707,1
392,1013,25,0.157731200162653,1
392,1014,25,0.222638050323591,1
392,1015,25,0.267030786992459,1
392,1016,25,0.217398734015022,1
392,1017,25,0.117814956772302,1
393,1012,25,0.133468733547716,1
393,1013,25,0.206149399643566,1
393,1014,25,0.230938527767215,1
393,1015,25,0.211714864517034,1
393,1016,25,0.176161667841841,1
393,1017,25,0.119717073951567,1
394,1012,25,0.138774412503905,1
394,1013,25,0.196210465527319,1
394,1014,25,0.19878659637981,1
394,1015,25,0.176600085283363,1
394,1016,25,0.163277138990023,1
394,1017,25,0.135019841195068,1
395,1013,25,0.126162341478654,1
395,1014,25,0.139344989951035,1
395,1015,25,0.162936657977537,1
395,1016,25,0.188201677534674,1
395,1017,25,0.156543868171443,1
396,1015,25,0.187059356730546,1
396,1016,25,0.226154293167495,1
396,1017,25,0.166845317819022,1
397,1016,25,0.188761856007917,1
397,1017,25,0.134272693175484,1
378,1018,26,0.120490755253331,1
379,1017,26,0.143851502464474,1
379,1018,26,0.131492657641378,1
379,1019,26,0.155155493277387,1
379,1020,26,0.152695140807995,1
379,1021,26,0.115711172516221,1
380,1016,26,0.130675001516861,1
380,1017,26,0.124282305925705,1
380,1018,26,0.164468675322884,1
380,1019,26,0.199826658644579,1
380,1020,26,0.154956899962955,1
381,1018,26,0.15461090737654,1
381,1019,26,0.159371446919115,1
389,1014,26,0.13195676043063,1
389,1015,26,0.153248123615276,1
390,1014,26,0.174518794843956,1
390,1015,26,0.237218942704881,1
390,1016,26,0.164855156779311,1
391,1013,26,0.125021563444151,1
391,1014,26,0.213920883758739,1
391,1015,26,0.300833623201295,1
391,1016,26,0.217573785371586,1
392,1013,26,0.146542092690918,1
392,1014,26,0.208203308866342,1
392,1015,26,0.252415058637494,1
392,1016,26,0.195030835607368,1
393,1012,26,0.128537299882759,1
393,1013,26,0.183497502079324,1
393,1014,26,0.213643562085949,1
393,1015,26,0.204820709913334,1
393,1016,26,0.15614000405878,1
394,1012,26,0.142053327916602,1
394,1013,26,0.185129669904771,1
394,1014,26,0.198638702479398,1
394,1015,26,0.183284140573211,1
394,1016,26,0.14607022894607,1
394,1017,26,0.118073105705016,1
395,1013,26,0.126216020440119,1
395,1014,26,0.145588272425888,1
395,1015,26,0.171111582238147,1
395,1016,26,0.176587531142748,1
395,1017,26,0.142605215475218,1
396,1014,26,0.15808975866655,1
396,1015,26,0.227434250220557,1
396,1016,26,0.244832075061419,1
396,1017,26,0.171152824827671,1
396,1018,26,0.121162272230674,1
397,1015,26,0.235867947587853,1
397,1016,26,0.220507520801716,1
397,1017,26,0.149188354788587,1
397,1018,26,0.119270106504336,1
398,1018,26,0.116398317396562,1
398,1019,26,0.134480260462852,1
398,1020,26,0.11403095507191,1
399,1020,26,0.168158685844808,1
378,1018,27,0.127246743649065,1
379,1017,27,0.163823738735191,1
379,1018,27,0.127146487177158,1
379,1019,27,0.128334031151981,1
379,1020,27,0.122714922647651,1
380,1016,27,0.158892917467337,1
380,1017,27,0.140217573384958,1
380,1018,27,0.149377597270329,1
380,1019,27,0.168131646157331,1
380,1020,27,0.133602754298368,1
381,1018,27,0.136960280300749,1
381,1019,27,0.140000384396951,1
389,1014,27,0.120396834736068,1
389,1015,27,0.131792225816627,1
390,1014,27,0.156931939504965,1
390,1015,27,0.187545364493103,1
390,1016,27,0.133806741418055,1
391,1013,27,0.137293542093539,1
391,1014,27,0.209779030166493,1
391,1015,27,0.25759732780053,1
391,1016,27,0.18047503973044,1
392,1013,27,0.15460504249659,1
392,1014,27,0.210286330505252,1
392,1015,27,0.234010382297842,1
392,1016,27,0.170336205067482,1
393,1012,27,0.129161509183884,1
393,1013,27,0.170361690208468,1
393,1014,27,0.204545932043895,1
393,1015,27,0.200253994053907,1
393,1016,27,0.142982793619915,1
394,1012,27,0.145727675204927,1
394,1013,27,0.170840125445307,1
394,1014,27,0.193486181683335,1
394,1015,27,0.186174548908294,1
394,1016,27,0.132944062329589,1
395,1013,27,0.134129333369009,1
395,1014,27,0.159197867670973,1
395,1015,27,0.178072193704407,1
395,1016,27,0.15321288722811,1
395,1017,27,0.122390835034541,1
396,1014,27,0.175240010201594,1
396,1015,27,0.236706696081827,1
396,1016,27,0.218567352563984,1
396,1017,27,0.175919641440554,1
396,1018,27,0.155711844268736,1
397,1014,27,0.187665841846281,1
397,1015,27,0.247384192881345,1
397,1016,27,0.216576190490547,1
397,1017,27,0.19009994367831,1
397,1018,27,0.182776569366503,1
397,1019,27,0.119420944621589,1
398,1015,27,0.12849831845177,1
398,1018,27,0.139598616566679,1
398,1020,27,0.132203050057905,1
399,1021,27,0.11959556023406,1
400,1022,27,0.118825883067201,1
379,1018,28,0.125335098984099,1
380,1017,28,0.15199020108106,1
380,1018,28,0.139228999584324,1
380,1019,28,0.136288704439069,1
381,1016,28,0.130422953001443,1
381,1017,28,0.118335930054076,1
381,1018,28,0.120692210346534,1
381,1019,28,0.117157984226158,1
388,1015,28,0.119938950132787,1
389,1015,28,0.118327403602101,1
390,1014,28,0.136882293885036,1
390,1015,28,0.141110318815816,1
391,1013,28,0.154493692215623,1
391,1014,28,0.192583508353285,1
391,1015,28,0.19576867990173,1
391,1016,28,0.141346339014745,1
392,1012,28,0.11933971956735,1
392,1013,28,0.168761861660813,1
392,1014,28,0.20927290751447,1
392,1015,28,0.20247586495909,1
392,1016,28,0.145053214010741,1
393,1012,28,0.126859791117943,1
393,1013,28,0.1582399843867,1
393,1014,28,0.190122154850166,1
393,1015,28,0.183728670208897,1
393,1016,28,0.131002763512589,1
394,1012,28,0.136133355781613,1
394,1013,28,0.150382517362871,1
394,1014,28,0.176734164918351,1
394,1015,28,0.173889238845045,1
394,1016,28,0.121174213974186,1
395,1013,28,0.142631890079808,1
395,1014,28,0.179559117424601,1
395,1015,28,0.18408380164439,1
395,1016,28,0.132264372206292,1
396,1014,28,0.193335343566081,1
396,1015,28,0.222151312395257,1
396,1016,28,0.172248509237021,1
396,1017,28,0.159448491185439,1
396,1018,28,0.161078880703914,1
397,1015,28,0.213164596890078,1
397,1018,28,0.211992822140661,1
397,1019,28,0.123276726328591,1
398,1020,28,0.137764510796467,1
399,1021,28,0.125801274502008,1
400,1021,28,0.16005043043037,1
400,1022,28,0.13702301567322,1
380,1018,29,0.131130589631005,1
381,1017,29,0.127854064922384,1
388,1015,29,0.12799912059776,1
389,1015,29,0.121833011934772,1
390,1015,29,0.119782671102808,1
391,1014,29,0.168986199207313,1
391,1015,29,0.144768637787652,1
391,1016,29,0.114445041505449,1
392,1013,29,0.169958591592183,1
392,1014,29,0.188839983746039,1
392,1015,29,0.164745761458327,1
392,1016,29,0.126073838320381,1
393,1013,29,0.139669336655226,1
393,1014,29,0.164768655688491,1
393,1015,29,0.156548425819114,1
393,1016,29,0.119399086755754,1
393,1019,29,0.114453249982005,1
394,1013,29,0.128495126920713,1
394,1014,29,0.148582670499833,1
394,1015,29,0.144524656426382,1
395,1014,29,0.175026248281991,1
395,1015,29,0.162482035566516,1
396,1015,29,0.17502942803618,1
396,1018,29,0.138275779939529,1
397,1019,29,0.121687014110006,1
398,1020,29,0.127918013312194,1
399,1021,29,0.117526211538164,1
380,1023,30,0.116244146425843,1
381,1018,30,0.115554917039978,1
381,1024,30,0.13436028951497,1
382,1017,30,0.122760687554244,1
382,1024,30,0.12284654091736,1
393,1018,30,0.11541116859688,1
393,1019,30,0.129569695406871,1
381,1019,31,0.114316661874267,1
381,1020,31,0.131238277306222,1
381,1021,31,0.128002394566888,1
381,1023,31,0.143521903277436,1
382,1020,31,0.120903875983745,1
382,1021,31,0.114072291876373,1
386,1018,31,0.119119068180336,1
386,1019,31,0.126795136116091,1
387,1018,31,0.126092174902874,1
387,1019,31,0.142218639803852,1
387,1020,31,0.117842067120984,1
388,1018,31,0.120920740457817,1
388,1019,31,0.129181836056962,1
392,1019,31,0.114291235617618,1
393,1019,31,0.130283597329873,1
386,1019,32,0.167941225988852,1
387,1018,32,0.166110193981022,1
387,1019,32,0.184874900932992,1
