x,y,z,signal,mito.p
707,940,28,0.241469402567998,1
707,941,28,0.193707610343594,1
707,942,28,0.210998689658629,1
707,943,28,0.177546745213033,1
708,942,28,0.19238604561812,1
711,933,28,0.174558977515416,1
711,940,28,0.209839893017053,1
711,941,28,0.195307109138962,1
712,934,28,0.127845244048725,1
712,940,28,0.16535337715333,1
712,941,28,0.148430289612954,1
718,936,28,0.142647058684978,1
718,937,28,0.139452265435893,1
718,938,28,0.132103476644305,1
718,939,28,0.145608599298965,1
718,940,28,0.120934684268781,1
719,937,28,0.156936826904922,1
719,939,28,0.204688455692787,1
719,940,28,0.157694326790922,1
705,941,29,0.195038914538383,1
705,942,29,0.202302650793836,1
705,943,29,0.210959402029088,1
706,940,29,0.180682465695399,1
706,941,29,0.158067123527468,1
706,942,29,0.166396913593972,1
706,943,29,0.178518737184413,1
707,939,29,0.243748391279917,1
707,940,29,0.187591859565473,1
707,941,29,0.163334233243025,1
707,942,29,0.161719082990925,1
707,943,29,0.143183047472647,1
708,939,29,0.178794739848058,1
708,940,29,0.13775527773245,1
708,941,29,0.145384650389089,1
708,942,29,0.161037355469573,1
708,943,29,0.123563222181061,1
708,944,29,0.123187375235867,1
709,932,29,0.136741371890106,1
709,939,29,0.113789187761706,1
709,942,29,0.126067608357543,1
710,932,29,0.145740347114215,1
710,938,29,0.125809176780012,1
710,940,29,0.113800858637268,1
710,941,29,0.116685190108788,1
710,945,29,0.143984274867185,1
711,932,29,0.136464957036104,1
711,933,29,0.210695623753772,1
711,939,29,0.121001011585799,1
711,940,29,0.183351398262752,1
711,941,29,0.176515468491321,1
712,933,29,0.162165402710451,1
712,934,29,0.167828356491993,1
712,935,29,0.149183208297547,1
712,940,29,0.153694078251913,1
712,941,29,0.140155650616335,1
718,935,29,0.125746441407541,1
718,936,29,0.174233476678222,1
718,937,29,0.132553541407654,1
718,938,29,0.115634081142428,1
718,939,29,0.147134669326292,1
718,940,29,0.13788295075159,1
719,936,29,0.213477013627626,1
719,937,29,0.149985554494486,1
719,938,29,0.147739588118667,1
719,939,29,0.22074607302713,1
719,940,29,0.193759522774954,1
719,941,29,0.124997703510863,1
720,939,29,0.160558767133458,1
720,940,29,0.14145063495216,1
703,942,30,0.197319010275835,1
703,943,30,0.172207219540028,1
704,941,30,0.204804245852753,1
704,942,30,0.175528390352842,1
704,943,30,0.17099486170566,1
705,940,30,0.147392252969372,1
705,941,30,0.137416304158987,1
705,942,30,0.144909182922826,1
705,943,30,0.169434238349475,1
706,939,30,0.186134436898037,1
706,940,30,0.128340755743248,1
706,941,30,0.117410138733382,1
706,942,30,0.129362422541188,1
706,943,30,0.159100790953255,1
707,933,30,0.164641901265005,1
707,938,30,0.222689750771338,1
707,939,30,0.168437903593245,1
707,940,30,0.134051653151848,1
707,941,30,0.133703010770275,1
707,942,30,0.127766939657593,1
707,943,30,0.1296171797361,1
708,932,30,0.114203109319101,1
708,933,30,0.164697558740188,1
708,938,30,0.210931608622099,1
708,939,30,0.128723586370792,1
708,941,30,0.126998334185664,1
708,942,30,0.121586074579792,1
709,932,30,0.157414944166343,1
709,933,30,0.193840877374735,1
709,938,30,0.151277241307447,1
709,944,30,0.135101761084482,1
710,931,30,0.114760673327788,1
710,932,30,0.17320627475262,1
710,933,30,0.21343994004915,1
710,937,30,0.15990615202824,1
710,944,30,0.119199881044218,1
710,945,30,0.207077110593641,1
711,932,30,0.146020978086736,1
711,933,30,0.211972966342278,1
711,934,30,0.248396461739125,1
711,936,30,0.149072576405489,1
711,940,30,0.136702837980077,1
711,941,30,0.134976796744836,1
711,945,30,0.150583807579931,1
712,932,30,0.13168346644648,1
712,933,30,0.19417612945811,1
712,934,30,0.197879612716303,1
712,935,30,0.135668946793809,1
712,940,30,0.123528115339436,1
712,941,30,0.114700411097465,1
712,945,30,0.123428848124388,1
713,933,30,0.128925171009536,1
713,934,30,0.115966247686552,1
713,945,30,0.118016140997555,1
718,935,30,0.135368966428202,1
718,936,30,0.169026075680222,1
718,939,30,0.133105499627474,1
718,940,30,0.148075582144686,1
718,941,30,0.128023604705019,1
718,942,30,0.117957103561438,1
719,935,30,0.172416800671715,1
719,936,30,0.217580144879965,1
719,937,30,0.126091091431076,1
719,938,30,0.116452750077539,1
719,939,30,0.20882159440318,1
719,940,30,0.2312476469819,1
719,941,30,0.187695095584824,1
720,936,30,0.120565891667141,1
720,939,30,0.168248402020421,1
720,940,30,0.201200924851527,1
701,940,31,0.206275270801999,1
701,943,31,0.189158265363536,1
702,940,31,0.194454169519809,1
702,941,31,0.197339278264576,1
702,942,31,0.175985309253,1
702,943,31,0.161497336355246,1
702,944,31,0.194158935231752,1
703,940,31,0.194803553844026,1
703,941,31,0.188672128055438,1
703,942,31,0.162770250841622,1
703,943,31,0.161589655218547,1
704,940,31,0.160393996982107,1
704,941,31,0.145542554626764,1
704,942,31,0.134847474964264,1
704,943,31,0.155516654468973,1
705,932,31,0.119600294534742,1
705,939,31,0.1679901470959,1
705,940,31,0.120784364333691,1
705,942,31,0.115125249810911,1
705,943,31,0.153599886866701,1
706,937,31,0.194124005043137,1
706,938,31,0.169646834359208,1
706,939,31,0.132731207228773,1
706,942,31,0.11412560575495,1
706,943,31,0.156092225307866,1
707,933,31,0.132444122532935,1
707,936,31,0.200609278588675,1
707,937,31,0.201649741266935,1
707,938,31,0.155889462982385,1
707,943,31,0.135109757577425,1
708,933,31,0.116136741395444,1
708,934,31,0.137142433108335,1
708,935,31,0.168048866556598,1
708,936,31,0.215517709205214,1
708,937,31,0.209592720124726,1
708,938,31,0.138324159310678,1
709,932,31,0.144944560632401,1
709,933,31,0.155801737097358,1
709,934,31,0.181714896550113,1
709,937,31,0.168002995658199,1
710,931,31,0.116438770935973,1
710,932,31,0.162382344384243,1
710,933,31,0.182821792537197,1
710,934,31,0.216867432420566,1
710,936,31,0.173105029023854,1
710,944,31,0.146461362265108,1
711,932,31,0.136330029466664,1
711,933,31,0.186281659517009,1
711,934,31,0.210004886928883,1
711,935,31,0.165271221726568,1
711,945,31,0.157111218756913,1
712,931,31,0.11381181112392,1
712,932,31,0.157147585723347,1
712,933,31,0.212238228502883,1
712,934,31,0.196444389443857,1
713,930,31,0.131708610058311,1
713,931,31,0.165303042822197,1
713,932,31,0.176128044885504,1
713,933,31,0.167464781042598,1
713,934,31,0.122329242018205,1
714,930,31,0.144087440225332,1
714,931,31,0.171044465871015,1
714,932,31,0.148426886098284,1
718,935,31,0.123350802824338,1
718,936,31,0.134566832214876,1
718,939,31,0.117294537003294,1
718,940,31,0.163619539631891,1
718,941,31,0.169384905052069,1
718,942,31,0.141073657427699,1
719,935,31,0.160241486549687,1
719,936,31,0.177551361745042,1
719,939,31,0.177451246595543,1
719,940,31,0.275458949232092,2
719,941,31,0.278121840266485,2
719,942,31,0.208275925030535,1
719,944,31,0.209549004393054,2
720,939,31,0.161542194443052,1
720,940,31,0.273455916076347,2
720,941,31,0.285164265630353,2
721,940,31,0.144972471808064,1
696,939,32,0.139022704198632,1
696,940,32,0.128949231149569,1
697,940,32,0.176707937834722,1
697,941,32,0.163962270026045,1
698,941,32,0.199472434027873,1
699,935,32,0.173928714904464,1
699,941,32,0.224250279912584,1
700,939,32,0.219323286126624,1
700,940,32,0.208725895578945,1
700,941,32,0.196733794182567,1
700,942,32,0.214233983554594,1
701,939,32,0.171711684291769,1
701,940,32,0.155593545636021,1
701,941,32,0.153794299393218,1
701,942,32,0.152075383162735,1
701,943,32,0.152723028429923,1
701,944,32,0.198033724802686,1
702,932,32,0.13915441668328,1
702,939,32,0.164284367348569,1
702,940,32,0.137844593494572,1
702,941,32,0.138570142739401,1
702,942,32,0.131584905843474,1
702,943,32,0.135909819062094,1
702,944,32,0.173725846587177,1
703,932,32,0.119507622365421,1
703,939,32,0.166132782012635,1
703,940,32,0.12932043800902,1
703,941,32,0.125400649027871,1
703,942,32,0.1247101948478,1
703,943,32,0.143842198739253,1
703,944,32,0.19210957187978,1
704,932,32,0.141977567328822,1
704,939,32,0.144096414198267,1
704,943,32,0.144000715374031,1
704,944,32,0.209570438291665,1
705,932,32,0.146739037243919,1
705,937,32,0.182085679442338,1
705,938,32,0.148361394938849,1
705,943,32,0.151586195645988,1
706,932,32,0.113917802930235,1
706,933,32,0.204426043534085,1
706,936,32,0.15968660766676,1
706,937,32,0.13302039998387,1
706,943,32,0.160192588996373,1
707,934,32,0.124198148431491,1
707,935,32,0.125776319320055,1
707,936,32,0.131509981413277,1
707,937,32,0.12627079465025,1
707,943,32,0.141804152956823,1
708,936,32,0.123455499175242,1
708,937,32,0.114944463119939,1
708,943,32,0.119329261709127,1
709,932,32,0.11763036615317,1
709,933,32,0.11754565514619,1
709,934,32,0.123449834502038,1
709,935,32,0.128937890026293,1
709,936,32,0.118782308657938,1
710,932,32,0.131400397662414,1
710,933,32,0.139060201744333,1
710,934,32,0.147311557874164,1
710,935,32,0.131048528419183,1
710,944,32,0.159088130820834,1
711,932,32,0.121410269503717,1
711,933,32,0.153177120881912,1
711,934,32,0.152743732162757,1
711,945,32,0.156352270316227,1
711,947,32,0.127949198456985,1
712,931,32,0.130702465171564,1
712,932,32,0.165106298475941,1
712,933,32,0.193814402976891,1
712,934,32,0.155661003532306,1
713,930,32,0.143675308751776,1
713,931,32,0.217859115314186,1
713,932,32,0.226531529783038,1
713,933,32,0.179507652514201,1
714,930,32,0.162743128716073,1
714,931,32,0.232525743289918,1
714,932,32,0.194860506774619,1
715,930,32,0.116458450081345,1
715,931,32,0.14771648190489,1
715,932,32,0.116287438190289,1
717,941,32,0.12307346937468,1
717,944,32,0.123030118725897,1
718,940,32,0.194845137962704,2
718,941,32,0.23189259534646,2
718,942,32,0.173036381663964,1
718,943,32,0.174496242142945,1
718,944,32,0.197661034057947,2
719,935,32,0.127526573794605,1
719,936,32,0.127422171865384,1
719,939,32,0.167681004327481,2
719,940,32,0.340502022417879,2
719,941,32,0.394629187901144,2
719,942,32,0.269947540179845,2
719,943,32,0.295067975136301,2
719,944,32,0.330078646862435,2
719,945,32,0.281294646104193,2
720,939,32,0.170779180156676,2
720,940,32,0.349257487355413,2
720,941,32,0.385725758401994,2
720,942,32,0.252808735759883,2
720,943,32,0.275510602572369,2
720,944,32,0.302368172573127,2
720,945,32,0.266901217897673,2
720,946,32,0.22311715684187,2
721,940,32,0.180152706870568,2
721,941,32,0.181496105908143,2
695,938,33,0.14703685066593,1
695,939,33,0.118191215907853,1
695,940,33,0.146245091872756,1
696,939,33,0.140533605620788,1
696,940,33,0.128970241080954,1
697,939,33,0.166565687880228,1
697,940,33,0.128384330152511,1
697,941,33,0.154601156130359,1
698,935,33,0.194573810715404,1
698,939,33,0.199729593703729,1
698,940,33,0.171352737151249,1
698,941,33,0.170355095162741,1
699,935,33,0.167125842799736,1
699,936,33,0.180899442699793,1
699,938,33,0.187552701481473,1
699,939,33,0.20165683094109,1
699,940,33,0.200711572458637,1
699,941,33,0.192076172683924,1
699,942,33,0.219011528893649,1
699,944,33,0.224151660425241,1
700,936,33,0.163651937794021,1
700,937,33,0.15707972741357,1
700,938,33,0.159549124517101,1
700,939,33,0.165638118252562,1
700,940,33,0.168621952476477,1
700,941,33,0.161326960415028,1
700,942,33,0.160977611421413,1
700,943,33,0.186948866160896,1
700,944,33,0.242281205589433,1
701,938,33,0.172991700229168,1
701,939,33,0.135025835620558,1
701,940,33,0.12349735416187,1
701,941,33,0.118056936066119,1
701,943,33,0.133398119450976,1
701,944,33,0.204114309854845,1
702,939,33,0.127192346298691,1
702,943,33,0.118187423756561,1
702,944,33,0.154517999669871,1
703,932,33,0.169209735926832,1
703,938,33,0.172301622908852,1
703,939,33,0.115261366843954,1
703,943,33,0.128426397122751,1
703,944,33,0.158387937171449,1
704,932,33,0.184492294065929,1
704,937,33,0.181475013538687,1
704,938,33,0.135205267971782,1
704,943,33,0.143428029867643,1
704,944,33,0.189096954992016,1
705,932,33,0.161289969274624,1
705,936,33,0.153083341687058,1
705,937,33,0.125793572430749,1
705,943,33,0.163121083720525,1
705,944,33,0.245583344984581,1
706,933,33,0.163833372212698,1
706,935,33,0.141214756075639,1
706,943,33,0.172174397410672,1
706,944,33,0.269773690063753,1
707,943,33,0.153046986497492,1
708,943,33,0.133368959927372,1
710,944,33,0.156523941711855,1
710,947,33,0.15560366196509,1
711,933,33,0.113901385977124,1
711,945,33,0.148410386707101,1
711,946,33,0.15622811858043,1
712,931,33,0.127921169512649,1
712,932,33,0.149692216282075,1
712,933,33,0.144634499268327,1
713,930,33,0.135782358026566,1
713,931,33,0.222162147113235,1
713,932,33,0.229877832430817,1
713,933,33,0.155746703796146,1
714,930,33,0.166498783496708,1
714,931,33,0.257077190676339,1
714,932,33,0.212128939173705,1
715,930,33,0.148067291230059,1
715,931,33,0.18326655771023,1
715,932,33,0.125556421652553,1
715,945,33,0.117200545824827,1
716,944,33,0.126236453305004,1
716,945,33,0.141835031903063,1
717,941,33,0.124764015131673,1
717,944,33,0.145726827270476,1
717,945,33,0.170908584375319,1
718,940,33,0.207954016137888,2
718,941,33,0.287771475635828,2
718,942,33,0.212473954280128,2
718,943,33,0.193582363359132,2
718,944,33,0.230199976860811,2
718,945,33,0.245086125644289,2
719,939,33,0.154652102858594,2
719,940,33,0.357245265416673,2
719,941,33,0.470029709738848,2
719,942,33,0.331576546623016,2
719,943,33,0.341033324012335,2
719,944,33,0.398634429831917,2
719,945,33,0.36683733545832,2
719,946,33,0.280872139210486,2
719,947,33,0.236485903372405,2
720,939,33,0.175990797273194,2
720,940,33,0.358502752206797,2
720,941,33,0.413626005132076,2
720,942,33,0.293468134811779,2
720,943,33,0.346508907834048,2
720,944,33,0.413466499240439,2
720,945,33,0.384774635039591,2
720,946,33,0.329554199404788,2
720,947,33,0.293439870330095,2
721,939,33,0.121092824043803,1
721,940,33,0.183330812298592,2
721,941,33,0.182569744021779,2
721,942,33,0.144411739822054,2
721,943,33,0.176007661747265,2
721,944,33,0.20822269359003,2
721,945,33,0.225321268231062,2
721,946,33,0.249638261741914,2
721,947,33,0.25216487086712,2
694,939,34,0.122123311715402,1
694,940,34,0.189408170489092,1
695,938,34,0.165925768238034,1
695,939,34,0.14142239402421,1
696,939,34,0.137938066490874,1
696,940,34,0.136353583201401,1
697,939,34,0.134367096544309,1
697,941,34,0.156110879865778,1
698,935,34,0.192595944725226,1
698,938,34,0.181651937417162,1
698,939,34,0.14716832761323,1
698,940,34,0.126080610019118,1
698,941,34,0.150080358276801,1
698,942,34,0.214081143369887,1
698,944,34,0.189541366859028,1
699,934,34,0.164836125361644,1
699,935,34,0.14397534800172,1
699,936,34,0.14254174993697,1
699,937,34,0.139523103293114,1
699,938,34,0.153132133248565,1
699,939,34,0.148843681211318,1
699,940,34,0.14815128384813,1
699,941,34,0.157524916553829,1
699,942,34,0.171215242224724,1
699,943,34,0.189340418171122,1
699,944,34,0.182357901731558,1
700,935,34,0.153699212966086,1
700,936,34,0.124095889892131,1
700,937,34,0.129920398740233,1
700,938,34,0.136101534685983,1
700,939,34,0.127161220038236,1
700,940,34,0.128498082914422,1
700,941,34,0.127995140016589,1
700,942,34,0.122224828312117,1
700,943,34,0.149353007171264,1
700,944,34,0.215081729575238,1
701,936,34,0.170089927217075,1
701,937,34,0.164545743142943,1
701,938,34,0.137291492918617,1
701,943,34,0.119687278477125,1
701,944,34,0.193567830704799,1
702,938,34,0.14573258615862,1
702,944,34,0.135250926886569,1
703,932,34,0.204661580881452,1
703,936,34,0.221210175816382,1
703,937,34,0.182397366014109,1
703,938,34,0.12498567932928,1
703,943,34,0.113825648943078,1
703,944,34,0.134512411310767,1
704,932,34,0.20179063970813,1
704,933,34,0.259291854138693,1
704,935,34,0.199172194571184,1
704,936,34,0.157274987874537,1
704,937,34,0.125351433499139,1
704,943,34,0.141337847893373,1
704,944,34,0.181315413432111,1
704,945,34,0.174337018896125,1
705,932,34,0.15884273623548,1
705,933,34,0.202913045829538,1
705,935,34,0.138866472276124,1
705,943,34,0.16560049116132,1
705,944,34,0.243969325311748,1
706,933,34,0.118085954267315,1
706,943,34,0.170208826470026,1
706,944,34,0.264649787055395,1
707,943,34,0.157795077891259,1
707,944,34,0.252951259408775,1
708,943,34,0.145285524496449,1
709,943,34,0.114417895826165,1
710,944,34,0.142990660567317,1
710,946,34,0.196840233509842,1
711,945,34,0.130335427323161,1
711,946,34,0.124146271330733,1
712,932,34,0.114092877840533,1
713,931,34,0.175477125649188,1
713,932,34,0.177102168469878,1
714,930,34,0.145245812899683,1
714,931,34,0.21779792271134,1
714,932,34,0.178015723625376,1
715,930,34,0.158562011048021,1
715,931,34,0.180921689202252,1
715,945,34,0.137717179566513,1
716,930,34,0.128129396304589,1
716,931,34,0.114739616288934,1
716,944,34,0.130111961264847,1
716,945,34,0.18046335707801,1
716,946,34,0.141230242656228,1
717,944,34,0.149898617659573,1
717,945,34,0.206668123543673,1
718,940,34,0.17993086601995,1
718,941,34,0.287634534222069,2
718,942,34,0.229816969580257,2
718,943,34,0.188068080751247,2
718,944,34,0.223111268408186,2
718,945,34,0.270917082562812,2
718,946,34,0.276617745873668,2
718,947,34,0.238429769546491,2
719,939,34,0.12818855150938,1
719,940,34,0.300080987161519,2
719,941,34,0.457536714619558,2
719,942,34,0.376304240953576,2
719,943,34,0.347495597335903,2
719,944,34,0.396551007779516,2
719,945,34,0.402512128289091,2
719,946,34,0.355678588750661,2
719,947,34,0.297564388373575,2
719,948,34,0.189835882758176,2
720,939,34,0.162394969186062,1
720,940,34,0.294787685692934,2
720,941,34,0.380506910288912,2
720,942,34,0.340537211697576,2
720,943,34,0.392137179212265,2
720,944,34,0.476136392329095,2
720,945,34,0.468332992903354,2
720,946,34,0.417234531508679,2
720,947,34,0.383563596214368,2
720,948,34,0.240571863952121,2
721,939,34,0.118097354274927,1
721,940,34,0.15712935513266,1
721,941,34,0.175317478435143,2
721,942,34,0.177219348300193,2
721,943,34,0.21650350366515,2
721,944,34,0.265255094484394,2
721,945,34,0.291892366404159,2
721,946,34,0.322769734543757,2
721,947,34,0.35492672998413,2
721,948,34,0.22755390319302,2
722,945,34,0.134786447237561,2
722,946,34,0.175383040255782,2
722,947,34,0.208035512060077,2
693,940,35,0.143574769635053,1
694,939,35,0.139507522497585,1
695,938,35,0.162285185228454,1
695,939,35,0.156291136597718,1
696,939,35,0.135647383349658,1
696,940,35,0.142837137324303,1
697,941,35,0.159810099897984,1
697,944,35,0.160411933151109,1
698,933,35,0.116633218793092,1
698,934,35,0.118033135017168,1
698,935,35,0.170254968236375,1
698,938,35,0.140372038777361,1
698,941,35,0.132750368191981,1
698,942,35,0.191096078227794,1
698,943,35,0.192665875763659,1
698,944,35,0.147616943821893,1
699,934,35,0.153164790501777,1
699,935,35,0.119426291319375,1
699,937,35,0.119026702209566,1
699,938,35,0.128501027131264,1
699,941,35,0.121683151297509,1
699,942,35,0.132527632299444,1
699,943,35,0.14134394831067,1
700,935,35,0.122486816503593,1
700,938,35,0.118326920750539,1
700,943,35,0.119185784133978,1
701,931,35,0.130003555200721,1
701,935,35,0.13915710180904,1
701,936,35,0.115064598943964,1
701,937,35,0.121188640636712,1
702,932,35,0.224005862807221,1
702,934,35,0.202218351977214,1
702,935,35,0.1603765318878,1
702,936,35,0.151657375032363,1
702,937,35,0.143647786212737,1
703,932,35,0.209010730893116,1
703,933,35,0.241744675065866,1
703,934,35,0.197840537070375,1
703,935,35,0.172288903892095,1
703,936,35,0.158325743534877,1
703,937,35,0.134231438809093,1
703,944,35,0.118194160124695,1
704,931,35,0.115175619472645,1
704,932,35,0.18948824141033,1
704,933,35,0.197307021424854,1
704,934,35,0.170298048017209,1
704,935,35,0.139790273306232,1
704,943,35,0.132512781669692,1
704,944,35,0.173420236878968,1
704,945,35,0.159916468564055,1
705,932,35,0.14505872558467,1
705,933,35,0.134736336666909,1
705,934,35,0.116357298567518,1
705,943,35,0.151742521783436,1
705,944,35,0.221308159352887,1
706,943,35,0.156538368374382,1
706,944,35,0.235306874072689,1
706,945,35,0.230542071304127,1
707,943,35,0.163365701032633,1
707,944,35,0.266465591573717,1
708,943,35,0.161073027600832,1
709,943,35,0.125142500095157,1
709,944,35,0.226259083733339,1
710,944,35,0.14639494073315,1
710,945,35,0.181989109129918,1
710,946,35,0.133852176572363,1
711,945,35,0.12532157914036,1
713,931,35,0.12897446897634,1
713,932,35,0.121710002555109,1
714,930,35,0.125505710461665,1
714,931,35,0.16312249694461,1
714,932,35,0.13146633634281,1
715,930,35,0.160994793870904,1
715,931,35,0.160001709530067,1
715,945,35,0.147061169897046,1
715,946,35,0.113877478936366,1
716,930,35,0.15217063446601,1
716,931,35,0.120095806229266,1
716,944,35,0.118530189481317,1
716,945,35,0.188399481798993,1
716,946,35,0.14687511894636,1
717,930,35,0.136009427806296,1
717,931,35,0.116158787691157,1
717,944,35,0.13794023343447,1
717,945,35,0.209679774728312,1
717,946,35,0.201896372423363,2
718,930,35,0.152859746083202,1
718,931,35,0.161499161769688,1
718,940,35,0.145896202176968,1
718,941,35,0.245750176087721,2
718,942,35,0.219761927328626,2
718,943,35,0.172813704655763,2
718,944,35,0.197111313442927,2
718,945,35,0.262374072312604,2
718,946,35,0.307096019531887,2
718,947,35,0.252920686661087,2
719,930,35,0.148879117805229,1
719,931,35,0.17256709705307,1
719,932,35,0.12433401815032,1
719,940,35,0.227035061524239,2
719,941,35,0.379728812661885,2
719,942,35,0.36578533145004,2
719,943,35,0.313209909564964,2
719,944,35,0.337339815760803,2
719,945,35,0.377252161008055,2
719,946,35,0.40337367679829,2
719,947,35,0.343872467643764,2
719,948,35,0.183891956474959,2
720,939,35,0.14250823297244,1
720,940,35,0.224050567795751,2
720,941,35,0.329680541637915,2
720,942,35,0.36152302405835,2
720,943,35,0.385605257495081,2
720,944,35,0.456783937257373,2
720,945,35,0.477921718314668,2
720,946,35,0.460446354579053,2
720,947,35,0.434881036680891,2
720,948,35,0.245076374398108,2
721,940,35,0.13147770101982,1
721,941,35,0.176662514457282,2
721,942,35,0.218813230000901,2
721,943,35,0.257156025026503,2
721,944,35,0.317230956051746,2
721,945,35,0.356109598542608,2
721,946,35,0.380752787725828,2
721,947,35,0.428535848972699,2
721,948,35,0.272197251599487,2
722,944,35,0.148049013531903,2
722,945,35,0.186993441603885,2
722,946,35,0.226411123091064,2
722,947,35,0.271898684457965,2
694,939,36,0.144526611386365,1
695,935,36,0.151326009315219,1
695,938,36,0.141885589994675,1
695,939,36,0.152855188435531,1
696,939,36,0.123716686539738,1
696,940,36,0.137410462832772,1
697,935,36,0.215829136685903,1
697,938,36,0.142934779331654,1
697,941,36,0.149641858397208,1
697,943,36,0.207183809011998,1
697,944,36,0.124035639438675,1
698,932,36,0.141299549520691,1
698,933,36,0.12556471256718,1
698,935,36,0.136039164396401,1
698,936,36,0.158201733121488,1
698,937,36,0.135872392177597,1
698,942,36,0.165279583302399,1
698,943,36,0.153386360484446,1
699,931,36,0.15628714423968,1
699,932,36,0.276250660917797,1
699,933,36,0.226892467214143,1
699,934,36,0.130512233432963,1
700,931,36,0.169166243955641,1
700,934,36,0.161673082546984,1
701,931,36,0.125633442365142,1
701,932,36,0.23833235129962,1
701,934,36,0.163484199872094,1
702,932,36,0.200472337174916,1
702,933,36,0.233704984573246,1
702,934,36,0.162173469864598,1
702,935,36,0.115388050606235,1
703,932,36,0.184280946404136,1
703,933,36,0.2067368297879,1
703,934,36,0.154665858239681,1
703,935,36,0.121685883530739,1
704,932,36,0.163070419637107,1
704,933,36,0.150631998521202,1
704,934,36,0.118682935451084,1
704,943,36,0.115548757738344,1
704,944,36,0.152655970947128,1
705,932,36,0.127448716924432,1
705,943,36,0.128947688379944,1
706,943,36,0.139192773940299,1
706,944,36,0.20341290318812,1
707,943,36,0.167236592460468,1
709,943,36,0.129978105390338,1
710,944,36,0.143644618235414,1
710,945,36,0.148793605971267,1
711,944,36,0.115553821791312,1
711,945,36,0.117041381462344,1
715,929,36,0.114939681711787,1
715,930,36,0.14633412499006,1
715,931,36,0.122702874912333,1
715,945,36,0.134503142916148,1
716,929,36,0.13598976043779,1
716,930,36,0.160888648965313,1
716,945,36,0.160645480207891,1
716,946,36,0.133600446032364,1
717,929,36,0.137880630708719,1
717,930,36,0.165189525597634,1
717,931,36,0.127376265636382,1
717,944,36,0.116550851382717,1
717,945,36,0.186175903248041,1
717,946,36,0.184405981404986,1
717,947,36,0.134857532408997,1
718,929,36,0.147398906899435,1
718,930,36,0.207503598068518,1
718,931,36,0.194189248888358,1
718,932,36,0.119290645361026,1
718,941,36,0.183151474162307,1
718,942,36,0.187500011776867,2
718,943,36,0.1504803478001,1
718,944,36,0.16462939423186,2
718,945,36,0.236736891969759,2
718,946,36,0.30496264000811,2
718,947,36,0.248761167767788,2
719,930,36,0.193014965666192,1
719,931,36,0.211629058261388,1
719,932,36,0.143700770339027,1
719,940,36,0.162312766651831,1
719,941,36,0.27863265011172,2
719,942,36,0.31258721947973,2
719,943,36,0.266582747850298,2
719,944,36,0.275030035722536,2
719,945,36,0.339108088842426,2
719,946,36,0.445351189953522,2
719,947,36,0.39478918842121,2
719,948,36,0.194764525305567,2
720,931,36,0.121863443360051,1
720,940,36,0.165460947059872,1
720,941,36,0.278629446803796,2
720,942,36,0.356893443280911,2
720,943,36,0.364789879958862,2
720,944,36,0.416239574645931,2
720,945,36,0.459156222312585,2
720,946,36,0.506582939106624,2
720,947,36,0.474199003432062,2
720,948,36,0.252946666430501,2
721,941,36,0.179713147072911,1
721,942,36,0.262171580855072,2
721,943,36,0.316871054984969,2
721,944,36,0.393860370445603,2
721,945,36,0.436467663360225,2
721,946,36,0.451692279311869,2
721,947,36,0.465989396297051,2
721,948,36,0.307058498432452,2
722,943,36,0.163618903681053,2
722,944,36,0.214156962842005,2
722,945,36,0.258558155301644,2
722,946,36,0.288273264400659,2
722,947,36,0.329053847417776,2
722,948,36,0.262063233675283,2
723,946,36,0.174039158366645,2
723,947,36,0.208227027477222,2
692,940,37,0.178405255290451,1
693,939,37,0.116013684908312,1
694,939,37,0.142635835330376,1
695,934,37,0.118520756210555,1
695,935,37,0.210827995742992,1
695,937,37,0.160225870423556,1
695,938,37,0.119999836537081,1
695,939,37,0.137318450168023,1
696,934,37,0.146046321905312,1
696,938,37,0.138829021837892,1
696,940,37,0.121942642793104,1
696,943,37,0.193647501212546,1
697,935,37,0.205075891075471,1
697,937,37,0.186558086147879,1
697,941,37,0.130675025070595,1
697,942,37,0.188072485299643,1
697,943,37,0.162280804233793,1
698,932,37,0.143137400334727,1
698,933,37,0.120743251289708,1
698,936,37,0.122959751943372,1
698,942,37,0.134976361000744,1
698,943,37,0.123553765356564,1
699,931,37,0.157765129317541,1
699,932,37,0.243919273625432,1
699,933,37,0.18228678122952,1
700,931,37,0.14863325214518,1
700,932,37,0.232411884536201,1
700,933,37,0.183196991754685,1
701,932,37,0.163905847054483,1
701,933,37,0.158188590137505,1
702,932,37,0.150452566169978,1
702,933,37,0.170364716863381,1
702,934,37,0.1215028474581,1
703,932,37,0.146461998215946,1
703,933,37,0.162160150227604,1
703,934,37,0.119818413895271,1
704,932,37,0.132931190213555,1
704,933,37,0.120721534746281,1
704,944,37,0.121173954883104,1
705,944,37,0.134892874787969,1
706,943,37,0.120196910635623,1
707,943,37,0.165486738399409,1
709,943,37,0.13026087975272,1
710,944,37,0.135865314280309,1
715,929,37,0.12195281800651,1
715,930,37,0.123516632893752,1
716,929,37,0.160996360194264,1
716,930,37,0.154058183660341,1
716,945,37,0.116292820218677,1
717,928,37,0.116200466024774,1
717,929,37,0.187358701145314,1
717,930,37,0.191898294879192,1
717,931,37,0.129130229824153,1
717,945,37,0.146896128877746,1
717,946,37,0.148719435260582,1
718,929,37,0.211818665826018,1
718,930,37,0.263170376976582,1
718,931,37,0.202400493007933,1
718,941,37,0.12353731307285,1
718,942,37,0.141855841627703,1
718,943,37,0.125158198659359,1
718,944,37,0.135214442151462,1
718,945,37,0.199429542676918,2
718,946,37,0.256787644615221,2
718,947,37,0.210259738338734,2
719,930,37,0.217841473566868,1
719,931,37,0.211690250864234,1
719,932,37,0.137265418934263,1
719,941,37,0.187524531214728,1
719,942,37,0.234361898235053,2
719,943,37,0.21475763018526,2
719,944,37,0.214786389295374,2
719,945,37,0.281569871494592,2
719,946,37,0.412011537938283,2
719,947,37,0.3807092368703,2
719,948,37,0.193528554852126,2
720,931,37,0.12412283536467,1
720,932,37,0.126540755780934,1
720,933,37,0.142164371999019,1
720,934,37,0.126428051160219,1
720,940,37,0.12047003974363,1
720,941,37,0.223158022571638,1
720,942,37,0.312953503608621,2
720,943,37,0.328990534978804,2
720,944,37,0.35432340106885,2
720,945,37,0.398373737095851,2
720,946,37,0.491789262285722,2
720,947,37,0.45883546755294,2
720,948,37,0.245522223042939,2
721,941,37,0.171944065438682,1
721,942,37,0.277369604640199,2
721,943,37,0.360715083849411,2
721,944,37,0.437779041095426,2
721,945,37,0.465435930638208,2
721,946,37,0.475880645877324,2
721,947,37,0.442214209346348,2
721,948,37,0.295376293524004,2
721,949,37,0.143381852770692,2
722,943,37,0.204699549501848,2
722,944,37,0.274356917091231,2
722,945,37,0.314002516292589,2
722,946,37,0.332926552483185,2
722,947,37,0.356970063580009,2
722,948,37,0.3139053571368,2
723,945,37,0.145925950543941,2
723,946,37,0.197369968780938,2
723,947,37,0.254940678505842,2
693,939,38,0.118880857484077,1
694,939,38,0.132227027759866,1
695,934,38,0.164499542492256,1
695,935,38,0.247663893481344,1
695,936,38,0.200689526162923,1
695,937,38,0.120004570837763,1
695,939,38,0.114739804718812,1
695,940,38,0.161102823075274,1
695,943,38,0.167364583455028,1
696,934,38,0.177377570513287,1
696,935,38,0.317823450249048,1
696,937,38,0.16678889484746,1
696,941,38,0.143813204091792,1
696,942,38,0.176937151004312,1
696,943,38,0.14293649875429,1
697,935,38,0.178524284088943,1
697,936,38,0.190917646910296,1
697,937,38,0.132687668150112,1
697,942,38,0.131954475718361,1
697,943,38,0.11831201123645,1
698,932,38,0.142191458793966,1
699,931,38,0.13917052743784,1
699,932,38,0.18713456380556,1
699,933,38,0.136473224396996,1
700,931,38,0.120540324088084,1
700,932,38,0.151450196381619,1
700,933,38,0.117333659756692,1
703,933,38,0.116166996167713,1
708,943,38,0.175835448615738,1
709,943,38,0.121343306235861,1
709,944,38,0.194953485142493,1
710,944,38,0.115418046287423,1
715,929,38,0.120145916799918,1
716,928,38,0.129063125233889,1
716,929,38,0.183569976921109,1
716,930,38,0.139924246949414,1
717,928,38,0.160581673140489,1
717,929,38,0.244574774063155,1
717,930,38,0.205660706755249,1
717,931,38,0.118762158437871,1
718,928,38,0.162482047343384,1
718,929,38,0.2708654056688,1
718,930,38,0.281297095692606,1
718,931,38,0.183647951559954,1
718,945,38,0.160026429174673,1
718,946,38,0.196260693866645,2
718,947,38,0.16339064443772,2
718,948,38,0.114719595614408,1
719,929,38,0.175708093572016,1
719,930,38,0.214325254276699,1
719,931,38,0.184630460273894,1
719,932,38,0.118092879065328,1
719,941,38,0.124735173583488,1
719,942,38,0.164955966763984,1
719,943,38,0.164480487520854,1
719,944,38,0.169438878435218,2
719,945,38,0.231945190836127,2
719,946,38,0.334191340931077,2
719,947,38,0.314516859198035,2
719,948,38,0.179745439243235,2
720,931,38,0.120966870447299,1
720,932,38,0.135846412408183,1
720,933,38,0.167314331561967,1
720,934,38,0.133103120700266,1
720,941,38,0.170041865821345,1
720,942,38,0.251003035793763,1
720,943,38,0.279543590802662,2
720,944,38,0.297395437434309,2
720,945,38,0.344393546917344,2
720,946,38,0.446692292501961,2
720,947,38,0.412582197823484,2
720,948,38,0.230232174816196,2
721,933,38,0.305966900596079,3
721,934,38,0.261957359637642,1
721,935,38,0.137266349306785,1
721,941,38,0.152157785903712,1
721,942,38,0.253491911835921,2
721,943,38,0.354183609653187,2
721,944,38,0.439092397344345,2
721,945,38,0.469472051515221,2
721,946,38,0.502080736926641,2
721,947,38,0.419179504708297,2
721,948,38,0.258402794867321,2
722,942,38,0.139093930692476,1
722,943,38,0.227808943032749,2
722,944,38,0.32467136887146,2
722,945,38,0.368679661481956,2
722,946,38,0.404618538786594,2
722,947,38,0.384963795083262,2
722,948,38,0.321828315320065,2
722,949,38,0.18625113387679,2
723,944,38,0.142972465307233,2
723,945,38,0.176817710015463,2
723,946,38,0.22681631798974,2
723,947,38,0.292700636365384,2
723,948,38,0.33001561706828,2
691,940,39,0.117008841977805,1
693,939,39,0.117927308086996,1
694,939,39,0.117014106237519,1
694,943,39,0.132669943964723,1
695,934,39,0.180957514432786,1
695,935,39,0.22420720013175,1
695,936,39,0.148238150021839,1
695,940,39,0.125413203168486,1
695,942,39,0.170823178533164,1
695,943,39,0.123133130984768,1
696,934,39,0.173987139943479,1
696,935,39,0.253671438402085,1
696,936,39,0.188934563767874,1
696,942,39,0.120373893398435,1
697,932,39,0.114794213846054,1
697,935,39,0.13529334716283,1
697,936,39,0.123950963762296,1
698,932,39,0.125106474657877,1
699,932,39,0.124266136286808,1
708,943,39,0.150337965473617,1
709,944,39,0.162547915362575,1
716,928,39,0.158321574523828,1
716,929,39,0.18908812234149,1
716,930,39,0.127204382257141,1
717,928,39,0.215426933111539,1
717,929,39,0.271797945134496,1
717,930,39,0.195451823285184,1
718,928,39,0.214973759255205,1
718,929,39,0.29189088251887,1
718,930,39,0.249104581220249,1
718,931,39,0.143740646811936,1
718,945,39,0.125602245443483,1
718,946,39,0.144295502141129,1
718,947,39,0.125209004065186,1
718,948,39,0.11696433719602,1
719,929,39,0.217577718845287,1
719,930,39,0.203981113484909,1
719,931,39,0.148629942845449,1
719,942,39,0.11738969409163,1
719,943,39,0.126906203752242,1
719,944,39,0.138243629091613,1
719,945,39,0.19313924694753,2
719,946,39,0.244789183710463,2
719,947,39,0.226873435796476,2
719,948,39,0.16332955782668,1
719,949,39,0.130213819390716,1
720,930,39,0.123651230710904,1
720,931,39,0.123622506931393,1
720,932,39,0.14259120100305,1
720,933,39,0.175524515763478,3
720,934,39,0.12292257237309,1
720,941,39,0.126347838916573,1
720,942,39,0.186280175631721,1
720,943,39,0.220519839404984,1
720,944,39,0.239134827042099,2
720,945,39,0.294059710413426,2
720,946,39,0.366956564463557,2
720,947,39,0.330908327168536,2
720,948,39,0.2072498536842,2
721,932,39,0.234919627119883,3
721,933,39,0.375188594754037,3
721,934,39,0.251611240332134,3
721,935,39,0.115727754345476,1
721,941,39,0.132959018951147,1
721,942,39,0.205157292782721,1
721,943,39,0.296109662608766,2
721,944,39,0.379952431819475,2
721,945,39,0.435966015917802,2
721,946,39,0.492642190128008,2
721,947,39,0.386177212835693,2
721,948,39,0.221501417746401,2
722,933,39,0.332501548893596,3
722,934,39,0.209987881132403,1
722,942,39,0.131288140562659,1
722,943,39,0.226195700633162,2
722,944,39,0.344190725707526,2
722,945,39,0.40343632973269,2
722,946,39,0.456727643831352,2
722,947,39,0.384007748990298,2
722,948,39,0.280406740965824,2
723,944,39,0.181190661076078,2
723,945,39,0.207589592754042,2
723,946,39,0.241931903703288,2
723,947,39,0.284365299394349,2
691,940,40,0.126313909761685,1
692,939,40,0.116801321797907,1
693,939,40,0.12098888141241,1
694,940,40,0.160692187263874,1
694,943,40,0.11503745326468,1
695,934,40,0.163873531330424,1
695,935,40,0.166352455919657,1
695,941,40,0.116361290925556,1
695,942,40,0.115827033337391,1
696,934,40,0.143982037262385,1
696,935,40,0.165515992137952,1
697,932,40,0.113785266064872,1
716,927,40,0.129267430328995,1
716,928,40,0.18154230655883,1
716,929,40,0.173454272025663,1
717,927,40,0.185263054704585,1
717,928,40,0.266810748002549,1
717,929,40,0.260259088255656,1
717,930,40,0.169824405965388,1
718,927,40,0.182472361105511,1
718,928,40,0.28052785426984,4
718,929,40,0.301222942882759,4
718,930,40,0.209300135631826,1
718,948,40,0.122434126798987,1
719,928,40,0.248054108204727,1
719,929,40,0.288123203556652,4
719,930,40,0.211327405580615,1
719,931,40,0.125528145394001,1
719,945,40,0.146050019841666,1
719,946,40,0.167435762841402,1
719,947,40,0.155640323353208,1
719,948,40,0.143625280619196,1
719,949,40,0.152506498946489,1
720,929,40,0.169294423380078,1
720,930,40,0.15012766595302,1
720,931,40,0.13904795380227,1
720,932,40,0.155772165383396,1
720,933,40,0.166112973321721,3
720,942,40,0.131838296921772,1
720,943,40,0.156030773613938,1
720,944,40,0.176926316286334,1
720,945,40,0.229515340453219,2
720,946,40,0.275410287216126,2
720,947,40,0.248265667850132,2
720,948,40,0.179002036267475,1
720,949,40,0.124125355614287,1
721,931,40,0.166281724054242,1
721,932,40,0.307206886961293,3
721,933,40,0.379479355057288,3
721,934,40,0.204571888259575,3
721,941,40,0.122589133927289,1
721,942,40,0.158173939714499,1
721,943,40,0.217085893310249,1
721,944,40,0.293412971965026,2
721,945,40,0.368420358416239,2
721,946,40,0.434645358011115,2
721,947,40,0.343262049054327,2
721,948,40,0.203148818714252,2
722,932,40,0.310718159967168,3
722,933,40,0.374423946309544,3
722,934,40,0.184826144702087,3
722,942,40,0.120473831894922,1
722,943,40,0.204522472524097,2
722,944,40,0.336712603358499,2
722,945,40,0.408555828192652,2
722,946,40,0.453607574805719,2
722,947,40,0.355438081565264,2
722,948,40,0.238076699062787,2
723,933,40,0.155356406634691,3
723,943,40,0.125915533669216,1
723,944,40,0.216093974879282,2
723,945,40,0.23119752463438,2
723,946,40,0.235111260305701,2
723,947,40,0.245865872032748,2
691,940,41,0.135834140912385,1
692,939,41,0.147492650763687,1
693,939,41,0.128328284040705,1
693,943,41,0.129787485015114,1
694,940,41,0.127356504052938,1
694,942,41,0.17049902025885,1
695,934,41,0.119509671540343,1
716,927,41,0.152860888439337,1
716,928,41,0.192598900718935,1
716,929,41,0.15993210824392,1
717,927,41,0.224016956616282,1
717,928,41,0.296114962199082,4
717,929,41,0.240676866501577,4
717,930,41,0.148565605819016,1
718,927,41,0.225357069907862,4
718,928,41,0.347856982287968,4
718,929,41,0.324291423576422,4
718,930,41,0.187205036579892,4
719,927,41,0.180924174121267,1
719,928,41,0.316573783298857,4
719,929,41,0.354765080702632,4
719,930,41,0.219389801873521,4
719,946,41,0.11474867269994,1
719,948,41,0.117440546604927,1
720,928,41,0.174227965104294,1
720,929,41,0.199891525630044,4
720,930,41,0.167610107585923,1
720,931,41,0.1538907754907,1
720,932,41,0.160530903065264,5
720,933,41,0.139303076080071,1
720,944,41,0.127712212554932,1
720,945,41,0.169684673434063,2
720,946,41,0.196071969567067,2
720,947,41,0.178230097942082,1
720,948,41,0.143994249873846,1
720,949,41,0.122342985622423,1
721,931,41,0.219788919908634,5
721,932,41,0.337569323352077,5
721,933,41,0.306736142018845,3
721,934,41,0.147508596642104,1
721,941,41,0.115630442090411,1
721,942,41,0.119995396658083,1
721,943,41,0.154647545210923,1
721,944,41,0.226600636440756,2
721,945,41,0.299671953004081,2
721,946,41,0.342496152261893,2
721,947,41,0.284622247086591,2
721,948,41,0.190804753859703,1
722,931,41,0.203080465776047,5
722,932,41,0.355712529682417,5
722,933,41,0.321964950535273,3
722,934,41,0.140668933603718,1
722,943,41,0.183070037124455,2
722,944,41,0.331057940491583,2
722,945,41,0.403966618516552,2
722,946,41,0.402126506543981,2
722,947,41,0.311547534074717,2
722,948,41,0.21525235282967,2
723,932,41,0.157664825738165,5
723,933,41,0.139085463124838,1
723,943,41,0.135774326203021,1
723,944,41,0.248779068606188,2
723,945,41,0.25787464947332,2
723,946,41,0.220411044704235,2
723,947,41,0.206907806348353,2
691,939,42,0.114407708835892,1
691,940,42,0.144058433801004,1
691,941,42,0.138810379056848,1
692,939,42,0.174248291977372,1
692,940,42,0.25214209440563,1
692,942,42,0.199542553496184,1
693,939,42,0.13856799934954,1
693,940,42,0.211757143470886,1
693,942,42,0.224383594051193,1
693,943,42,0.118274796335566,1
694,941,42,0.14134188735888,1
694,942,42,0.14840488691004,1
715,928,42,0.118608270111969,1
716,927,42,0.172350167156145,1
716,928,42,0.187249682684086,1
716,929,42,0.141897508184452,1
717,926,42,0.119912640611086,1
717,927,42,0.245196404230326,1
717,928,42,0.296855232528122,4
717,929,42,0.212781942915545,4
717,930,42,0.122499888826372,1
718,927,42,0.268596898368838,4
718,928,42,0.39902867224394,4
718,929,42,0.323869576187287,4
718,930,42,0.160340011822091,4
719,927,42,0.212305168217005,4
719,928,42,0.355894081869767,4
719,929,42,0.352606734220034,4
719,930,42,0.196155361564903,4
720,928,42,0.18683956505485,4
720,929,42,0.195108456940193,4
720,930,42,0.168505125952183,1
720,931,42,0.173476141668366,1
720,932,42,0.167489218042387,5
720,933,42,0.122112995179587,1
720,945,42,0.120696426465052,1
720,946,42,0.139069411254615,1
720,947,42,0.133722242394687,1
720,948,42,0.118223178325891,1
720,949,42,0.125101339943705,1
721,930,42,0.161196790700006,1
721,931,42,0.294646457499453,5
721,932,42,0.351256681252395,5
721,933,42,0.22948172927375,5
721,944,42,0.175422080571108,1
721,945,42,0.228382617795996,2
721,946,42,0.248798735974693,2
721,947,42,0.229406687074879,1
721,948,42,0.180447988266095,1
722,931,42,0.276648507051234,5
722,932,42,0.360443014659468,5
722,933,42,0.238569608069623,5
722,943,42,0.15526391111838,1
722,944,42,0.297375298991109,2
722,945,42,0.355394978230696,2
722,946,42,0.323283111746078,2
722,947,42,0.272208039209996,2
723,932,42,0.157397490848903,5
723,943,42,0.127119730134497,1
723,944,42,0.241232711087629,1
723,945,42,0.251490692317752,2
723,946,42,0.198051814070963,2
691,939,43,0.117689486027359,1
691,940,43,0.148835672941507,1
691,941,43,0.155720983117814,1
692,939,43,0.183099408631671,1
692,940,43,0.250288321266912,1
692,941,43,0.243738899124819,1
692,942,43,0.16080765944842,1
693,939,43,0.148180514032938,1
693,940,43,0.201579244938868,1
693,941,43,0.208680389763434,1
693,942,43,0.169415842882645,1
694,941,43,0.121964771526889,1
694,942,43,0.13226384224726,1
694,943,43,0.114836269039426,1
715,927,43,0.11905228156549,1
715,928,43,0.124818942441079,1
716,927,43,0.184990396671273,1
716,928,43,0.183995969767557,1
716,929,43,0.12971026409578,1
717,926,43,0.12126423634835,1
717,927,43,0.248228664932861,1
717,928,43,0.28564087545275,4
717,929,43,0.191598538274065,1
718,926,43,0.126739031119948,1
718,927,43,0.302540326820317,4
718,928,43,0.422805319526197,4
718,929,43,0.295127142117959,4
718,930,43,0.131376043100697,1
719,927,43,0.261982538580075,4
719,928,43,0.381427225366279,4
719,929,43,0.30079650251535,4
719,930,43,0.157683609841617,1
720,928,43,0.205866801934195,4
720,929,43,0.178138356145282,1
720,930,43,0.165450536309118,1
720,931,43,0.191517207228019,1
720,932,43,0.165977892653006,1
720,949,43,0.138205142289054,1
721,930,43,0.189767317836358,1
721,931,43,0.34457104786232,1
721,932,43,0.311344194682735,5
721,933,43,0.156922188258784,1
721,944,43,0.138239318758157,1
721,945,43,0.16669764767909,1
721,946,43,0.171726699797664,1
721,947,43,0.173709264757922,1
721,948,43,0.160841824140656,1
721,949,43,0.151743169511141,1
722,930,43,0.153537905213742,1
722,931,43,0.310502596186858,1
722,932,43,0.295176864051989,5
722,933,43,0.153039932153938,1
722,943,43,0.12635908582491,1
722,944,43,0.237755590997122,1
722,945,43,0.273103128237461,2
722,946,43,0.236941032188722,2
722,947,43,0.224633404961811,1
722,948,43,0.213191895668638,1
723,931,43,0.133318496050698,1
723,932,43,0.12959529831653,1
723,944,43,0.199537277459603,1
723,945,43,0.213815998977956,1
723,946,43,0.172448150692649,1
723,947,43,0.170479929956846,1
691,939,44,0.118376866445048,1
691,940,44,0.150159098412026,1
691,941,44,0.174138814218316,1
692,939,44,0.173906586170679,1
692,940,44,0.223618309655863,1
692,941,44,0.226973633384046,1
692,942,44,0.140586919499364,1
693,939,44,0.146609114843111,1
693,940,44,0.178286120500153,1
693,941,44,0.172734705429456,1
693,942,44,0.135490774567393,1
694,942,44,0.114623178401263,1
694,943,44,0.114582830853659,1
715,927,44,0.122991596592736,1
715,928,44,0.123029894965417,1
716,927,44,0.189558349101774,1
716,928,44,0.1885019758757,1
716,929,44,0.123814399208293,1
717,926,44,0.116687887011415,1
717,927,44,0.241341034713683,1
717,928,44,0.275617512974339,4
717,929,44,0.176235850329394,1
718,926,44,0.127741054103117,1
718,927,44,0.305931405117831,4
718,928,44,0.400191425912952,4
718,929,44,0.245002109472483,4
719,926,44,0.130477856757114,1
719,927,44,0.303074337094268,4
719,928,44,0.386294486880947,4
719,929,44,0.240723714879968,4
719,930,44,0.124760175872911,1
720,927,44,0.210491130228788,1
720,928,44,0.22928043905669,4
720,929,44,0.164255172494363,1
720,930,44,0.156874150416788,1
720,931,44,0.193022408646369,1
720,932,44,0.149744116936567,1
721,930,44,0.198953615912828,1
721,931,44,0.334701326395596,1
721,932,44,0.23989653126975,1
721,945,44,0.115819060398182,1
721,946,44,0.118865241357946,1
721,947,44,0.133718721111344,1
721,948,44,0.144782416722473,1
722,931,44,0.278920806502489,1
722,932,44,0.20545797976037,1
722,944,44,0.163163939740879,1
722,945,44,0.184635277012648,1
722,946,44,0.169375130252153,1
722,947,44,0.194684654591075,1
722,948,44,0.230790233453313,1
723,944,44,0.143285918409109,1
723,945,44,0.162618023054019,1
723,946,44,0.15234735813774,1
723,947,44,0.188850912678957,1
691,939,45,0.136028906744923,1
691,940,45,0.16117739419945,1
691,941,45,0.178185875805114,1
691,942,45,0.121094484582102,1
692,939,45,0.16097928373658,1
692,940,45,0.191661202985332,1
692,941,45,0.201482556857773,1
692,942,45,0.141533402776024,1
693,939,45,0.135202641730359,1
693,940,45,0.152190678694271,1
693,941,45,0.146964693799564,1
693,942,45,0.12856356229699,1
694,943,45,0.115131950848443,1
715,927,45,0.117766070995856,1
715,928,45,0.11605280766171,1
716,927,45,0.187272447368709,1
716,928,45,0.194563282195977,1
716,929,45,0.123355513571285,1
717,926,45,0.114307888108077,1
717,927,45,0.234050588523038,1
717,928,45,0.265470940909521,4
717,929,45,0.165718412934279,1
718,926,45,0.129199937102107,1
718,927,45,0.283690579109081,4
718,928,45,0.339788438470296,4
718,929,45,0.199301645897297,4
718,948,45,0.1200516194229,1
719,926,45,0.14101645718289,1
719,927,45,0.312367887101862,4
719,928,45,0.363967359988121,4
719,929,45,0.213056862107392,4
719,930,45,0.125178525532437,1
719,932,45,0.115267490814986,1
719,948,45,0.116485336669547,1
720,927,45,0.226842486189032,1
720,928,45,0.259043951080589,4
720,929,45,0.186007694251419,1
720,930,45,0.169470876183858,1
720,931,45,0.191439138374235,1
720,932,45,0.134868237581435,1
720,948,45,0.123295592870115,1
721,929,45,0.157125209675347,1
721,930,45,0.208096563340515,1
721,931,45,0.28108066042411,1
721,932,45,0.172331995449795,1
721,947,45,0.122180877043098,1
721,948,45,0.153123065060691,1
721,949,45,0.172515643919537,1
722,931,45,0.215316536756828,1
722,932,45,0.135659690176058,1
722,945,45,0.118364253420097,1
722,946,45,0.131915600279178,1
722,947,45,0.186090532736488,1
722,948,45,0.25494529503785,1
723,945,45,0.117046775267599,1
723,946,45,0.141026950371716,1
723,947,45,0.219474289120021,1
690,939,46,0.139735675749112,1
690,940,46,0.148423694567227,1
690,941,46,0.116308612997818,1
691,939,46,0.163178766816896,1
691,940,46,0.177474164379442,1
691,941,46,0.163980005988302,1
691,942,46,0.119881773441713,1
692,939,46,0.143797317097713,1
692,940,46,0.160079990367465,1
692,941,46,0.166538612862148,1
692,942,46,0.141287819760792,1
693,940,46,0.124497186647708,1
693,941,46,0.123244057298511,1
693,942,46,0.12271770198835,1
716,927,46,0.171687859689083,1
716,928,46,0.184663023312168,1
716,929,46,0.115827151106065,1
717,926,46,0.115061183652427,1
717,927,46,0.220555264222028,1
717,928,46,0.244021708817802,1
717,929,46,0.150806885001622,1
718,926,46,0.136975036715562,1
718,927,46,0.246094767226919,1
718,928,46,0.267317223960593,4
718,929,46,0.166196954162925,1
718,948,46,0.127587566190705,1
719,926,46,0.151296944006554,1
719,927,46,0.277604694466606,1
719,928,46,0.311894127281368,4
719,929,46,0.204665914768644,1
719,930,46,0.149232082297126,1
719,931,46,0.141483621957658,1
719,932,46,0.115754923578494,1
719,948,46,0.143847992957999,1
720,927,46,0.216781932363472,1
720,928,46,0.278058716257391,1
720,929,46,0.231215119274228,1
720,930,46,0.191544670882722,1
720,931,46,0.176764749442907,1
720,932,46,0.114192345262326,1
720,948,46,0.153612912082011,1
721,929,46,0.224499973054527,1
721,930,46,0.221081878623271,1
721,931,46,0.208258872126586,1
721,932,46,0.117940839707602,1
721,947,46,0.119217923205026,1
721,948,46,0.177237319799797,1
721,949,46,0.192967446006361,1
722,931,46,0.153893484170194,1
722,938,46,0.121523315653586,1
722,939,46,0.130462535052668,1
722,947,46,0.176729701485619,1
722,948,46,0.262368654953614,1
723,938,46,0.11442888364342,1
723,946,46,0.124178375071179,1
723,947,46,0.219729635158302,1
689,940,47,0.127743939435622,1
690,939,47,0.1958946099445,1
690,940,47,0.219554725124147,1
690,941,47,0.139140202004366,1
691,939,47,0.181997659135627,1
691,940,47,0.194317840503153,1
691,941,47,0.147318046928084,1
692,939,47,0.126506155344606,1
692,940,47,0.137172146144706,1
692,941,47,0.139252800633275,1
692,942,47,0.133947003908413,1
693,942,47,0.11392006408877,1
716,927,47,0.148221391539574,1
716,928,47,0.160503557179235,1
717,926,47,0.117857329941093,1
717,927,47,0.196903381072671,1
717,928,47,0.207130695340167,1
717,929,47,0.130684587886898,1
718,926,47,0.149918049490731,1
718,927,47,0.204043106914736,1
718,928,47,0.198612981801066,1
718,929,47,0.141033698516718,1
718,930,47,0.122370472830861,1
718,931,47,0.118995999916337,1
718,948,47,0.133699171511513,1
719,926,47,0.161475313613267,1
719,927,47,0.219510043689351,1
719,928,47,0.240898577806654,1
719,929,47,0.193288141881668,1
719,930,47,0.16624924345404,1
719,931,47,0.157206564275127,1
719,948,47,0.164275252053226,1
720,927,47,0.188286977385023,1
720,928,47,0.270774488252716,1
720,929,47,0.26398597214931,1
720,930,47,0.194021828941849,1
720,931,47,0.14200903511843,1
720,948,47,0.181855347470348,1
720,949,47,0.210660717118892,1
721,929,47,0.275423547968782,1
721,930,47,0.215473051324153,1
721,931,47,0.138503179471545,1
721,947,47,0.125959355392694,1
721,948,47,0.207016436172959,1
721,949,47,0.207545382393941,1
722,930,47,0.172038504138109,1
722,938,47,0.154050717126429,1
722,939,47,0.163306722480853,1
722,947,47,0.168094961215478,1
722,948,47,0.253011274324884,1
723,938,47,0.128259236267325,1
723,939,47,0.120364636780683,1
723,947,47,0.199014996945552,1
689,939,48,0.134176393731013,1
689,940,48,0.176635780968356,1
689,941,48,0.116744804611407,1
690,939,48,0.235432415478836,1
690,940,48,0.295683222241358,1
690,941,48,0.169949170098289,1
691,939,48,0.17952023020855,1
691,940,48,0.208342841190922,1
691,941,48,0.142252097884046,1
692,940,48,0.123245187877778,1
692,941,48,0.123615287711696,1
692,942,48,0.117255072720743,1
711,925,48,0.146421980420628,1
712,924,48,0.116263660695073,1
712,925,48,0.138018066750907,1
716,927,48,0.122555711177698,1
716,928,48,0.12710343095006,1
717,926,48,0.116768323015541,1
717,927,48,0.16170361996407,1
717,928,48,0.159636826848393,1
718,926,48,0.158284583383424,1
718,927,48,0.165857709721512,1
718,928,48,0.146376168406565,1
718,929,48,0.119558934176544,1
718,930,48,0.12792125195072,1
718,931,48,0.128628240852577,1
718,948,48,0.129368216759933,1
719,926,48,0.164994359351605,1
719,927,48,0.168537347461303,1
719,928,48,0.183932433568104,1
719,929,48,0.180192230037456,1
719,930,48,0.167021040457025,1
719,931,48,0.151998845301708,1
719,948,48,0.172146156482723,1
719,949,48,0.169968425276436,1
720,927,48,0.159517244537135,1
720,928,48,0.25601345690816,1
720,929,48,0.28096395166849,1
720,930,48,0.187980060444536,1
720,948,48,0.207447351749967,1
720,949,48,0.215316583864297,1
721,928,48,0.262444686409344,1
721,929,48,0.302847585289958,1
721,930,48,0.201675391284063,1
721,938,48,0.114624850716429,1
721,939,48,0.130236372091726,1
721,947,48,0.131104857175805,1
721,948,48,0.230346928611833,1
721,949,48,0.215870826796387,1
722,929,48,0.229237053077305,1
722,930,48,0.156611844249893,1
722,938,48,0.189831383994842,1
722,939,48,0.203033711612594,1
722,947,48,0.154865570356513,1
722,948,48,0.232836016637605,1
723,938,48,0.140366268112351,1
723,939,48,0.135581209131915,1
723,947,48,0.169134623066757,1
689,939,49,0.142011567144914,1
689,940,49,0.21636079158638,1
689,941,49,0.148911092000134,1
690,939,49,0.232744722361765,1
690,940,49,0.336109933947791,1
690,941,49,0.200370726363262,1
691,939,49,0.166919217661759,1
691,940,49,0.224161882746117,1
691,941,49,0.154142129170942,1
692,940,49,0.130413001548517,1
692,941,49,0.125416583129421,1
696,930,49,0.117349146337281,1
698,928,49,0.115400416316972,1
711,925,49,0.15997658947197,1
712,924,49,0.136015928637083,1
712,925,49,0.165913991370665,1
713,924,49,0.118551776479203,1
713,925,49,0.119907894533536,1
717,927,49,0.126895804778356,1
717,928,49,0.120404772344674,1
718,926,49,0.144632815176293,1
718,927,49,0.135650539550112,1
718,928,49,0.118067864999037,1
718,930,49,0.119581486877555,1
718,931,49,0.11493899865348,1
718,948,49,0.120123905834807,1
719,926,49,0.150458360388723,1
719,927,49,0.135349864349331,1
719,928,49,0.147582449377371,1
719,929,49,0.163750203975343,1
719,930,49,0.151125908561764,1
719,931,49,0.12671020134863,1
719,948,49,0.169867332646946,1
720,927,49,0.138311004549828,1
720,928,49,0.237218895597411,1
720,929,49,0.274223367415273,1
720,930,49,0.174910387460821,1
720,947,49,0.113795983014177,1
720,948,49,0.216836153060836,1
720,949,49,0.207133144928579,1
721,927,49,0.158707349368213,1
721,928,49,0.295203550433445,1
721,929,49,0.306471939776304,1
721,930,49,0.179534032697106,1
721,938,49,0.116188512504395,1
721,939,49,0.133498105054933,1
721,947,49,0.126483685081667,1
721,948,49,0.228009927051257,1
721,949,49,0.210686437797225,1
722,928,49,0.277382559194304,1
722,929,49,0.227197440971514,1
722,930,49,0.133398460980129,1
722,937,49,0.129008068378942,1
722,938,49,0.199471468324749,1
722,939,49,0.217634294916124,1
722,947,49,0.135447188381263,1
722,948,49,0.200261154389267,1
723,937,49,0.119470996307905,1
723,938,49,0.143315737437286,1
723,939,49,0.14405294578081,1
723,947,49,0.142702928143773,1
689,939,50,0.133572793947783,1
689,940,50,0.237151437701125,1
689,941,50,0.201137047122921,1
690,939,50,0.194667236604237,1
690,940,50,0.320323231670389,1
690,941,50,0.227363471247673,1
690,942,50,0.120663510120757,1
691,939,50,0.154499875070991,1
691,940,50,0.230110048701586,1
691,941,50,0.168706628152856,1
692,940,50,0.13736124730404,1
692,941,50,0.122603537036081,1
695,930,50,0.121800142697947,1
696,929,50,0.125457837495812,1
696,930,50,0.143260409714389,1
698,927,50,0.122758179081495,1
698,928,50,0.118922606478898,1
711,925,50,0.151269280145106,1
712,924,50,0.136192864292425,1
712,925,50,0.168097611010636,1
713,924,50,0.121764741434637,1
713,925,50,0.124317872065158,1
718,926,50,0.121640731021248,1
718,927,50,0.114900829826339,1
719,926,50,0.126093929656112,1
719,927,50,0.114408403671066,1
719,928,50,0.12358049884549,1
719,929,50,0.135802520023501,1
719,930,50,0.11711846105927,1
719,948,50,0.147650719877505,1
720,927,50,0.123464967776607,1
720,928,50,0.206783795934965,1
720,929,50,0.233964264085228,1
720,930,50,0.143877329134613,1
720,948,50,0.196375954067579,1
720,949,50,0.178505959283318,1
721,927,50,0.160701208344278,1
721,928,50,0.298106571793479,1
721,929,50,0.28490955554291,1
721,930,50,0.149488912220695,1
721,939,50,0.117521371245676,1
721,948,50,0.201570318073402,1
721,949,50,0.19012137757692,1
722,927,50,0.204141443757262,1
722,928,50,0.305216525714837,1
722,929,50,0.215339407433257,1
722,937,50,0.144663776560605,1
722,938,50,0.189479585412814,1
722,939,50,0.204584301077781,1
722,948,50,0.165320625685178,1
723,928,50,0.252936679646973,1
723,937,50,0.141121330186806,1
723,938,50,0.151412545736642,1
723,939,50,0.148830761987815,1
688,940,51,0.125711028367364,1
689,939,51,0.118300352137756,1
689,940,51,0.237503236283153,1
689,941,51,0.261724248324953,1
690,939,51,0.150579285262862,1
690,940,51,0.270626617906039,1
690,941,51,0.252846044875706,1
690,942,51,0.144260195092758,1
691,939,51,0.142834228438063,1
691,940,51,0.215377187623775,1
691,941,51,0.176269167087179,1
691,942,51,0.113949741794538,1
692,940,51,0.13618165271469,1
692,941,51,0.115253323243541,1
695,930,51,0.130369780445275,1
696,929,51,0.132281637093854,1
696,930,51,0.159790432529479,1
697,930,51,0.125979069868668,1
698,926,51,0.120294128675749,1
698,927,51,0.139856035333617,1
698,928,51,0.129865966059257,1
699,927,51,0.116696495901462,1
699,928,51,0.134821872054605,1
699,929,51,0.126869236165573,1
700,929,51,0.113944654187835,1
711,925,51,0.139562756005543,1
712,924,51,0.133329130561932,1
712,925,51,0.161641296781957,1
713,924,51,0.119618737109041,1
713,925,51,0.126878292576579,1
719,948,51,0.120325631795959,1
720,927,51,0.113895521097174,1
720,928,51,0.169479320197761,1
720,929,51,0.178669528194197,1
720,948,51,0.157400788371766,1
721,927,51,0.155940715909172,1
721,928,51,0.262185736649649,1
721,929,51,0.241873749532223,1
721,930,51,0.124239991641251,1
721,948,51,0.161261398594388,1
722,927,51,0.215254496219531,1
722,928,51,0.29278773807644,1
722,929,51,0.20032347757138,1
722,936,51,0.117090067032045,1
722,937,51,0.173912027083403,1
722,938,51,0.193108014695269,1
722,939,51,0.17896782446777,1
723,927,51,0.255111042669192,1
723,928,51,0.288361190492431,1
723,929,51,0.162021348068801,1
723,936,51,0.12458426480503,1
723,937,51,0.176221494328072,1
723,938,51,0.176531956105637,1
723,939,51,0.145055969797705,1
724,928,51,0.150541599287283,1
688,940,52,0.131597966389386,1
688,941,52,0.168961491339574,1
689,940,52,0.228082401893042,1
689,941,52,0.311018776283613,1
689,942,52,0.182398178617957,1
690,939,52,0.124047416306043,1
690,940,52,0.22944906024367,1
690,941,52,0.279547500722629,1
690,942,52,0.171687365060654,1
691,939,52,0.131089087950399,1
691,940,52,0.191618818039674,1
691,941,52,0.179885654626123,1
691,942,52,0.119525947171046,1
692,940,52,0.124190210822885,1
695,929,52,0.116797930060105,1
695,930,52,0.146057851458466,1
696,929,52,0.137997869423371,1
696,930,52,0.175067773516331,1
696,931,52,0.116080659953036,1
697,927,52,0.121884158869752,1
697,929,52,0.123125452467244,1
697,930,52,0.14527938874855,1
698,926,52,0.143720107955246,1
698,927,52,0.147649271322819,1
698,928,52,0.14069912949165,1
698,929,52,0.134972427527043,1
698,930,52,0.115774013880499,1
699,927,52,0.133958816106383,1
699,928,52,0.178352306494763,1
699,929,52,0.176455159153528,1
700,928,52,0.159867900763028,1
700,929,52,0.158236498433959,1
705,928,52,0.126416957351158,1
706,928,52,0.149870270739817,1
711,925,52,0.120661531607039,1
712,924,52,0.12185552930518,1
712,925,52,0.140672914184888,1
713,925,52,0.122527917770709,1
720,928,52,0.132042448917602,1
720,929,52,0.125804418925595,1
720,948,52,0.120030903913199,1
721,927,52,0.154457490125332,1
721,928,52,0.205273954430872,1
721,929,52,0.182647447792676,1
721,948,52,0.12264592198174,1
722,927,52,0.224094731048382,1
722,928,52,0.258358890705772,1
722,929,52,0.183991741872171,1
722,937,52,0.177028822139908,1
722,938,52,0.184226490169425,1
722,939,52,0.142590341291732,1
723,926,52,0.122984024067018,1
723,927,52,0.272472665419763,1
723,928,52,0.28127658038965,1
723,929,52,0.169049499869418,1
723,930,52,0.121161683387306,1
723,931,52,0.115176290754085,1
723,936,52,0.117026648601266,1
723,937,52,0.184387267962738,1
723,938,52,0.182247010748417,1
723,939,52,0.125022482039806,1
724,927,52,0.14653098710499,1
724,928,52,0.146262721843206,1
688,940,53,0.126608590536976,1
688,941,53,0.171779413056005,1
689,940,53,0.208287654790434,1
689,941,53,0.322503789324844,1
689,942,53,0.219921127021711,1
690,940,53,0.201217836433068,1
690,941,53,0.290357298850163,1
690,942,53,0.204075045779039,1
691,939,53,0.11598898881744,1
691,940,53,0.164261084481782,1
691,941,53,0.17845619024182,1
691,942,53,0.130705574264549,1
695,930,53,0.148403485462823,1
695,931,53,0.13148915991177,1
696,929,53,0.12698394285374,1
696,930,53,0.163446996748077,1
696,931,53,0.130117814367929,1
697,927,53,0.115626320186832,1
697,929,53,0.129858205103661,1
697,930,53,0.146683332661267,1
698,926,53,0.14457313001247,1
698,927,53,0.133505972002335,1
698,928,53,0.136547395107682,1
698,929,53,0.150488838921473,1
698,930,53,0.123388936320876,1
699,927,53,0.136756646487083,1
699,928,53,0.193362218377415,1
699,929,53,0.194530448289754,1
699,930,53,0.115378216921983,1
700,927,53,0.134865729108685,1
700,928,53,0.202345659913465,1
700,929,53,0.181502453639655,1
701,928,53,0.131976486683472,1
705,927,53,0.119635177615887,1
705,928,53,0.151388933117569,1
705,929,53,0.124166162459718,1
706,927,53,0.138092213907859,1
706,928,53,0.186940304378319,1
706,929,53,0.140239725672478,1
707,928,53,0.12808611631701,1
721,927,53,0.157688944762535,1
721,928,53,0.156513978482062,1
721,929,53,0.130902589478754,1
722,928,53,0.222404986118371,1
722,929,53,0.165075443083436,1
722,937,53,0.156020033110898,1
722,938,53,0.161541699814623,1
723,927,53,0.245698687623586,1
723,928,53,0.241390992185059,1
723,929,53,0.166523055620354,1
723,930,53,0.128744278326758,1
723,931,53,0.123334444755563,1
723,937,53,0.162488489289834,1
723,938,53,0.161073463344924,1
724,931,53,0.156832860719795,1
724,932,53,0.130833211953087,1
688,940,54,0.117192820199834,1
688,941,54,0.161792252667884,1
689,940,54,0.180599368119247,1
689,941,54,0.300147267371068,1
689,942,54,0.255969505639141,1
690,940,54,0.178579753134248,1
690,941,54,0.279092678104863,1
690,942,54,0.234479054511633,1
690,943,54,0.119950950760635,1
691,940,54,0.142442035200962,1
691,941,54,0.175582033983705,1
691,942,54,0.146376227290902,1
694,931,54,0.126233850617315,1
695,930,54,0.146044908681228,1
695,931,54,0.164419283141141,1
696,930,54,0.1456556125535,1
696,931,54,0.151595416933138,1
697,929,54,0.143164534237144,1
697,930,54,0.138968236187054,1
698,927,54,0.114439294394173,1
698,928,54,0.138847699949538,1
698,929,54,0.179177476260662,1
698,930,54,0.132105302058747,1
699,927,54,0.131853123997789,1
699,928,54,0.189528011891433,1
699,929,54,0.191954411652202,1
699,930,54,0.114214627095387,1
700,927,54,0.15592618325484,1
700,928,54,0.236000508006951,1
700,929,54,0.188840855234224,1
701,927,54,0.135080986690444,1
701,928,54,0.182971005446754,1
701,929,54,0.133109397770573,1
704,927,54,0.117367765564591,1
705,927,54,0.146523626562885,1
705,928,54,0.160100870753309,1
705,929,54,0.143453797653445,1
706,927,54,0.159314917955747,1
706,928,54,0.195151701597169,1
706,929,54,0.177505950144469,1
707,927,54,0.119237896772083,1
707,928,54,0.128790667407322,1
707,929,54,0.113872297114724,1
714,924,54,0.116542525137488,1
714,925,54,0.124442907066007,1
715,924,54,0.126951603575947,1
715,925,54,0.130126069951954,1
716,924,54,0.115628616675969,1
721,927,54,0.156292337838189,1
721,928,54,0.124216061046758,1
722,928,54,0.185513678219051,1
722,929,54,0.140662632979676,1
723,929,54,0.153640870365143,1
723,930,54,0.123297382953955,1
723,931,54,0.114000924060121,1
724,930,54,0.114205276262697,1
724,931,54,0.14365018869368,1
724,932,54,0.139813155759529,1
688,941,55,0.139257287619742,1
689,940,55,0.154949456982778,1
689,941,55,0.255063181480207,1
689,942,55,0.263833037749665,1
690,939,55,0.114297477357324,1
690,940,55,0.160409389347758,1
690,941,55,0.249661155972078,1
690,942,55,0.243830405384271,1
690,943,55,0.130881450001828,1
691,940,55,0.130384725289965,1
691,941,55,0.174008915371243,1
691,942,55,0.162200745089423,1
694,931,55,0.126355470326628,1
695,930,55,0.135410750753625,1
695,931,55,0.182200256584965,1
695,932,55,0.115736492781063,1
696,930,55,0.133609219798553,1
696,931,55,0.169276475434208,1
697,929,55,0.160624823582527,1
697,930,55,0.137095643614281,1
697,931,55,0.121577477466613,1
698,928,55,0.141514018052336,1
698,929,55,0.204339813311214,1
698,930,55,0.139983260831797,1
699,928,55,0.159050621498266,1
699,929,55,0.169748610047006,1
700,928,55,0.218544740978637,1
700,929,55,0.168989567391381,1
701,927,55,0.144753410298145,1
701,928,55,0.206410963867817,1
701,929,55,0.144739643140191,1
702,927,55,0.114895942426381,1
702,928,55,0.141442332260665,1
703,928,55,0.115265241433318,1
704,927,55,0.137481889533361,1
704,928,55,0.128156259339056,1
705,926,55,0.123772650213472,1
705,927,55,0.167368246060779,1
705,928,55,0.161954373024077,1
705,929,55,0.149574270955381,1
706,926,55,0.122250596097919,1
706,927,55,0.171557701750928,1
706,928,55,0.185082915741319,1
706,929,55,0.194562446038394,1
706,930,55,0.132831758122364,1
707,926,55,0.117164308403935,1
707,927,55,0.13451754602494,1
707,928,55,0.126644521759317,1
707,929,55,0.122649655248695,1
708,926,55,0.118032204644646,1
714,924,55,0.132419461772665,1
714,925,55,0.141696041314381,1
715,923,55,0.130348935390033,1
715,924,55,0.14971237827901,1
715,925,55,0.157438238809997,1
716,924,55,0.138708532707847,1
716,925,55,0.137663465274446,1
717,925,55,0.11554237467623,1
724,932,55,0.122408241244512,1
725,932,55,0.124170296140165,1
688,941,56,0.125186533802247,1
688,942,56,0.132189871743319,1
689,938,56,0.125073734966593,1
689,939,56,0.129586618765279,1
689,940,56,0.143497513385116,1
689,941,56,0.215471261240313,1
689,942,56,0.242807066271165,1
689,943,56,0.141581593717296,1
690,939,56,0.122600380835626,1
690,940,56,0.15308046813142,1
690,941,56,0.228431067828349,1
690,942,56,0.239351874707698,1
690,943,56,0.141412607447427,1
691,935,56,0.12916989431345,1
691,940,56,0.126500302241524,1
691,941,56,0.178725550752269,1
691,942,56,0.178142513379463,1
691,943,56,0.125085382288421,1
692,935,56,0.118956241212102,1
694,931,56,0.117933808917783,1
695,930,56,0.120210100727076,1
695,931,56,0.179903072612961,1
695,932,56,0.135813708047501,1
696,930,56,0.127483234922689,1
696,931,56,0.179316879039701,1
696,932,56,0.127258591177638,1
697,929,56,0.15699604099405,1
697,930,56,0.141036254096937,1
697,931,56,0.138377520296724,1
698,928,56,0.124457569265881,1
698,929,56,0.196043752192853,1
698,930,56,0.147532126823106,1
699,928,56,0.121567172707666,1
699,929,56,0.145536513093804,1
700,928,56,0.172372225228726,1
700,929,56,0.14555049223537,1
701,928,56,0.199249804127142,1
701,929,56,0.151559438603328,1
702,927,56,0.124515994304895,1
702,928,56,0.164167352394397,1
702,929,56,0.129961076040123,1
703,927,56,0.120366815501146,1
703,928,56,0.133399179369039,1
704,927,56,0.150104559739243,1
704,928,56,0.141166447365694,1
705,926,56,0.13211240350977,1
705,927,56,0.177359316368866,1
705,928,56,0.16940875320849,1
705,929,56,0.149345988158313,1
706,926,56,0.13025344854941,1
706,927,56,0.168478616223737,1
706,928,56,0.172490582745778,1
706,929,56,0.187460912577204,1
706,930,56,0.14041643756734,1
707,926,56,0.131448070421521,1
707,927,56,0.144193702899597,1
707,928,56,0.125746111655255,1
707,929,56,0.121787199920709,1
708,926,56,0.126147243534688,1
708,927,56,0.118793944202898,1
714,923,56,0.13634674084146,1
714,924,56,0.146190812291055,1
714,925,56,0.14648466868563,1
715,924,56,0.17510210308471,1
715,925,56,0.174759196037546,1
716,924,56,0.173965164308969,1
716,925,56,0.166520759131218,1
717,925,56,0.129378238874064,1
688,938,57,0.146982206001341,1
688,939,57,0.166856340966879,1
688,940,57,0.133472455037805,1
688,941,57,0.120270480726073,1
688,942,57,0.116786977573453,1
689,937,57,0.125013213645187,1
689,938,57,0.156569317981826,1
689,939,57,0.161749608631144,1
689,940,57,0.153352537321364,1
689,941,57,0.186805176602134,1
689,942,57,0.201659680942994,1
689,943,57,0.135598650672487,1
690,936,57,0.137890758814655,1
690,937,57,0.135825779336553,1
690,938,57,0.131834516547347,1
690,939,57,0.138508455508126,1
690,940,57,0.160673897788851,1
690,941,57,0.216755222428281,1
690,942,57,0.231435629338833,1
690,943,57,0.159493808571072,1
691,935,57,0.153737381793227,1
691,936,57,0.159751380437285,1
691,937,57,0.122416956126364,1
691,940,57,0.130116094945293,1
691,941,57,0.182468639615422,1
691,942,57,0.196245807906292,1
691,943,57,0.150045110112768,1
692,934,57,0.114258554810671,1
692,935,57,0.145174621736442,1
692,936,57,0.123111025804718,1
695,931,57,0.157447801626301,1
695,932,57,0.15841889855576,1
696,930,57,0.126089301347236,1
696,931,57,0.176433866577326,1
696,932,57,0.155775038939034,1
697,930,57,0.157683197651259,1
697,931,57,0.165637541186061,1
697,932,57,0.12393210899764,1
698,929,57,0.173170826381841,1
698,930,57,0.17190751004237,1
698,931,57,0.147852316293117,1
699,929,57,0.131498522521327,1
699,930,57,0.128618018531702,1
700,928,57,0.126928780006987,1
700,929,57,0.127323199072021,1
701,928,57,0.1684472308722,1
701,929,57,0.150836056302094,1
702,928,57,0.174106569155461,1
702,929,57,0.156359407097852,1
703,927,57,0.128029516692438,1
703,928,57,0.147541041911704,1
703,929,57,0.126695185842736,1
704,927,57,0.154218584593898,1
704,928,57,0.152299614717429,1
704,929,57,0.115783965333425,1
705,926,57,0.131490749788864,1
705,927,57,0.174795139036754,1
705,928,57,0.177040646114746,1
705,929,57,0.141317485689693,1
706,926,57,0.134184637538171,1
706,927,57,0.159255244568791,1
706,928,57,0.160247304322167,1
706,929,57,0.153722684262751,1
706,930,57,0.120223361479732,1
707,926,57,0.140397629910153,1
707,927,57,0.148812154537373,1
707,928,57,0.123606266631292,1
708,926,57,0.125134126742458,1
708,927,57,0.130747923879605,1
713,924,57,0.114225744458183,1
714,923,57,0.15116920032621,1
714,924,57,0.143632440954556,1
714,925,57,0.131127986943317,1
715,924,57,0.181608209908623,1
715,925,57,0.166192314077182,1
716,924,57,0.198091384345321,1
716,925,57,0.176357846898463,1
717,925,57,0.13572161294468,1
688,938,58,0.171257108988218,1
688,939,58,0.210360077248713,1
688,940,58,0.176259486502203,1
688,941,58,0.127818463452329,1
689,937,58,0.152806361543422,1
689,938,58,0.187911766390667,1
689,939,58,0.195537617763963,1
689,940,58,0.174944587483658,1
689,941,58,0.165740129477706,1
689,942,58,0.161642026947734,1
689,943,58,0.129392795082131,1
690,935,58,0.1148028227361,1
690,936,58,0.176098143419256,1
690,937,58,0.181793954660757,1
690,938,58,0.154194759991212,1
690,939,58,0.149747496897502,1
690,940,58,0.165702007758035,1
690,941,58,0.197480353358781,1
690,942,58,0.222974562531774,1
690,943,58,0.191337492231978,1
690,944,58,0.122024244707099,1
691,935,58,0.168804800119238,1
691,936,58,0.213860986611303,1
691,937,58,0.16730335552158,1
691,940,58,0.124556777596592,1
691,941,58,0.167786701712112,1
691,942,58,0.204787852453376,1
691,943,58,0.185441851104972,1
691,944,58,0.1341174269561,1
692,935,58,0.165172425586215,1
692,936,58,0.163479583340085,1
692,937,58,0.115131668203626,1
692,944,58,0.119530575479921,1
692,945,58,0.129835899716865,1
693,935,58,0.117251881189686,1
694,932,58,0.11608475830288,1
694,933,58,0.125523469977656,1
695,931,58,0.129231086916296,1
695,932,58,0.167122062425311,1
695,933,58,0.143120948051013,1
696,930,58,0.125132996163191,1
696,931,58,0.166598804431268,1
696,932,58,0.17721918342405,1
696,933,58,0.125496983802945,1
697,930,58,0.176218656103036,1
697,931,58,0.189883272872467,1
697,932,58,0.151335525024053,1
698,929,58,0.1524647381748,1
698,930,58,0.198095223604083,1
698,931,58,0.186527819598742,1
698,932,58,0.124246939992998,1
699,929,58,0.122879963666951,1
699,930,58,0.14963316706909,1
699,931,58,0.131809208059372,1
700,929,58,0.118911736430317,1
701,928,58,0.149283288116444,1
701,929,58,0.159225578639891,1
702,927,58,0.133987952076252,1
702,928,58,0.180687718178245,1
702,929,58,0.181083915550251,1
703,927,58,0.140561940763676,1
703,928,58,0.161016463306861,1
703,929,58,0.140259758123872,1
704,926,58,0.119553375495147,1
704,927,58,0.155898130756768,1
704,928,58,0.160141100532239,1
704,929,58,0.117730846385557,1
705,926,58,0.130592516337813,1
705,927,58,0.164853413802941,1
705,928,58,0.166574155447866,1
705,929,58,0.120976539255408,1
706,926,58,0.150838352791231,1
706,927,58,0.15498144295455,1
706,928,58,0.138834392089412,1
707,926,58,0.149329759635079,1
707,927,58,0.147326396727048,1
708,926,58,0.117002082055936,1
708,927,58,0.127924914556472,1
713,924,58,0.118012925912764,1
714,923,58,0.155185806933993,1
714,924,58,0.133018174155938,1
715,924,58,0.178759220816075,1
715,925,58,0.151407458129939,1
716,924,58,0.210355672700317,1
716,925,58,0.172451883959605,1
717,925,58,0.133351212188247,1
720,950,58,0.128468240332511,1
721,950,58,0.126751408607552,1
688,938,59,0.174932457310269,1
688,939,59,0.232368404341877,1
688,940,59,0.225263585134692,1
688,941,59,0.15015133745643,1
689,937,59,0.169412651351589,1
689,938,59,0.202386714073112,1
689,939,59,0.212743385451781,1
689,940,59,0.192806679989915,1
689,941,59,0.151671672149348,1
689,942,59,0.133880370392842,1
689,943,59,0.126424812521693,1
690,936,59,0.189105469667124,1
690,937,59,0.21357052195453,1
690,938,59,0.175680924338997,1
690,939,59,0.155638615707439,1
690,940,59,0.157675554464337,1
690,941,59,0.164867993564743,1
690,942,59,0.19980816896281,1
690,943,59,0.215674883277112,1
690,944,59,0.159626675188722,1
691,935,59,0.16053351752982,1
691,936,59,0.236547260851394,1
691,937,59,0.206414544035497,1
691,938,59,0.130708059183563,1
691,941,59,0.138144373653433,1
691,942,59,0.189206644734685,1
691,943,59,0.212328274430782,1
691,944,59,0.170059648891071,1
691,945,59,0.136518058931067,1
692,935,59,0.162850651515146,1
692,936,59,0.192659763569495,1
692,937,59,0.146971571490107,1
692,943,59,0.114409969994426,1
692,944,59,0.124607583002419,1
692,945,59,0.154618432794788,1
692,946,59,0.1595205773906,1
693,934,59,0.114880856259283,1
693,935,59,0.126224970859319,1
693,936,59,0.115496468447229,1
693,945,59,0.116805255271608,1
693,946,59,0.137527418902607,1
694,933,59,0.141712576036166,1
694,934,59,0.115477272153418,1
695,932,59,0.156957495307154,1
695,933,59,0.16573291025801,1
696,930,59,0.122243200225211,1
696,931,59,0.154538609187765,1
696,932,59,0.178959474668806,1
696,933,59,0.146783400703296,1
697,929,59,0.118527940099649,1
697,930,59,0.173531233853915,1
697,931,59,0.195860256822386,1
697,932,59,0.166513233712969,1
698,929,59,0.123660887742147,1
698,930,59,0.188722709700785,1
698,931,59,0.197874807754417,1
698,932,59,0.137278161504756,1
699,930,59,0.148374172839944,1
699,931,59,0.147606945261497,1
700,929,59,0.116229130919949,1
701,927,59,0.118572433104567,1
701,928,59,0.15031217413408,1
701,929,59,0.170562203152281,1
702,927,59,0.15021327200192,1
702,928,59,0.185916894604009,1
702,929,59,0.189218350940849,1
703,926,59,0.121861311747058,1
703,927,59,0.156018419680069,1
703,928,59,0.1759662896122,1
703,929,59,0.145383967330781,1
704,927,59,0.156302242183646,1
704,928,59,0.165681280471467,1
704,929,59,0.114259061215968,1
705,926,59,0.131963755889847,1
705,927,59,0.150886614393706,1
705,928,59,0.140517447758758,1
706,926,59,0.174742343340342,1
706,927,59,0.154814305652859,1
707,926,59,0.150754466164966,1
707,927,59,0.135229916955184,1
712,924,59,0.115104793392292,1
713,923,59,0.136734906389921,1
713,924,59,0.11948820231113,1
714,924,59,0.133351047312104,1
715,924,59,0.18724102668657,1
715,925,59,0.151571439231176,1
716,924,59,0.219984439460684,1
716,925,59,0.167600509439018,1
717,925,59,0.12422862696424,1
719,950,59,0.118356822216787,1
720,950,59,0.137508634799154,1
720,951,59,0.124374636565873,1
721,950,59,0.138065763063749,1
721,951,59,0.14007288279247,1
722,950,59,0.121114623025302,1
687,940,60,0.244825079602202,1
688,938,60,0.167319831359028,1
688,939,60,0.241208073881094,1
688,940,60,0.282510984519732,1
688,941,60,0.183877694688576,1
689,937,60,0.171232200913734,1
689,938,60,0.200587302954166,1
689,939,60,0.209281787272466,1
689,940,60,0.199421534407107,1
689,941,60,0.140542049634691,1
689,943,60,0.122949341192618,1
689,944,60,0.11673780915219,1
690,936,60,0.178002992831751,1
690,937,60,0.223384892144622,1
690,938,60,0.196919927571324,1
690,939,60,0.157182998763523,1
690,940,60,0.134541394181361,1
690,941,60,0.125387553151358,1
690,942,60,0.159485812078129,1
690,943,60,0.207375654181429,1
690,944,60,0.184201417218798,1
690,945,60,0.13406936556037,1
691,935,60,0.140611615590236,1
691,936,60,0.223767239920603,1
691,937,60,0.228020267140806,1
691,938,60,0.159003667128069,1
691,942,60,0.152742578029755,1
691,943,60,0.211393591575225,1
691,944,60,0.202219553217685,1
691,945,60,0.175795065737532,1
691,946,60,0.132664326398988,1
692,935,60,0.146672073976063,1
692,936,60,0.195971159582394,1
692,937,60,0.170584532092812,1
692,944,60,0.12726489180168,1
692,945,60,0.161172318369614,1
692,946,60,0.176664516524735,1
692,947,60,0.124346230761781,1
693,935,60,0.125057694873238,1
693,936,60,0.125424673837303,1
693,946,60,0.136313836274033,1
693,947,60,0.124189928178068,1
694,933,60,0.13926374134306,1
694,934,60,0.125118757930542,1
695,932,60,0.137364803917985,1
695,933,60,0.161935848011707,1
695,934,60,0.118441285909553,1
696,930,60,0.117163849106107,1
696,931,60,0.140924256088264,1
696,932,60,0.163040141311103,1
696,933,60,0.146948806805484,1
697,930,60,0.154623013996194,1
697,931,60,0.180009594378308,1
697,932,60,0.160807989200707,1
698,930,60,0.155046345270617,1
698,931,60,0.178987279852663,1
698,932,60,0.137027373114147,1
699,930,60,0.129223632159252,1
699,931,60,0.143991753177964,1
700,929,60,0.115825855650654,1
701,926,60,0.137353545232781,1
701,927,60,0.142510105494351,1
701,928,60,0.16102801641375,1
701,929,60,0.166909548853649,1
702,926,60,0.164922708890536,1
702,927,60,0.174009292230998,1
702,928,60,0.190603722733726,1
702,929,60,0.173184687754734,1
702,953,60,0.165010305230022,1
703,926,60,0.130935034748354,1
703,927,60,0.166781157445599,1
703,928,60,0.183947201759784,1
703,929,60,0.135850922948385,1
704,927,60,0.153470376656252,1
704,928,60,0.158814860390419,1
705,926,60,0.124473244276348,1
705,927,60,0.133890168746493,1
706,926,60,0.165647045118027,1
706,927,60,0.13602131066547,1
707,926,60,0.130138918514253,1
712,924,60,0.122809373123945,1
713,924,60,0.114379326585534,1
715,924,60,0.181544921023385,1
715,925,60,0.146715518839784,1
716,925,60,0.153538340957834,1
719,950,60,0.120110621528415,1
720,950,60,0.133309274763549,1
720,951,60,0.128539831909243,1
721,950,60,0.142299346675927,1
721,951,60,0.138802311902701,1
722,950,60,0.126829983866634,1
686,940,61,0.120218509410377,1
687,939,61,0.167211978807668,1
687,940,61,0.249115392384493,1
687,941,61,0.186193368342348,1
688,938,61,0.155174218496503,1
688,939,61,0.227359867526259,1
688,940,61,0.302211822881945,1
688,941,61,0.201535552760931,1
689,937,61,0.159112909349777,1
689,938,61,0.18666579737683,1
689,939,61,0.187567010375326,1
689,940,61,0.185574069994916,1
689,941,61,0.129048816340036,1
689,943,61,0.119047441273002,1
689,944,61,0.131951578608988,1
690,936,61,0.149498380822059,1
690,937,61,0.209393031561628,1
690,938,61,0.209457356811194,1
690,939,61,0.153671749311383,1
690,942,61,0.119285286886373,1
690,943,61,0.168523368319737,1
690,944,61,0.180931440448433,1
690,945,61,0.145995881582374,1
691,935,61,0.114505551049988,1
691,936,61,0.184669265051873,1
691,937,61,0.225124476777337,1
691,938,61,0.18684493530637,1
691,939,61,0.115172392610986,1
691,942,61,0.114971208385733,1
691,943,61,0.178116851585468,1
691,944,61,0.205364730524547,1
691,945,61,0.189899183420281,1
691,946,61,0.133060182241841,1
692,935,61,0.120888813370381,1
692,936,61,0.171212086024269,1
692,937,61,0.173224764434388,1
692,938,61,0.117921984942945,1
692,944,61,0.125624091532451,1
692,945,61,0.14923376638916,1
692,946,61,0.155103757499038,1
692,947,61,0.12357383313856,1
693,936,61,0.120888130312074,1
693,947,61,0.119306944545464,1
694,933,61,0.119134036578762,1
694,934,61,0.120185663727286,1
695,932,61,0.116188877587284,1
695,933,61,0.135844316125791,1
695,934,61,0.115161357686262,1
696,931,61,0.127107340870026,1
696,932,61,0.136347047040012,1
696,933,61,0.126651752755881,1
697,930,61,0.130665144278873,1
697,931,61,0.152594625245006,1
697,932,61,0.136671146429989,1
698,930,61,0.121111985007011,1
698,931,61,0.14511479525021,1
698,932,61,0.120679043808816,1
699,931,61,0.121730977155892,1
700,927,61,0.115920423895622,1
700,928,61,0.122532487195248,1
700,929,61,0.118132178471736,1
701,926,61,0.16492747852182,1
701,927,61,0.169871007029565,1
701,928,61,0.169552348552312,1
701,929,61,0.149258980662195,1
701,953,61,0.114985858808739,1
702,926,61,0.179774139469012,1
702,927,61,0.193918816682978,1
702,928,61,0.19394749335502,1
702,929,61,0.1497631248005,1
702,953,61,0.13099058623173,1
702,954,61,0.195390430475593,1
703,926,61,0.128829766606985,1
703,927,61,0.169664264122914,1
703,928,61,0.178690078827755,1
703,929,61,0.12091889148964,1
704,927,61,0.150458949232092,1
704,928,61,0.142121162672644,1
705,926,61,0.114890159984504,1
705,927,61,0.125231968956554,1
706,926,61,0.133714139909938,1
706,927,61,0.114106421238007,1
712,924,61,0.122212203510298,1
714,924,61,0.122702757143659,1
715,925,61,0.130108640188249,1
716,925,61,0.129219663354949,1
721,950,61,0.121456905898496,1
721,951,61,0.119068510088724,1
687,940,62,0.220468539370727,1
688,938,62,0.145748237615352,1
688,939,62,0.20188680960706,1
688,940,62,0.274399125383879,1
688,941,62,0.193570492276825,1
689,937,62,0.143305997967972,1
689,938,62,0.171148679370358,1
689,939,62,0.162289295355166,1
689,940,62,0.160067224243237,1
689,941,62,0.114917364548124,1
689,944,62,0.135665967246365,1
690,936,62,0.124447429383077,1
690,937,62,0.185861566881112,1
690,938,62,0.205361998291318,1
690,939,62,0.141122437212338,1
690,943,62,0.126325710182788,1
690,944,62,0.16367288884107,1
690,945,62,0.143341210801404,1
691,936,62,0.146535485868324,1
691,937,62,0.202019440687362,1
691,938,62,0.192977055930133,1
691,939,62,0.114120977446074,1
691,943,62,0.135662469516757,1
691,944,62,0.184610380715031,1
691,945,62,0.17966119931095,1
691,946,62,0.120749540136883,1
692,936,62,0.138343968001592,1
692,937,62,0.154064142755229,1
692,938,62,0.119641937537757,1
692,944,62,0.122679874690363,1
692,945,62,0.135095542898511,1
692,946,62,0.125089480638265,1
697,931,62,0.122039307320463,1
700,927,62,0.127680485674242,1
700,928,62,0.127851815540717,1
701,926,62,0.171397713007729,1
701,927,62,0.183039405492429,1
701,928,62,0.164144882131458,1
701,929,62,0.121525682803927,1
702,926,62,0.168962150844147,1
702,927,62,0.194405637049384,1
702,928,62,0.18100166590855,1
702,929,62,0.12058411048096,1
702,954,62,0.128459690326801,1
703,926,62,0.120830117463417,1
703,927,62,0.15816775685913,1
703,928,62,0.153672809229446,1
704,927,62,0.13267268797482,1
727,944,62,0.127984152199335,1
727,945,62,0.132254997819866,1
687,939,63,0.144206504354426,1
688,938,63,0.145184573189368,1
688,939,63,0.185126937671542,1
688,940,63,0.221591628550443,1
689,937,63,0.130523009266605,1
689,938,63,0.161750739210411,1
689,939,63,0.15428530054754,1
689,940,63,0.143321390333623,1
689,944,63,0.124414018410353,1
690,937,63,0.157632086046881,1
690,938,63,0.182453977415549,1
690,939,63,0.129697132888664,1
690,944,63,0.143970813907783,1
690,945,63,0.130151496208602,1
691,937,63,0.16440040482275,1
691,938,63,0.169287628127606,1
691,944,63,0.152437309850699,1
691,945,63,0.151017196299086,1
692,937,63,0.123936478215433,1
692,944,63,0.117062250071321,1
692,945,63,0.123052047252937,1
694,950,63,0.117832221659864,1
700,927,63,0.121649905200928,1
701,926,63,0.144726523709943,1
701,927,63,0.157770711552673,1
701,928,63,0.135366717046535,1
702,926,63,0.131553932682296,1
702,927,63,0.157260219682857,1
702,928,63,0.142648389470991,1
703,927,63,0.124355982007962,1
703,928,63,0.114801079759729,1
722,922,63,0.125261046042087,1
727,943,63,0.116602822698414,1
727,944,63,0.141882563339761,1
727,945,63,0.152621288072728,1
688,938,64,0.136030743936232,1
688,939,64,0.157829796096261,1
689,937,64,0.115066389027804,1
689,938,64,0.144697611500554,1
689,939,64,0.138992637856241,1
689,940,64,0.119934321823911,1
690,937,64,0.126355682310241,1
690,938,64,0.145714826642628,1
690,944,64,0.116244370186323,1
691,937,64,0.122472719593353,1
691,938,64,0.129123787877703,1
691,944,64,0.117266201860406,1
691,945,64,0.116642098551087,1
694,950,64,0.118860165528111,1
701,926,64,0.117167711918604,1
701,927,64,0.123487426262678,1
703,955,64,0.114241831659008,1
712,922,64,0.125017394433103,1
712,923,64,0.114562115343958,1
713,922,64,0.122839015499111,1
722,922,64,0.113966794698488,1
727,941,64,0.119667081149588,1
727,942,64,0.121857295835285,1
727,943,64,0.129962877900831,1
727,944,64,0.145392752873838,1
727,945,64,0.157699614604371,1
688,938,65,0.115196075891264,1
688,939,65,0.120500435838308,1
689,938,65,0.121662600663952,1
689,939,65,0.11605884919467,1
702,955,65,0.116471121990634,1
703,955,65,0.125471039364132,1
711,922,65,0.127418391490959,1
712,922,65,0.124580778852289,1
720,952,65,0.119439822939981,1
725,923,65,0.124171379611963,1
725,924,65,0.168473210641615,1
727,940,65,0.121642332675211,1
727,942,65,0.143587794850362,1
727,943,65,0.138274319607975,1
727,944,65,0.140751289237225,1
703,955,66,0.119492524421454,1
710,922,66,0.119538336435517,1
711,922,66,0.138762188115577,1
712,922,66,0.114132295015615,1
718,952,66,0.116147399460412,1
719,952,66,0.121950462633036,1
720,952,66,0.127421806782496,1
725,923,66,0.125132313104883,1
725,924,66,0.173279185338497,1
726,923,66,0.136194065532897,1
726,924,66,0.170318893072451,1
726,944,66,0.131336684809952,1
726,945,66,0.123342252818628,1
726,946,66,0.116050040097878,1
727,944,66,0.135167216913315,1
694,953,67,0.159990215307516,1
695,927,67,0.116885102432366,1
695,953,67,0.118288316179305,1
710,922,67,0.129967953730667,1
711,921,67,0.114081183411237,1
711,922,67,0.141412913645979,1
718,952,67,0.125334580801935,1
725,923,67,0.114314059186578,1
725,924,67,0.142384022352306,1
726,942,67,0.123060208622024,1
726,943,67,0.141995974572519,1
726,944,67,0.149815060785594,1
726,945,67,0.136299810024997,1
694,953,68,0.159613708857749,1
695,953,68,0.122217455993144,1
710,922,68,0.121396266808416,1
711,922,68,0.121553228896702,1
718,952,68,0.130202513598042,1
725,944,68,0.114479394627563,1
725,945,68,0.115038100992385,1
725,946,68,0.114424526202494,1
726,942,68,0.13691167716912,1
726,943,68,0.158984623933534,1
726,944,68,0.152240459512637,1
726,945,68,0.141441319450071,1
726,946,68,0.145956911928252,1
694,953,69,0.134996063699851,1
695,953,69,0.116707766363533,1
718,952,69,0.122878974410092,1
725,946,69,0.124340424766168,1
726,942,69,0.136794838867959,1
726,943,69,0.152878400641114,1
726,944,69,0.136107140474851,1
