x,y,z,signal,mito.p
1018,282,38,0.264474829913771,1
1019,281,38,0.297334645244953,2
1015,277,39,0.228916910714764,1
1015,278,39,0.217522555998533,1
1016,277,39,0.224390683725349,1
1017,281,39,0.22168226332171,1
1017,282,39,0.246515578251725,1
1017,283,39,0.253227356287359,1
1018,281,39,0.287940332360156,2
1018,282,39,0.277208709078212,2
1018,283,39,0.24169909858915,1
1019,280,39,0.283072340679712,2
1019,281,39,0.311336327735333,2
1019,282,39,0.270408745859725,2
1019,283,39,0.226706204279846,1
1020,281,39,0.244978767721359,2
1014,277,40,0.185076367803062,1
1014,278,40,0.165954974869107,1
1015,276,40,0.252437458239228,1
1015,277,40,0.343441999587715,3
1015,278,40,0.289200669152182,1
1015,279,40,0.169396681919437,1
1016,276,40,0.250075960794526,1
1016,277,40,0.310069089699028,3
1016,278,40,0.25786390897028,1
1016,281,40,0.195885412211085,1
1016,282,40,0.196953833172477,1
1016,283,40,0.199258542562729,1
1017,277,40,0.18444605808464,1
1017,280,40,0.23303589363058,1
1017,281,40,0.256805875205907,2
1017,282,40,0.252642893913602,2
1017,283,40,0.237748878182722,1
1017,284,40,0.211693948800587,1
1018,280,40,0.273297964731203,2
1018,281,40,0.327604845210508,2
1018,282,40,0.327741433318246,2
1018,283,40,0.27970976240123,2
1018,284,40,0.23032532983708,1
1019,280,40,0.25456056833466,2
1019,281,40,0.320259047743232,2
1019,282,40,0.328942838665962,2
1019,283,40,0.27428182778489,2
1019,284,40,0.221358823436305,1
1020,281,40,0.2260178699359,2
1020,282,40,0.241489564564932,2
1020,283,40,0.220377315756092,2
1014,276,41,0.174766050174354,1
1014,277,41,0.192628849292653,3
1014,278,41,0.168974163248863,1
1015,275,41,0.178941597384141,1
1015,276,41,0.283356233844493,3
1015,277,41,0.375138354637843,3
1015,278,41,0.293975364489334,3
1015,279,41,0.174238281640109,1
1015,281,41,0.197679264648633,1
1015,282,41,0.21066712373474,1
1015,283,41,0.191049806915904,1
1016,275,41,0.183682634434354,1
1016,276,41,0.276754333981406,3
1016,277,41,0.342741841268932,3
1016,278,41,0.263320956002754,3
1016,279,41,0.188676332397088,1
1016,280,41,0.208107798471984,1
1016,281,41,0.245672613639233,2
1016,282,41,0.242558480154754,2
1016,283,41,0.221515997508203,1
1016,284,41,0.198476323032123,1
1017,276,41,0.188488668015573,1
1017,277,41,0.206149988486934,3
1017,278,41,0.192835427323161,1
1017,279,41,0.216970574224978,1
1017,280,41,0.279733575227049,2
1017,281,41,0.30267922319406,2
1017,282,41,0.292600886298774,2
1017,283,41,0.277056787489161,2
1017,284,41,0.239517292586754,2
1017,285,41,0.195500732615365,1
1018,279,41,0.22546591171608,1
1018,280,41,0.293416811223788,2
1018,281,41,0.353211311483256,2
1018,282,41,0.380296222131692,2
1018,283,41,0.346368927988507,2
1018,284,41,0.269657311060419,2
1018,285,41,0.200551972352061,1
1019,280,41,0.229465594965455,2
1019,281,41,0.315531907396513,2
1019,282,41,0.376978113304393,2
1019,283,41,0.33891899945996,2
1019,284,41,0.252633354651034,2
1019,285,41,0.185504551146841,1
1020,281,41,0.223813193257074,2
1020,282,41,0.292416860969276,2
1020,283,41,0.300174943009383,2
1020,284,41,0.240099988430406,2
1021,282,41,0.214360396448926,1
1021,283,41,0.239243951495135,2
1021,284,41,0.204513027476468,1
1013,274,42,0.22850978440984,1
1013,275,42,0.234795687367699,1
1014,274,42,0.242668570310913,1
1014,275,42,0.229905084101907,1
1014,276,42,0.192426558041867,1
1014,277,42,0.184750172130693,1
1014,278,42,0.159991039688231,1
1014,281,42,0.171259570353498,1
1014,282,42,0.198847977412534,1
1014,283,42,0.185958926243647,1
1015,275,42,0.189374877285042,1
1015,276,42,0.261622472637155,1
1015,277,42,0.328122579853756,3
1015,278,42,0.254562052219949,1
1015,279,42,0.169456107992178,1
1015,280,42,0.17080381736321,1
1015,281,42,0.247048929021103,1
1015,282,42,0.28412811328555,2
1015,283,42,0.245898870815114,2
1015,284,42,0.194142200303221,1
1016,275,42,0.16803887977307,1
1016,276,42,0.2551027753083,1
1016,277,42,0.320088801348555,3
1016,278,42,0.251519286551722,1
1016,279,42,0.190830721852251,1
1016,280,42,0.223604954688267,1
1016,281,42,0.285864141304319,2
1016,282,42,0.294645279812716,2
1016,283,42,0.266110401253888,2
1016,284,42,0.224128789748812,2
1016,285,42,0.186486341471871,1
1017,276,42,0.185283829098623,1
1017,277,42,0.212372367022209,1
1017,278,42,0.202327711967596,1
1017,279,42,0.223387954130138,1
1017,280,42,0.303338515783075,2
1017,281,42,0.346152563381216,2
1017,282,42,0.346573209529879,2
1017,283,42,0.348325395410677,2
1017,284,42,0.299163686962198,2
1017,285,42,0.222506926682311,2
1018,279,42,0.215148527966951,1
1018,280,42,0.290803453693546,2
1018,281,42,0.362149553402346,2
1018,282,42,0.413261487533291,2
1018,283,42,0.411382229253588,2
1018,284,42,0.32127409594171,2
1018,285,42,0.218407446258857,2
1019,280,42,0.208949396967862,2
1019,281,42,0.304127212590734,2
1019,282,42,0.401998609764361,2
1019,283,42,0.39843464705388,2
1019,284,42,0.292406332449848,2
1019,285,42,0.198736803784576,2
1020,281,42,0.232701642580932,2
1020,282,42,0.350024067206154,2
1020,283,42,0.3970766329239,2
1020,284,42,0.307981734172927,2
1020,285,42,0.203885956396573,2
1021,281,42,0.17054148764258,1
1021,282,42,0.244997186741923,2
1021,283,42,0.294008151288088,2
1021,284,42,0.248598105262206,2
1021,285,42,0.174608817218119,1
1022,282,42,0.147908574388536,1
1022,283,42,0.161733250562369,1
1022,284,42,0.149388855955534,1
1012,274,43,0.128040751823907,1
1012,275,43,0.149149538233741,1
1012,276,43,0.1210720732035,1
1013,273,43,0.156426405696311,1
1013,274,43,0.263961452711449,1
1013,275,43,0.282856988883014,1
1013,276,43,0.193963486340907,1
1013,277,43,0.134254038617573,1
1013,278,43,0.11378003713576,1
1013,282,43,0.153505035976917,1
1013,283,43,0.162386902031915,1
1014,272,43,0.135341950294459,1
1014,273,43,0.22031892604768,1
1014,274,43,0.309097356818731,1
1014,275,43,0.292851521590107,1
1014,276,43,0.218002180698977,1
1014,277,43,0.184705019621203,1
1014,278,43,0.159639476643551,1
1014,279,43,0.144758921872073,1
1014,280,43,0.148747864618409,1
1014,281,43,0.206690523145407,1
1014,282,43,0.256887606665443,2
1014,283,43,0.24141998683252,2
1014,284,43,0.194890196257255,1
1015,271,43,0.145322562744323,1
1015,272,43,0.164501415014168,1
1015,273,43,0.191351471373545,1
1015,274,43,0.200514733897442,1
1015,275,43,0.193602831554618,1
1015,276,43,0.21891083667765,1
1015,277,43,0.256619211858118,1
1015,278,43,0.219085393405783,1
1015,279,43,0.178370972829542,1
1015,280,43,0.193018451618933,1
1015,281,43,0.287852100069832,2
1015,282,43,0.348224161458779,2
1015,283,43,0.301405248789621,2
1015,284,43,0.221860141126441,2
1015,285,43,0.189588121022481,1
1016,272,43,0.135817547306263,1
1016,276,43,0.20254921128906,1
1016,277,43,0.264859438848286,1
1016,278,43,0.237246406359584,1
1016,279,43,0.19771579649121,1
1016,280,43,0.234812269196953,2
1016,281,43,0.32738417026976,2
1016,282,43,0.359133238578229,2
1016,283,43,0.317381511524183,2
1016,284,43,0.250812980708172,2
1016,285,43,0.199828401620949,1
1017,276,43,0.168771283154708,1
1017,277,43,0.201895783579994,1
1017,278,43,0.199712846998331,1
1017,279,43,0.205957271829319,1
1017,280,43,0.294405997421526,2
1017,281,43,0.396150405859114,2
1017,282,43,0.42628590201571,2
1017,283,43,0.416830773387822,2
1017,284,43,0.345545112562356,2
1017,285,43,0.237528603655464,2
1017,286,43,0.166316960441408,1
1018,275,43,0.15074491512553,1
1018,276,43,0.166899397193978,1
1018,277,43,0.171164872562989,1
1018,278,43,0.166808091141271,1
1018,279,43,0.182225824164021,1
1018,280,43,0.263163216641222,2
1018,281,43,0.365723879756111,2
1018,282,43,0.43813653968126,2
1018,283,43,0.455346735471208,2
1018,284,43,0.362930241940195,2
1018,285,43,0.230055922219161,2
1018,286,43,0.163894564815544,1
1019,273,43,0.197071401639415,1
1019,274,43,0.231167234531509,1
1019,275,43,0.193256756530132,1
1019,276,43,0.165326761433077,1
1019,280,43,0.191273744048913,2
1019,281,43,0.285937252096942,2
1019,282,43,0.402569976261604,2
1019,283,43,0.442745581602008,2
1019,284,43,0.337866029748555,2
1019,285,43,0.214330412544606,2
1019,286,43,0.172396838881525,1
1020,272,43,0.168782694939188,1
1020,273,43,0.207069031662626,1
1020,274,43,0.211084189715723,1
1020,275,43,0.154638182601365,1
1020,280,43,0.145412220035598,1
1020,281,43,0.233376457081138,2
1020,282,43,0.376370638931799,2
1020,283,43,0.454290350468267,2
1020,284,43,0.353430643861124,2
1020,285,43,0.222400134049015,2
1020,286,43,0.174484936350272,1
1021,269,43,0.148855198987604,1
1021,270,43,0.158620035673544,1
1021,271,43,0.157067090834884,1
1021,272,43,0.14598837971786,1
1021,273,43,0.135000515355716,1
1021,281,43,0.166848368027671,1
1021,282,43,0.254567822884959,2
1021,283,43,0.311265242563898,2
1021,284,43,0.26468601269942,2
1021,285,43,0.187653240598197,1
1021,292,43,0.148692006936481,1
1021,293,43,0.163304060908827,1
1022,269,43,0.20863690956911,1
1022,270,43,0.188705833449846,1
1022,282,43,0.141134897138014,1
1022,283,43,0.161692997229704,2
1022,284,43,0.155679198792391,1
1022,291,43,0.148810258461726,1
1022,292,43,0.169274426259286,1
1022,293,43,0.171685174563323,1
1023,292,43,0.156878755171929,1
1012,274,44,0.116117933738257,1
1012,275,44,0.140831442596534,1
1012,276,44,0.125308224172765,1
1012,277,44,0.115063786340115,1
1013,273,44,0.15472296426955,1
1013,274,44,0.262316177232621,1
1013,275,44,0.301045135739231,1
1013,276,44,0.225305840534809,1
1013,277,44,0.169168257799961,1
1013,278,44,0.140124924769371,1
1013,279,44,0.120800227774036,1
1013,280,44,0.115385871885772,1
1013,282,44,0.183483876243779,1
1013,283,44,0.206828453816025,1
1013,284,44,0.182523354941216,1
1014,272,44,0.144557831861759,1
1014,273,44,0.234907025871799,1
1014,274,44,0.327728078350651,1
1014,275,44,0.322209249871962,1
1014,276,44,0.234293969264072,1
1014,277,44,0.183847286817031,1
1014,278,44,0.156798248506599,1
1014,279,44,0.144541049825759,1
1014,280,44,0.15564393885149,1
1014,281,44,0.221864616336041,1
1014,282,44,0.301212885438026,2
1014,283,44,0.304751457222461,2
1014,284,44,0.237106049654288,1
1014,285,44,0.196984511911972,1
1015,270,44,0.116064690520884,1
1015,271,44,0.141352498316379,1
1015,272,44,0.169506854513668,1
1015,273,44,0.197415439265847,1
1015,274,44,0.200933519301061,1
1015,275,44,0.18455301559408,1
1015,276,44,0.174422942920445,1
1015,277,44,0.186336857694364,1
1015,278,44,0.179599735840154,1
1015,279,44,0.172662960753448,1
1015,280,44,0.198106340966879,1
1015,281,44,0.293415397999704,2
1015,282,44,0.373130092552987,2
1015,283,44,0.33816977871172,2
1015,284,44,0.253552845347685,2
1015,285,44,0.205803159742936,1
1016,268,44,0.116549025968275,1
1016,269,44,0.114823078947973,1
1016,270,44,0.119118444006366,1
1016,271,44,0.125156196591906,1
1016,272,44,0.125300239456689,1
1016,273,44,0.117773890835788,1
1016,276,44,0.145628396213012,1
1016,277,44,0.192492367176721,1
1016,278,44,0.198086862028252,1
1016,279,44,0.183517982051677,1
1016,280,44,0.219006771039232,2
1016,281,44,0.330026993522158,2
1016,282,44,0.393717823242976,2
1016,283,44,0.345827710271727,2
1016,284,44,0.276208641055026,2
1016,285,44,0.212506505541534,2
1017,276,44,0.136603464773223,1
1017,277,44,0.166397172685054,1
1017,278,44,0.17035031375459,1
1017,279,44,0.168116218461078,1
1017,280,44,0.243279954603474,2
1017,281,44,0.392231064398926,2
1017,282,44,0.466867856387792,2
1017,283,44,0.437334487906005,2
1017,284,44,0.362721979817653,2
1017,285,44,0.24315457807347,2
1017,286,44,0.163305332810503,1
1018,275,44,0.11979282276248,1
1018,276,44,0.138194931745045,1
1018,277,44,0.140066264193009,1
1018,278,44,0.13622242422952,1
1018,279,44,0.143470921218599,1
1018,280,44,0.210724312202681,2
1018,281,44,0.329394104669782,2
1018,282,44,0.421851346161891,2
1018,283,44,0.462176941685098,2
1018,284,44,0.397929796303533,2
1018,285,44,0.245768642215754,2
1018,286,44,0.166725111333793,1
1018,289,44,0.1871866999974,1
1019,273,44,0.150604028461202,1
1019,274,44,0.172596221246072,1
1019,275,44,0.145104219623314,1
1019,276,44,0.128493537043618,1
1019,277,44,0.119919188549342,1
1019,278,44,0.117102927371211,1
1019,279,44,0.121609863851876,1
1019,280,44,0.162141236578611,1
1019,281,44,0.244556143058978,2
1019,282,44,0.365442789485764,2
1019,283,44,0.465831821811663,2
1019,284,44,0.398395359424339,2
1019,285,44,0.243433807598774,2
1019,286,44,0.183058625339975,1
1019,288,44,0.246335180197377,1
1019,289,44,0.209110622282135,1
1020,272,44,0.128453719455046,1
1020,273,44,0.164546284878841,1
1020,274,44,0.168054437014864,1
1020,275,44,0.120289971441568,1
1020,280,44,0.126823683242592,1
1020,281,44,0.206816229427697,2
1020,282,44,0.341413010216291,2
1020,283,44,0.439233531322887,2
1020,284,44,0.359678601752322,2
1020,285,44,0.228676073777081,2
1020,286,44,0.179004768500705,1
1020,292,44,0.144476135732825,1
1020,293,44,0.15245489271368,1
1021,269,44,0.132153021925324,1
1021,270,44,0.137941152030125,1
1021,271,44,0.121236525379432,1
1021,272,44,0.12085914744148,1
1021,273,44,0.11819244070206,1
1021,281,44,0.148025589342708,1
1021,282,44,0.232041054536506,2
1021,283,44,0.287274562494088,2
1021,284,44,0.251370285625778,2
1021,285,44,0.187554432680977,1
1021,291,44,0.149183844248385,1
1021,292,44,0.171425777282668,1
1021,293,44,0.176092007671357,1
1021,294,44,0.192919914569662,1
1022,268,44,0.113964827961637,1
1022,269,44,0.183027758170602,1
1022,270,44,0.165221523346273,1
1022,282,44,0.135142026194014,1
1022,283,44,0.164164467061892,1
1022,284,44,0.160525733020489,1
1022,290,44,0.129784399475863,1
1022,291,44,0.170777908255,1
1022,292,44,0.201303807564857,1
1022,293,44,0.189111605415022,1
1022,294,44,0.185448281274555,1
1023,269,44,0.136825812029137,1
1023,270,44,0.115640405320205,1
1023,291,44,0.157685070173171,1
1023,292,44,0.175330067906359,1
1023,293,44,0.179988737546198,1
1023,294,44,0.189073507249086,1
1024,292,44,0.142281186746445,1
1012,275,45,0.125965243826378,1
1012,276,45,0.12318020312364,1
1012,277,45,0.124840411670291,1
1012,278,45,0.126221084493088,1
1012,283,45,0.140082268955763,1
1013,273,45,0.147183931962493,1
1013,274,45,0.226232161814535,1
1013,275,45,0.266823914540267,1
1013,276,45,0.222114191709311,1
1013,277,45,0.183238151906138,1
1013,278,45,0.157728809458577,1
1013,279,45,0.134884018583708,1
1013,280,45,0.139875855801398,1
1013,281,45,0.181460951959049,1
1013,282,45,0.232761021546203,2
1013,283,45,0.259695989119305,2
1013,284,45,0.229166650964177,1
1013,286,45,0.192431669202305,1
1013,287,45,0.217552163043097,1
1013,288,45,0.20994117407642,1
1014,272,45,0.151468391641703,1
1014,273,45,0.220088075893525,1
1014,274,45,0.284066732252826,1
1014,275,45,0.285471853852279,1
1014,276,45,0.218072488597166,1
1014,277,45,0.172645012807579,1
1014,278,45,0.151882112992353,1
1014,279,45,0.147194684242401,1
1014,280,45,0.176565473070167,1
1014,281,45,0.253556519730304,2
1014,282,45,0.341123016634213,2
1014,283,45,0.359487745839751,2
1014,284,45,0.282415191480558,2
1014,285,45,0.216843148520053,1
1015,269,45,0.115114485754136,1
1015,270,45,0.122013150898038,1
1015,271,45,0.132426045041524,1
1015,272,45,0.156192022481946,1
1015,273,45,0.175408442958696,1
1015,274,45,0.17399348767499,1
1015,275,45,0.15924822555584,1
1015,276,45,0.141749154986213,1
1015,277,45,0.143019502115502,1
1015,278,45,0.15123426751842,1
1015,279,45,0.163821112493768,1
1015,280,45,0.197860392868758,1
1015,281,45,0.28259476515419,2
1015,282,45,0.365793481042258,2
1015,283,45,0.35580926487098,2
1015,284,45,0.285766746611183,2
1015,285,45,0.22062439443348,1
1015,286,45,0.179501116352812,1
1016,277,45,0.13468388249965,1
1016,278,45,0.150838341014363,1
1016,279,45,0.155436713093276,1
1016,280,45,0.185986130807268,2
1016,281,45,0.294728212512724,2
1016,282,45,0.389752363570173,2
1016,283,45,0.360516761402928,2
1016,284,45,0.308814547125747,2
1016,285,45,0.231796778753551,2
1016,286,45,0.167481233326311,1
1017,277,45,0.126878999188621,1
1017,278,45,0.130506274338074,1
1017,279,45,0.127981455296707,1
1017,280,45,0.177321653947022,2
1017,281,45,0.328082844703255,2
1017,282,45,0.444524972046428,2
1017,283,45,0.417264538966733,2
1017,284,45,0.364315861047286,2
1017,285,45,0.254058379156339,2
1017,286,45,0.171616432988494,1
1017,289,45,0.181425079621045,1
1017,290,45,0.19031438865622,1
1017,291,45,0.183712983421562,1
1018,280,45,0.155713975881729,1
1018,281,45,0.266432710560025,2
1018,282,45,0.3765306630056,2
1018,283,45,0.443501420949709,2
1018,284,45,0.435779705876035,2
1018,285,45,0.285109762288172,2
1018,286,45,0.186586515505706,2
1018,288,45,0.229310281638601,1
1018,289,45,0.231979767718721,1
1018,290,45,0.209714634255723,1
1018,291,45,0.188410787591666,1
1019,280,45,0.132257965590443,1
1019,281,45,0.20117692359583,2
1019,282,45,0.313722721477652,2
1019,283,45,0.456602102425206,2
1019,284,45,0.459530915124776,2
1019,285,45,0.293522944352512,2
1019,286,45,0.205479225229102,2
1019,287,45,0.241047201872842,1
1019,288,45,0.287446975832361,1
1019,289,45,0.237647903321906,1
1019,290,45,0.180840322825604,1
1020,273,45,0.117077300907817,1
1020,274,45,0.116263802017481,1
1020,281,45,0.169770927210669,1
1020,282,45,0.275958052871163,2
1020,283,45,0.377335447014084,2
1020,284,45,0.347196888871972,2
1020,285,45,0.237078044263686,2
1020,286,45,0.187725703663115,1
1020,288,45,0.213960878000322,1
1020,289,45,0.170337217878076,1
1020,291,45,0.139535798756137,1
1020,292,45,0.155083524840899,1
1020,293,45,0.166660809637962,1
1021,270,45,0.114439859683807,1
1021,281,45,0.123991629285319,1
1021,282,45,0.194968865731276,1
1021,283,45,0.247777987772408,2
1021,284,45,0.229468068107603,2
1021,285,45,0.180235168495881,1
1021,290,45,0.135393556527268,1
1021,291,45,0.167243399489807,1
1021,292,45,0.201754084311818,1
1021,293,45,0.201383207204654,1
1021,294,45,0.204806177259001,1
1022,269,45,0.13686137816859,1
1022,270,45,0.129359525431815,1
1022,282,45,0.132378466497356,1
1022,283,45,0.173411675096391,1
1022,284,45,0.16799171341926,1
1022,290,45,0.137500862066691,1
1022,291,45,0.188689887571429,1
1022,292,45,0.231989518964902,1
1022,293,45,0.21490929268323,1
1022,294,45,0.20140949317262,1
1023,290,45,0.144147514025778,1
1023,291,45,0.168094749231866,1
1023,292,45,0.197874760646948,1
1023,293,45,0.207024962624934,1
1023,294,45,0.221173714635009,1
1023,295,45,0.205358253247495,1
1024,291,45,0.143222040680503,1
1024,292,45,0.162174058707966,1
1024,293,45,0.20290484912985,1
1024,294,45,0.250895418779751,1
1012,275,46,0.114008520139574,1
1012,276,46,0.118182065281908,1
1012,277,46,0.127906601527714,1
1012,278,46,0.134545951829032,1
1012,279,46,0.118288551716653,1
1012,281,46,0.115757443828111,1
1012,282,46,0.133114450046674,1
1012,283,46,0.14938287330691,1
1012,284,46,0.169226859491986,1
1012,286,46,0.210629202221814,1
1012,287,46,0.224361194449459,1
1012,288,46,0.205047555932583,1
1013,273,46,0.138261129516523,1
1013,274,46,0.18077652753507,1
1013,275,46,0.207523383205697,1
1013,276,46,0.186351037042676,1
1013,277,46,0.16494005621617,1
1013,278,46,0.147962877523971,1
1013,279,46,0.129925545231273,1
1013,280,46,0.14656987432104,1
1013,281,46,0.205973618121226,1
1013,282,46,0.251114539174006,2
1013,283,46,0.267614896060195,2
1013,284,46,0.249057638626919,1
1013,285,46,0.228656689053392,1
1013,286,46,0.232575017702987,1
1013,287,46,0.257138147741838,1
1013,288,46,0.237252836529167,1
1013,289,46,0.165808812168199,1
1014,269,46,0.119248260415367,1
1014,270,46,0.127844572767285,1
1014,271,46,0.124120903958422,1
1014,272,46,0.147608170055704,1
1014,273,46,0.181930354338617,1
1014,274,46,0.20959189574401,1
1014,275,46,0.211920936142245,1
1014,276,46,0.17391275724918,1
1014,277,46,0.145662914211268,1
1014,278,46,0.134731425713217,1
1014,279,46,0.135980244728957,1
1014,280,46,0.175764469436109,1
1014,281,46,0.25500611078094,2
1014,282,46,0.324725942874845,2
1014,283,46,0.339958849741116,2
1014,284,46,0.279738992586038,2
1014,285,46,0.221605548807672,1
1014,286,46,0.209626637502746,1
1014,287,46,0.221661017852977,1
1014,288,46,0.205247056065803,1
1015,268,46,0.116218284425102,1
1015,269,46,0.132502594679419,1
1015,270,46,0.12857613999134,1
1015,271,46,0.118617632721527,1
1015,272,46,0.128393798753876,1
1015,273,46,0.135824954955838,1
1015,274,46,0.132072868566015,1
1015,275,46,0.123548171344564,1
1015,278,46,0.120960781806869,1
1015,279,46,0.137284827211686,1
1015,280,46,0.172466475498275,1
1015,281,46,0.237701111208676,2
1015,282,46,0.308221275655199,2
1015,283,46,0.319690908107648,2
1015,284,46,0.278799598983534,2
1015,285,46,0.219811413725308,1
1015,286,46,0.191398955702774,1
1016,279,46,0.117242636348802,1
1016,280,46,0.145686456169138,1
1016,281,46,0.2294713891842,2
1016,282,46,0.330081708847951,2
1016,283,46,0.33424699840626,2
1016,284,46,0.311990815362462,2
1016,285,46,0.240005938367602,2
1016,286,46,0.185288045217141,1
1016,290,46,0.184485699020202,1
1016,291,46,0.22313998041083,1
1016,292,46,0.214160754993298,1
1017,280,46,0.126611299216471,1
1017,281,46,0.236001803462361,2
1017,282,46,0.355104772665005,2
1017,283,46,0.353063417582844,2
1017,284,46,0.339281326561415,2
1017,285,46,0.260279132483917,2
1017,286,46,0.190793283190887,1
1017,288,46,0.167743080195379,1
1017,289,46,0.202134288697938,1
1017,290,46,0.239636804236808,1
1017,291,46,0.254358948365314,2
1017,292,46,0.224700839304362,1
1018,281,46,0.195614132071255,2
1018,282,46,0.303362611253711,2
1018,283,46,0.385292110591756,2
1018,284,46,0.436401618688023,2
1018,285,46,0.318308727845828,2
1018,286,46,0.213168601024983,2
1018,287,46,0.20053769878881,1
1018,288,46,0.249405833487532,1
1018,289,46,0.275038114653551,1
1018,290,46,0.265724543971431,1
1018,291,46,0.238935703768635,1
1018,292,46,0.208734257154777,1
1019,281,46,0.155259859876006,1
1019,282,46,0.25077025423336,2
1019,283,46,0.39092811890076,2
1019,284,46,0.460377860318439,2
1019,285,46,0.322880484204489,2
1019,286,46,0.223163015963402,2
1019,287,46,0.246259596262606,1
1019,288,46,0.298408295135457,1
1019,289,46,0.259290087608587,1
1019,290,46,0.20179417276834,1
1019,291,46,0.171298057156058,1
1020,281,46,0.126129531126166,1
1020,282,46,0.203090570328249,1
1020,283,46,0.292369588623659,2
1020,284,46,0.310981514275259,2
1020,285,46,0.234100051365985,2
1020,286,46,0.189898547469443,1
1020,287,46,0.197416428522706,1
1020,288,46,0.20403114161749,1
1020,289,46,0.162387314222273,1
1020,291,46,0.135574932061608,1
1020,292,46,0.157941605675056,1
1020,293,46,0.180621072885807,1
1021,282,46,0.149232741801699,1
1021,283,46,0.20081596261099,1
1021,284,46,0.200964751553322,2
1021,285,46,0.167574247024786,1
1021,290,46,0.124804821977104,1
1021,291,46,0.152808422495211,1
1021,292,46,0.191423510471237,1
1021,293,46,0.204296356670625,1
1021,294,46,0.204771600376408,1
1022,282,46,0.115658965663177,1
1022,283,46,0.162507603145573,1
1022,290,46,0.123145390703699,1
1022,291,46,0.162337215428488,1
1022,292,46,0.208002042203017,1
1022,293,46,0.214049840456422,1
1022,294,46,0.207025810559384,1
1022,295,46,0.17892697051487,1
1023,291,46,0.153751938001294,1
1023,292,46,0.19469805666614,1
1023,293,46,0.222747622297586,1
1023,294,46,0.238441405091451,1
1023,295,46,0.220712084987905,1
1023,296,46,0.159693426472966,1
1024,292,46,0.175614184831621,1
1024,293,46,0.215887078873355,1
1024,294,46,0.253330662967914,1
1024,295,46,0.251931524017084,1
1011,287,47,0.145006612946565,1
1012,277,47,0.122146017515688,1
1012,278,47,0.130394064345788,1
1012,279,47,0.114572384772303,1
1012,281,47,0.116529005293749,1
1012,282,47,0.140122098321203,1
1012,283,47,0.162041097875378,1
1012,284,47,0.189825295354412,1
1012,285,47,0.219303712973058,1
1012,286,47,0.239893163085682,1
1012,287,47,0.243470857623515,1
1012,288,47,0.216123393493969,1
1013,272,47,0.116332578922912,1
1013,273,47,0.129618110108622,1
1013,274,47,0.139417453015952,1
1013,275,47,0.145978145620117,1
1013,276,47,0.1398490398744,1
1013,277,47,0.13596049492238,1
1013,278,47,0.12934030558427,1
1013,279,47,0.120349880365871,1
1013,280,47,0.141901582980561,1
1013,281,47,0.206105471928282,1
1013,282,47,0.246464089787591,1
1013,283,47,0.257619515418652,1
1013,284,47,0.259682351506893,1
1013,285,47,0.25684452688461,1
1013,286,47,0.261433689453241,1
1013,287,47,0.271987010963227,1
1013,288,47,0.242257863838309,1
1013,289,47,0.176878407989879,1
1014,269,47,0.1375989162644,1
1014,270,47,0.137582723071769,1
1014,271,47,0.12334502038246,1
1014,272,47,0.13254116392005,1
1014,273,47,0.138557400168909,1
1014,274,47,0.13974307162182,1
1014,275,47,0.13898127317923,1
1014,276,47,0.126142827209425,1
1014,277,47,0.118164670848805,1
1014,278,47,0.115845523019159,1
1014,279,47,0.121741646997728,1
1014,280,47,0.159788889759854,1
1014,281,47,0.230811690905658,1
1014,282,47,0.28057255925837,2
1014,283,47,0.290456342304731,2
1014,284,47,0.260380107344733,1
1014,285,47,0.224363479161728,1
1014,286,47,0.22180076216117,1
1014,287,47,0.236591188566678,1
1014,288,47,0.212348931056146,1
1015,268,47,0.116452644085733,1
1015,269,47,0.133465907099548,1
1015,270,47,0.120528099699756,1
1015,280,47,0.136834008728826,1
1015,281,47,0.184973320213589,1
1015,282,47,0.242979620931846,2
1015,283,47,0.275667258462103,2
1015,284,47,0.264439193113114,2
1015,285,47,0.225740477601906,1
1015,286,47,0.219560448681688,1
1015,287,47,0.225762830096171,1
1015,291,47,0.218681988590948,1
1015,292,47,0.2165804301628,1
1016,281,47,0.163453945099824,1
1016,282,47,0.249261284217453,2
1016,283,47,0.293596196467543,2
1016,284,47,0.302008459936228,2
1016,285,47,0.25728505238539,2
1016,286,47,0.222939655896894,1
1016,287,47,0.199237815276161,1
1016,289,47,0.152851808474596,1
1016,290,47,0.195353851525547,1
1016,291,47,0.258951738209095,2
1016,292,47,0.242945585785151,1
1016,293,47,0.194215852831743,1
1017,281,47,0.155726577129813,1
1017,282,47,0.249126038672594,2
1017,283,47,0.289252369599929,2
1017,284,47,0.321765379740849,2
1017,285,47,0.295200276464317,2
1017,286,47,0.23786179478705,2
1017,287,47,0.18820178352648,1
1017,288,47,0.174912978371642,1
1017,289,47,0.209344181115784,1
1017,290,47,0.275730853545892,2
1017,291,47,0.322545950510023,2
1017,292,47,0.267863647052749,2
1017,293,47,0.194304638634833,1
1018,281,47,0.138318965712169,1
1018,282,47,0.224937907644487,2
1018,283,47,0.311533496048814,2
1018,284,47,0.405189198671795,2
1018,285,47,0.359212190697066,2
1018,286,47,0.262202718892394,2
1018,287,47,0.221356091203076,1
1018,288,47,0.253558733781369,1
1018,289,47,0.297483269311142,1
1018,290,47,0.30433599289544,2
1018,291,47,0.283888477588339,2
1018,292,47,0.224682750036084,1
1018,293,47,0.173890722730334,1
1019,281,47,0.11734566038454,1
1019,282,47,0.18855357033164,2
1019,283,47,0.298923321099209,2
1019,284,47,0.401777204657836,2
1019,285,47,0.335347004925934,2
1019,286,47,0.24800191312855,2
1019,287,47,0.24707472036064,1
1019,288,47,0.285701408551023,1
1019,289,47,0.267495831931101,1
1019,290,47,0.212084893689747,1
1019,291,47,0.181127065992289,1
1019,292,47,0.175388492945374,1
1019,293,47,0.187185369211387,1
1020,282,47,0.146008635929734,1
1020,283,47,0.218367899538234,2
1020,284,47,0.265674374516442,2
1020,285,47,0.227877555062037,2
1020,286,47,0.193046916307362,1
1020,287,47,0.193793605029118,1
1020,288,47,0.194501783394579,1
1020,289,47,0.162698258851399,1
1020,290,47,0.134091882930778,1
1020,291,47,0.137633328270851,1
1020,292,47,0.170324640183727,1
1020,293,47,0.209274626937106,1
1020,294,47,0.224602102048346,1
1021,283,47,0.161095698070516,1
1021,284,47,0.177114227982063,1
1021,285,47,0.158874710430385,1
1021,290,47,0.126361841611874,1
1021,291,47,0.14589444742373,1
1021,292,47,0.180851899486227,1
1021,293,47,0.204697665203069,1
1021,294,47,0.211762325292528,1
1021,295,47,0.1896639758252,1
1022,283,47,0.140162069009051,1
1022,284,47,0.141822536646785,1
1022,290,47,0.125974429782925,1
1022,291,47,0.150621187356958,1
1022,292,47,0.190232021245846,1
1022,293,47,0.212676657721272,1
1022,294,47,0.216912608483791,1
1022,295,47,0.189845068714724,1
1023,291,47,0.157735168966956,1
1023,292,47,0.204933602963927,1
1023,293,47,0.239775088213447,1
1023,294,47,0.250201101787182,1
1023,295,47,0.226315377159359,1
1023,296,47,0.165258314279932,1
1024,292,47,0.18745350492763,1
1024,293,47,0.213506220258699,1
1024,294,47,0.230762487153793,1
1024,295,47,0.226371387940563,1
1011,286,48,0.159101603557104,1
1011,287,48,0.160346288892398,1
1012,282,48,0.132281943292405,1
1012,283,48,0.157738678473432,1
1012,285,48,0.222485846089722,1
1012,286,48,0.250505816453471,1
1012,287,48,0.249227390393166,1
1012,288,48,0.216818417098579,1
1013,272,48,0.115377416095002,1
1013,273,48,0.1189047409711,1
1013,280,48,0.12486467201707,1
1013,281,48,0.174055010030122,1
1013,282,48,0.206378813019902,1
1013,283,48,0.216168098482499,1
1013,284,48,0.235136133049583,1
1013,285,48,0.253261721186339,1
1013,286,48,0.26518789567919,1
1013,287,48,0.264100749498682,1
1013,288,48,0.229978359770673,1
1013,289,48,0.181613886358694,1
1014,268,48,0.114285088092852,1
1014,269,48,0.137377511157875,1
1014,270,48,0.124934179088278,1
1014,280,48,0.128318438579585,1
1014,281,48,0.179686813997476,1
1014,282,48,0.214911035659601,1
1014,283,48,0.220423221985094,1
1014,284,48,0.216524961117495,1
1014,285,48,0.213798310123169,1
1014,286,48,0.233799199512193,1
1014,287,48,0.25344635891294,1
1014,288,48,0.213202047328309,1
1014,291,48,0.183167325825785,1
1014,292,48,0.190827754081674,1
1015,269,48,0.118586683114083,1
1015,281,48,0.130690594089256,1
1015,282,48,0.176714002921417,1
1015,283,48,0.21670300379837,1
1015,284,48,0.227233878599152,1
1015,285,48,0.223369582217043,1
1015,286,48,0.253750602504535,1
1015,287,48,0.282389824108246,2
1015,288,48,0.219449863897099,1
1015,290,48,0.171448907050179,1
1015,291,48,0.222334466236569,1
1015,292,48,0.222111977658246,1
1015,293,48,0.181137064552684,1
1016,282,48,0.164651334535767,1
1016,283,48,0.226927279634084,1
1016,284,48,0.261360884859169,2
1016,285,48,0.265012632339014,2
1016,286,48,0.262925559457729,2
1016,287,48,0.251223781395715,1
1016,288,48,0.190774593302373,1
1016,289,48,0.163112192185662,1
1016,290,48,0.211482012295426,2
1016,291,48,0.283101853509337,2
1016,292,48,0.257709632007754,1
1016,293,48,0.206370734088887,1
1017,282,48,0.155557049124046,1
1017,283,48,0.221090899703675,2
1017,284,48,0.291672657166535,2
1017,285,48,0.328385274657274,2
1017,286,48,0.282729610285558,2
1017,287,48,0.219033292544546,1
1017,288,48,0.185033876865597,1
1017,289,48,0.224538412749618,2
1017,290,48,0.329541598156704,2
1017,291,48,0.400198680463251,2
1017,292,48,0.296272748668083,2
1017,293,48,0.198016059501633,1
1018,282,48,0.14730343183568,1
1018,283,48,0.22860505926685,2
1018,284,48,0.341078170323274,2
1018,285,48,0.379930809490987,2
1018,286,48,0.303644478797305,2
1018,287,48,0.23620233995991,2
1018,288,48,0.244658366267735,1
1018,289,48,0.304029252607964,2
1018,290,48,0.349511561492018,2
1018,291,48,0.345359038057936,2
1018,292,48,0.235215556243115,2
1018,293,48,0.167216395132932,1
1019,282,48,0.129139674871783,1
1019,283,48,0.211712886003316,2
1019,284,48,0.313793217805719,2
1019,285,48,0.322319999532694,2
1019,286,48,0.264436319557476,2
1019,287,48,0.241591128269117,1
1019,288,48,0.262988824789232,1
1019,289,48,0.263238164625155,1
1019,290,48,0.225634108935835,2
1019,291,48,0.202221107764178,2
1019,292,48,0.185375512011086,1
1019,293,48,0.200739248096952,1
1019,294,48,0.201956034033451,1
1020,283,48,0.163043226850353,1
1020,284,48,0.218759291948354,2
1020,285,48,0.215883545813145,2
1020,286,48,0.19425775492584,1
1020,287,48,0.190175963357172,1
1020,288,48,0.190553659270543,1
1020,289,48,0.16733306855795,1
1020,290,48,0.139174036944316,1
1020,292,48,0.179087442109631,1
1020,293,48,0.228487149270758,1
1020,294,48,0.241827018922505,1
1020,295,48,0.201778627303414,1
1021,283,48,0.129172391009332,1
1021,284,48,0.156048568460532,1
1021,285,48,0.152959413711741,1
1021,291,48,0.145873696583427,1
1021,292,48,0.176944535100152,1
1021,293,48,0.209179493402505,1
1021,294,48,0.220206975146476,1
1021,295,48,0.193040415476575,1
1022,284,48,0.121981141372531,1
1022,291,48,0.149700530750437,1
1022,292,48,0.189670358887314,1
1022,293,48,0.223913673489461,1
1022,294,48,0.230657131298316,1
1022,295,48,0.200034802998447,1
1023,291,48,0.163690459927183,1
1023,292,48,0.214256171172716,1
1023,293,48,0.250451454433698,1
1023,294,48,0.250778097627027,1
1023,295,48,0.216142895986331,1
1024,292,48,0.183332814366045,1
1024,293,48,0.197134596309714,1
1024,294,48,0.199259508265853,1
1011,286,49,0.195615133104981,1
1011,287,49,0.208554871911022,1
1011,288,49,0.190633000026003,1
1011,289,49,0.182523343164348,1
1012,282,49,0.124431554165864,1
1012,283,49,0.154685537385053,1
1012,284,49,0.186282366129051,1
1012,285,49,0.215571882795108,1
1012,286,49,0.250389743648688,1
1012,287,49,0.254255311932473,1
1012,288,49,0.228638764661258,1
1012,289,49,0.212358211227632,1
1013,281,49,0.138636788031839,1
1013,282,49,0.16199486189409,1
1013,283,49,0.178708533178921,1
1013,284,49,0.209200409118951,1
1013,285,49,0.238834281386859,1
1013,286,49,0.254703963471738,1
1013,287,49,0.243766339225787,1
1013,288,49,0.212263336784112,1
1014,269,49,0.118141694180569,1
1014,281,49,0.129596299350256,1
1014,282,49,0.155380384336653,1
1014,283,49,0.167450825454766,1
1014,284,49,0.184695868995258,1
1014,285,49,0.210588784013006,1
1014,286,49,0.249664123742655,1
1014,287,49,0.262462493032805,2
1014,288,49,0.206279463366782,1
1014,291,49,0.190488297656648,1
1014,292,49,0.207631565509343,1
1015,282,49,0.128291893520537,1
1015,283,49,0.167572138965528,1
1015,284,49,0.196326208579815,1
1015,285,49,0.225572303935886,1
1015,286,49,0.286865033708221,2
1015,287,49,0.3206299955116,2
1015,288,49,0.231445898767179,2
1015,289,49,0.173295084109445,1
1015,290,49,0.183833401890404,1
1015,291,49,0.2195768656348,2
1015,292,49,0.2267854390435,1
1015,293,49,0.201046812765144,1
1016,282,49,0.114650594948496,1
1016,283,49,0.174675533171761,1
1016,284,49,0.227725633472985,1
1016,285,49,0.2720475440615,2
1016,286,49,0.30470451462913,2
1016,287,49,0.301320596666977,2
1016,288,49,0.21721110496411,1
1016,289,49,0.183201431633683,1
1016,290,49,0.237375268842328,2
1016,291,49,0.29855828531826,2
1016,292,49,0.263136459598561,2
1016,293,49,0.219679913224273,1
1017,283,49,0.172750969283292,1
1017,284,49,0.258419989093679,2
1017,285,49,0.342797687173993,2
1017,286,49,0.329383929456376,2
1017,287,49,0.262777265143827,2
1017,288,49,0.204887037230352,1
1017,289,49,0.233395323622662,2
1017,290,49,0.367460732155596,2
1017,291,49,0.445502970220165,2
1017,292,49,0.308526532057387,2
1017,293,49,0.202871473487728,2
1018,283,49,0.167303025769293,1
1018,284,49,0.26999719145267,2
1018,285,49,0.36672236967907,2
1018,286,49,0.33742995590364,2
1018,287,49,0.260870213457134,2
1018,288,49,0.236749705201456,1
1018,289,49,0.280075269256874,2
1018,290,49,0.362371076277545,2
1018,291,49,0.380571188431008,2
1018,292,49,0.251142049936179,2
1018,293,49,0.177902818797915,1
1019,283,49,0.154604241669609,1
1019,284,49,0.239838636189767,2
1019,285,49,0.295126906580612,2
1019,286,49,0.277834626025106,2
1019,287,49,0.246024718419812,1
1019,288,49,0.247817793584113,1
1019,289,49,0.245705494652925,1
1019,290,49,0.228251871014473,2
1019,291,49,0.215964782644252,2
1019,292,49,0.198529224720342,1
1019,293,49,0.214973688594,1
1019,294,49,0.207206514812284,1
1020,283,49,0.132390490678939,1
1020,284,49,0.190080865153173,1
1020,285,49,0.208336905649768,1
1020,286,49,0.200279549856096,1
1020,287,49,0.196659470372605,1
1020,288,49,0.204969593070604,1
1020,289,49,0.185785182119361,1
1020,290,49,0.150213778407217,1
1020,291,49,0.147463137934062,1
1020,292,49,0.180243176765692,1
1020,293,49,0.234816885728962,1
1020,294,49,0.246882710315066,1
1020,295,49,0.19888361421319,1
1021,284,49,0.144637855675527,1
1021,285,49,0.151967954578601,1
1021,292,49,0.174164181590627,1
1021,293,49,0.213352225940991,1
1021,294,49,0.228523280699844,1
1021,295,49,0.200522106216415,1
1022,291,49,0.148000021763651,1
1022,292,49,0.193527471380328,1
1022,293,49,0.232903403872686,1
1022,294,49,0.238461260889834,1
1022,295,49,0.207557842319617,1
1023,291,49,0.164627439271877,1
1023,292,49,0.209411827441948,1
1023,293,49,0.241117321341153,1
1023,294,49,0.235600918897143,1
1023,295,49,0.198861073289047,1
1024,292,49,0.164876520016717,1
1024,293,49,0.171630753659214,1
1024,294,49,0.170239587647592,1
1010,287,50,0.18489652326148,1
1010,288,50,0.179567019702605,1
1010,289,50,0.16636806026892,1
1011,283,50,0.12392176890809,1
1011,286,50,0.216820866686992,1
1011,287,50,0.240933555102738,1
1011,288,50,0.243925962886098,1
1011,289,50,0.242559822717634,1
1011,290,50,0.206003955331567,1
1012,282,50,0.116057318201912,1
1012,283,50,0.147725173233008,1
1012,284,50,0.180810915987785,1
1012,286,50,0.226865780832687,1
1012,287,50,0.235476578731467,1
1012,288,50,0.230207773147009,1
1012,289,50,0.236100375842234,1
1012,290,50,0.218670258831049,1
1013,282,50,0.122067489364076,1
1013,283,50,0.145116491119111,1
1013,284,50,0.182551937398319,1
1013,285,50,0.211776174888553,1
1013,286,50,0.224723780641996,1
1013,287,50,0.210192374657387,1
1013,288,50,0.189440368444477,1
1013,289,50,0.192065844371242,1
1014,283,50,0.129073594868979,1
1014,284,50,0.162338522660766,1
1014,285,50,0.206722721100792,1
1014,286,50,0.25151137249685,2
1014,287,50,0.247436317296318,2
1014,288,50,0.190298301455395,1
1014,291,50,0.191739860682485,1
1014,292,50,0.220249418976472,1
1015,283,50,0.126550989878678,1
1015,284,50,0.170114929506498,1
1015,285,50,0.228606189846117,2
1015,286,50,0.306750768888117,2
1015,287,50,0.321379475350922,2
1015,288,50,0.224404486213905,2
1015,289,50,0.186031412862299,1
1015,290,50,0.199335893027605,1
1015,291,50,0.214000730919496,2
1015,292,50,0.226117879093592,1
1015,293,50,0.225411031514143,1
1016,283,50,0.132161548377298,1
1016,284,50,0.197414249802243,1
1016,285,50,0.274694442110008,2
1016,286,50,0.344341257626228,2
1016,287,50,0.335863962295935,2
1016,288,50,0.235686183416889,2
1016,289,50,0.21255203491078,1
1016,290,50,0.271663311986741,2
1016,291,50,0.30696430704724,2
1016,292,50,0.25513445508152,2
1016,293,50,0.215723827937895,1
1017,283,50,0.132745716329371,1
1017,284,50,0.220064969679748,2
1017,285,50,0.331382652278664,2
1017,286,50,0.37324213766913,2
1017,287,50,0.313597580484996,2
1017,288,50,0.227258374483278,2
1017,289,50,0.239194041131227,2
1017,290,50,0.375822543524475,2
1017,291,50,0.451930360462588,2
1017,292,50,0.31628727566952,2
1017,293,50,0.210324369786852,2
1018,283,50,0.122597636825529,1
1018,284,50,0.209815656224008,2
1018,285,50,0.327137115146107,2
1018,286,50,0.359554002495565,2
1018,287,50,0.291325475116516,2
1018,288,50,0.229246615893608,2
1018,289,50,0.239212177506975,2
1018,290,50,0.333523050815393,2
1018,291,50,0.380419761470386,2
1018,292,50,0.277722580908963,2
1018,293,50,0.203734176129929,1
1019,284,50,0.185062765521252,1
1019,285,50,0.261159359104762,2
1019,286,50,0.285636894871579,2
1019,287,50,0.255761361285273,2
1019,288,50,0.239097941893502,1
1019,289,50,0.226267727953987,1
1019,290,50,0.223512718263038,2
1019,291,50,0.221413279671017,2
1019,292,50,0.209484914680836,1
1019,293,50,0.217029482115555,1
1019,294,50,0.201802958311397,1
1020,284,50,0.15997390434621,1
1020,285,50,0.195221903503552,1
1020,286,50,0.206363691522201,1
1020,287,50,0.209364437327657,1
1020,288,50,0.229554604529025,1
1020,289,50,0.211317795656842,1
1020,290,50,0.166806701470921,1
1020,291,50,0.148036188523339,1
1020,292,50,0.172111626707599,1
1020,293,50,0.218579977365803,1
1020,294,50,0.228289556990051,1
1020,295,50,0.19187449383024,1
1021,284,50,0.127860024017272,1
1021,285,50,0.146522189785066,1
1021,292,50,0.163651019198367,1
1021,293,50,0.207800822647161,1
1021,294,50,0.222248165352494,1
1021,295,50,0.198382508506667,1
1022,291,50,0.135600735178012,1
1022,292,50,0.17624898153651,1
1022,293,50,0.217455286532125,1
1022,294,50,0.223341317735359,1
1022,295,50,0.197891719335958,1
1023,292,50,0.183572379402052,1
1023,293,50,0.208375345344859,1
1023,294,50,0.20486847688738,1
1023,295,50,0.177881514444846,1
1024,293,50,0.154131647758985,1
1024,294,50,0.15357312982404,1
1009,288,51,0.132066944801728,1
1010,283,51,0.114518635149634,1
1010,285,51,0.181546923090838,1
1010,286,51,0.221135062956306,1
1010,287,51,0.229838379925133,1
1010,288,51,0.234075791019206,1
1010,289,51,0.205381335907537,1
1011,271,51,0.118819217360271,1
1011,272,51,0.125925932643102,1
1011,283,51,0.141966697280241,1
1011,284,51,0.182817140674586,1
1011,285,51,0.21795048025123,1
1011,286,51,0.2539044319461,1
1011,287,51,0.270048091073436,4
1011,288,51,0.302639370274885,4
1011,289,51,0.305903493942168,4
1011,290,51,0.232187181906812,1
1012,271,51,0.119389971460411,1
1012,272,51,0.123932945155223,1
1012,282,51,0.114384449522839,1
1012,283,51,0.141574021191578,1
1012,284,51,0.184296786290747,1
1012,285,51,0.207937575631042,1
1012,286,51,0.220641941965859,1
1012,287,51,0.217259766980076,1
1012,288,51,0.228828607763236,1
1012,289,51,0.253857065385544,1
1012,290,51,0.239399170607049,1
1012,291,51,0.176611661943986,1
1013,283,51,0.12546961436318,1
1013,284,51,0.168960643405124,1
1013,285,51,0.199886720668157,1
1013,286,51,0.203047419886211,1
1013,287,51,0.180625889624561,1
1013,288,51,0.168068545701971,1
1013,289,51,0.191875341764691,1
1013,290,51,0.217449633635788,1
1014,284,51,0.16053239872742,1
1014,285,51,0.2167521839965,1
1014,286,51,0.244586362500645,2
1014,287,51,0.215325887589518,1
1014,288,51,0.170504072534951,1
1014,290,51,0.187547696312842,1
1014,291,51,0.192148023351738,1
1015,284,51,0.167750982473383,1
1015,285,51,0.25068706244227,2
1015,286,51,0.318110169861998,2
1015,287,51,0.292823304215892,2
1015,288,51,0.213641889770783,1
1015,289,51,0.205553278171115,1
1015,290,51,0.224577912362771,2
1015,291,51,0.213161228706011,2
1015,292,51,0.210734039895127,1
1016,284,51,0.187652922622778,2
1016,285,51,0.289690822372053,2
1016,286,51,0.379968259929218,2
1016,287,51,0.350477688583448,2
1016,288,51,0.258094947554312,2
1016,289,51,0.267521976576659,2
1016,290,51,0.31831480470939,2
1016,291,51,0.303582720904825,2
1016,292,51,0.234966805250561,2
1016,293,51,0.201055433432058,1
1017,284,51,0.196839574005269,2
1017,285,51,0.313380132405907,2
1017,286,51,0.406454034227157,2
1017,287,51,0.362496476361283,2
1017,288,51,0.254277499550595,2
1017,289,51,0.252696996842292,2
1017,290,51,0.352834051313978,2
1017,291,51,0.40521298794388,2
1017,292,51,0.310432029197586,2
1017,293,51,0.22210493509156,2
1017,294,51,0.179991352010754,1
1018,284,51,0.17777534598552,2
1018,285,51,0.29194234742927,2
1018,286,51,0.37928105616454,2
1018,287,51,0.334344769959152,2
1018,288,51,0.230618149867327,2
1018,289,51,0.202120368440709,1
1018,290,51,0.272867708658767,2
1018,291,51,0.336784583571854,2
1018,292,51,0.290589279583585,2
1018,293,51,0.227148849616752,1
1018,294,51,0.175653496014897,1
1019,284,51,0.159266114617372,1
1019,285,51,0.247052838941069,2
1019,286,51,0.307267420059566,2
1019,287,51,0.281326608522231,2
1019,288,51,0.235575033342667,1
1019,289,51,0.206273362949485,1
1019,290,51,0.205451455375848,1
1019,291,51,0.209466048139311,2
1019,292,51,0.200852824205853,1
1019,293,51,0.193631602441599,1
1019,294,51,0.177212859246273,1
1020,284,51,0.143185767929009,1
1020,285,51,0.195703918908071,1
1020,286,51,0.226829767172274,2
1020,287,51,0.232656961146136,1
1020,288,51,0.250218437335948,1
1020,289,51,0.224395135381214,1
1020,291,51,0.141966367527955,1
1020,292,51,0.153961684009125,1
1020,293,51,0.182145517705437,1
1020,294,51,0.187816679963535,1
1020,295,51,0.174026415796152,1
1021,284,51,0.117909148157514,1
1021,285,51,0.147636575859796,1
1021,286,51,0.167757895494529,1
1021,287,51,0.176431193228433,1
1021,288,51,0.190316779360296,1
1021,291,51,0.126084814360769,1
1021,292,51,0.157394829276878,1
1021,293,51,0.197676744399016,1
1021,294,51,0.203513289205568,1
1021,295,51,0.184102456202301,1
1021,296,51,0.154635462145003,1
1022,285,51,0.117241376223993,1
1022,291,51,0.13217281883937,1
1022,292,51,0.165433648281312,1
1022,293,51,0.202163518882747,1
1022,294,51,0.205346971008556,1
1022,295,51,0.185100533934902,1
1022,296,51,0.153747109485673,1
1023,292,51,0.166752445442955,1
1023,293,51,0.183243251289708,1
1023,294,51,0.181559653884463,1
1023,295,51,0.165959638508585,1
1024,293,51,0.15874549464162,1
1024,294,51,0.155771965176651,1
1009,285,52,0.140907780250815,1
1009,286,52,0.162984472059052,1
1009,287,52,0.189120779594702,1
1009,288,52,0.170797964260128,1
1009,289,52,0.120872478855341,1
1010,283,52,0.144991467895129,1
1010,284,52,0.218503592604052,1
1010,285,52,0.255316902310791,4
1010,286,52,0.258574666469695,1
1010,287,52,0.288049810119212,4
1010,288,52,0.306911405359021,4
1010,289,52,0.243124240863129,4
1010,290,52,0.151726069499722,1
1011,271,52,0.129010694620365,1
1011,272,52,0.135982694317369,1
1011,281,52,0.129143384585004,1
1011,282,52,0.149783157251893,1
1011,283,52,0.174737361725445,1
1011,284,52,0.259329092593311,1
1011,285,52,0.311123354865844,4
1011,286,52,0.28657572318445,4
1011,287,52,0.292489524240938,4
1011,288,52,0.362234370401133,4
1011,289,52,0.359889172140869,4
1011,290,52,0.240673097904019,4
1011,291,52,0.141026161321602,1
1012,271,52,0.130383783140576,1
1012,272,52,0.130797551598696,1
1012,281,52,0.12243406791465,1
1012,282,52,0.13930317029501,1
1012,283,52,0.150583065637287,1
1012,284,52,0.199011581654015,1
1012,285,52,0.235242737253001,1
1012,286,52,0.220322765306442,1
1012,287,52,0.204995007550385,4
1012,288,52,0.239932238731611,4
1012,289,52,0.283557052986859,4
1012,290,52,0.254689572139813,1
1012,291,52,0.181385262032472,1
1013,283,52,0.119851942636669,1
1013,284,52,0.15864748755138,1
1013,285,52,0.190424914556472,1
1013,286,52,0.182821498115513,1
1013,288,52,0.156210264849499,1
1013,289,52,0.199428223667772,1
1013,290,52,0.236757313057776,1
1013,291,52,0.206263069967405,1
1014,284,52,0.161903991585475,1
1014,285,52,0.224299295234571,1
1014,286,52,0.22731770634108,2
1014,287,52,0.182695980263101,1
1014,288,52,0.152753601177611,1
1014,289,52,0.166517991567386,1
1014,290,52,0.20171774089912,1
1014,291,52,0.196861879392065,1
1015,284,52,0.173868782426427,1
1015,285,52,0.283647923295473,2
1015,286,52,0.32887276630512,2
1015,287,52,0.265694842711928,2
1015,288,52,0.206956515471789,1
1015,289,52,0.225611426689283,2
1015,290,52,0.253934722048971,2
1015,291,52,0.218450832238242,1
1015,292,52,0.196862951086995,1
1016,284,52,0.18366555797667,2
1016,285,52,0.317654428648577,2
1016,286,52,0.411970460224902,2
1016,287,52,0.354768166241883,2
1016,288,52,0.280903465677686,2
1016,289,52,0.320753864602581,2
1016,290,52,0.355509896902477,2
1016,291,52,0.289497187118783,2
1016,292,52,0.21709653959835,1
1016,293,52,0.189384746299897,1
1017,284,52,0.176736732275438,2
1017,285,52,0.301191121787129,2
1017,286,52,0.422054049603035,2
1017,287,52,0.389878281836076,2
1017,288,52,0.278100806781365,2
1017,289,52,0.264783360285087,2
1017,290,52,0.315475967276514,2
1017,291,52,0.336093093027454,2
1017,292,52,0.292570619749637,2
1017,293,52,0.226259107287073,1
1017,294,52,0.178906419881312,1
1018,284,52,0.154568051356186,1
1018,285,52,0.272047426292827,2
1018,286,52,0.396695297958513,2
1018,287,52,0.368201190914514,2
1018,288,52,0.237103081883711,2
1018,289,52,0.180415613657699,1
1018,290,52,0.221839743592159,2
1018,291,52,0.286913766385391,2
1018,292,52,0.287597272213716,1
1018,293,52,0.235226579390972,1
1018,294,52,0.177697147586194,1
1019,284,52,0.140110710090458,1
1019,285,52,0.246481872857317,2
1019,286,52,0.341332668427104,2
1019,287,52,0.311695192437781,2
1019,288,52,0.234549385963557,2
1019,289,52,0.192509796940426,1
1019,290,52,0.193657570434146,1
1019,291,52,0.201824863284702,1
1019,292,52,0.190338719664203,1
1019,293,52,0.169925616363552,1
1019,294,52,0.152740081333872,1
1020,284,52,0.124776522164818,1
1020,285,52,0.195214224986028,1
1020,286,52,0.24787177874413,2
1020,287,52,0.248720066500672,2
1020,288,52,0.250126624877945,1
1020,289,52,0.220513527004074,1
1020,291,52,0.14130658031051,1
1020,292,52,0.13733255885513,1
1020,293,52,0.150142363483496,1
1020,294,52,0.151486940207808,1
1020,295,52,0.151702869071007,1
1021,285,52,0.144702722660992,1
1021,286,52,0.175731458876875,1
1021,287,52,0.184918475342255,1
1021,288,52,0.191578812021223,1
1021,291,52,0.119346267505607,1
1021,292,52,0.143665769489208,1
1021,293,52,0.180931358010361,1
1021,294,52,0.180092715508194,1
1021,295,52,0.162619589377379,1
1021,296,52,0.145928659223435,1
1022,285,52,0.116743862462017,1
1022,291,52,0.122299811626651,1
1022,292,52,0.146053329141397,1
1022,293,52,0.179242084155045,1
1022,294,52,0.180711695880207,1
1022,295,52,0.164309982035095,1
1022,296,52,0.145841027553347,1
1023,292,52,0.154481126298141,1
1023,293,52,0.165298190752841,1
1023,294,52,0.164255066502557,1
1023,295,52,0.157471696890191,1
1024,293,52,0.176211931511769,1
1024,294,52,0.163913655117548,1
1009,284,53,0.15352820107503,1
1009,285,53,0.176595574743161,4
1009,286,53,0.190559382828084,1
1009,287,53,0.233535868757836,4
1009,288,53,0.200651675311201,4
1009,289,53,0.131300871356284,1
1010,282,53,0.133486834592861,1
1010,283,53,0.166140060116668,1
1010,284,53,0.275454897989717,4
1010,285,53,0.324352168658308,4
1010,286,53,0.278579418671215,4
1010,287,53,0.319606420861147,4
1010,288,53,0.335252648664579,4
1010,289,53,0.247355198233884,4
1010,290,53,0.145098390073966,1
1011,271,53,0.116043091746131,1
1011,272,53,0.122629234160679,1
1011,281,53,0.180663234070986,1
1011,282,53,0.205957436705462,1
1011,283,53,0.204720159019743,1
1011,284,53,0.314255436296192,4
1011,285,53,0.383736833933357,4
1011,286,53,0.297464685414435,4
1011,287,53,0.296216525903267,4
1011,288,53,0.370830541430643,4
1011,289,53,0.35382818379601,4
1011,290,53,0.219367284503112,4
1011,291,53,0.13269300307103,1
1012,271,53,0.121565041094672,1
1012,272,53,0.120785542020428,1
1012,281,53,0.160098220958151,1
1012,282,53,0.179580304008996,1
1012,283,53,0.163498190790527,1
1012,284,53,0.20524778623158,1
1012,285,53,0.251177521860692,4
1012,286,53,0.214751152908208,4
1012,287,53,0.199931496317892,4
1012,288,53,0.245862762939762,4
1012,289,53,0.292000642922743,4
1012,290,53,0.243120401604367,1
1012,291,53,0.172730842616959,1
1013,283,53,0.121449757340003,1
1013,284,53,0.155159426751088,1
1013,285,53,0.186489850978347,1
1013,286,53,0.167614794779136,1
1013,288,53,0.149248617018911,1
1013,289,53,0.199963600058338,1
1013,290,53,0.231761141952895,1
1013,291,53,0.199568674588008,1
1014,284,53,0.168786545974817,1
1014,285,53,0.239296405662393,2
1014,286,53,0.217864768210523,2
1014,287,53,0.160143326360172,1
1014,288,53,0.140857445919683,1
1014,289,53,0.16593142113437,1
1014,290,53,0.213819626253106,1
1014,291,53,0.205749928302431,1
1015,284,53,0.185088957274279,2
1015,285,53,0.322220202358614,2
1015,286,53,0.342445276194862,2
1015,287,53,0.252969890412952,2
1015,288,53,0.20677661204587,2
1015,289,53,0.229638290948545,2
1015,290,53,0.266094408268002,2
1015,291,53,0.228535387319498,1
1015,292,53,0.190410652770089,1
1016,284,53,0.182861421695892,2
1016,285,53,0.339832719491601,2
1016,286,53,0.419766605100345,2
1016,287,53,0.351048960865752,2
1016,288,53,0.297271686112002,2
1016,289,53,0.325949394518273,2
1016,290,53,0.338921496155842,2
1016,291,53,0.264514235311985,2
1016,292,53,0.208594819045135,1
1016,293,53,0.189080844237456,1
1017,284,53,0.164127723235703,2
1017,285,53,0.291378070606183,2
1017,286,53,0.402431810053638,2
1017,287,53,0.37181753713105,2
1017,288,53,0.282756649973036,2
1017,289,53,0.252926928400792,2
1017,290,53,0.260937836229563,2
1017,291,53,0.261993349744319,2
1017,292,53,0.260636583962281,1
1017,293,53,0.226729428262296,1
1017,294,53,0.183781112599288,1
1018,284,53,0.142869017304269,1
1018,285,53,0.264459072465232,2
1018,286,53,0.396115075257009,2
1018,287,53,0.363980079004879,2
1018,288,53,0.237721579404162,2
1018,289,53,0.170005357532503,1
1018,290,53,0.186227745018197,1
1018,291,53,0.239521979779967,1
1018,292,53,0.266082136772204,1
1018,293,53,0.233386326095993,1
1018,294,53,0.181074470502622,1
1019,284,53,0.128804187251061,1
1019,285,53,0.247122157582399,2
1019,286,53,0.365084183874397,2
1019,287,53,0.322839194507495,2
1019,288,53,0.225438919136072,2
1019,289,53,0.176940554518982,1
1019,291,53,0.203224096450471,1
1019,292,53,0.196851927939139,1
1019,293,53,0.171143262011368,1
1019,294,53,0.145526396764734,1
1020,284,53,0.114556898191714,1
1020,285,53,0.196740412782028,1
1020,286,53,0.267141654421865,2
1020,287,53,0.254257361107395,2
1020,288,53,0.230014820952046,1
1020,291,53,0.155675194657485,1
1020,292,53,0.141706016321042,1
1020,293,53,0.144958857749386,1
1020,294,53,0.134575323336249,1
1020,295,53,0.133450868039918,1
1021,285,53,0.149486215318068,1
1021,286,53,0.188141697949167,1
1021,287,53,0.189546313143323,1
1021,291,53,0.124938230330653,1
1021,292,53,0.137823630670656,1
1021,293,53,0.173188444575424,1
1021,294,53,0.16254095523396,1
1021,295,53,0.144460119193204,1
1021,296,53,0.137491805655685,1
1022,285,53,0.124311241688829,1
1022,291,53,0.121098547601344,1
1022,292,53,0.137876202606588,1
1022,293,53,0.168926019415061,1
1022,294,53,0.164359268225032,1
1022,295,53,0.150085975842536,1
1023,291,53,0.132373037361499,1
1023,292,53,0.153240056461129,1
1023,293,53,0.15833257411795,1
1023,294,53,0.153743658863534,1
1023,295,53,0.150929493967794,1
1024,292,53,0.191464811945098,1
1024,293,53,0.187452280133423,1
1024,294,53,0.165454540444024,1
1008,285,54,0.118802399993669,1
1008,286,54,0.130214478895288,1
1008,287,54,0.136231221549444,1
1009,284,54,0.18815076613704,1
1009,285,54,0.246147127179239,4
1009,286,54,0.241370100022348,4
1009,287,54,0.261003739579357,4
1009,288,54,0.208739156331602,4
1009,289,54,0.13866260292511,1
1010,281,54,0.131679509419044,1
1010,282,54,0.153005355271345,1
1010,283,54,0.18125486855697,1
1010,284,54,0.307207923325622,4
1010,285,54,0.393468577621992,4
1010,286,54,0.313469495275498,4
1010,287,54,0.324580003934416,4
1010,288,54,0.313146055390093,4
1010,289,54,0.225299716563778,4
1010,290,54,0.138003522319707,1
1011,280,54,0.146658919215212,1
1011,281,54,0.232519854856234,1
1011,282,54,0.260919958944898,1
1011,283,54,0.23393095910431,4
1011,284,54,0.327343540077339,4
1011,285,54,0.408531756275751,4
1011,286,54,0.30105283781049,4
1011,287,54,0.291133559285881,4
1011,288,54,0.338337410641841,4
1011,289,54,0.303159012770647,4
1011,290,54,0.190085411023977,1
1012,280,54,0.132081065265703,1
1012,281,54,0.194161785233655,1
1012,282,54,0.213098010481977,1
1012,283,54,0.178941361846794,1
1012,284,54,0.203395708961763,4
1012,285,54,0.247563436802692,4
1012,286,54,0.207310504551147,4
1012,287,54,0.20097608089973,4
1012,288,54,0.246290640084989,4
1012,289,54,0.274684596648888,1
1012,290,54,0.219419620901697,1
1013,283,54,0.12224776964975,1
1013,284,54,0.152123868525691,1
1013,285,54,0.183039900120859,1
1013,286,54,0.161820717356314,1
1013,288,54,0.147867661551298,1
1013,289,54,0.192677381763078,1
1013,290,54,0.213537546725899,1
1014,284,54,0.170834602094511,1
1014,285,54,0.258309074556804,2
1014,286,54,0.23236633161322,2
1014,287,54,0.156040583744456,1
1014,288,54,0.135414283813836,1
1014,289,54,0.165072628412135,1
1014,290,54,0.217976813326665,1
1014,291,54,0.218488023585391,1
1015,284,54,0.189935997907675,2
1015,285,54,0.353370840928628,2
1015,286,54,0.366677287830784,2
1015,287,54,0.254243158205349,2
1015,288,54,0.207950954152373,2
1015,289,54,0.2176601804706,1
1015,290,54,0.260022161237939,1
1015,291,54,0.247716606739685,1
1015,292,54,0.195389841632225,1
1016,284,54,0.175209967412937,2
1016,285,54,0.339502354808184,2
1016,286,54,0.407019276753368,2
1016,287,54,0.340115858936871,2
1016,288,54,0.301968819000666,2
1016,289,54,0.289716331066773,2
1016,290,54,0.290668820545791,2
1016,291,54,0.248658732575418,1
1016,292,54,0.209020435031828,1
1017,284,54,0.154242373865982,2
1017,285,54,0.28696890567841,2
1017,286,54,0.376062085006748,2
1017,287,54,0.339480968017043,2
1017,288,54,0.285295389271632,2
1017,289,54,0.236309603667901,1
1017,290,54,0.22110837657485,1
1017,291,54,0.21754476717039,1
1017,292,54,0.230078510250774,1
1017,293,54,0.221511522298603,1
1018,284,54,0.136924137094796,1
1018,285,54,0.272971886827508,2
1018,286,54,0.393889789060289,2
1018,287,54,0.343474809940204,2
1018,288,54,0.242396689550847,2
1018,289,54,0.172510827180784,1
1018,290,54,0.167399454759305,1
1018,291,54,0.205730355148865,1
1018,292,54,0.242369673417104,1
1018,293,54,0.223051559690628,1
1018,294,54,0.178691562713044,1
1019,284,54,0.117331186614544,1
1019,285,54,0.244769092374733,2
1019,286,54,0.374068544006102,2
1019,287,54,0.322977784682686,2
1019,288,54,0.220722472184924,2
1019,289,54,0.167250065196738,1
1019,291,54,0.201897314572752,1
1019,292,54,0.212623968016666,1
1019,293,54,0.182811617323791,1
1019,294,54,0.143561296898783,1
1020,285,54,0.192509455411273,1
1020,286,54,0.279918260061119,2
1020,287,54,0.259405029834103,2
1020,288,54,0.210602986915052,1
1020,291,54,0.166172776254218,1
1020,292,54,0.150223623868337,1
1020,293,54,0.143620805409596,1
1020,294,54,0.125131170748749,1
1020,295,54,0.119607172225285,1
1021,285,54,0.152851372730503,1
1021,286,54,0.20313025837128,1
1021,287,54,0.198032547115949,1
1021,291,54,0.130437297225898,1
1021,292,54,0.129518725124901,1
1021,293,54,0.154164717202555,1
1021,294,54,0.142602495018856,1
1021,295,54,0.128024605738745,1
1022,285,54,0.129340670667159,1
1022,286,54,0.165266357880345,1
1022,291,54,0.116082461813743,1
1022,292,54,0.126888079153362,1
1022,293,54,0.150436855828909,1
1022,294,54,0.14380712722823,1
1022,295,54,0.132176540329458,1
1023,285,54,0.119249108349818,1
1023,291,54,0.123201024625147,1
1023,292,54,0.14704893373185,1
1023,293,54,0.152410034625874,1
1023,294,54,0.141936206970624,1
1023,295,54,0.136576695953694,1
1024,292,54,0.182220972094666,1
1024,293,54,0.179625750940171,1
1024,294,54,0.152698685645073,1
1008,285,55,0.143327196329235,1
1008,286,55,0.15067286425097,1
1008,287,55,0.14318724003743,1
1009,284,55,0.208111661284481,1
1009,285,55,0.306130740374908,4
1009,286,55,0.291809904778845,4
1009,287,55,0.259819552011734,4
1009,288,55,0.200221796098522,1
1010,280,55,0.120256819559926,1
1010,281,55,0.149139421904672,1
1010,282,55,0.166553439938165,1
1010,283,55,0.190293225625559,1
1010,284,55,0.297823879869169,4
1010,285,55,0.414357348595651,4
1010,286,55,0.346548219017323,4
1010,287,55,0.305197023222475,4
1010,288,55,0.266021226814175,4
1010,289,55,0.197375009280171,1
1011,279,55,0.118097813572755,1
1011,280,55,0.195287064910701,1
1011,281,55,0.267221124722867,1
1011,282,55,0.28375153617458,1
1011,283,55,0.250592070230077,1
1011,284,55,0.294541502057466,4
1011,285,55,0.367595859931781,4
1011,286,55,0.297632011146004,4
1011,287,55,0.282040639990774,4
1011,288,55,0.291530227732582,4
1011,289,55,0.242667628161524,1
1011,290,55,0.161717281130217,1
1012,280,55,0.162435151857523,1
1012,281,55,0.213927573019404,1
1012,282,55,0.221249110139902,1
1012,283,55,0.190727909800125,1
1012,284,55,0.1970056867195,1
1012,285,55,0.230018236243583,4
1012,286,55,0.205159977908481,4
1012,287,55,0.207193536704444,1
1012,288,55,0.23742296515517,1
1012,289,55,0.233073344068812,1
1012,290,55,0.182595217385897,1
1013,283,55,0.122780496245158,1
1013,284,55,0.150478475278188,1
1013,285,55,0.179342093312737,1
1013,286,55,0.161511821902109,1
1013,288,55,0.151631901668245,1
1013,289,55,0.177044980001937,1
1014,284,55,0.167207927565294,1
1014,285,55,0.258272542714227,2
1014,286,55,0.237662789282259,2
1014,287,55,0.157550119049997,1
1014,290,55,0.207821997454689,1
1014,291,55,0.219219296387762,1
1015,284,55,0.18362505732979,2
1015,285,55,0.342698761488099,2
1015,286,55,0.356568166204197,2
1015,287,55,0.246391921144357,2
1015,288,55,0.200680952603479,1
1015,289,55,0.193093458487202,1
1015,290,55,0.227529454416363,1
1015,291,55,0.246205634656325,1
1015,292,55,0.199115006103244,1
1016,284,55,0.166272408552154,2
1016,285,55,0.314581467092418,2
1016,286,55,0.367014883510765,2
1016,287,55,0.31552637226885,2
1016,288,55,0.281935378350236,2
1016,289,55,0.233491658397736,1
1016,290,55,0.226755125386894,1
1016,291,55,0.228037696904512,1
1016,292,55,0.214300334425347,1
1017,284,55,0.155730063082555,1
1017,285,55,0.289773566642183,2
1017,286,55,0.350227288829462,2
1017,287,55,0.313969211311672,2
1017,288,55,0.280494478627718,2
1017,289,55,0.218033766257259,1
1017,290,55,0.192074629914298,1
1017,291,55,0.19149187518631,1
1017,292,55,0.208177965047765,1
1018,284,55,0.143990104416533,1
1018,285,55,0.290679137081606,2
1018,286,55,0.378787982281562,2
1018,287,55,0.322428488034891,2
1018,288,55,0.255425508581662,2
1018,289,55,0.190332536808834,1
1018,292,55,0.21486548273662,1
1018,293,55,0.200110858007912,1
1019,284,55,0.115960100161786,1
1019,285,55,0.246813721426022,2
1019,286,55,0.36313638422661,2
1019,287,55,0.312265899430452,2
1019,288,55,0.222529703143802,2
1019,289,55,0.16979678921141,1
1019,291,55,0.18661142358019,1
1019,292,55,0.213673663758942,1
1019,293,55,0.18464980966698,1
1019,294,55,0.142317129745654,1
1020,285,55,0.204225153730516,2
1020,286,55,0.309167806039328,2
1020,287,55,0.278263798625743,2
1020,288,55,0.201382406377673,1
1020,291,55,0.167413787206893,1
1020,292,55,0.157031524695431,1
1020,293,55,0.144924799048957,1
1020,294,55,0.126771994571712,1
1020,295,55,0.116969130381039,1
1021,285,55,0.167351946876341,1
1021,286,55,0.234033959586314,2
1021,287,55,0.218225894071506,1
1021,291,55,0.140267966600427,1
1021,292,55,0.129427701717011,1
1021,293,55,0.141718700007198,1
1021,294,55,0.136617808997677,1
1021,295,55,0.127384638989081,1
1022,285,55,0.138613293181439,1
1022,286,55,0.181203709845122,1
1022,287,55,0.17325254606451,1
1022,291,55,0.121370357700206,1
1022,292,55,0.128455462431416,1
1022,293,55,0.144906768665016,1
1022,294,55,0.138174922847386,1
1022,295,55,0.130255474170598,1
1023,285,55,0.125040076679654,1
1023,286,55,0.149028931335022,1
1023,291,55,0.122605762864014,1
1023,292,55,0.144507756621709,1
1023,293,55,0.15838739543555,1
1023,294,55,0.14274617280075,1
1023,295,55,0.132050669171025,1
1024,292,55,0.159104912856834,1
1024,293,55,0.169594521514358,1
1024,294,55,0.144659572218954,1
1008,285,56,0.156125612726855,4
1008,286,56,0.159876780521024,4
1008,287,56,0.138858440452578,1
1009,284,56,0.214960804701099,4
1009,285,56,0.335142676277093,4
1009,286,56,0.320033355856985,4
1009,287,56,0.234629704199009,4
1009,288,56,0.182187054716645,1
1010,280,56,0.139482390662621,1
1010,281,56,0.158112570458642,1
1010,282,56,0.172038457030639,1
1010,283,56,0.194225450978648,1
1010,284,56,0.272843942940418,4
1010,285,56,0.401319225839615,4
1010,286,56,0.371412766199599,4
1010,287,56,0.273698378221727,4
1010,288,56,0.217584784965708,1
1010,289,56,0.169332038694452,1
1011,279,56,0.139985062692505,1
1011,280,56,0.227220806276373,1
1011,281,56,0.264947600477406,1
1011,282,56,0.26218255689546,1
1011,283,56,0.242533937163158,1
1011,284,56,0.24810931815895,4
1011,285,56,0.304721190673324,4
1011,286,56,0.289586008252475,4
1011,287,56,0.258461043253325,1
1011,288,56,0.240017503251358,1
1011,289,56,0.189709940938539,1
1012,280,56,0.173749600528659,1
1012,281,56,0.205521857488976,1
1012,282,56,0.201379839020587,1
1012,283,56,0.187394314392236,1
1012,284,56,0.183963924911447,1
1012,285,56,0.20547717605418,4
1012,286,56,0.204602837867019,1
1012,287,56,0.206036153286952,1
1012,288,56,0.213467851224813,1
1012,289,56,0.186206075582239,1
1013,283,56,0.121589807846748,1
1013,284,56,0.153483637408908,1
1013,285,56,0.182086598037993,1
1013,286,56,0.174484677259189,1
1014,284,56,0.170656877389055,1
1014,285,56,0.24977096348342,1
1014,286,56,0.238113654872589,2
1014,287,56,0.170366636492762,1
1014,291,56,0.208838246893639,1
1015,284,56,0.177930788857915,1
1015,285,56,0.30877716734872,2
1015,286,56,0.325900214320143,2
1015,287,56,0.235381939825295,2
1015,288,56,0.186235988825355,1
1015,290,56,0.196058049309838,1
1015,291,56,0.227979943146937,1
1015,292,56,0.198966947326689,1
1016,284,56,0.155996031855201,1
1016,285,56,0.283235944921193,2
1016,286,56,0.336736251308174,2
1016,287,56,0.295379119972173,2
1016,288,56,0.246134361055011,2
1016,289,56,0.187946696579282,1
1016,290,56,0.183342754042104,1
1016,291,56,0.213683626988736,1
1017,284,56,0.152426781331272,1
1017,285,56,0.285914310759308,2
1017,286,56,0.349735698831772,2
1017,287,56,0.320226260944478,2
1017,288,56,0.272425887702576,2
1017,289,56,0.201787719045022,1
1018,284,56,0.144400328037574,1
1018,285,56,0.285574854334283,2
1018,286,56,0.354528978065632,2
1018,287,56,0.308750716504611,2
1018,288,56,0.262508352154338,2
1018,289,56,0.210115989895636,1
1019,284,56,0.115295767073537,1
1019,285,56,0.23945143634443,2
1019,286,56,0.341030167811881,2
1019,287,56,0.292368575813066,2
1019,288,56,0.223286013566197,2
1019,289,56,0.185825447228894,1
1019,292,56,0.197212158758202,1
1019,293,56,0.17433498149807,1
1020,285,56,0.219838641842663,2
1020,286,56,0.350466170807162,2
1020,287,56,0.29685188789779,2
1020,288,56,0.193318043347917,1
1020,292,56,0.158913079464271,1
1020,293,56,0.14263501094966,1
1020,294,56,0.12578054721544,1
1021,285,56,0.183177901452681,1
1021,286,56,0.277449334032283,2
1021,287,56,0.242595200427208,1
1021,288,56,0.168327342362391,1
1021,291,56,0.150337129316033,1
1021,292,56,0.130696458969206,1
1021,293,56,0.126444055922973,1
1021,294,56,0.125762092864274,1
1021,295,56,0.12259150107763,1
1022,285,56,0.146779337684054,1
1022,286,56,0.200312713514605,1
1022,287,56,0.189385971094103,1
1022,291,56,0.12242740220772,1
1022,292,56,0.124218310428425,1
1022,293,56,0.133198972623777,1
1022,294,56,0.127627030473257,1
1022,295,56,0.123377854288683,1
1023,285,56,0.131862039086386,1
1023,286,56,0.162505966161009,1
1023,291,56,0.11757420227269,1
1023,292,56,0.13727179021951,1
1023,293,56,0.160104498028458,1
1023,294,56,0.139889870273566,1
1023,295,56,0.123853286424343,1
1024,285,56,0.114930413317169,1
1024,292,56,0.131338639769935,1
1024,293,56,0.154700941527571,1
1024,294,56,0.131651845557596,1
1008,285,57,0.153721718559627,1
1008,286,57,0.156890908899053,1
1009,282,57,0.121470755494521,1
1009,284,57,0.217881185163634,1
1009,285,57,0.322123090310295,4
1009,286,57,0.313283514986017,4
1009,287,57,0.213796355163186,1
1010,279,57,0.119714812793032,1
1010,280,57,0.173187631971576,1
1010,281,57,0.191858771712304,1
1010,282,57,0.19168001064252,1
1010,283,57,0.197380167548079,1
1010,284,57,0.251475688588724,4
1010,285,57,0.36733832339617,4
1010,286,57,0.370159895941484,4
1010,287,57,0.245118959550512,4
1010,288,57,0.182294659953789,1
1011,279,57,0.156949216169394,1
1011,280,57,0.249739142387791,1
1011,281,57,0.260207905990073,1
1011,282,57,0.229855432829082,1
1011,283,57,0.212361461643026,1
1011,284,57,0.212647992826098,1
1011,285,57,0.25785804409033,4
1011,286,57,0.273444327638857,4
1011,287,57,0.222797556215228,1
1011,288,57,0.189460601102616,1
1012,259,57,0.118340110841991,1
1012,280,57,0.173142455908351,1
1012,281,57,0.187786754943552,1
1012,282,57,0.173688384372078,1
1012,283,57,0.170356520163693,1
1012,284,57,0.173250320236577,1
1012,285,57,0.189924433023919,1
1012,286,57,0.201977868345552,1
1012,287,57,0.193206563521408,1
1013,283,57,0.126707398454197,1
1013,284,57,0.169869794012226,1
1013,285,57,0.20155752839544,1
1013,286,57,0.206171163294463,1
1013,287,57,0.189035149992067,1
1014,284,57,0.19178888778134,1
1014,285,57,0.249545836886807,1
1014,286,57,0.242198531980507,1
1014,287,57,0.197705621277803,1
1015,284,57,0.184905273473935,1
1015,285,57,0.273178829940905,1
1015,286,57,0.283517388497562,2
1015,287,57,0.225991489752995,1
1015,288,57,0.178640451108665,1
1015,291,57,0.218772411378602,1
1016,284,57,0.153786173354734,1
1016,285,57,0.261759484712119,2
1016,286,57,0.322878081723545,2
1016,287,57,0.293022309720683,2
1016,288,57,0.223834580048215,1
1016,289,57,0.173513686321536,1
1017,284,57,0.149200367193303,1
1017,285,57,0.281514920631451,2
1017,286,57,0.370987291535315,2
1017,287,57,0.351826375434472,2
1017,288,57,0.272197581351773,2
1017,289,57,0.204565929164687,1
1017,290,57,0.184949660487046,1
1018,284,57,0.141762686606819,1
1018,285,57,0.268628578142059,2
1018,286,57,0.335478010798539,2
1018,287,57,0.309675483237843,2
1018,288,57,0.274765974802403,2
1018,289,57,0.245744240546567,1
1018,290,57,0.201404287797243,1
1019,284,57,0.116506452592739,1
1019,285,57,0.226534238462533,2
1019,286,57,0.309633981557237,2
1019,287,57,0.268688781488046,2
1019,288,57,0.226855346528198,1
1019,289,57,0.213472043789596,1
1020,285,57,0.220797537937529,2
1020,286,57,0.353361537203407,2
1020,287,57,0.289360551903575,2
1020,288,57,0.18655553056766,1
1020,293,57,0.134824121436273,1
1021,285,57,0.182522824982184,1
1021,286,57,0.286107003863189,2
1021,287,57,0.246338736811322,1
1021,288,57,0.165530041940722,1
1021,292,57,0.129260988382544,1
1021,293,57,0.115544777157174,1
1022,285,57,0.153499736386601,1
1022,286,57,0.212622908098603,1
1022,287,57,0.201236208346162,1
1022,292,57,0.11491197074287,1
1022,293,57,0.118841934937424,1
1022,294,57,0.113955017831119,1
1023,285,57,0.139228139873006,1
1023,286,57,0.177369291375527,1
1023,292,57,0.122130896017987,1
1023,293,57,0.148319351522344,1
1023,294,57,0.130245204742252,1
1024,285,57,0.117243024985425,1
1024,293,57,0.13642500990199,1
1008,285,58,0.140324931307888,1
1008,286,58,0.142952797938728,1
1009,281,58,0.13276791572436,1
1009,282,58,0.139838311148228,1
1009,284,58,0.208413054874172,1
1009,285,58,0.274998850577745,1
1009,286,58,0.272617285351047,4
1009,287,58,0.195079038325507,1
1010,279,58,0.133129936627263,1
1010,280,58,0.213644009606909,1
1010,281,58,0.247149173716142,1
1010,282,58,0.210780181661477,1
1010,283,58,0.187699146827199,1
1010,284,58,0.228940488003235,1
1010,285,58,0.318902635267214,4
1010,286,58,0.33449348824028,4
1010,287,58,0.220645804778356,4
1011,279,58,0.156878790502531,1
1011,280,58,0.248859316180436,1
1011,281,58,0.257940670591787,1
1011,282,58,0.203122815391103,1
1011,283,58,0.176240184216586,1
1011,284,58,0.18772053361834,1
1011,285,58,0.226149912172834,1
1011,286,58,0.243145910299087,4
1011,287,58,0.187001261443818,1
1012,280,58,0.15398068009619,1
1012,281,58,0.163717723375141,1
1012,282,58,0.151038512429023,1
1012,283,58,0.155235528868023,1
1012,284,58,0.16999199078804,1
1012,285,58,0.180242375938711,1
1012,286,58,0.189240420790298,1
1013,283,58,0.138660742180066,1
1013,284,58,0.185693287223286,1
1013,285,58,0.208038503384389,1
1013,286,58,0.218952291250786,1
1013,287,58,0.212189519379448,1
1014,283,58,0.122803779111945,1
1014,284,58,0.195689680675423,1
1014,285,58,0.225125112728174,1
1014,286,58,0.223488316593851,1
1014,287,58,0.210110148569422,1
1014,288,58,0.182658682924145,1
1015,284,58,0.176333716097225,1
1015,285,58,0.2199203733022,1
1015,286,58,0.227563089149567,1
1015,287,58,0.208391573868092,1
1015,288,58,0.176086448989959,1
1016,284,58,0.144430759462854,1
1016,285,58,0.223720556418355,1
1016,286,58,0.293638805173681,2
1016,287,58,0.284169450090013,2
1016,288,58,0.211266448515116,1
1016,289,58,0.17191538876664,1
1017,284,58,0.138843118748132,1
1017,285,58,0.257407861558308,2
1017,286,58,0.374074338224847,2
1017,287,58,0.367668923616934,2
1017,288,58,0.272760939579206,2
1017,289,58,0.224578666082283,1
1017,290,58,0.199863614454381,1
1018,284,58,0.13317747984083,1
1018,285,58,0.238562000213303,2
1018,286,58,0.314551412526894,2
1018,287,58,0.304066585277521,2
1018,288,58,0.279560596599142,2
1018,289,58,0.284318733660774,1
1018,290,58,0.230468018362115,1
1018,291,58,0.180973436757469,1
1019,284,58,0.117151518725973,1
1019,285,58,0.210557104239785,1
1019,286,58,0.28026435863934,2
1019,287,58,0.250953172537325,2
1019,288,58,0.227607794138097,1
1019,289,58,0.233524822056245,1
1019,290,58,0.190868937786861,1
1020,285,58,0.202590760077136,1
1020,286,58,0.311868076850749,2
1020,287,58,0.26000774635228,1
1020,288,58,0.178339304833189,1
1020,289,58,0.153194421100076,1
1021,285,58,0.16879436581475,1
1021,286,58,0.262915030938302,1
1021,287,58,0.235584925911256,1
1021,288,58,0.162469422541565,1
1022,285,58,0.147718684179088,1
1022,286,58,0.206716550022291,1
1022,287,58,0.200656221182006,1
1023,285,58,0.134759584203094,1
1023,286,58,0.175914294742769,1
1023,293,58,0.119127005788943,1
1009,280,59,0.117410150510249,1
1009,281,59,0.149125054126482,1
1009,282,59,0.142456202772406,1
1009,285,59,0.209888343049406,1
1009,286,59,0.209842601696547,1
1010,279,59,0.132827848202398,1
1010,280,59,0.225887876873888,1
1010,281,59,0.269220412834788,1
1010,282,59,0.201614622648442,1
1010,283,59,0.164477413758471,1
1010,284,59,0.195942329811076,1
1010,285,59,0.248692956151991,1
1010,286,59,0.260992292464275,4
1010,287,59,0.186523285504806,1
1011,259,59,0.14383576856967,1
1011,260,59,0.115678515263009,1
1011,279,59,0.137597538370918,1
1011,280,59,0.213965470978596,1
1011,281,59,0.231931600331184,1
1011,282,59,0.170227563466009,1
1011,283,59,0.144973425734321,1
1011,284,59,0.170677651783093,1
1011,285,59,0.200309887066437,1
1011,286,59,0.202683632453203,1
1012,280,59,0.119858631897334,1
1012,281,59,0.132993972693496,1
1012,282,59,0.133124542822009,1
1012,283,59,0.152589054786741,1
1012,284,59,0.183946342048466,1
1012,285,59,0.185204700326775,1
1013,283,59,0.161206589053656,1
1013,284,59,0.211582045006853,1
1013,285,59,0.216766740204567,1
1013,286,59,0.215446600480044,1
1013,287,59,0.223486974030971,1
1014,283,59,0.130576111161568,1
1014,284,59,0.191630618460777,1
1014,285,59,0.206844729446728,1
1014,286,59,0.207654365524568,1
1014,287,59,0.218037958822042,1
1014,288,59,0.209861303361928,1
1015,284,59,0.158886287091008,1
1015,285,59,0.18176793956074,1
1015,286,59,0.192410517948511,1
1015,287,59,0.201841727758774,1
1015,288,59,0.184917474308528,1
1016,284,59,0.127326755685966,1
1016,285,59,0.186519764221462,1
1016,286,59,0.257146674193812,2
1016,287,59,0.270335140438672,2
1016,288,59,0.210134503131139,1
1016,289,59,0.182489331571388,1
1016,290,59,0.190378042624346,1
1017,284,59,0.122900431862437,1
1017,285,59,0.22351611000084,2
1017,286,59,0.342250957883284,2
1017,287,59,0.345829759446649,2
1017,288,59,0.263952808490801,2
1017,289,59,0.241947637598092,1
1017,290,59,0.212976732301818,1
1017,291,59,0.197159881243954,1
1018,284,59,0.128571299698851,1
1018,285,59,0.219400565930295,1
1018,286,59,0.297464732521904,2
1018,287,59,0.291078066686841,2
1018,288,59,0.269726606148015,2
1018,289,59,0.294243170453291,1
1018,290,59,0.243421724532854,1
1018,291,59,0.176903528047976,1
1019,284,59,0.126871850630128,1
1019,285,59,0.204003560194113,1
1019,286,59,0.255199015868434,1
1019,287,59,0.235794860348965,2
1019,288,59,0.217961409184148,1
1019,289,59,0.227600516034064,1
1019,290,59,0.19387374661156,1
1020,285,59,0.178051949269401,1
1020,286,59,0.244495798390583,1
1020,287,59,0.220563366706777,1
1020,288,59,0.171524255447602,1
1020,289,59,0.150915043751533,1
1021,285,59,0.152711687306647,1
1021,286,59,0.219639047494504,1
1021,287,59,0.21402188217329,1
1021,288,59,0.161531948568442,1
1022,285,59,0.145337519365881,1
1022,286,59,0.196234666989761,1
1022,287,59,0.19783961847472,1
1023,285,59,0.131439567523281,1
1023,286,59,0.167426859529671,1
1009,280,60,0.115908211284161,1
1010,279,60,0.119586986674616,1
1010,280,60,0.206738219458249,1
1010,281,60,0.241964808270715,1
1010,282,60,0.171328147052184,1
1010,285,60,0.182126203642953,1
1010,286,60,0.188350784452425,1
1011,280,60,0.170793065083303,1
1011,281,60,0.189554097652654,1
1011,282,60,0.14177798475753,1
1011,283,60,0.12805143344261,1
1012,282,60,0.119075423109869,1
1012,283,60,0.154207219916887,1
1012,284,60,0.198846022452551,1
1013,283,60,0.1695029092631,1
1013,284,60,0.224260125373704,1
1013,285,60,0.217664773448873,1
1013,286,60,0.201585533786042,1
1013,287,60,0.216326568009807,1
1013,288,60,0.237707376502116,1
1014,283,60,0.126344494286241,1
1014,284,60,0.178545929971166,1
1014,285,60,0.197830032104683,1
1014,286,60,0.207230751605328,1
1014,287,60,0.222156729754246,1
1014,288,60,0.23333827647713,1
1014,289,60,0.186276760340184,1
1015,284,60,0.140544864305992,1
1015,285,60,0.172151491403641,1
1015,286,60,0.196829328130659,1
1015,287,60,0.205217401913769,1
1015,288,60,0.195454013782515,1
1016,285,60,0.162119319828438,1
1016,286,60,0.225893812415042,1
1016,287,60,0.243029719725631,1
1016,288,60,0.206243025739144,1
1016,289,60,0.187687970580066,1
1016,290,60,0.18899548550277,1
1017,285,60,0.188093153701875,1
1017,286,60,0.289925747322317,2
1017,287,60,0.297992925023375,2
1017,288,60,0.247456385078313,1
1017,289,60,0.241748396555954,1
1017,290,60,0.21339926274926,1
1017,291,60,0.17657799188018,1
1018,284,60,0.122676942250388,1
1018,285,60,0.203712318264094,1
1018,286,60,0.278871414320746,1
1018,287,60,0.270615971617938,2
1018,288,60,0.248902466622474,1
1018,289,60,0.270372708645577,1
1018,290,60,0.229648748806768,1
1018,291,60,0.161981542257096,1
1019,284,60,0.132689222696605,1
1019,285,60,0.193220884192128,1
1019,286,60,0.229578959090743,1
1019,287,60,0.215242860674571,1
1019,288,60,0.199514218353296,1
1019,289,60,0.20440369103982,1
1019,290,60,0.182694861460701,1
1020,285,60,0.154860459196075,1
1020,286,60,0.188499596948491,1
1020,287,60,0.18377139668371,1
1020,288,60,0.161259537849344,1
1021,285,60,0.141541988112336,1
1021,286,60,0.183553736621008,1
1021,287,60,0.189666401859878,1
1022,285,60,0.141260108791874,1
1022,286,60,0.181196137319404,1
1022,287,60,0.186076200288901,1
1023,285,60,0.12576796952109,1
1023,286,60,0.155215190218077,1
1010,280,61,0.155837809642108,1
1010,281,61,0.170018877376242,1
1011,280,61,0.125792076768593,1
1011,281,61,0.136204111200762,1
1011,282,61,0.11415867519852,1
1012,283,61,0.14886201779381,1
1013,283,61,0.156645632082373,1
1013,284,61,0.208107068306208,1
1014,284,61,0.151946249812041,1
1014,285,61,0.171631106965235,1
1014,286,61,0.188342399322858,1
1014,287,61,0.202432172781153,1
1014,288,61,0.225614677104677,1
1015,284,61,0.115203200896022,1
1015,285,61,0.154991547506752,1
1015,286,61,0.192854176096012,1
1015,287,61,0.193567536283115,1
1016,285,61,0.137851812714268,1
1016,286,61,0.188190477733807,1
1016,287,61,0.201047990451881,1
1016,288,61,0.192516026903264,1
1016,289,61,0.187844084733901,1
1017,285,61,0.163514183776414,1
1017,286,61,0.236722006009406,1
1017,287,61,0.24585762822559,1
1017,288,61,0.221998990392714,1
1017,289,61,0.222499271718522,1
1017,290,61,0.198134487679889,1
1018,284,61,0.123752653092681,1
1018,285,61,0.197484805014647,1
1018,286,61,0.261164211174118,1
1018,287,61,0.252496978526908,1
1018,288,61,0.227402075818907,1
1018,289,61,0.234266270072022,1
1018,290,61,0.203601333066014,1
1019,284,61,0.135679899280462,1
1019,285,61,0.183610972196418,1
1019,286,61,0.205494464495477,1
1019,287,61,0.195530940280165,1
1019,288,61,0.184808385186095,1
1019,289,61,0.185555662751219,1
1020,285,61,0.140710187970109,1
1020,286,61,0.151075173817141,1
1020,287,61,0.155168341839686,1
1021,285,61,0.141904385874995,1
1021,286,61,0.160001391554648,1
1021,287,61,0.164717756067725,1
1022,285,61,0.140867903777906,1
1022,286,61,0.166378588788347,1
1022,287,61,0.169204801419405,1
1023,285,61,0.115468781032046,1
1023,286,61,0.137521754229403,1
1013,283,62,0.126880989479206,1
1014,284,62,0.121535233843363,1
1015,285,62,0.127577555853442,1
1016,287,62,0.15434835389543,1
1017,285,62,0.139076677581781,1
1017,286,62,0.185086154379845,1
1017,287,62,0.192971461918133,1
1017,288,62,0.185412691581368,1
1017,289,62,0.185488287293005,1
1018,284,62,0.122702863135466,1
1018,285,62,0.177731665584451,1
1018,286,62,0.225029884978634,1
1018,287,62,0.217867924410978,1
1018,288,62,0.193016108022327,1
1018,289,62,0.187539311183276,1
1019,284,62,0.128882314989182,1
1019,285,62,0.163311185913585,1
1019,286,62,0.177020837423832,1
1020,285,62,0.1318180760405,1
1020,286,62,0.129879321026852,1
1021,285,62,0.142109303367204,1
1021,286,62,0.144611357723948,1
1022,285,62,0.13162712591299,1
1022,286,62,0.145926244965625,1
1017,285,63,0.120082133286251,1
1018,285,63,0.144743458845219,1
1018,286,63,0.177861093356829,1
1019,285,63,0.136000088750472,1
1019,286,63,0.148694597847302,1
1020,285,63,0.126264046505248,1
1020,286,63,0.124751484544793,1
1021,285,63,0.138363081857331,1
1021,286,63,0.137749813265991,1
1022,285,63,0.119829213282648,1
1022,286,63,0.129810084823594,1
1019,286,64,0.116180963532412,1
1020,286,64,0.11519913787678,1
1021,285,64,0.119193686411982,1
1021,286,64,0.122163317733852,1
