x,y,z,signal,mito.p
804,1021,13,0.130895323151588,1
804,1022,13,0.150121541981988,1
805,1021,13,0.118228937214034,1
805,1022,13,0.128760518626859,1
806,1018,13,0.142570473716482,1
806,1019,13,0.116871617919229,1
807,1018,13,0.146731370503262,1
804,1019,14,0.115919387531293,1
804,1020,14,0.114628866628202,1
804,1021,14,0.164543152232121,1
804,1022,14,0.18042339816703,1
805,1018,14,0.121659809546385,1
805,1019,14,0.119316154055746,1
805,1020,14,0.118151622079761,1
805,1021,14,0.163093431635944,1
805,1022,14,0.169127168309712,1
806,1017,14,0.1278694337343,1
806,1018,14,0.170334038123887,1
806,1019,14,0.135820161770819,1
807,1017,14,0.141796286009421,1
807,1018,14,0.189539341237841,1
807,1019,14,0.141212318264094,1
808,1018,14,0.12988000408516,1
804,1018,15,0.115078507424326,1
804,1019,15,0.119418836562331,1
804,1020,15,0.114174479754529,1
804,1021,15,0.166868471140268,1
804,1022,15,0.174480790892958,1
805,1018,15,0.128161759136117,1
805,1019,15,0.121597168388853,1
805,1020,15,0.124069238841277,1
805,1021,15,0.181109530236777,1
805,1022,15,0.177073845103857,1
806,1017,15,0.141955909669731,1
806,1018,15,0.1745850043923,1
806,1019,15,0.13681304590491,1
806,1021,15,0.119544519290886,1
807,1017,15,0.157440181993113,1
807,1018,15,0.202313179313264,1
807,1019,15,0.151270457831843,1
808,1017,15,0.123223777532903,1
808,1018,15,0.147847947075323,1
808,1019,15,0.116116072993212,1
809,1017,15,0.120773176309691,1
809,1018,15,0.139664873222494,1
810,1017,15,0.12123693756979,1
810,1018,15,0.145188424224997,1
804,1018,16,0.125686897566127,1
804,1019,16,0.115865991214645,1
804,1021,16,0.145817450264876,1
804,1022,16,0.144871968021942,1
805,1017,16,0.132040340858343,1
805,1018,16,0.145006683607769,1
805,1019,16,0.123067098089434,1
805,1020,16,0.122151399544075,1
805,1021,16,0.171107801863722,1
805,1022,16,0.156021469888717,1
806,1017,16,0.16126931264926,1
806,1018,16,0.180704111577622,1
806,1019,16,0.137070252688235,1
806,1020,16,0.115780479380684,1
806,1021,16,0.11992926954781,1
807,1017,16,0.170844800861652,1
807,1018,16,0.208370752366585,1
807,1019,16,0.154182582710353,1
808,1017,16,0.146802538112769,1
808,1018,16,0.178905995914087,1
808,1019,16,0.136952743105633,1
809,1017,16,0.143610547758118,1
809,1018,16,0.178253145271522,1
809,1019,16,0.125277568987005,1
810,1017,16,0.143044257090711,1
810,1018,16,0.18602500624645,1
810,1019,16,0.120284907388599,1
811,1015,16,0.11861730296924,1
811,1018,16,0.118289788287726,1
804,1017,17,0.120159106891371,1
804,1018,17,0.131924633136449,1
805,1017,17,0.162519803980167,1
805,1018,17,0.166456669418999,1
805,1019,17,0.127238688271785,1
805,1020,17,0.120428066988329,1
805,1021,17,0.142767889344177,1
805,1022,17,0.11832973542184,1
806,1016,17,0.119979698093881,1
806,1017,17,0.182726741440667,1
806,1018,17,0.187529736590105,1
806,1019,17,0.140731268562698,1
806,1020,17,0.123717452036117,1
807,1016,17,0.12434829171357,1
807,1017,17,0.185281721039364,1
807,1018,17,0.21052405834995,1
807,1019,17,0.15156954315553,1
808,1016,17,0.119018894146501,1
808,1017,17,0.174315490782576,1
808,1018,17,0.213056532355106,1
808,1019,17,0.149560798219112,1
809,1017,17,0.15406610949208,1
809,1018,17,0.202003141502924,1
809,1019,17,0.133708310360591,1
810,1015,17,0.12761193252929,1
810,1017,17,0.142743157922704,1
810,1018,17,0.196669857569624,1
810,1019,17,0.125174274083317,1
811,1015,17,0.147853517533589,1
811,1018,17,0.126838015690179,1
804,1017,18,0.12987749561241,1
804,1018,18,0.130201253473234,1
805,1016,18,0.130720954853332,1
805,1017,18,0.200451727657021,1
805,1018,18,0.184521441812665,1
805,1019,18,0.124424747136525,1
806,1016,18,0.154204099047035,1
806,1017,18,0.213194180380907,1
806,1018,18,0.188928510458047,1
806,1019,18,0.134383843249707,1
807,1016,18,0.15930344728693,1
807,1017,18,0.210962110708583,1
807,1018,18,0.206040016099449,1
807,1019,18,0.135102703233871,1
808,1016,18,0.139121253024771,1
808,1017,18,0.203592288431875,1
808,1018,18,0.230977556305674,1
808,1019,18,0.13879340859097,1
809,1017,18,0.151374153149021,1
809,1018,18,0.193389587817179,1
809,1019,18,0.114329545767168,1
810,1014,18,0.113902422341452,1
810,1015,18,0.141641761732681,1
810,1017,18,0.116764118673891,1
810,1018,18,0.15991045058483,1
811,1014,18,0.13805408041132,1
811,1015,18,0.177163443510795,1
811,1016,18,0.117155628852684,1
812,1015,18,0.133736951702031,1
825,1012,18,0.14745549474714,1
825,1013,18,0.131187118594373,1
826,1012,18,0.169954422581135,1
826,1013,18,0.155426679202278,1
827,1013,18,0.125201890837296,1
839,1011,18,0.163295487349383,1
840,1011,18,0.156949699020956,1
841,1012,18,0.177976989508601,1
804,1017,19,0.120634291712816,1
804,1018,19,0.113874252074707,1
805,1016,19,0.146305342326212,1
805,1017,19,0.207163906106146,1
805,1018,19,0.175219012047076,1
805,1019,19,0.114444452662081,1
806,1015,19,0.127318040804113,1
806,1016,19,0.193457033936598,1
806,1017,19,0.223366214032976,1
806,1018,19,0.172230690836693,1
806,1019,19,0.123336281946873,1
807,1015,19,0.151925899385229,1
807,1016,19,0.207062577939308,1
807,1017,19,0.226761013820578,1
807,1018,19,0.187395633401382,1
807,1019,19,0.114324846797088,1
808,1015,19,0.12305337803895,1
808,1016,19,0.165149060281356,1
808,1017,19,0.227025192509385,1
808,1018,19,0.230139161117721,1
808,1019,19,0.118019462074153,1
809,1017,19,0.147837289010355,1
809,1018,19,0.174053537921701,1
810,1014,19,0.124018786741471,1
810,1015,19,0.140561599234522,1
810,1018,19,0.116107228565819,1
811,1014,19,0.175222863082705,1
811,1015,19,0.20044649872791,1
811,1016,19,0.118028212286608,1
812,1014,19,0.156422554660681,1
812,1015,19,0.170606990578883,1
823,1011,19,0.12269997780296,1
824,1011,19,0.138096430026376,1
824,1012,19,0.142317353506134,1
825,1011,19,0.159698678955812,1
825,1012,19,0.190256823328523,1
825,1013,19,0.152397892675618,1
826,1011,19,0.184000056340533,1
826,1012,19,0.229994329202825,1
826,1013,19,0.186873812185157,1
827,1012,19,0.196917784181462,1
827,1013,19,0.163234530283885,1
828,1013,19,0.115381432006774,1
838,1010,19,0.211104917002292,1
838,1011,19,0.214501601088672,1
839,1010,19,0.229651834346018,2
839,1011,19,0.261809889704455,2
839,1012,19,0.20419618263679,1
840,1010,19,0.189498239970726,1
840,1011,19,0.261079818142556,2
840,1012,19,0.240068026012368,2
841,1011,19,0.244761625840821,2
841,1012,19,0.274594927580745,2
841,1013,19,0.194553448511724,1
842,1011,19,0.20318664601224,1
842,1012,19,0.249248659415634,2
802,1018,20,0.119297593712773,1
805,1016,20,0.133809037907192,1
805,1017,20,0.167063331187745,1
805,1018,20,0.134559966301201,1
806,1015,20,0.14603576983215,1
806,1016,20,0.198527034223011,1
806,1017,20,0.188292347636543,1
806,1018,20,0.132298548675394,1
807,1014,20,0.115734054969518,1
807,1015,20,0.193395181829179,1
807,1016,20,0.225657332918285,1
807,1017,20,0.197682138204271,1
807,1018,20,0.143617543217335,1
808,1015,20,0.15413403846306,1
808,1016,20,0.170591963296121,1
808,1017,20,0.199314011608034,1
808,1018,20,0.185338285333334,1
809,1017,20,0.120547543307781,1
809,1018,20,0.132660816892512,1
810,1014,20,0.118947455669045,1
810,1015,20,0.120071993403447,1
811,1014,20,0.191259552923735,1
811,1015,20,0.192950075126992,1
812,1014,20,0.192633100741773,1
812,1015,20,0.181888864434878,1
813,1014,20,0.118237793418295,1
814,1012,20,0.132240653595412,1
814,1013,20,0.149207374429387,1
815,1013,20,0.12353019984496,1
822,1011,20,0.127203322339078,1
823,1010,20,0.146039832851393,1
823,1011,20,0.174058684412741,1
823,1012,20,0.145955852010189,1
824,1010,20,0.147426358777271,1
824,1011,20,0.187453080960404,1
824,1012,20,0.183092813585945,1
824,1013,20,0.125739858138682,1
825,1010,20,0.144979573259087,1
825,1011,20,0.213803515498546,1
825,1012,20,0.244267539147249,1
825,1013,20,0.176077710554372,1
826,1010,20,0.154935042097119,1
826,1011,20,0.252038198881706,1
826,1012,20,0.30024861909164,3
826,1013,20,0.218810285784059,1
827,1011,20,0.23262664748953,1
827,1012,20,0.274113866102483,3
827,1013,20,0.206134678559356,1
828,1012,20,0.191746455728212,1
828,1013,20,0.160497150563386,1
828,1015,20,0.125129380664909,1
828,1016,20,0.158283123051871,1
829,1013,20,0.133718450243395,1
829,1014,20,0.116786506498758,1
829,1015,20,0.137858136892045,1
829,1016,20,0.162865608136704,1
832,1017,20,0.125542678048334,1
832,1018,20,0.118614452967337,1
837,1010,20,0.169111340199969,1
837,1011,20,0.163429390331361,1
837,1013,20,0.21205954987117,1
837,1014,20,0.208563421916731,1
838,1009,20,0.183940477168517,1
838,1010,20,0.285928325231477,2
838,1011,20,0.277005934975864,2
838,1012,20,0.217939716194455,1
838,1013,20,0.217156907820481,1
838,1014,20,0.197283385252046,1
839,1009,20,0.183080506759545,2
839,1010,20,0.320168248095822,2
839,1011,20,0.357305280332782,2
839,1012,20,0.273022786448274,2
839,1013,20,0.194324035135389,1
840,1009,20,0.133954364450518,1
840,1010,20,0.266812231887837,2
840,1011,20,0.373443946068354,2
840,1012,20,0.338577776504829,2
840,1013,20,0.216084576939122,2
841,1010,20,0.202032041935446,2
841,1011,20,0.353158833762263,2
841,1012,20,0.38155059982883,2
841,1013,20,0.252589214952137,2
841,1014,20,0.132555413929566,1
842,1010,20,0.154041542946749,1
842,1011,20,0.289411969706505,2
842,1012,20,0.331787234780236,2
842,1013,20,0.228241837123475,2
843,1011,20,0.188703701836852,1
843,1012,20,0.209245467413502,2
802,1018,21,0.131907780439245,1
805,1016,21,0.114589743874804,1
805,1017,21,0.1197411340916,1
806,1015,21,0.152793819179674,1
806,1016,21,0.180004153465583,1
806,1017,21,0.142749705860961,1
807,1014,21,0.139791556984775,1
807,1015,21,0.222237566171862,1
807,1016,21,0.220464111268597,1
807,1017,21,0.155793399075262,1
808,1014,21,0.140718914628829,1
808,1015,21,0.185158994304519,1
808,1016,21,0.167419864070455,1
808,1017,21,0.152636444901031,1
808,1018,21,0.12778355681745,1
811,1014,21,0.183871888692964,1
811,1015,21,0.163197327159868,1
812,1013,21,0.121509595603102,1
812,1014,21,0.201326442703939,1
812,1015,21,0.166703877641928,1
813,1013,21,0.119466014693008,1
813,1014,21,0.121525788795733,1
814,1012,21,0.162484461601194,1
814,1013,21,0.178697510031065,1
815,1012,21,0.148154769800871,1
815,1013,21,0.156524766092571,1
822,1010,21,0.15494081276213,1
822,1011,21,0.155967178530149,1
822,1012,21,0.118115090237184,1
823,1009,21,0.158179686825774,1
823,1010,21,0.211034750426511,1
823,1011,21,0.214855943474052,1
823,1012,21,0.165103519135243,1
824,1009,21,0.181937126037354,1
824,1010,21,0.202631578699434,1
824,1011,21,0.2280011415082,1
824,1012,21,0.209261507506858,1
824,1013,21,0.138864811737825,1
825,1008,21,0.157072213772189,1
825,1009,21,0.166245192211666,1
825,1010,21,0.183091918544025,1
825,1011,21,0.256713685888147,1
825,1012,21,0.277302924017159,3
825,1013,21,0.18453086330656,1
826,1010,21,0.183016193286846,1
826,1011,21,0.299315467228841,3
826,1012,21,0.336327240704471,3
826,1013,21,0.222884940571101,3
827,1010,21,0.173814867927614,1
827,1011,21,0.290360290174475,3
827,1012,21,0.328907814262408,3
827,1013,21,0.226047476980464,3
827,1014,21,0.117660385388092,1
827,1016,21,0.114099955737822,1
828,1011,21,0.217049549897551,1
828,1012,21,0.255812284459773,3
828,1013,21,0.197093118182843,1
828,1014,21,0.126767154279224,1
828,1015,21,0.14588191683685,1
828,1016,21,0.193881248476073,1
828,1017,21,0.125419774660478,1
829,1012,21,0.193798716189556,1
829,1013,21,0.179461640293393,1
829,1014,21,0.138910776851163,1
829,1015,21,0.167010865243619,1
829,1016,21,0.209114343772223,1
829,1017,21,0.132694604724992,1
830,1012,21,0.177759541429512,1
830,1013,21,0.173824289421509,1
830,1014,21,0.126064911454916,1
830,1015,21,0.116103942819823,1
830,1016,21,0.133818306301811,1
832,1017,21,0.140270039329084,1
833,1017,21,0.185464533351523,1
833,1018,21,0.146794023437662,1
836,1013,21,0.167047526631737,1
836,1014,21,0.162788316556165,1
837,1010,21,0.166527848805373,1
837,1011,21,0.160810379904783,1
837,1012,21,0.183741565878665,1
837,1013,21,0.276478661070048,2
837,1014,21,0.267470982740954,1
837,1015,21,0.139851371694139,1
838,1009,21,0.191097938972839,1
838,1010,21,0.308333815399771,2
838,1011,21,0.293743101111096,2
838,1012,21,0.252319642458075,2
838,1013,21,0.295409433628779,2
838,1014,21,0.26794500165253,2
838,1015,21,0.144456091504564,1
839,1009,21,0.19950001545125,2
839,1010,21,0.359662891411253,2
839,1011,21,0.399980054697425,2
839,1012,21,0.327138551923926,2
839,1013,21,0.268254639049379,2
839,1014,21,0.198814436894269,1
840,1009,21,0.150149971339816,2
840,1010,21,0.308438370428267,2
840,1011,21,0.448324613426684,2
840,1012,21,0.423160886705782,2
840,1013,21,0.285562865483302,2
840,1014,21,0.16391861317871,2
841,1010,21,0.241992107049275,2
841,1011,21,0.444990393844825,2
841,1012,21,0.476571194272335,2
841,1013,21,0.309526647188042,2
841,1014,21,0.158805580218933,2
842,1010,21,0.191360987082378,2
842,1011,21,0.377571832295901,2
842,1012,21,0.417798266595867,2
842,1013,21,0.273685965403521,2
842,1014,21,0.143074193887561,1
843,1010,21,0.143967528161787,1
843,1011,21,0.264541392768137,2
843,1012,21,0.28480349307539,2
843,1013,21,0.192522091989959,1
844,1011,21,0.146751650268871,1
844,1012,21,0.154107599395818,1
802,1018,22,0.123617949283722,1
806,1015,22,0.136760980374275,1
806,1016,22,0.140427802244351,1
807,1014,22,0.133812441421862,1
807,1015,22,0.19998663561091,1
807,1016,22,0.173896434511008,1
808,1014,22,0.136127055157571,1
808,1015,22,0.16981782269653,1
808,1016,22,0.134021209949701,1
811,1014,22,0.142620419410991,1
811,1015,22,0.114226133094806,1
812,1014,22,0.164305907238986,1
812,1015,22,0.122209730368151,1
814,1012,22,0.148542735142587,1
814,1013,22,0.160056731054412,1
815,1012,22,0.139178559261385,1
815,1013,22,0.142834569967217,1
822,1009,22,0.139471214415489,1
822,1010,22,0.204290350468267,1
822,1011,22,0.166774550623006,1
823,1008,22,0.132641255515814,1
823,1009,22,0.207596234907238,1
823,1010,22,0.270630410057332,1
823,1011,22,0.226900192839137,1
823,1012,22,0.147197805112253,1
824,1007,22,0.146166210415122,1
824,1008,22,0.205200867191984,1
824,1009,22,0.23790157704502,1
824,1010,22,0.246283550410834,1
824,1011,22,0.240445639487667,1
824,1012,22,0.194834126591714,1
824,1013,22,0.121595872933442,1
825,1006,22,0.138029266551775,1
825,1007,22,0.187995111281033,1
825,1008,22,0.237106473621513,4
825,1009,22,0.219657796267355,1
825,1010,22,0.215446883124861,1
825,1011,22,0.280127040365825,3
825,1012,22,0.273983237089633,3
825,1013,22,0.164045815123156,1
826,1006,22,0.140214146316554,1
826,1007,22,0.173902676250713,1
826,1008,22,0.192567845119685,1
826,1009,22,0.171603407773185,1
826,1010,22,0.203615112000835,3
826,1011,22,0.320672368680392,3
826,1012,22,0.331891295180303,3
826,1013,22,0.197305478655229,3
827,1010,22,0.193693984508049,3
827,1011,22,0.322761490736599,3
827,1012,22,0.346894034950727,3
827,1013,22,0.21556239064001,3
828,1010,22,0.164452293700375,1
828,1011,22,0.25802715990574,3
828,1012,22,0.297854146418306,3
828,1013,22,0.212484930320515,1
828,1014,22,0.128851341828003,1
828,1015,22,0.150072656205542,1
828,1016,22,0.200235904785629,1
828,1017,22,0.117859838413843,1
829,1011,22,0.187390216042392,1
829,1012,22,0.24324314011608,1
829,1013,22,0.215480635626738,1
829,1014,22,0.150787665154077,1
829,1015,22,0.172061916550437,1
829,1016,22,0.22188887668282,1
829,1017,22,0.13376962073211,1
830,1011,22,0.170526637012829,1
830,1012,22,0.240034344171694,1
830,1013,22,0.225119365616899,1
830,1014,22,0.147558954526971,1
830,1015,22,0.121560683653746,1
830,1016,22,0.14256215924812,1
830,1017,22,0.113983423635212,1
831,1012,22,0.198023078514585,1
831,1017,22,0.118959373858822,1
832,1016,22,0.120649613417263,1
832,1017,22,0.138399955229061,1
833,1016,22,0.135893884960545,1
833,1017,22,0.172055038859894,1
833,1018,22,0.11622317182506,1
836,1013,22,0.173243254116156,2
836,1014,22,0.163181440165788,1
837,1010,22,0.143490152843011,1
837,1011,22,0.15130380992023,2
837,1012,22,0.205684590242272,2
837,1013,22,0.329753817306681,2
837,1014,22,0.303849726041801,2
837,1015,22,0.147985653985462,1
838,1009,22,0.172455958755715,1
838,1010,22,0.292544687087692,2
838,1011,22,0.290666535833521,2
838,1012,22,0.302103781900707,2
838,1013,22,0.395277221804955,2
838,1014,22,0.336814638137378,2
838,1015,22,0.162913669532434,2
839,1009,22,0.197326064619389,2
839,1010,22,0.368475003080828,2
839,1011,22,0.415461547680108,2
839,1012,22,0.395347176397123,2
839,1013,22,0.376708587917801,2
839,1014,22,0.265699694781284,2
839,1015,22,0.135933714325984,1
840,1009,22,0.152239470255778,2
840,1010,22,0.321370454270518,2
840,1011,22,0.479152448062131,2
840,1012,22,0.489080912543287,2
840,1013,22,0.359719797234377,2
840,1014,22,0.20292494046558,2
841,1010,22,0.254755781688158,2
841,1011,22,0.494278138327881,2
841,1012,22,0.543020284099496,2
841,1013,22,0.351859421324308,2
841,1014,22,0.175603927180143,2
842,1010,22,0.210293137534591,2
842,1011,22,0.443349734898005,2
842,1012,22,0.492842114228453,2
842,1013,22,0.305980891514513,2
842,1014,22,0.152800920630697,2
843,1010,22,0.171904353841916,2
843,1011,22,0.342808780983054,2
843,1012,22,0.368001502351416,2
843,1013,22,0.226449633447359,2
843,1014,22,0.126851653302592,1
844,1011,22,0.203609341335825,2
844,1012,22,0.212176588379077,2
844,1013,22,0.141034393351892,1
846,1016,22,0.141322655734468,1
847,1016,22,0.150288184655251,1
847,1017,22,0.167030485504655,1
847,1018,22,0.166672421629187,1
848,1018,22,0.186576399176637,1
848,1019,22,0.213803350622403,1
798,1023,23,0.118025962904941,1
799,1023,23,0.150810959797732,1
799,1024,23,0.171806158321798,1
800,1024,23,0.11992143793101,1
807,1015,23,0.155490733583895,1
807,1016,23,0.125152875515309,1
808,1014,23,0.116467553599821,1
808,1015,23,0.138894654319736,1
812,1014,23,0.11987355318829,1
814,1012,23,0.118742879705989,1
814,1013,23,0.120533140198989,1
815,1012,23,0.11488153931759,1
822,1009,23,0.160339422978722,1
822,1010,23,0.218515110380338,1
822,1011,23,0.150779350685715,1
823,1007,23,0.129421094894417,1
823,1008,23,0.160064009158446,1
823,1009,23,0.242126551767152,1
823,1010,23,0.299602021965648,1
823,1011,23,0.212170770606597,1
823,1012,23,0.123656330094475,1
824,1006,23,0.174588478568174,1
824,1007,23,0.229161469142535,4
824,1008,23,0.258479933348584,4
824,1009,23,0.275815364346128,1
824,1010,23,0.284621234275998,1
824,1011,23,0.246107250706329,1
824,1012,23,0.172462059173011,1
825,1005,23,0.160115250308365,1
825,1006,23,0.220941286380628,4
825,1007,23,0.305641529304426,4
825,1008,23,0.322466244671674,4
825,1009,23,0.27171209177138,4
825,1010,23,0.268132065413809,4
825,1011,23,0.306565565871882,3
825,1012,23,0.25050273091422,1
825,1013,23,0.137280281340882,1
826,1005,23,0.16094057317354,1
826,1006,23,0.205883713515736,1
826,1007,23,0.275391985964235,4
826,1008,23,0.27546222320122,4
826,1009,23,0.220435870340647,1
826,1010,23,0.238191146659873,3
826,1011,23,0.327940391715567,3
826,1012,23,0.294970533335695,3
826,1013,23,0.159764075900309,1
827,1006,23,0.163561444345163,1
827,1007,23,0.19393031090553,1
827,1008,23,0.193422009533044,1
827,1009,23,0.177458571807046,1
827,1010,23,0.215393793006764,3
827,1011,23,0.320514393781513,3
827,1012,23,0.315015821514697,3
827,1013,23,0.182534955155573,3
828,1004,23,0.164239521037631,1
828,1010,23,0.19524044029279,1
828,1011,23,0.271652924789722,3
828,1012,23,0.295085240023863,3
828,1013,23,0.203192887751945,1
828,1014,23,0.125963418411936,1
828,1015,23,0.138398141591486,1
828,1016,23,0.167349768155878,1
829,1003,23,0.149797784121165,1
829,1004,23,0.178869746716327,1
829,1005,23,0.162617175119568,1
829,1010,23,0.164937394644145,1
829,1011,23,0.211865561311879,1
829,1012,23,0.271592273922775,1
829,1013,23,0.234845338640524,1
829,1014,23,0.152043785827586,1
829,1015,23,0.152576241555044,1
829,1016,23,0.189507897001968,1
829,1017,23,0.114190154764996,1
830,1004,23,0.156343861632926,1
830,1011,23,0.201857932728272,1
830,1012,23,0.29396589588797,5
830,1013,23,0.265177932449396,1
830,1014,23,0.157888621548765,1
830,1015,23,0.115870124895092,1
830,1016,23,0.135858919441328,1
831,1011,23,0.183501529767964,1
831,1012,23,0.25704979768284,1
831,1013,23,0.215507227793256,1
831,1014,23,0.127694841675564,1
831,1016,23,0.12658650891066,1
831,1017,23,0.131008875706753,1
832,1012,23,0.15363896251263,1
832,1016,23,0.132074270013232,1
832,1017,23,0.134697944079288,1
833,1016,23,0.128186243243376,1
833,1017,23,0.140415954715778,1
836,1013,23,0.152089326973699,2
836,1014,23,0.144217727709028,1
837,1010,23,0.115140701060898,1
837,1011,23,0.142889850582644,1
837,1012,23,0.215727737857861,2
837,1013,23,0.320676867443726,2
837,1014,23,0.274236840151543,2
837,1015,23,0.138319848977221,1
838,1009,23,0.136504468426124,1
838,1010,23,0.233504518736902,2
838,1011,23,0.27551766869279,2
838,1012,23,0.366462077356495,2
838,1013,23,0.4628119503736,2
838,1014,23,0.344848416642579,2
838,1015,23,0.156254157234181,2
839,1009,23,0.168904561962716,2
839,1010,23,0.314598096029142,2
839,1011,23,0.395818957703899,2
839,1012,23,0.479810633625613,2
839,1013,23,0.491742767213352,2
839,1014,23,0.313690853274553,2
839,1015,23,0.14775877263561,2
840,1009,23,0.134952265530108,1
840,1010,23,0.284010156181989,2
840,1011,23,0.451456459319685,2
840,1012,23,0.52814553532363,2
840,1013,23,0.430967583654386,2
840,1014,23,0.244253265583999,2
840,1015,23,0.136147605791129,1
841,1010,23,0.243035113530886,2
841,1011,23,0.494567378190448,2
841,1012,23,0.567584238519062,2
841,1013,23,0.374417280602614,2
841,1014,23,0.191892583098518,2
842,1010,23,0.225850850402882,2
842,1011,23,0.494197537447612,2
842,1012,23,0.549602328164199,2
842,1013,23,0.319586376632886,2
842,1014,23,0.155034415303973,2
843,1010,23,0.204446299745959,2
843,1011,23,0.425336969150637,2
843,1012,23,0.446609666000504,2
843,1013,23,0.247226901040774,2
843,1014,23,0.133450020105468,1
844,1010,23,0.147625423166398,1
844,1011,23,0.27640830606439,2
844,1012,23,0.277112680501691,2
844,1013,23,0.166492906839892,1
845,1011,23,0.129199536688616,1
845,1012,23,0.131594586428451,1
845,1015,23,0.152241295670221,1
845,1016,23,0.169476105112969,1
846,1015,23,0.189918627028306,2
846,1016,23,0.242371699038292,2
846,1017,23,0.226282189947115,2
846,1018,23,0.168574161948697,1
847,1015,23,0.186746174496619,1
847,1016,23,0.263957213039197,2
847,1017,23,0.282370510045762,2
847,1018,23,0.247625029819028,1
847,1019,23,0.187183484912608,1
848,1016,23,0.18889108357355,1
848,1017,23,0.229422632953295,1
848,1018,23,0.256596364735424,1
848,1019,23,0.259022846934265,1
848,1020,23,0.19770639855105,1
849,1018,23,0.16290531973347,1
849,1019,23,0.21018189324543,1
798,1023,24,0.123900535216225,1
799,1023,24,0.164491769759793,1
799,1024,24,0.200129771656905,1
800,1024,24,0.12786093083606,1
822,1009,24,0.159235600754021,1
822,1010,24,0.194005470873075,1
822,1011,24,0.11964585923459,1
823,1006,24,0.149907520971303,1
823,1007,24,0.172676315721044,4
823,1008,24,0.17498181416141,1
823,1009,24,0.246106449879348,1
823,1010,24,0.283823822586486,1
823,1011,24,0.175321706330528,1
824,1005,24,0.164725952767413,1
824,1006,24,0.265890409371447,4
824,1007,24,0.329734032169502,4
824,1008,24,0.288798041610593,4
824,1009,24,0.283491338066943,4
824,1010,24,0.300466844443975,4
824,1011,24,0.227691080144126,1
824,1012,24,0.139443738983918,1
825,1004,24,0.136656743321197,1
825,1005,24,0.206536552381433,4
825,1006,24,0.330885951120536,4
825,1007,24,0.438534644905779,4
825,1008,24,0.376001881660761,4
825,1009,24,0.299657867870708,4
825,1010,24,0.316377392258622,4
825,1011,24,0.305316558426264,3
825,1012,24,0.205056129492027,1
826,1004,24,0.146968839256878,1
826,1005,24,0.19965436307498,1
826,1006,24,0.294146670802074,4
826,1007,24,0.398360547004398,4
826,1008,24,0.346875545268959,4
826,1009,24,0.262495868674927,4
826,1010,24,0.27778278425495,3
826,1011,24,0.314551954262793,3
826,1012,24,0.240782410786932,3
826,1013,24,0.122853277285494,1
827,1004,24,0.156923236399979,1
827,1005,24,0.173631926069914,1
827,1006,24,0.209435051424398,1
827,1007,24,0.261528893649046,4
827,1008,24,0.243341665388484,4
827,1009,24,0.219567185049823,1
827,1010,24,0.244147462207562,1
827,1011,24,0.292540047001949,3
827,1012,24,0.252968854048623,3
827,1013,24,0.142333805789847,1
828,1003,24,0.165273777306787,1
828,1004,24,0.189420971943922,1
828,1005,24,0.178615260389364,1
828,1006,24,0.160008457675069,1
828,1007,24,0.161314712472965,1
828,1008,24,0.167310539410674,1
828,1009,24,0.201693362783667,1
828,1010,24,0.23418147662697,1
828,1011,24,0.2619700786544,1
828,1012,24,0.252233035375448,1
828,1013,24,0.175523679605895,1
828,1014,24,0.120797919508032,1
828,1015,24,0.118817450830166,1
828,1016,24,0.117880177063788,1
829,1002,24,0.144588922791611,1
829,1003,24,0.181305014458225,1
829,1004,24,0.226599835613775,1
829,1005,24,0.200644138116086,1
829,1006,24,0.149058043751156,1
829,1009,24,0.182132857573016,1
829,1010,24,0.205678160072689,1
829,1011,24,0.233593174994451,1
829,1012,24,0.277698909405553,5
829,1013,24,0.23547773286447,1
829,1014,24,0.151632219643664,1
829,1015,24,0.129676382048361,1
829,1016,24,0.139735369550561,1
830,1003,24,0.171271618088816,1
830,1004,24,0.213374578435256,1
830,1005,24,0.18481064634463,1
830,1010,24,0.168964706424366,1
830,1011,24,0.241628178293858,5
830,1012,24,0.340499761259345,5
830,1013,24,0.289882078698115,5
830,1014,24,0.162084248317415,1
830,1016,24,0.126007887863119,1
831,1004,24,0.149143532031383,1
831,1010,24,0.131953439354032,1
831,1011,24,0.222243878572772,1
831,1012,24,0.314474556690448,5
831,1013,24,0.252950175936977,1
831,1014,24,0.141450375861077,1
831,1016,24,0.13820122059222,1
831,1017,24,0.138084558944069,1
832,1011,24,0.136702472897189,1
832,1012,24,0.178008787050496,1
832,1013,24,0.147477953233212,1
832,1016,24,0.139646465978797,1
832,1017,24,0.13433657090409,1
833,1016,24,0.118642317035531,1
833,1017,24,0.116958048348846,1
834,1017,24,0.118262301079289,1
836,1013,24,0.125326348771644,1
836,1014,24,0.130154687739659,1
837,1011,24,0.148446612351126,2
837,1012,24,0.230669779653869,2
837,1013,24,0.277894075651581,2
837,1014,24,0.219021539230912,2
837,1015,24,0.138002556616583,1
838,1010,24,0.176600685903599,2
838,1011,24,0.285247575190116,2
838,1012,24,0.456946175382239,2
838,1013,24,0.490768254992355,2
838,1014,24,0.304098123728334,2
838,1015,24,0.143204481371257,2
839,1009,24,0.132653538788479,1
839,1010,24,0.241798236258657,2
839,1011,24,0.382611412933902,2
839,1012,24,0.583885872545277,2
839,1013,24,0.581022821873091,2
839,1014,24,0.329435582796654,2
839,1015,24,0.155380608097133,2
840,1010,24,0.226791751444409,2
840,1011,24,0.396755642626908,2
840,1012,24,0.546044866284506,2
840,1013,24,0.484845055995707,2
840,1014,24,0.290830469827289,2
840,1015,24,0.179272727563937,2
841,1010,24,0.223275013972075,2
841,1011,24,0.456299012966614,2
841,1012,24,0.542790211218587,2
841,1013,24,0.378074728086265,2
841,1014,24,0.233636443205162,2
841,1015,24,0.187282339937298,1
842,1010,24,0.253258776969497,2
842,1011,24,0.533272052796544,2
842,1012,24,0.562798873340074,2
842,1013,24,0.31395642163371,2
842,1014,24,0.179305325932813,2
842,1015,24,0.163641091299175,1
843,1010,24,0.25736068342763,2
843,1011,24,0.513029360766714,2
843,1012,24,0.489657131109886,2
843,1013,24,0.253165810378492,2
843,1014,24,0.154099873770825,1
844,1010,24,0.193286410682165,2
844,1011,24,0.354043229394157,2
844,1012,24,0.319372956242437,2
844,1013,24,0.188941147036733,2
844,1014,24,0.159056592370022,1
844,1015,24,0.174060074083091,1
844,1016,24,0.163482904416683,1
845,1011,24,0.160673026300665,2
845,1012,24,0.15198008475199,2
845,1014,24,0.175294113130284,1
845,1015,24,0.235945203837789,2
845,1016,24,0.248703037150458,2
845,1017,24,0.198825412934656,2
846,1014,24,0.182694967452507,2
846,1015,24,0.308473253509412,2
846,1016,24,0.385794158447669,2
846,1017,24,0.333150666269205,2
846,1018,24,0.213667162928155,2
847,1014,24,0.156848936143752,1
847,1015,24,0.28855899475675,2
847,1016,24,0.40571392877426,2
847,1017,24,0.408031192305127,2
847,1018,24,0.306756563106862,2
847,1019,24,0.195214425192773,1
848,1015,24,0.187832154767257,1
848,1016,24,0.253508799863727,2
848,1017,24,0.289854968349433,2
848,1018,24,0.286915956882722,1
848,1019,24,0.251890564072377,1
848,1020,24,0.17834072983414,1
849,1016,24,0.129739140974567,1
849,1017,24,0.140146288006777,1
849,1018,24,0.162534407295703,1
849,1019,24,0.191266289291869,1
798,1023,25,0.117956561825539,1
799,1023,25,0.157105813174791,1
799,1024,25,0.190027303960381,1
800,1023,25,0.114873354394769,1
800,1024,25,0.122585907065631,1
810,1009,25,0.131850038458538,1
810,1010,25,0.124686193592103,1
822,1009,25,0.137233232755746,1
822,1010,25,0.143866188218083,1
823,1006,25,0.177553834887189,4
823,1007,25,0.192718801005613,4
823,1008,25,0.166162883685628,1
823,1009,25,0.213314375089269,1
823,1010,25,0.223789992828359,1
823,1011,25,0.132567650094761,1
824,1005,25,0.185022547519189,4
824,1006,25,0.322635360487084,4
824,1007,25,0.374106441965293,4
824,1008,25,0.269581515142037,4
824,1009,25,0.253910320379784,4
824,1010,25,0.272843518973193,4
824,1011,25,0.186809333836315,1
825,1004,25,0.140301106705202,1
825,1005,25,0.222754994616558,4
825,1006,25,0.39286579044261,4
825,1007,25,0.488344198828192,4
825,1008,25,0.353682056425704,4
825,1009,25,0.284082631023773,4
825,1010,25,0.318227208369904,4
825,1011,25,0.261016317273706,4
825,1012,25,0.152000906253498,1
826,1004,25,0.153262750484547,1
826,1005,25,0.219795844706647,4
826,1006,25,0.351945604439709,4
826,1007,25,0.45447797951918,4
826,1008,25,0.356745643595438,4
826,1009,25,0.283846646155446,4
826,1010,25,0.30117939202723,4
826,1011,25,0.274495577927626,3
826,1012,25,0.180208917858517,1
827,1004,25,0.168033933488775,1
827,1005,25,0.201359629916183,1
827,1006,25,0.253192096346458,4
827,1007,25,0.298349646335962,4
827,1008,25,0.270308571825889,4
827,1009,25,0.274302531517724,4
827,1010,25,0.283191899437235,4
827,1011,25,0.255662553368052,1
827,1012,25,0.1890972494137,1
828,1003,25,0.167681710939523,1
828,1004,25,0.206850523665474,1
828,1005,25,0.216388726315778,1
828,1006,25,0.203527963182309,1
828,1007,25,0.183796822940358,4
828,1008,25,0.186977589940407,1
828,1009,25,0.254106805634958,1
828,1010,25,0.275838305683761,1
828,1011,25,0.240518373420534,1
828,1012,25,0.198770744716332,1
828,1013,25,0.147558978080706,1
828,1014,25,0.113772240849562,1
829,1002,25,0.145263077787245,1
829,1003,25,0.193813613926777,1
829,1004,25,0.258286109665435,1
829,1005,25,0.251690899063014,1
829,1006,25,0.201929253437055,1
829,1007,25,0.14754226670591,1
829,1008,25,0.143594083697537,1
829,1009,25,0.212960291794972,1
829,1010,25,0.25146263981968,1
829,1011,25,0.255160222867322,1
829,1012,25,0.260153261325484,5
829,1013,25,0.216081020325177,1
829,1014,25,0.148873088049136,1
830,1002,25,0.129415701089162,1
830,1003,25,0.189936998941401,1
830,1004,25,0.257906918089909,1
830,1005,25,0.244976011934395,1
830,1006,25,0.184951144372334,1
830,1009,25,0.168870538592889,1
830,1010,25,0.221227158059127,1
830,1011,25,0.297240265429863,5
830,1012,25,0.356247270122144,5
830,1013,25,0.277983509182376,5
830,1014,25,0.158451956222463,1
831,1003,25,0.143878824796769,1
831,1004,25,0.180181030236589,1
831,1005,25,0.174406149107577,1
831,1010,25,0.166154404341123,1
831,1011,25,0.266029753266149,5
831,1012,25,0.339234148430737,5
831,1013,25,0.256028060223696,5
831,1014,25,0.14298456015002,1
831,1015,25,0.114850118635451,1
831,1016,25,0.138968047757176,1
831,1017,25,0.131560775042237,1
832,1011,25,0.149387560500123,1
832,1012,25,0.186606842378784,5
832,1013,25,0.156339928159225,1
832,1014,25,0.117248077261526,1
832,1015,25,0.116187994322231,1
832,1016,25,0.140602017443331,1
832,1017,25,0.133004183237504,1
837,1011,25,0.148280900050386,1
837,1012,25,0.22196943045562,2
837,1013,25,0.212841345434551,2
837,1014,25,0.166940050940133,1
838,1010,25,0.133160038300257,1
838,1011,25,0.28220028720482,2
838,1012,25,0.483798375131477,2
838,1013,25,0.433958012924028,2
838,1014,25,0.230766232197616,2
838,1015,25,0.137045474159292,1
839,1010,25,0.170365341037352,2
839,1011,25,0.354036540133491,2
839,1012,25,0.617433975112935,2
839,1013,25,0.567111939030121,2
839,1014,25,0.293597915890179,2
839,1015,25,0.155250379497774,2
840,1010,25,0.167882812726705,2
840,1011,25,0.330428184285928,2
840,1012,25,0.51712328250877,2
840,1013,25,0.484241091129588,2
840,1014,25,0.317447673965058,2
840,1015,25,0.225624216367245,2
840,1016,25,0.162266978191503,1
841,1010,25,0.199209056166047,2
841,1011,25,0.390366009021269,2
841,1012,25,0.460948755740987,2
841,1013,25,0.361619806354383,2
841,1014,25,0.293622058468284,2
841,1015,25,0.266179767002687,2
841,1016,25,0.199697089549792,1
842,1010,25,0.272976291375904,2
842,1011,25,0.532561389512068,2
842,1012,25,0.499117111807129,2
842,1013,25,0.293228004486139,2
842,1014,25,0.230625569293769,2
842,1015,25,0.222512956438404,1
842,1016,25,0.184380955561828,1
843,1010,25,0.293055944453887,2
843,1011,25,0.549327173435005,2
843,1012,25,0.457301412809538,2
843,1013,25,0.247396676360756,2
843,1014,25,0.191441434863371,1
843,1015,25,0.182359150079499,1
844,1010,25,0.211787692664839,2
844,1011,25,0.374974585520219,2
844,1012,25,0.310248427835314,2
844,1013,25,0.21575781597712,2
844,1014,25,0.215532147644608,2
844,1015,25,0.221615653359874,2
844,1016,25,0.189325332004023,2
844,1017,25,0.156834886340982,1
845,1011,25,0.167289388156881,2
845,1012,25,0.161508854131532,2
845,1013,25,0.183056823479267,1
845,1014,25,0.255106167046102,2
845,1015,25,0.325314150292424,2
845,1016,25,0.312477600398265,2
845,1017,25,0.232438217611636,2
845,1018,25,0.154458773803875,1
846,1013,25,0.138401827750973,1
846,1014,25,0.249212433771609,2
846,1015,25,0.411240482877942,2
846,1016,25,0.488405956720672,2
846,1017,25,0.392398531452904,2
846,1018,25,0.223256477182838,2
846,1019,25,0.132390431794602,1
847,1014,25,0.203400631692323,2
847,1015,25,0.363271323572917,2
847,1016,25,0.485006823045879,2
847,1017,25,0.454782011127161,2
847,1018,25,0.296024186105407,2
847,1019,25,0.167997472307403,1
848,1014,25,0.168815941035769,1
848,1015,25,0.245136766173973,2
848,1016,25,0.28761345362948,2
848,1017,25,0.292741949616112,2
848,1018,25,0.251672644918593,1
848,1019,25,0.194440896990285,1
849,1015,25,0.157332718078377,1
849,1016,25,0.148647655253971,2
849,1017,25,0.141841391411442,1
849,1018,25,0.141525830250306,1
799,1023,26,0.136295252377326,1
799,1024,26,0.15261013537933,1
809,1009,26,0.130198297479524,1
810,1008,26,0.147460405700833,1
810,1009,26,0.191587986200903,1
810,1010,26,0.161200359090818,1
811,1009,26,0.147913685548973,1
811,1010,26,0.129068000856979,1
823,1005,26,0.143311026690338,1
823,1006,26,0.204732501176745,4
823,1007,26,0.204071088751603,4
823,1008,26,0.153786715090633,1
823,1009,26,0.166350524513408,1
823,1010,26,0.155196594544503,1
824,1004,26,0.12820980875498,1
824,1005,26,0.206624195828389,4
824,1006,26,0.362233969987643,4
824,1007,26,0.391238321587243,4
824,1008,26,0.247572764081647,4
824,1009,26,0.212875074382694,1
824,1010,26,0.21524702968562,1
824,1011,26,0.138451820552951,1
825,1004,26,0.143814322894192,1
825,1005,26,0.239787218386837,4
825,1006,26,0.447666757615488,4
825,1007,26,0.515426801210624,4
825,1008,26,0.322804193657676,4
825,1009,26,0.249662404320019,4
825,1010,26,0.269797055368612,4
825,1011,26,0.194340346096694,1
826,1004,26,0.150961903906792,1
826,1005,26,0.2407477396894,4
826,1006,26,0.41650714507254,4
826,1007,26,0.489530082264716,4
826,1008,26,0.341188519570516,4
826,1009,26,0.287626125538768,4
826,1010,26,0.290292455418433,4
826,1011,26,0.218382526407505,1
826,1012,26,0.128679010927802,1
827,1004,26,0.166782158479326,1
827,1005,26,0.228856707368777,4
827,1006,26,0.301825117665037,4
827,1007,26,0.315799901790348,4
827,1008,26,0.274363771228039,4
827,1009,26,0.315683334357136,4
827,1010,26,0.298810051188861,4
827,1011,26,0.211668016138642,1
827,1012,26,0.136824163267706,1
828,1003,26,0.153546572988125,1
828,1004,26,0.208118044346595,1
828,1005,26,0.25034758246351,1
828,1006,26,0.2450292433749,4
828,1007,26,0.195873965096003,4
828,1008,26,0.19502124923733,1
828,1009,26,0.282577735803976,4
828,1010,26,0.280349104976923,1
828,1011,26,0.203002620682742,1
828,1012,26,0.149883649261148,1
828,1013,26,0.117221025797181,1
829,1002,26,0.136503220078183,1
829,1003,26,0.185683276886023,1
829,1004,26,0.264882144648573,1
829,1005,26,0.294784788583561,4
829,1006,26,0.249434569043911,1
829,1007,26,0.166641554459815,1
829,1008,26,0.148392450538099,1
829,1009,26,0.223059355976826,1
829,1010,26,0.272053974231084,1
829,1011,26,0.255847591508144,5
829,1012,26,0.21862272739435,5
829,1013,26,0.176410407057528,1
829,1014,26,0.131462273323568,1
830,1002,26,0.127382613367894,1
830,1003,26,0.190420521784943,1
830,1004,26,0.278661856742794,1
830,1005,26,0.301986884715209,4
830,1006,26,0.239626275717381,1
830,1007,26,0.154120012214025,1
830,1009,26,0.190052624225223,1
830,1010,26,0.288998154140916,5
830,1011,26,0.351949325929798,5
830,1012,26,0.327865066871879,5
830,1013,26,0.230725484236522,5
830,1014,26,0.144534572548706,1
831,1003,26,0.147401321157246,1
831,1004,26,0.205846051093892,1
831,1005,26,0.227188631874723,1
831,1006,26,0.182922637852472,1
831,1009,26,0.144939849885453,1
831,1010,26,0.227156127720786,1
831,1011,26,0.313155052916763,5
831,1012,26,0.319100557300207,5
831,1013,26,0.220932241746489,1
831,1014,26,0.132478428547579,1
831,1016,26,0.122792308443128,1
832,1004,26,0.147021128547993,1
832,1005,26,0.149412762996291,1
832,1010,26,0.127893411436262,1
832,1011,26,0.165074830686333,1
832,1012,26,0.179244121553099,1
832,1013,26,0.14978142605239,1
832,1014,26,0.122012844699486,1
832,1015,26,0.119350436516655,1
832,1016,26,0.131833904150243,1
832,1017,26,0.12260005108334,1
833,1014,26,0.125618085330093,1
833,1015,26,0.125302842144377,1
833,1016,26,0.117183328044735,1
836,1016,26,0.193858495568318,1
837,1011,26,0.136406520220222,1
837,1012,26,0.191419306129586,2
837,1013,26,0.161401637531011,2
837,1016,26,0.229255260114256,1
837,1017,26,0.202596860494432,1
838,1011,26,0.263600209081792,2
838,1012,26,0.437300523420515,2
838,1013,26,0.335570341438707,2
838,1014,26,0.172589108018181,2
839,1010,26,0.133745572368944,2
839,1011,26,0.327638432836243,2
839,1012,26,0.581588488366528,2
839,1013,26,0.48160100011042,2
839,1014,26,0.242181502630293,2
839,1015,26,0.147766309830726,1
840,1010,26,0.134785575749376,2
840,1011,26,0.286553818211145,2
840,1012,26,0.479613535973336,2
840,1013,26,0.454825255784138,2
840,1014,26,0.326857555868517,2
840,1015,26,0.255434882968087,2
840,1016,26,0.186778019145983,1
841,1010,26,0.188028604691829,2
841,1011,26,0.32842771848727,2
841,1012,26,0.377209340318303,2
841,1013,26,0.354622180193985,2
841,1014,26,0.364155695651076,2
841,1015,26,0.34248927457135,2
841,1016,26,0.236705706824968,2
841,1017,26,0.176308431162985,1
842,1009,26,0.129286638399673,2
842,1010,26,0.320570027702961,2
842,1011,26,0.52588937018067,2
842,1012,26,0.420226468217344,2
842,1013,26,0.300379907609062,2
842,1014,26,0.314348638424545,2
842,1015,26,0.289274604325521,2
842,1016,26,0.207009370052538,1
842,1017,26,0.182057308968848,1
842,1018,26,0.176103925861134,1
843,1009,26,0.144981481111601,2
843,1010,26,0.375205647657986,2
843,1011,26,0.594527308576913,2
843,1012,26,0.429037967489816,2
843,1013,26,0.288126124219759,2
843,1014,26,0.265795440712988,2
843,1015,26,0.217788948738405,1
843,1016,26,0.172606843980438,1
843,1017,26,0.177710267016443,1
843,1018,26,0.175056420616188,1
844,1010,26,0.25350682135001,2
844,1011,26,0.395285135859826,2
844,1012,26,0.324495186935629,2
844,1013,26,0.304932868087403,2
844,1014,26,0.317197768839502,2
844,1015,26,0.279260498464862,2
844,1016,26,0.214664804916663,2
844,1017,26,0.179275365582228,1
844,1018,26,0.155300572506498,1
844,1019,26,0.142895161949827,1
845,1010,26,0.11531992142851,1
845,1011,26,0.174787083659474,2
845,1012,26,0.200970239573515,2
845,1013,26,0.286702654260946,2
845,1014,26,0.382344219367049,2
845,1015,26,0.432992969304396,2
845,1016,26,0.3704152655335,2
845,1017,26,0.251700391218112,2
845,1018,26,0.161082861285084,1
846,1013,26,0.195556708065967,2
846,1014,26,0.337280672332879,2
846,1015,26,0.507618973682753,2
846,1016,26,0.549237386598189,2
846,1017,26,0.405684580820778,2
846,1018,26,0.213001534384496,2
846,1019,26,0.128058476009296,1
847,1013,26,0.143998324669956,2
847,1014,26,0.277317739316309,2
847,1015,26,0.43462967122378,2
847,1016,26,0.512475235603298,2
847,1017,26,0.435771273638999,2
847,1018,26,0.252162303510034,2
847,1019,26,0.137675454125427,1
848,1013,26,0.148166476007035,1
848,1014,26,0.267793692460581,2
848,1015,26,0.337376960000482,2
848,1016,26,0.323552919777487,2
848,1017,26,0.276541949955286,2
848,1018,26,0.200441929303371,1
849,1014,26,0.197495910600575,1
849,1015,26,0.217351320346997,2
849,1016,26,0.180441051691215,2
849,1017,26,0.148303075891641,1
805,1016,27,0.126808809059106,1
809,1009,27,0.121728044715917,1
810,1008,27,0.152259031632477,1
810,1009,27,0.225818676001232,1
810,1010,27,0.160203459044954,1
811,1008,27,0.128936147049923,1
811,1009,27,0.188251269923162,1
811,1010,27,0.130178559449815,1
822,1006,27,0.118786171470435,1
823,1005,27,0.184930640846246,1
823,1006,27,0.229259146480488,4
823,1007,27,0.195251381002575,4
823,1008,27,0.131950118277434,1
823,1009,27,0.121343518219473,1
824,1004,27,0.161536364893705,1
824,1005,27,0.239506740513592,4
824,1006,27,0.367778825343216,4
824,1007,27,0.357048756607765,4
824,1008,27,0.213320758151382,4
824,1009,27,0.166785291126046,1
824,1010,27,0.150674324582524,1
825,1004,27,0.157803121491671,1
825,1005,27,0.253672356997739,4
825,1006,27,0.453897003098164,4
825,1007,27,0.48584137897507,4
825,1008,27,0.288653044819554,4
825,1009,27,0.211829571205201,4
825,1010,27,0.199860104947905,1
825,1011,27,0.136105962788114,1
826,1004,27,0.153782039674288,1
826,1005,27,0.25607964290277,4
826,1006,27,0.442598088115087,4
826,1007,27,0.472076576394937,4
826,1008,27,0.31554919583781,4
826,1009,27,0.280739060609224,4
826,1010,27,0.253115947122054,1
826,1011,27,0.163248474094849,1
827,1003,27,0.130294867791945,1
827,1004,27,0.173032177322313,1
827,1005,27,0.265821915110833,4
827,1006,27,0.349061072761444,4
827,1007,27,0.319321514885772,4
827,1008,27,0.273481542539741,4
827,1009,27,0.331651423945744,4
827,1010,27,0.282371334426478,4
827,1011,27,0.168675737429749,1
828,1003,27,0.149797737013695,1
828,1004,27,0.214099067762022,1
828,1005,27,0.292914009648363,4
828,1006,27,0.291166911374268,4
828,1007,27,0.214499387037607,4
828,1008,27,0.206626598309332,1
828,1009,27,0.280510448059869,4
828,1010,27,0.245991813852385,1
828,1011,27,0.162536515354962,1
828,1012,27,0.118277104601571,1
829,1002,27,0.133834299287697,1
829,1003,27,0.177520306145791,1
829,1004,27,0.259364752947703,4
829,1005,27,0.324230607833332,4
829,1006,27,0.281750811284839,4
829,1007,27,0.186990909577401,1
829,1008,27,0.160703163304261,1
829,1009,27,0.210872158995624,1
829,1010,27,0.245744028562955,1
829,1011,27,0.2248150513641,5
829,1012,27,0.177363073189556,1
829,1013,27,0.142453505869779,1
830,1002,27,0.128599234428249,1
830,1003,27,0.185148618884367,1
830,1004,27,0.276500071414924,4
830,1005,27,0.332623580793267,4
830,1006,27,0.276530809038755,4
830,1007,27,0.181387864720161,1
830,1008,27,0.140837389914555,1
830,1009,27,0.192034741664522,1
830,1010,27,0.309036682398049,5
830,1011,27,0.35023871239081,5
830,1012,27,0.271082618210542,5
830,1013,27,0.187788380151249,1
830,1014,27,0.135151259258031,1
831,1003,27,0.159346456406559,1
831,1004,27,0.231390099969587,1
831,1005,27,0.269425306773263,4
831,1006,27,0.225585588242277,1
831,1007,27,0.15702271559864,1
831,1009,27,0.156543691518432,1
831,1010,27,0.266495952337793,5
831,1011,27,0.331444056865122,5
831,1012,27,0.276663510780262,5
831,1013,27,0.189705477505806,1
831,1014,27,0.135935963707652,1
831,1015,27,0.114873672370188,1
832,1004,27,0.196441527665086,1
832,1005,27,0.200395128032449,1
832,1006,27,0.162885216620872,1
832,1010,27,0.150819721787054,1
832,1011,27,0.184206186850082,5
832,1012,27,0.174489352675535,1
832,1013,27,0.148669783987757,1
832,1014,27,0.134476668518304,1
832,1015,27,0.133118065544956,1
832,1016,27,0.12912111452881,1
833,1014,27,0.155706886207574,1
833,1015,27,0.170828195478663,1
833,1016,27,0.151438666828465,1
833,1017,27,0.124391501039944,1
833,1019,27,0.114678093933802,1
834,1015,27,0.198607941301832,1
834,1016,27,0.171529272393101,1
834,1017,27,0.129262590036506,1
834,1018,27,0.118501689462285,1
834,1019,27,0.136351522249612,1
834,1020,27,0.148685305898948,1
834,1021,27,0.147869404527668,1
834,1022,27,0.125288721680403,1
835,1015,27,0.195887155187456,1
835,1016,27,0.181782978620369,1
835,1017,27,0.144901492628435,1
835,1018,27,0.124042222707534,1
835,1019,27,0.123993136724343,1
835,1020,27,0.128601554471121,1
835,1021,27,0.129999774826296,1
835,1022,27,0.113846458667718,1
836,1015,27,0.213817153110958,1
836,1016,27,0.245013721463708,1
836,1017,27,0.223823933760114,1
836,1018,27,0.169386412491092,1
837,1012,27,0.149468137826657,1
837,1013,27,0.128256409819156,1
837,1015,27,0.206800095119402,1
837,1016,27,0.295820964482099,1
837,1017,27,0.307503122283077,6
837,1018,27,0.222496068410598,6
838,1011,27,0.212813363597684,1
838,1012,27,0.315536453267318,2
838,1013,27,0.222144222721101,2
838,1014,27,0.129337644012245,1
838,1016,27,0.195878934934033,1
838,1017,27,0.230921380648327,1
838,1018,27,0.187928583757269,1
838,1023,27,0.153963238555617,1
839,1011,27,0.268914284944415,2
839,1012,27,0.440971372979231,2
839,1013,27,0.336193243507554,2
839,1014,27,0.180810974872122,2
839,1015,27,0.131010559798787,1
840,1011,27,0.234051554226162,2
840,1012,27,0.385247146512144,2
840,1013,27,0.369412912798044,2
840,1014,27,0.29509357804596,2
840,1015,27,0.243566485786546,2
840,1016,27,0.194423125697426,1
840,1017,27,0.197384477881536,1
841,1010,27,0.173832085707707,2
841,1011,27,0.257934028438591,2
841,1012,27,0.296432890510558,2
841,1013,27,0.340131027542042,2
841,1014,27,0.395315614392576,2
841,1015,27,0.359749639816288,2
841,1016,27,0.247694583997706,2
841,1017,27,0.212955298403208,1
841,1018,27,0.203553919397989,1
842,1009,27,0.155268857402675,2
842,1010,27,0.34944205442081,2
842,1011,27,0.460925531758537,2
842,1012,27,0.350355091394144,2
842,1013,27,0.341072611641876,2
842,1014,27,0.391614121424967,2
842,1015,27,0.321079141679295,2
842,1016,27,0.214717541728739,2
842,1017,27,0.211760229010136,1
842,1018,27,0.208925913894329,1
842,1019,27,0.159917646250792,1
843,1009,27,0.186309653130744,2
843,1010,27,0.44745006325591,2
843,1011,27,0.578862426215571,2
843,1012,27,0.420005628400453,2
843,1013,27,0.378174949227569,2
843,1014,27,0.347221007896342,2
843,1015,27,0.237886926622014,2
843,1016,27,0.176945147497256,1
843,1017,27,0.209532187026452,1
843,1018,27,0.210182387873859,1
843,1019,27,0.168479523042524,1
844,1009,27,0.132890053615837,1
844,1010,27,0.289619289679658,2
844,1011,27,0.390776527063995,2
844,1012,27,0.374668292753703,2
844,1013,27,0.430808643052383,2
844,1014,27,0.402661930042016,2
844,1015,27,0.302431532119569,2
844,1016,27,0.217477026629287,2
844,1017,27,0.192753801855431,1
844,1018,27,0.175123972727413,1
844,1019,27,0.168359693417051,1
844,1020,27,0.173190446642877,1
845,1010,27,0.12107050688014,1
845,1011,27,0.180299729282794,2
845,1012,27,0.256416531970709,2
845,1013,27,0.383378770057889,2
845,1014,27,0.464119041329079,2
845,1015,27,0.48360311467051,2
845,1016,27,0.379760304005228,2
845,1017,27,0.244929257770942,2
845,1018,27,0.162990407600206,1
845,1019,27,0.149809996732626,1
846,1012,27,0.131096613368648,1
846,1013,27,0.23448649749181,2
846,1014,27,0.3897723842447,2
846,1015,27,0.543973645066699,2
846,1016,27,0.52920300379837,2
846,1017,27,0.358727054422694,2
846,1018,27,0.187891239310844,2
846,1019,27,0.122345482318306,1
847,1013,27,0.183152286766155,2
847,1014,27,0.351456275600554,2
847,1015,27,0.490124390099593,2
847,1016,27,0.498001277177712,2
847,1017,27,0.368917813293879,2
847,1018,27,0.194401456261468,2
848,1013,27,0.199295027297836,2
848,1014,27,0.366060556840438,2
848,1015,27,0.438513493651986,2
848,1016,27,0.37779022252438,2
848,1017,27,0.262576351786522,2
848,1018,27,0.151236116486597,1
849,1014,27,0.239028057962538,2
849,1015,27,0.271861799309367,2
849,1016,27,0.223388119006281,2
849,1017,27,0.15641593606122,1
850,1015,27,0.116592824138018,1
804,1016,28,0.129858063781253,1
804,1017,28,0.140108248725178,1
805,1015,28,0.123595349475242,1
805,1016,28,0.162123076649129,1
805,1017,28,0.126877315096587,1
806,1015,28,0.120382455181011,1
806,1016,28,0.117838852036192,1
810,1008,28,0.135308727751613,1
810,1009,28,0.211243884037238,1
810,1010,28,0.132649452215502,1
811,1008,28,0.132554342234635,1
811,1009,28,0.190904280165833,1
822,1005,28,0.144655615191518,1
822,1006,28,0.139781216895226,1
823,1004,28,0.187425699743773,1
823,1005,28,0.256019133358231,4
823,1006,28,0.263615024380942,4
823,1007,28,0.181478275730948,4
824,1003,28,0.156795033421807,1
824,1004,28,0.218415760727219,4
824,1005,28,0.310214534011028,4
824,1006,28,0.375886727451633,4
824,1007,28,0.305726487625621,4
824,1008,28,0.176506176542967,4
824,1009,28,0.123142458263724,1
825,1003,28,0.155536098076998,1
825,1004,28,0.18975549386152,4
825,1005,28,0.279028847483726,4
825,1006,28,0.42670633618076,4
825,1007,28,0.418924417761099,4
825,1008,28,0.253855086871827,4
825,1009,28,0.17293633717567,1
825,1010,28,0.135329619914325,1
826,1003,28,0.140073730726921,1
826,1004,28,0.167410819436316,1
826,1005,28,0.261565237061745,4
826,1006,28,0.413289752014975,4
826,1007,28,0.410166008606723,4
826,1008,28,0.288719183706695,4
826,1009,28,0.251440122449272,4
826,1010,28,0.196435898322484,1
826,1011,28,0.115811923616557,1
827,1003,28,0.137052928916336,1
827,1004,28,0.190395802140337,4
827,1005,28,0.297745375271292,4
827,1006,28,0.36594450758939,4
827,1007,28,0.305409501463535,4
827,1008,28,0.267669187418763,4
827,1009,28,0.300233050072979,4
827,1010,28,0.231356818542404,1
827,1011,28,0.128256421596024,1
828,1003,28,0.153778400622271,1
828,1004,28,0.232327161752353,4
828,1005,28,0.33944231633834,4
828,1006,28,0.333048843473938,4
828,1007,28,0.244857230450118,4
828,1008,28,0.229384193258205,1
828,1009,28,0.253702105364712,1
828,1010,28,0.196769336768284,1
828,1011,28,0.128042141494256,1
829,1003,28,0.171104398349053,1
829,1004,28,0.256769249148391,4
829,1005,28,0.34894782640483,4
829,1006,28,0.313506121333013,4
829,1007,28,0.234149443547728,4
829,1008,28,0.2066473255959,1
829,1009,28,0.207328688034364,1
829,1010,28,0.203189331138,1
829,1011,28,0.177070394481718,1
829,1012,28,0.138631888855013,1
830,1002,28,0.128163902525978,1
830,1003,28,0.175972613789977,1
830,1004,28,0.264032726312763,4
830,1005,28,0.338365957768342,4
830,1006,28,0.299985665197039,4
830,1007,28,0.225222813619862,4
830,1008,28,0.181141598646621,1
830,1009,28,0.200353320153291,1
830,1010,28,0.28399435162598,1
830,1011,28,0.292148254178338,5
830,1012,28,0.206472533330419,1
830,1013,28,0.147946154372308,1
830,1014,28,0.114640820148581,1
831,1003,28,0.171422986165102,1
831,1004,28,0.247968890792449,1
831,1005,28,0.283921641246848,4
831,1006,28,0.248691118960681,4
831,1007,28,0.189122769885288,1
831,1009,28,0.169214022706554,1
831,1010,28,0.279144095907793,1
831,1011,28,0.318505990374248,5
831,1012,28,0.232058272316598,1
831,1013,28,0.164088894903989,1
831,1014,28,0.135006568665543,1
832,1003,28,0.188507652325771,1
832,1004,28,0.245494924264379,1
832,1005,28,0.240778759958048,1
832,1006,28,0.193955348525555,1
832,1010,28,0.184659631574366,1
832,1011,28,0.227946755934693,1
832,1012,28,0.191490426631624,1
832,1013,28,0.151800640623899,1
832,1014,28,0.139179489633907,1
832,1015,28,0.137326752859518,1
832,1016,28,0.118183231191778,1
833,1004,28,0.202608802237944,1
833,1005,28,0.19028798491958,1
833,1011,28,0.148317879413923,1
833,1013,28,0.136417378491935,1
833,1014,28,0.169806846656142,1
833,1015,28,0.20986021989013,1
833,1016,28,0.175406923742805,1
833,1017,28,0.131021229640623,1
833,1018,28,0.125684671738194,1
833,1019,28,0.133441634975902,1
833,1020,28,0.128753193415356,1
834,1014,28,0.206194599260526,1
834,1015,28,0.291799470474357,7
834,1016,28,0.235211033926046,1
834,1017,28,0.15358566041092,1
834,1018,28,0.149270086248124,1
834,1019,28,0.18249053281186,1
834,1020,28,0.199521213812513,1
834,1021,28,0.182586408289106,1
834,1022,28,0.14141684711968,1
835,1014,28,0.18615702492965,1
835,1015,28,0.258951549779217,7
835,1016,28,0.222618971798454,1
835,1017,28,0.16996804841668,1
835,1018,28,0.158783168840331,1
835,1019,28,0.166682019776093,1
835,1020,28,0.170869072985298,1
835,1021,28,0.16068473250683,1
835,1022,28,0.134492202206363,1
835,1023,28,0.121088219288662,1
836,1014,28,0.160886387806778,1
836,1015,28,0.217057770150974,1
836,1016,28,0.255612407466798,1
836,1017,28,0.27444015598979,6
836,1018,28,0.239336046597955,6
836,1019,28,0.180994588011262,1
836,1020,28,0.140276151523248,1
836,1021,28,0.129279607609854,1
836,1022,28,0.135281923601483,1
837,1012,28,0.11981094736136,1
837,1015,28,0.197591927400229,1
837,1016,28,0.310257919990413,6
837,1017,28,0.389482767522377,6
837,1018,28,0.327156617638469,6
837,1019,28,0.216814695608491,6
837,1022,28,0.191790489435302,1
837,1023,28,0.214379498527797,1
838,1011,28,0.160261624992887,1
838,1012,28,0.205634515002222,1
838,1013,28,0.151411992223876,1
838,1016,28,0.20339818210391,1
838,1017,28,0.274421972506573,6
838,1018,28,0.252548867404533,6
838,1019,28,0.183429726207619,1
838,1021,28,0.163958642750895,1
838,1022,28,0.217205640497651,8
838,1023,28,0.230337436456734,1
838,1024,28,0.211629034707653,1
839,1011,28,0.202689591548091,1
839,1012,28,0.292961917944818,2
839,1013,28,0.219766685183043,2
839,1014,28,0.14163531978623,1
839,1015,28,0.117605446301819,1
839,1017,28,0.190637275028858,1
839,1018,28,0.203661960379226,1
839,1022,28,0.18058396397673,1
839,1023,28,0.212333385591219,1
840,1011,28,0.182022202127223,1
840,1012,28,0.280009342353346,2
840,1013,28,0.282124444178968,2
840,1014,28,0.252816320062468,2
840,1015,28,0.207319290094204,2
840,1016,28,0.1818472803162,1
840,1017,28,0.220457374900462,1
840,1018,28,0.235293118691603,1
841,1010,28,0.158357623514843,2
841,1011,28,0.198344869638558,2
841,1012,28,0.244760259724206,2
841,1013,28,0.33006211214065,2
841,1014,28,0.386821572356885,2
841,1015,28,0.31984327721766,2
841,1016,28,0.22648345661044,2
841,1017,28,0.224566771446241,1
841,1018,28,0.219614551610378,1
841,1019,28,0.170232910163795,1
842,1009,28,0.179021468098633,2
842,1010,28,0.351415810284277,2
842,1011,28,0.372557242170456,2
842,1012,28,0.335714937816256,2
842,1013,28,0.423710630874537,2
842,1014,28,0.445202660102272,2
842,1015,28,0.312990106112401,2
842,1016,28,0.204154940047266,2
842,1017,28,0.213839599820163,1
842,1018,28,0.202679322119746,1
842,1019,28,0.15518474701593,1
843,1009,28,0.23755712722823,2
843,1010,28,0.495914651817387,2
843,1011,28,0.530873340450958,2
843,1012,28,0.484382790397764,2
843,1013,28,0.539200386507366,2
843,1014,28,0.428345958763252,2
843,1015,28,0.243735813585568,2
843,1016,28,0.16996854304511,1
843,1017,28,0.203832772063537,1
843,1018,28,0.200776203906754,1
843,1019,28,0.165172720007899,1
843,1020,28,0.150179213301491,1
844,1009,28,0.166490751673163,2
844,1010,28,0.324194429296776,2
844,1011,28,0.392359691344323,2
844,1012,28,0.491699475448906,2
844,1013,28,0.591347507279988,2
844,1014,28,0.455963466461554,2
844,1015,28,0.285638708509154,2
844,1016,28,0.195301821325514,2
844,1017,28,0.181495340411765,1
844,1018,28,0.175168913253291,1
844,1019,28,0.174685484624687,1
844,1020,28,0.177413454628158,1
844,1021,28,0.157078785264181,1
845,1010,28,0.129294693776953,2
845,1011,28,0.190484010876926,2
845,1012,28,0.317500811190624,2
845,1013,28,0.442752883259777,2
845,1014,28,0.463611505452972,2
845,1015,28,0.439291614832748,2
845,1016,28,0.325719486513508,2
845,1017,28,0.214776355404376,2
845,1018,28,0.160870265275351,1
845,1019,28,0.151736951325171,1
845,1020,28,0.153208423795377,1
846,1012,28,0.143478010892754,2
846,1013,28,0.249919422673466,2
846,1014,28,0.392928019409785,2
846,1015,28,0.503617429688333,2
846,1016,28,0.44236429374409,2
846,1017,28,0.284559947458213,2
846,1018,28,0.163728463878181,1
847,1013,28,0.217638016406213,2
847,1014,28,0.409441401511283,2
847,1015,28,0.524124300406971,2
847,1016,28,0.466835163803977,2
847,1017,28,0.297372849402696,2
847,1018,28,0.152072462499628,2
848,1013,28,0.226145696054316,2
848,1014,28,0.425201864928188,2
848,1015,28,0.512638557199962,2
848,1016,28,0.422886391481161,2
848,1017,28,0.246170633806506,2
848,1018,28,0.122107365836985,1
849,1013,28,0.14449378925701,1
849,1014,28,0.248008908587767,2
849,1015,28,0.296793757280459,2
849,1016,28,0.247521252063778,2
849,1017,28,0.152710921810268,1
800,1021,29,0.117590124597372,1
801,1020,29,0.113827509688122,1
801,1021,29,0.11839905406317,1
803,1018,29,0.122340677356419,1
804,1016,29,0.128626756967289,1
804,1017,29,0.14983714241191,1
804,1018,29,0.115441187831801,1
805,1015,29,0.117829136120613,1
805,1016,29,0.171334200362011,1
805,1017,29,0.139758770186022,1
806,1015,29,0.120598925780109,1
806,1016,29,0.124654078074789,1
810,1009,29,0.156305292392294,1
811,1008,29,0.120749398814475,1
811,1009,29,0.159915137778042,1
822,1004,29,0.154730277704185,1
822,1005,29,0.195563621087112,4
822,1006,29,0.163055674999161,1
823,1003,29,0.150578107576125,1
823,1004,29,0.24849350312624,4
823,1005,29,0.357318234886887,4
823,1006,29,0.30135472602861,4
823,1007,29,0.168314929544184,1
824,1003,29,0.186814621649764,4
824,1004,29,0.299681586481588,4
824,1005,29,0.431924100822044,4
824,1006,29,0.40531940371742,4
824,1007,29,0.263072628977425,4
824,1008,29,0.147948191770363,1
825,1003,29,0.184504859983411,1
825,1004,29,0.253320487754508,4
825,1005,29,0.351370445791174,4
825,1006,29,0.407634311874813,4
825,1007,29,0.349793499696816,4
825,1008,29,0.229173905514476,4
825,1009,29,0.150207218692093,1
826,1003,29,0.158654165035178,1
826,1004,29,0.205880345331669,4
826,1005,29,0.286056198457362,4
826,1006,29,0.361315397886646,4
826,1007,29,0.341158064591501,4
826,1008,29,0.277724959836172,4
826,1009,29,0.227297285253063,1
826,1010,29,0.148454915042621,1
827,1003,29,0.15304963629265,1
827,1004,29,0.223573086485168,4
827,1005,29,0.321197334320203,4
827,1006,29,0.34743998696819,4
827,1007,29,0.287623982148907,4
827,1008,29,0.268137435665329,4
827,1009,29,0.255743083587117,1
827,1010,29,0.178219781406267,1
828,1003,29,0.161769900173619,1
828,1004,29,0.250572520630245,4
828,1005,29,0.359322021762143,4
828,1006,29,0.351495280585278,4
828,1007,29,0.285420765801635,4
828,1008,29,0.265684667498522,4
828,1009,29,0.227233289755784,1
828,1010,29,0.158973624339412,1
829,1003,29,0.163780505855082,1
829,1004,29,0.246402638093662,4
829,1005,29,0.345714440361378,4
829,1006,29,0.340818278414189,4
829,1007,29,0.312647281503309,4
829,1008,29,0.290775683840291,4
829,1009,29,0.222667233400929,1
829,1010,29,0.170142687582886,1
829,1011,29,0.140457774371803,1
830,1003,29,0.168784202378211,1
830,1004,29,0.244929469754555,4
830,1005,29,0.315083844700617,4
830,1006,29,0.306780046180394,4
830,1007,29,0.284828530695416,4
830,1008,29,0.255484133827422,4
830,1009,29,0.219637893361502,1
830,1010,29,0.231530315352475,1
830,1011,29,0.217861258704047,1
830,1012,29,0.158118918190154,1
830,1013,29,0.118068689379753,1
831,1002,29,0.12094480059785,1
831,1003,29,0.189693641754101,1
831,1004,29,0.257677551821043,1
831,1005,29,0.275970983871533,4
831,1006,29,0.249515970751161,4
831,1007,29,0.214507018447662,1
831,1008,29,0.178009163910252,1
831,1009,29,0.185676446302949,1
831,1010,29,0.266135792179934,1
831,1011,29,0.289484279672147,1
831,1012,29,0.202270240854839,1
831,1013,29,0.148278273808963,1
831,1014,29,0.131713756549351,1
832,1002,29,0.125961687212432,1
832,1003,29,0.213548758303634,1
832,1004,29,0.274977039819379,1
832,1005,29,0.263267795223453,1
832,1006,29,0.211850651797791,1
832,1007,29,0.15824490711726,1
832,1009,29,0.146722514299001,1
832,1010,29,0.241226186703106,9
832,1011,29,0.304776282858873,9
832,1012,29,0.228206153215349,1
832,1013,29,0.161318516401125,1
832,1014,29,0.151561428893913,1
832,1015,29,0.143000470697835,1
833,1003,29,0.180146688891343,1
833,1004,29,0.219434200663499,1
833,1005,29,0.220798621409327,1
833,1006,29,0.175337334233526,1
833,1010,29,0.205277558152287,9
833,1011,29,0.270490736410343,9
833,1012,29,0.215514553004759,1
833,1013,29,0.158907249914924,1
833,1014,29,0.184050119803716,1
833,1015,29,0.245753779809136,7
833,1016,29,0.184147914910343,1
833,1017,29,0.126475311728969,1
833,1018,29,0.132138607039665,1
833,1019,29,0.146382386592536,1
833,1020,29,0.137315187975762,1
834,1010,29,0.144978866647045,1
834,1011,29,0.176189885216056,1
834,1013,29,0.139419926158099,1
834,1014,29,0.239882634566255,7
834,1015,29,0.395459245067,7
834,1016,29,0.291229705631076,7
834,1017,29,0.16805906532374,1
834,1018,29,0.173566905985174,1
834,1019,29,0.217414350141153,1
834,1020,29,0.228209003217252,1
834,1021,29,0.188348570401359,1
834,1022,29,0.13546783322976,1
835,1013,29,0.122918521130715,1
835,1014,29,0.212947337240867,7
835,1015,29,0.338525604982387,7
835,1016,29,0.266717569427931,7
835,1017,29,0.194859376195352,6
835,1018,29,0.197149329170792,6
835,1019,29,0.210705351446218,6
835,1020,29,0.200712938575252,1
835,1021,29,0.168761261040578,1
835,1022,29,0.138608912186778,1
835,1023,29,0.122076498667612,1
836,1014,29,0.167467207077275,1
836,1015,29,0.219302817931138,7
836,1016,29,0.244927891654328,6
836,1017,29,0.301236533387702,6
836,1018,29,0.313493590746133,6
836,1019,29,0.259313382252242,6
836,1020,29,0.177893609287633,1
836,1021,29,0.146380749607972,1
836,1022,29,0.165482333851013,1
836,1023,29,0.170440748319111,1
837,1015,29,0.177667469880426,1
837,1016,29,0.274783145475026,6
837,1017,29,0.404586128847597,6
837,1018,29,0.410844073522323,6
837,1019,29,0.304430466925469,6
837,1020,29,0.191022272599997,1
837,1021,29,0.195243243187224,1
837,1022,29,0.281637164514735,8
837,1023,29,0.274959586501939,1
837,1024,29,0.204754429703784,1
838,1012,29,0.139994825715553,1
838,1016,29,0.192930289989813,1
838,1017,29,0.282463947711463,6
838,1018,29,0.296494342204486,6
838,1019,29,0.224940686985186,6
838,1020,29,0.166144959293493,1
838,1021,29,0.228341634297554,8
838,1022,29,0.340188616423473,8
838,1023,29,0.306486849290392,8
838,1024,29,0.219007242113927,1
839,1012,29,0.181219314194385,1
839,1013,29,0.146848738763455,1
839,1014,29,0.116983910349586,1
839,1017,29,0.207114278387055,1
839,1018,29,0.228282914836856,6
839,1019,29,0.172244940846208,1
839,1021,29,0.177845901197924,1
839,1022,29,0.255460886291236,8
839,1023,29,0.243809042146864,1
839,1024,29,0.204987140602983,1
840,1012,29,0.18747453841275,1
840,1013,29,0.203773722850552,2
840,1014,29,0.200746973721946,2
840,1015,29,0.164153785443189,1
840,1016,29,0.16513619994219,1
840,1017,29,0.222758056602074,1
840,1018,29,0.241766556485436,1
840,1019,29,0.176222295155053,1
840,1022,29,0.153089159459538,1
840,1023,29,0.189164836855527,1
841,1010,29,0.136121849782194,1
841,1011,29,0.15246500904275,2
841,1012,29,0.200784541928851,2
841,1013,29,0.296383780973632,2
841,1014,29,0.329413724930818,2
841,1015,29,0.243563211817417,2
841,1016,29,0.188676320620221,1
841,1017,29,0.214254969932244,1
841,1018,29,0.209658505705845,1
841,1019,29,0.159198503621811,1
842,1009,29,0.188615163347977,1
842,1010,29,0.301587531142748,2
842,1011,29,0.277063429642356,2
842,1012,29,0.330753555577581,2
842,1013,29,0.463961655273568,2
842,1014,29,0.427802150135651,2
842,1015,29,0.267830718931587,2
842,1016,29,0.184908170583307,1
842,1017,29,0.195056462070761,1
842,1018,29,0.17156758254265,1
842,1019,29,0.135103280300372,1
843,1009,29,0.284669896291964,2
843,1010,29,0.465038626240669,2
843,1011,29,0.438902177382611,2
843,1012,29,0.545664614790916,2
843,1013,29,0.648698260453053,2
843,1014,29,0.447601655092675,2
843,1015,29,0.236308096228877,2
843,1016,29,0.165692833578355,1
843,1017,29,0.180297939198954,1
843,1018,29,0.168974858084037,1
843,1019,29,0.147464951571637,1
844,1009,29,0.217355183159494,2
844,1010,29,0.331208378195347,2
844,1011,29,0.374850951966586,2
844,1012,29,0.588292211024881,2
844,1013,29,0.689056548560075,2
844,1014,29,0.461176991430586,2
844,1015,29,0.263637376875207,2
844,1016,29,0.175784619656176,2
844,1017,29,0.168332170878012,1
844,1018,29,0.173025935582608,1
844,1019,29,0.169322311002006,1
844,1020,29,0.15541378353251,1
845,1010,29,0.136682405115193,2
845,1011,29,0.191333758965023,2
845,1012,29,0.347225459552208,2
845,1013,29,0.461092998812515,2
845,1014,29,0.43077670418808,2
845,1015,29,0.362730317839749,2
845,1016,29,0.253352308850137,2
845,1017,29,0.189347154539257,1
845,1018,29,0.167996930571504,1
846,1012,29,0.168703943027096,2
846,1013,29,0.29638352188255,2
846,1014,29,0.411269218434321,2
846,1015,29,0.452016614239194,2
846,1016,29,0.35160826785081,2
846,1017,29,0.222118549150238,2
846,1018,29,0.145206572377612,1
847,1012,29,0.127847022355698,1
847,1013,29,0.272942727303904,2
847,1014,29,0.453675221131883,2
847,1015,29,0.542044123117067,2
847,1016,29,0.435860824938468,2
847,1017,29,0.238877196291549,2
847,1018,29,0.120510304853162,1
848,1013,29,0.232925332399726,2
848,1014,29,0.425597803209112,2
848,1015,29,0.530278844186203,2
848,1016,29,0.427423217651206,2
848,1017,29,0.217762898307787,2
849,1013,29,0.132563198438896,1
849,1014,29,0.227928101376782,2
849,1015,29,0.284419472984243,2
849,1016,29,0.238639091587096,2
849,1017,29,0.13918798075528,1
803,1018,30,0.115811546756801,1
803,1019,30,0.114781647928572,1
804,1017,30,0.138110067638789,1
804,1018,30,0.116838489591322,1
805,1016,30,0.152053136660276,1
805,1017,30,0.135782004720545,1
806,1016,30,0.116106203978358,1
821,1004,30,0.119617276777487,1
821,1005,30,0.126255614268212,1
822,1003,30,0.132395955145398,1
822,1004,30,0.200634386869905,4
822,1005,30,0.249915889613255,4
822,1006,30,0.175471672959596,4
823,1003,30,0.176780860197467,4
823,1004,30,0.313652719778015,4
823,1005,30,0.445570051256695,4
823,1006,30,0.313446177078108,4
823,1007,30,0.150177611647529,4
824,1002,30,0.14342423771635,1
824,1003,30,0.222616310226429,4
824,1004,30,0.380314452722378,4
824,1005,30,0.531808282397597,4
824,1006,30,0.407288967016104,4
824,1007,30,0.218545636020557,4
824,1008,30,0.121817548907917,1
825,1002,30,0.157216539281788,1
825,1003,30,0.222531658103785,4
825,1004,30,0.326474477926759,4
825,1005,30,0.415816643784998,4
825,1006,30,0.373092689222226,4
825,1007,30,0.27578872507214,4
825,1008,30,0.192006642058981,1
825,1009,30,0.124701503519682,1
826,1002,30,0.14295838017386,1
826,1003,30,0.191733913364464,1
826,1004,30,0.26580205931245,4
826,1005,30,0.314904671440475,4
826,1006,30,0.304936377593879,4
826,1007,30,0.271363025422582,4
826,1008,30,0.245435121331883,1
826,1009,30,0.189519885852949,1
827,1002,30,0.136436209702857,1
827,1003,30,0.189393520066086,1
827,1004,30,0.284317744403915,4
827,1005,30,0.343324113145358,4
827,1006,30,0.310103690135357,4
827,1007,30,0.258559662740667,4
827,1008,30,0.243430415860972,1
827,1009,30,0.201284163750086,1
827,1010,30,0.131483942759525,1
828,1002,30,0.14112940911782,1
828,1003,30,0.188545055656533,1
828,1004,30,0.290038923017727,4
828,1005,30,0.37411527461582,4
828,1006,30,0.356692577031076,4
828,1007,30,0.319165259409529,4
828,1008,30,0.281315137853414,4
828,1009,30,0.196997654895955,1
828,1010,30,0.130097251957504,1
829,1002,30,0.139923081039545,1
829,1003,30,0.173669329400676,1
829,1004,30,0.25826962205112,4
829,1005,30,0.354871096062682,4
829,1006,30,0.379919056177353,4
829,1007,30,0.399870105863674,4
829,1008,30,0.362883746867824,4
829,1009,30,0.225797548301173,4
829,1010,30,0.142238542709705,1
830,1002,30,0.134087466605515,1
830,1003,30,0.178266523792852,1
830,1004,30,0.248736177255232,4
830,1005,30,0.312680916236513,4
830,1006,30,0.325361870159001,4
830,1007,30,0.349023174802252,4
830,1008,30,0.328498897873644,4
830,1009,30,0.22894449213814,4
830,1010,30,0.18250753860834,1
830,1011,30,0.163471563293408,1
830,1012,30,0.12792666930971,1
831,1002,30,0.135737594153699,1
831,1003,30,0.215896335491107,1
831,1004,30,0.280173747421808,4
831,1005,30,0.292244164986186,4
831,1006,30,0.260174907207707,4
831,1007,30,0.236902804477245,4
831,1008,30,0.214621984226912,4
831,1009,30,0.200314315168567,1
831,1010,30,0.246231779301882,9
831,1011,30,0.259648434128872,9
831,1012,30,0.183105520825835,1
831,1013,30,0.135663988732647,1
831,1014,30,0.119981040656761,1
832,1002,30,0.135830125000612,1
832,1003,30,0.228980623567226,1
832,1004,30,0.291809009736926,1
832,1005,30,0.290662932112107,4
832,1006,30,0.233191607370925,1
832,1007,30,0.17342434700568,1
832,1008,30,0.146610292529848,1
832,1009,30,0.186514064217656,9
832,1010,30,0.318692700829506,9
832,1011,30,0.382882539974456,9
832,1012,30,0.252142023744426,9
832,1013,30,0.165478895005741,1
832,1014,30,0.160296625842706,1
832,1015,30,0.139539249378276,1
833,1003,30,0.174045270560809,1
833,1004,30,0.219206836462086,1
833,1005,30,0.238112382970914,1
833,1006,30,0.194506588356466,1
833,1009,30,0.183998172041755,9
833,1010,30,0.338454943778177,9
833,1011,30,0.419399873450494,9
833,1012,30,0.275678422932368,9
833,1013,30,0.173205415041302,1
833,1014,30,0.200592437668339,1
833,1015,30,0.260328171359638,7
833,1016,30,0.174656419316022,7
833,1017,30,0.118853228953231,1
833,1018,30,0.130228764235406,1
833,1019,30,0.150022781172237,1
833,1020,30,0.136437717141881,1
834,1004,30,0.140510381638337,1
834,1005,30,0.160017031234513,1
834,1009,30,0.141912594351551,1
834,1010,30,0.228269748299138,9
834,1011,30,0.270165270903751,9
834,1012,30,0.194865417728312,1
834,1013,30,0.161614139325805,1
834,1014,30,0.27943467833324,7
834,1015,30,0.465119651088164,7
834,1016,30,0.316354992656888,7
834,1017,30,0.184856269928815,7
834,1018,30,0.200836760558762,6
834,1019,30,0.251293712434148,6
834,1020,30,0.240128912416662,1
834,1021,30,0.177514087959821,1
834,1022,30,0.122177767950113,1
835,1010,30,0.128732501459389,1
835,1011,30,0.141934287341243,1
835,1013,30,0.147107641415681,1
835,1014,30,0.26280736681682,7
835,1015,30,0.430971493574353,7
835,1016,30,0.324258848761281,7
835,1017,30,0.248690294579965,6
835,1018,30,0.272341117811259,6
835,1019,30,0.290803053280055,6
835,1020,30,0.234144426602229,6
835,1021,30,0.167098002285278,1
835,1022,30,0.133219711687212,1
835,1023,30,0.116434013081556,1
836,1014,30,0.193058704951598,1
836,1015,30,0.2575923579625,7
836,1016,30,0.262750884960922,6
836,1017,30,0.339109407851572,6
836,1018,30,0.417402234100004,6
836,1019,30,0.379322581398881,6
836,1020,30,0.226715272467719,6
836,1021,30,0.162162635146619,1
836,1022,30,0.185900795626316,8
836,1023,30,0.174460628896023,1
837,1015,30,0.174107452420514,1
837,1016,30,0.237361419246303,6
837,1017,30,0.378409167565791,6
837,1018,30,0.465643815900994,6
837,1019,30,0.387058946895561,6
837,1020,30,0.222458900617183,6
837,1021,30,0.228878989201837,8
837,1022,30,0.34086343092368,8
837,1023,30,0.294305328759261,8
837,1024,30,0.196503532871781,1
838,1016,30,0.186096256294029,1
838,1017,30,0.277279228960014,6
838,1018,30,0.317331742482684,6
838,1019,30,0.244239934170138,6
838,1020,30,0.173847313197214,1
838,1021,30,0.272846133437749,8
838,1022,30,0.423627721728264,8
838,1023,30,0.338326034187963,8
838,1024,30,0.213609880245275,8
839,1016,30,0.164791326158175,1
839,1017,30,0.236390180994435,1
839,1018,30,0.254851574727333,6
839,1019,30,0.176998190507883,1
839,1021,30,0.201161990528007,1
839,1022,30,0.298689149868457,8
839,1023,30,0.248447384913626,8
839,1024,30,0.184440098989752,1
840,1013,30,0.15108130956504,1
840,1014,30,0.158596682145553,1
840,1016,30,0.158235638722641,1
840,1017,30,0.22700234538669,1
840,1018,30,0.241316444614618,1
840,1019,30,0.166224535586301,1
840,1022,30,0.152112197650129,1
840,1023,30,0.166934032960908,1
841,1010,30,0.118137207194102,1
841,1011,30,0.127266929199735,1
841,1012,30,0.171796536621158,2
841,1013,30,0.253765252927541,2
841,1014,30,0.2664966353961,2
841,1015,30,0.188662977429492,1
841,1017,30,0.206086817370371,1
841,1018,30,0.198098803771763,1
842,1009,30,0.179587841204112,1
842,1010,30,0.231301255282161,2
842,1011,30,0.220787998674961,2
842,1012,30,0.332791094954715,2
842,1013,30,0.449916233497782,2
842,1014,30,0.378836974049814,2
842,1015,30,0.238949058736231,2
842,1016,30,0.184484003151301,1
842,1017,30,0.18050475276681,1
842,1018,30,0.148362125104626,1
843,1008,30,0.135861475021547,1
843,1009,30,0.299343661049321,2
843,1010,30,0.375677570287171,2
843,1011,30,0.365633056554967,2
843,1012,30,0.584688112750409,2
843,1013,30,0.666764587393212,2
843,1014,30,0.432543328508272,2
843,1015,30,0.250680844256299,2
843,1016,30,0.186536628695534,1
843,1017,30,0.167886404671252,1
843,1018,30,0.148910668032909,1
844,1008,30,0.124817352563984,1
844,1009,30,0.256666272220122,2
844,1010,30,0.30672591969797,2
844,1011,30,0.348625658421101,2
844,1012,30,0.616306080971333,2
844,1013,30,0.68513602941315,2
844,1014,30,0.447531983145324,2
844,1015,30,0.262868582973401,2
844,1016,30,0.181030731217216,1
844,1017,30,0.179411199970454,1
844,1018,30,0.192477928737328,1
844,1019,30,0.16913948691298,1
845,1009,30,0.118642022613847,1
845,1010,30,0.141699067969295,2
845,1011,30,0.190552787782357,2
845,1012,30,0.35358357826077,2
845,1013,30,0.467196807847125,2
845,1014,30,0.4216277270043,2
845,1015,30,0.303736244147839,2
845,1016,30,0.206402084109821,2
845,1017,30,0.194396415762235,1
845,1018,30,0.201525754407281,1
846,1012,30,0.218237176310445,2
846,1013,30,0.38257181910581,2
846,1014,30,0.454963610421981,2
846,1015,30,0.403878763085984,2
846,1016,30,0.28941736351176,2
846,1017,30,0.195733078431676,2
846,1018,30,0.152864268400272,1
847,1012,30,0.186981888496997,2
847,1013,30,0.345161516438434,2
847,1014,30,0.475384321578952,2
847,1015,30,0.522219509878813,2
847,1016,30,0.398047423654808,2
847,1017,30,0.203221529093385,2
848,1012,30,0.124376461980315,1
848,1013,30,0.225907285151311,2
848,1014,30,0.371430926129081,2
848,1015,30,0.472534460998219,2
848,1016,30,0.37175394204726,2
848,1017,30,0.182604344458108,2
849,1013,30,0.114348565407968,1
849,1014,30,0.186647083934582,2
849,1015,30,0.235878193462463,2
849,1016,30,0.197627917506907,2
849,1017,30,0.126727407351855,1
803,1019,31,0.125687615955036,1
804,1017,31,0.125487609416519,1
804,1018,31,0.135812247715947,1
804,1019,31,0.122738653035398,1
805,1016,31,0.123403845834965,1
805,1017,31,0.132514453984859,1
821,1004,31,0.16069771061467,1
821,1005,31,0.160735938326147,1
822,1003,31,0.171388197298895,1
822,1004,31,0.278813048166069,4
822,1005,31,0.315746081506474,4
822,1006,31,0.183280737058542,1
823,1002,31,0.126513892746467,1
823,1003,31,0.216678154608222,4
823,1004,31,0.390967288761628,4
823,1005,31,0.498634919749599,4
823,1006,31,0.292637535910024,4
823,1007,31,0.131135747898913,1
824,1002,31,0.157393286507252,1
824,1003,31,0.259344543843299,4
824,1004,31,0.447196766392551,4
824,1005,31,0.565444805685457,4
824,1006,31,0.361602565020556,4
824,1007,31,0.17494757880797,4
825,1002,31,0.174599171963745,1
825,1003,31,0.262267656539063,4
825,1004,31,0.399712484270816,4
825,1005,31,0.455311640406451,4
825,1006,31,0.326251400505067,4
825,1007,31,0.20846824127466,1
825,1008,31,0.152693291839818,1
826,1002,31,0.161950251120498,1
826,1003,31,0.241696201479778,1
826,1004,31,0.350473425357461,4
826,1005,31,0.35742983248207,4
826,1006,31,0.266530764757734,4
826,1007,31,0.213439657404333,1
826,1008,31,0.202287694172278,1
826,1009,31,0.155419189114632,1
827,1002,31,0.154423396094301,1
827,1003,31,0.243093668115441,1
827,1004,31,0.368752960704456,4
827,1005,31,0.373944934006204,4
827,1006,31,0.278686046428368,4
827,1007,31,0.232974512597856,4
827,1008,31,0.218467626051109,1
827,1009,31,0.169042068666109,1
828,1002,31,0.151686440341028,1
828,1003,31,0.221544521080969,1
828,1004,31,0.342729240020848,4
828,1005,31,0.392277583025031,4
828,1006,31,0.354520640043535,4
828,1007,31,0.34419258645257,4
828,1008,31,0.289945579566966,4
828,1009,31,0.185753349246865,1
828,1010,31,0.118947644098923,1
829,1002,31,0.143660552336964,1
829,1003,31,0.184687813617978,1
829,1004,31,0.278242270512194,4
829,1005,31,0.368575836619236,4
829,1006,31,0.414210231968485,4
829,1007,31,0.475093008987728,4
829,1008,31,0.406284023369827,4
829,1009,31,0.223232499480876,4
829,1010,31,0.130097687701596,1
830,1002,31,0.139695693284397,1
830,1003,31,0.185068147549639,1
830,1004,31,0.255060567015651,1
830,1005,31,0.322374502874875,4
830,1006,31,0.35878739909109,4
830,1007,31,0.420367507980947,4
830,1008,31,0.381414176597235,4
830,1009,31,0.225206137575669,4
830,1010,31,0.15176183584592,1
830,1011,31,0.13515560492209,1
831,1002,31,0.149752666942277,1
831,1003,31,0.228799895760592,1
831,1004,31,0.2989393847463,1
831,1005,31,0.33095041769251,4
831,1006,31,0.302430731292588,4
831,1007,31,0.285381996354259,4
831,1008,31,0.259616330388426,4
831,1009,31,0.213852954787758,1
831,1010,31,0.229276081615764,9
831,1011,31,0.231162476677092,9
831,1012,31,0.17161748112969,1
831,1013,31,0.129060157463312,1
832,1002,31,0.144242046940144,1
832,1003,31,0.230288374027278,1
832,1004,31,0.306574351414939,1
832,1005,31,0.340235771000416,1
832,1006,31,0.282264565346916,1
832,1007,31,0.21229350911831,1
832,1008,31,0.189686198773924,1
832,1009,31,0.243989887722173,9
832,1010,31,0.392437112470402,9
832,1011,31,0.41285626908088,9
832,1012,31,0.249275251582151,9
832,1013,31,0.165817951017276,1
832,1014,31,0.159271378877086,1
832,1015,31,0.127605679012718,1
833,1003,31,0.172461540990847,1
833,1004,31,0.229607341341101,1
833,1005,31,0.268597816964493,1
833,1006,31,0.227948145605043,1
833,1007,31,0.171048093146165,1
833,1008,31,0.165786577442607,1
833,1009,31,0.272750458167248,9
833,1010,31,0.500633642571887,9
833,1011,31,0.531355909368244,9
833,1012,31,0.297162114138007,9
833,1013,31,0.183721556981007,1
833,1014,31,0.21651200656339,1
833,1015,31,0.23795926014139,7
833,1016,31,0.150050315488145,1
833,1018,31,0.122565462423879,1
833,1019,31,0.143301287221025,1
833,1020,31,0.126567171294442,1
834,1004,31,0.169692328397852,1
834,1005,31,0.193276565221045,1
834,1006,31,0.166532371122443,1
834,1009,31,0.208067238940768,1
834,1010,31,0.35663277409858,9
834,1011,31,0.375627471493386,9
834,1012,31,0.239412030946216,1
834,1013,31,0.203041578559996,1
834,1014,31,0.327832044535779,7
834,1015,31,0.448923584901039,7
834,1016,31,0.290122303238695,7
834,1017,31,0.19084066152831,1
834,1018,31,0.228771207311682,6
834,1019,31,0.272999232713537,6
834,1020,31,0.227905230700352,1
834,1021,31,0.15821139015273,1
835,1010,31,0.182923156034636,1
835,1011,31,0.194089239730666,1
835,1012,31,0.173151830294776,1
835,1013,31,0.204195523132217,1
835,1014,31,0.345186718934602,7
835,1015,31,0.489763546883426,7
835,1016,31,0.373106609479455,7
835,1017,31,0.314269332999687,6
835,1018,31,0.384347228969059,6
835,1019,31,0.384777037520534,6
835,1020,31,0.250687345087087,6
835,1021,31,0.158322881756106,1
835,1022,31,0.127350438966244,1
836,1012,31,0.145152339903381,1
836,1013,31,0.172006706596214,1
836,1014,31,0.246485500132466,1
836,1015,31,0.328392340777695,7
836,1016,31,0.327197412707033,6
836,1017,31,0.395381800387186,6
836,1018,31,0.533303520586153,6
836,1019,31,0.485836102938489,6
836,1020,31,0.25711240350977,6
836,1021,31,0.170935847823277,1
836,1022,31,0.190796557160015,8
836,1023,31,0.164903277059378,1
837,1014,31,0.163233470365822,1
837,1015,31,0.194566520834503,1
837,1016,31,0.239259190761509,6
837,1017,31,0.349371204786722,6
837,1018,31,0.471203486555717,6
837,1019,31,0.404849883569178,6
837,1020,31,0.222952139376305,6
837,1021,31,0.233349181856313,8
837,1022,31,0.33606840871345,8
837,1023,31,0.26823525432569,8
837,1024,31,0.185019485533673,1
838,1015,31,0.142823452604421,1
838,1016,31,0.193536716221212,1
838,1017,31,0.277134773904874,6
838,1018,31,0.311804010692265,6
838,1019,31,0.228967669013121,6
838,1020,31,0.161781111751354,1
838,1021,31,0.266227957943959,8
838,1022,31,0.410587573351041,8
838,1023,31,0.313952111300253,8
838,1024,31,0.203771131939731,8
839,1016,31,0.186958322985393,1
839,1017,31,0.272744287088747,1
839,1018,31,0.274290825311559,1
839,1019,31,0.172532967691436,1
839,1021,31,0.190050009760668,1
839,1022,31,0.282219436391161,8
839,1023,31,0.227635775974964,8
839,1024,31,0.168754100705218,1
840,1013,31,0.117113620766781,1
840,1014,31,0.125817809223793,1
840,1016,31,0.150139984556287,1
840,1017,31,0.2221470020618,1
840,1018,31,0.226286806479124,1
840,1022,31,0.136555450484962,1
840,1023,31,0.141553717872235,1
841,1011,31,0.118312694294758,1
841,1012,31,0.157923751944125,2
841,1013,31,0.212204146248719,2
841,1014,31,0.209449937384752,2
841,1015,31,0.152012447583519,1
841,1017,31,0.180955076621241,1
842,1009,31,0.148621581269618,1
842,1010,31,0.165671847200705,1
842,1011,31,0.19431897108242,2
842,1012,31,0.3231380207401,2
842,1013,31,0.40170432940256,2
842,1014,31,0.33702742257699,2
842,1015,31,0.230526290301853,2
842,1016,31,0.178397835864009,1
842,1017,31,0.158927035052103,1
843,1008,31,0.134992542416508,1
843,1009,31,0.250378555624688,1
843,1010,31,0.256677366029183,2
843,1011,31,0.301200142867533,2
843,1012,31,0.540391828625287,2
843,1013,31,0.595277400813339,2
843,1014,31,0.429863007710174,2
843,1015,31,0.288542412927496,2
843,1016,31,0.202725299009952,2
843,1017,31,0.15886018955292,1
844,1008,31,0.129062642382326,1
844,1009,31,0.238642977953327,1
844,1010,31,0.241279135498795,2
844,1011,31,0.295179831822565,2
844,1012,31,0.534182545966527,2
844,1013,31,0.590278261937881,2
844,1014,31,0.436887485128172,2
844,1015,31,0.272179656959639,2
844,1016,31,0.180455278146996,1
844,1017,31,0.183838195075423,1
844,1018,31,0.200537227714116,1
845,1009,31,0.116729058939735,1
845,1010,31,0.130625526897046,1
845,1011,31,0.184021478462277,2
845,1012,31,0.342573926693994,2
845,1013,31,0.462480737755732,2
845,1014,31,0.415642864330111,2
845,1015,31,0.254167715592987,2
845,1016,31,0.167180522794928,1
845,1017,31,0.191489884895725,1
846,1011,31,0.132334856757491,2
846,1012,31,0.28306447373231,2
846,1013,31,0.457854737145973,2
846,1014,31,0.461760464547484,2
846,1015,31,0.329507751439887,2
846,1016,31,0.222942246807715,2
846,1017,31,0.172158793061409,1
847,1011,31,0.11624912804074,1
847,1012,31,0.239482550828017,2
847,1013,31,0.37863964086019,2
847,1014,31,0.430858953829781,2
847,1015,31,0.425589418079545,2
847,1016,31,0.3143338937866,2
847,1017,31,0.16673054046965,2
848,1012,31,0.137012204508976,1
848,1013,31,0.203534723104179,2
848,1014,31,0.285427219524953,2
848,1015,31,0.355225344233122,2
848,1016,31,0.272215953264868,2
848,1017,31,0.143346451507382,1
849,1014,31,0.148345967242596,2
849,1015,31,0.180838073443937,2
849,1016,31,0.151807671413718,1
803,1019,32,0.138391299231545,1
804,1017,32,0.117709683354896,1
804,1018,32,0.179160046496957,1
804,1019,32,0.187366297224767,1
805,1017,32,0.12855953460835,1
805,1018,32,0.158843690161737,1
805,1019,32,0.139198921465065,1
821,1003,32,0.14413479500902,1
821,1006,32,0.119157884735183,1
822,1002,32,0.12098932893337,1
824,1001,32,0.149848530642655,1
825,1008,32,0.119861894089595,1
826,1008,32,0.157434317113164,1
826,1009,32,0.119261921581515,1
827,1009,32,0.142515876159362,1
829,1002,32,0.151543516278646,1
829,1010,32,0.124072630579079,1
830,1010,32,0.136492715112491,1
830,1011,32,0.118232705811592,1
831,1012,32,0.156979364949857,1
831,1013,32,0.121309400634707,1
832,1013,32,0.161455658021629,1
832,1014,32,0.144577499230264,1
833,1020,32,0.114101969582142,1
834,1021,32,0.143837841298327,1
835,1022,32,0.128524180452511,1
836,1022,32,0.189275398086382,1
836,1023,32,0.15652311733114,1
837,1021,32,0.223306434654214,1
837,1022,32,0.286015544711207,8
837,1023,32,0.226452954523956,1
837,1024,32,0.174901225058008,1
838,1014,32,0.122633155857512,1
838,1020,32,0.152097700326398,1
838,1021,32,0.229340030005574,1
838,1022,32,0.329470089018043,8
838,1023,32,0.26161046023244,8
838,1024,32,0.191472302032744,1
839,1016,32,0.19502952837509,1
839,1019,32,0.168122813506804,1
839,1021,32,0.164080356675147,1
839,1022,32,0.230246542594385,1
839,1023,32,0.196941938536435,1
840,1017,32,0.213547509955693,1
840,1018,32,0.211784442249446,1
840,1022,32,0.119030706344472,1
841,1012,32,0.164705060604702,2
841,1013,32,0.185419863693595,2
841,1014,32,0.170600454417494,2
841,1015,32,0.13095635087829,1
842,1011,32,0.194420146149982,2
842,1012,32,0.321130818573307,2
842,1013,32,0.362748666199109,2
842,1014,32,0.322106013852611,2
842,1015,32,0.233747216419629,2
842,1016,32,0.166344895170806,1
843,1009,32,0.17946930703405,1
843,1010,32,0.177031695695546,1
843,1011,32,0.255996827971436,2
843,1012,32,0.450507526454613,2
843,1013,32,0.507193593233408,2
843,1014,32,0.459669835052254,2
843,1015,32,0.335265626772419,2
843,1016,32,0.205898057740191,2
843,1017,32,0.14333120046414,1
844,1009,32,0.186140878844488,1
844,1010,32,0.182386837494682,1
844,1011,32,0.236991507842263,2
844,1012,32,0.403361334641288,2
844,1013,32,0.471082043499414,2
844,1014,32,0.427419684590996,2
844,1015,32,0.281839750187205,2
844,1016,32,0.176490136449612,1
845,1011,32,0.174701654263584,2
845,1012,32,0.318658547914138,2
845,1013,32,0.425911162096049,2
845,1014,32,0.378083254538239,2
845,1015,32,0.213839317175346,2
845,1016,32,0.144528307255266,1
846,1011,32,0.157170173754959,2
846,1012,32,0.328099214548897,2
846,1013,32,0.4619442307859,2
846,1014,32,0.40776432849056,2
846,1015,32,0.250005417358989,2
846,1016,32,0.168544213374979,1
847,1011,32,0.134098701736984,1
847,1012,32,0.26086432502345,2
847,1013,32,0.35110866958331,2
847,1014,32,0.348144926695125,2
847,1015,32,0.304153192360148,2
847,1016,32,0.222961490208995,2
847,1017,32,0.136112981801066,1
848,1012,32,0.136212119470572,1
848,1013,32,0.173112307127888,2
848,1014,32,0.210258113131038,2
848,1015,32,0.240690621882663,2
848,1016,32,0.185624192342436,1
849,1014,32,0.116587877853723,1
849,1015,32,0.134485889805454,1
803,1018,33,0.119343323288765,1
803,1019,33,0.147189325767748,1
804,1017,33,0.115262568084426,1
804,1018,33,0.229058869074022,1
804,1019,33,0.243594985805577,1
805,1017,33,0.125911082013351,1
805,1018,33,0.21198759321155,1
805,1019,33,0.186056532920396,1
826,1008,33,0.123499579989802,1
827,1009,33,0.123080029089805,1
833,1020,33,0.118726215438663,1
834,1021,33,0.153072978043774,1
837,1022,33,0.218484302095303,1
837,1023,33,0.185439542838967,1
838,1021,33,0.179649128021897,1
838,1022,33,0.229625195072031,1
838,1023,33,0.210145738262609,1
839,1022,33,0.175122700825737,1
841,1012,33,0.170754283859059,1
841,1013,33,0.165843648141874,2
841,1014,33,0.148371205069367,2
841,1015,33,0.129022695248213,1
842,1011,33,0.19563608415203,1
842,1012,33,0.302949408085225,2
842,1013,33,0.31856442719013,2
842,1014,33,0.303786130958011,2
842,1015,33,0.22759811355312,2
842,1016,33,0.151138933777073,1
843,1010,33,0.13268432351978,1
843,1011,33,0.21091545076007,2
843,1012,33,0.332803013144491,2
843,1013,33,0.411426133415137,2
843,1014,33,0.46980496000199,2
843,1015,33,0.346285265122723,2
843,1016,33,0.19007886308572,2
844,1011,33,0.174565372354397,1
844,1012,33,0.264218306188753,2
844,1013,33,0.34698370401887,2
844,1014,33,0.387455662449732,2
844,1015,33,0.269700697039804,2
844,1016,33,0.165349879423721,1
845,1011,33,0.152505073945537,1
845,1012,33,0.268766956333637,2
845,1013,33,0.345049848182047,2
845,1014,33,0.300821516581641,2
845,1015,33,0.180862322013848,2
845,1016,33,0.133820143493121,1
846,1011,33,0.166173376874453,1
846,1012,33,0.328003091757436,2
846,1013,33,0.396294978682928,2
846,1014,33,0.309139376681501,2
846,1015,33,0.180404166542617,2
846,1016,33,0.129110880431067,1
847,1011,33,0.137452800670961,1
847,1012,33,0.249274356540231,1
847,1013,33,0.289832097673004,2
847,1014,33,0.253559299071003,2
847,1015,33,0.192766061574362,1
847,1016,33,0.145485036406537,1
848,1012,33,0.126198673114486,1
848,1013,33,0.144203006624818,1
848,1014,33,0.152829526641535,1
848,1015,33,0.153716996035812,1
803,1018,34,0.114154411972533,1
803,1019,34,0.133353131817629,1
804,1018,34,0.234106222444486,1
804,1019,34,0.23943044996678,1
805,1017,34,0.118279507082514,1
805,1018,34,0.228261528045715,1
805,1019,34,0.191589505416794,1
829,1010,34,0.123507658920817,1
830,1010,34,0.126553109714804,1
831,1012,34,0.121209497468821,1
833,1021,34,0.123839613481329,1
834,1022,34,0.138209876589736,1
834,1023,34,0.119602932553033,1
837,1022,34,0.170241377731432,1
838,1022,34,0.15912368518342,1
841,1012,34,0.151748374886518,1
841,1013,34,0.136923454036488,1
841,1014,34,0.128820239121284,1
842,1011,34,0.172733398197178,1
842,1012,34,0.24598109690308,1
842,1013,34,0.246929087618763,2
842,1014,34,0.25004072440736,2
842,1015,34,0.194826212536843,1
843,1011,34,0.164483584836972,1
843,1012,34,0.230482009280548,2
843,1013,34,0.305507155247753,2
843,1014,34,0.393910516346857,2
843,1015,34,0.286271385377917,2
843,1016,34,0.160058803783069,1
844,1012,34,0.171084507220068,1
844,1013,34,0.237851690234848,2
844,1014,34,0.29829170414851,2
844,1015,34,0.219106544659577,1
844,1016,34,0.143297648169008,1
845,1011,34,0.123624497221978,1
845,1012,34,0.198728512869949,1
845,1013,34,0.234792319183631,2
845,1014,34,0.203524029708608,2
845,1015,34,0.141749755606448,1
846,1011,34,0.147019585778368,1
846,1012,34,0.261319312517359,1
846,1013,34,0.277832176436693,2
846,1014,34,0.200269162659077,2
846,1015,34,0.125139991622408,1
847,1012,34,0.195552115087693,1
847,1013,34,0.205252567639731,1
847,1014,34,0.166525093018409,1
847,1015,34,0.120637247706526,1
804,1018,35,0.197991469402568,1
804,1019,35,0.193767778358979,1
805,1018,35,0.203852792738063,1
805,1019,35,0.166025412312837,1
829,1010,35,0.122997473249552,1
830,1010,35,0.125095981469052,1
832,1023,35,0.121157691029268,1
832,1024,35,0.118925680241281,1
833,1022,35,0.13097537051909,1
833,1023,35,0.14894095813578,1
842,1012,35,0.184099617977266,1
842,1013,35,0.179934340195824,1
842,1014,35,0.186290857250424,1
843,1012,35,0.163718571309591,1
843,1013,35,0.215249691257645,2
843,1014,35,0.278803249812418,2
843,1015,35,0.204535427078203,1
844,1013,35,0.166037236287675,1
844,1014,35,0.211206716243824,1
844,1015,35,0.167049681798465,1
845,1012,35,0.141575340200723,1
845,1013,35,0.155833087118293,1
845,1014,35,0.141828519295408,1
846,1012,35,0.184082777056929,1
846,1013,35,0.181252654505905,1
846,1014,35,0.13258076952501,1
804,1018,36,0.138298426855478,1
804,1019,36,0.134414969510161,1
805,1018,36,0.149887559181114,1
805,1019,36,0.126002364512323,1
829,1010,36,0.124837102370561,1
830,1010,36,0.13056930413223,1
831,1011,36,0.126779107799603,1
831,1012,36,0.116843730297301,1
831,1013,36,0.116222123683864,1
831,1022,36,0.118516457653965,1
831,1023,36,0.133899872885204,1
831,1024,36,0.137667657839229,1
832,1015,36,0.128819991807069,1
832,1020,36,0.120091060151716,1
832,1021,36,0.145663196856085,1
843,1014,36,0.174166890270122,1
826,1008,37,0.123310207962519,1
827,1009,37,0.123433876846754,1
829,1010,37,0.126693383982028,1
830,1010,37,0.136643235254326,1
831,1011,37,0.132735258471148,1
831,1020,37,0.115675406170023,1
831,1021,37,0.150387640300176,1
832,1016,37,0.115568118908298,1
832,1017,37,0.113756506954758,1
818,1005,38,0.125875621865705,1
819,1006,38,0.122647535412569,1
828,1010,38,0.125406031056259,1
829,1010,38,0.138826678241286,1
829,1011,38,0.113814920216905,1
830,1010,38,0.149645709432837,1
830,1011,38,0.126728208178837,1
830,1012,38,0.119484115738153,1
830,1013,38,0.117667333739839,1
830,1014,38,0.118248934334826,1
830,1015,38,0.122916589724467,1
831,1015,38,0.161468223939112,1
831,1016,38,0.147303690926762,1
831,1017,38,0.121334614907743,1
831,1019,38,0.128721466534665,1
831,1020,38,0.157273315559371,1
832,1016,38,0.144265459352472,1
832,1017,38,0.133804515590123,1
807,1012,39,0.125519477619618,1
817,1005,39,0.131663693086169,1
817,1006,39,0.119034380727091,1
818,1006,39,0.136472541338689,1
824,1007,39,0.118270109142354,1
825,1008,39,0.115257598246396,1
826,1009,39,0.131712496424543,1
827,1010,39,0.116824204251204,1
829,1011,39,0.129897268972722,1
829,1012,39,0.123309995978906,1
829,1013,39,0.120347030363967,1
830,1011,39,0.149515716370825,1
830,1012,39,0.146196853824015,1
830,1015,39,0.170428830129334,1
830,1016,39,0.147473254263132,1
830,1017,39,0.118097083406978,1
830,1019,39,0.119264677368479,1
830,1020,39,0.12589859853394,1
831,1016,39,0.187305139952523,1
831,1017,39,0.147941361187289,1
831,1018,39,0.134391757304578,1
832,1016,39,0.167390763431187,1
832,1017,39,0.150104147548885,1
810,1016,40,0.11596733115835,1
817,1005,40,0.14717598257702,1
817,1006,40,0.135391507352345,1
822,1007,40,0.128719523351549,1
823,1007,40,0.130175838993453,1
823,1008,40,0.116555774113277,1
824,1007,40,0.133920305750088,1
824,1008,40,0.120864176163847,1
825,1009,40,0.12242243236969,1
826,1010,40,0.120114472564044,1
828,1011,40,0.123526054387646,1
828,1012,40,0.117369237673012,1
829,1011,40,0.138734559584731,1
829,1012,40,0.146294754922448,1
829,1015,40,0.154076202267414,1
829,1016,40,0.12637322984262,1
830,1016,40,0.18746200782587,1
830,1017,40,0.156247797725802,1
830,1018,40,0.149607681928105,1
809,1015,41,0.12413093784942,1
809,1016,41,0.146623894811659,1
810,1015,41,0.150722774614878,1
810,1016,41,0.163767303986762,1
817,1006,41,0.136847293035217,1
818,1007,41,0.121949803128464,1
822,1007,41,0.139736288146216,1
822,1008,41,0.121764859203311,1
823,1007,41,0.14041626091433,1
823,1008,41,0.133340624784483,1
824,1008,41,0.140187247951485,1
824,1009,41,0.121603916533855,1
825,1009,41,0.156010646947606,1
825,1010,41,0.136966286503107,1
826,1010,41,0.151301819629645,1
826,1011,41,0.124342721255305,1
827,1011,41,0.145389125598689,1
827,1012,41,0.130674283127951,1
828,1011,41,0.144975557347314,1
828,1012,41,0.147436168907789,1
828,1013,41,0.142062560980619,1
828,1015,41,0.136409464437064,1
829,1016,41,0.159148581481036,1
829,1017,41,0.137470042004788,1
829,1018,41,0.135345459800935,1
829,1019,41,0.117893025626087,1
809,1015,42,0.15449101886673,1
809,1016,42,0.186616864492914,1
810,1015,42,0.208196054316043,1
810,1016,42,0.225353230649099,1
811,1015,42,0.113824129727187,1
821,1008,42,0.130333660793056,1
822,1008,42,0.139148787340678,1
822,1009,42,0.117016979793157,1
823,1007,42,0.149928377803413,1
823,1008,42,0.149824670709367,1
823,1009,42,0.123715885712757,1
824,1009,42,0.149851286429619,1
824,1010,42,0.133787085826418,1
825,1010,42,0.169784235070795,1
825,1011,42,0.121120099268628,1
826,1011,42,0.14886698763184,1
826,1012,42,0.118626594917594,1
827,1011,42,0.170716067924449,1
827,1012,42,0.165261435149785,1
827,1013,42,0.130724688120288,1
827,1014,42,0.114768893581212,1
827,1015,42,0.114022734818487,1
828,1011,42,0.153470753516007,1
828,1012,42,0.170726007600508,1
828,1016,42,0.133771022179327,1
809,1015,43,0.146627616301747,1
809,1016,43,0.179339101988425,1
810,1015,43,0.205868968877791,1
810,1016,43,0.226961432549452,1
811,1015,43,0.114836940320866,1
818,1008,43,0.126258582038789,1
818,1009,43,0.129874963585926,1
819,1010,43,0.11435549020598,1
820,1010,43,0.120378286169963,1
821,1009,43,0.14959405609256,1
821,1010,43,0.114581759158728,1
822,1008,43,0.145992489844572,1
822,1009,43,0.134839925992281,1
823,1010,43,0.127706123914503,1
825,1011,43,0.137331581375139,1
826,1011,43,0.171115056414021,1
826,1012,43,0.141848116002709,1
827,1012,43,0.186769810669427,1
827,1016,43,0.134009539074138,1
827,1017,43,0.116199771189599,1
828,1019,43,0.115172298396047,1
829,1022,43,0.115029810077757,1
829,1023,43,0.119732313217941,1
830,1024,43,0.175480635155664,1
809,1015,44,0.118182842555154,1
809,1016,44,0.146771411852315,1
810,1015,44,0.164774591229644,1
810,1016,44,0.191649885415791,1
818,1010,44,0.145899487922964,1
821,1010,44,0.146670342776559,1
822,1010,44,0.13278116470015,1
825,1012,44,0.118392894761536,1
826,1012,44,0.157211687212432,1
826,1015,44,0.116365330391064,1
826,1016,44,0.146535591860131,1
826,1018,44,0.12763050464913,1
827,1018,44,0.148209379134858,1
827,1019,44,0.150427293012606,1
827,1021,44,0.136635580290536,1
828,1021,44,0.131176001231578,1
829,1023,44,0.124816481075799,1
810,1016,45,0.138467978414981,1
816,1011,45,0.13626931971538,1
816,1012,45,0.127120106994253,1
817,1008,45,0.124178410401781,1
817,1009,45,0.115329849327701,1
817,1010,45,0.12806306898757,1
817,1011,45,0.133368583067616,1
818,1011,45,0.131081586085886,1
821,1011,45,0.116252767092757,1
825,1012,45,0.143229377668874,1
825,1013,45,0.127472058675557,1
825,1015,45,0.116833802398109,1
825,1018,45,0.138322357449971,1
825,1021,45,0.12291809716349,1
826,1021,45,0.154348589432777,1
829,1023,45,0.116680856221597,1
815,1011,46,0.144470459282753,1
815,1012,46,0.143196072687956,1
815,1013,46,0.119024664811512,1
816,1010,46,0.144318266825752,1
816,1012,46,0.162572234593691,1
817,1011,46,0.168847326387306,1
817,1012,46,0.135044925922562,1
821,1011,46,0.135565651890121,1
823,1013,46,0.128668494185242,1
824,1013,46,0.150702883485892,1
824,1014,46,0.129171778612229,1
824,1015,46,0.134260668993901,1
824,1018,46,0.116471981701951,1
825,1012,46,0.164816622869282,1
825,1013,46,0.149528706255533,1
825,1014,46,0.149828769059211,1
825,1021,46,0.173330520703356,1
825,1022,46,0.128091686775275,1
826,1012,46,0.151669540536354,1
826,1022,46,0.118116633006809,1
827,1011,46,0.153064969773963,1
827,1022,46,0.115970487358805,1
828,1022,46,0.115138734324047,1
829,1022,46,0.134186580721287,1
814,1012,47,0.119722043789596,1
815,1010,47,0.148417229067042,1
815,1013,47,0.163488404213744,1
816,1013,47,0.141162113478502,1
817,1012,47,0.156543915278912,1
824,1019,47,0.118896332287799,1
824,1020,47,0.123596173855957,1
824,1021,47,0.136989110072067,1
825,1021,47,0.20802682073196,1
825,1022,47,0.144273290969272,1
826,1022,47,0.121229282606,1
828,1022,47,0.117846471669379,1
812,1016,48,0.117494390442535,1
814,1013,48,0.119998376205527,1
825,1022,48,0.140080219780841,1
826,1022,48,0.116693904990641,1
