x,y,z,signal,mito.p
401,280,22,0.246257782625032,2
400,280,23,0.182787663175563,2
401,279,23,0.266933698497875,2
401,280,23,0.354162246415781,2
401,281,23,0.287486546106718,2
402,280,23,0.308105791693785,2
414,284,23,0.318541250315149,3
415,284,23,0.259319930190499,3
400,280,24,0.175058434460508,2
401,276,24,0.136147947320282,1
401,279,24,0.255870108878552,2
401,280,24,0.366029889877811,2
401,281,24,0.297163904221847,2
402,279,24,0.234830617556313,2
402,280,24,0.330811497765033,2
402,281,24,0.284811454237731,2
403,279,24,0.183255157702618,1
403,280,24,0.195159910073725,2
403,281,24,0.185187247009335,1
403,289,24,0.205076691902452,1
404,282,24,0.242732966221683,1
405,282,24,0.198429592422406,1
410,288,24,0.257211282088195,1
411,288,24,0.233934468610786,1
413,284,24,0.195439033607222,3
413,285,24,0.205418103287461,1
414,283,24,0.221166907605671,3
414,284,24,0.365698088416575,3
414,285,24,0.34597819508296,3
414,286,24,0.183764365893891,1
415,283,24,0.27053348643889,3
415,284,24,0.348129946519832,3
415,285,24,0.280928785942528,3
415,286,24,0.163512829436666,1
415,288,24,0.207349250444789,1
415,289,24,0.247196822921515,1
416,284,24,0.257152397751353,3
416,285,24,0.175181702931253,1
416,286,24,0.16180001362348,1
416,287,24,0.226591285608065,1
417,285,24,0.183679525341369,1
417,286,24,0.227796789305625,1
396,286,25,0.139125528027625,1
397,286,25,0.124864577802131,1
397,287,25,0.14417149172774,1
398,287,25,0.128424654146381,1
398,290,25,0.16061961820715,1
399,286,25,0.11796805604809,1
399,287,25,0.130598110349813,1
399,288,25,0.114531778133617,1
399,289,25,0.147290865918198,1
400,275,25,0.130684423010755,1
400,276,25,0.128384659904798,1
400,279,25,0.115670212571514,1
400,280,25,0.152248773980999,1
400,281,25,0.137700574183524,1
400,286,25,0.121629919857004,1
400,287,25,0.119397885515282,1
400,288,25,0.126750113152142,1
401,275,25,0.15720118224674,1
401,279,25,0.206451240754217,1
401,280,25,0.308815300845259,2
401,281,25,0.260401329259731,1
401,282,25,0.134862985098588,1
401,285,25,0.119397390886853,1
401,288,25,0.137875107357923,1
402,278,25,0.130025601496435,1
402,279,25,0.207481104251845,1
402,280,25,0.298728178406916,2
402,281,25,0.247967406907161,1
402,282,25,0.147292432241558,1
402,285,25,0.133063750632653,1
402,286,25,0.130203267317554,1
402,287,25,0.124097939067054,1
402,288,25,0.155261331984427,1
402,289,25,0.207604761359213,1
403,279,25,0.168936029752324,1
403,280,25,0.181864450988823,1
403,281,25,0.157960260232967,1
403,282,25,0.154078828508838,1
403,283,25,0.148872416767696,1
403,284,25,0.125294692552158,1
403,285,25,0.138952514069117,1
403,286,25,0.149319466652999,1
403,287,25,0.154443087016541,1
403,288,25,0.159732843648048,1
403,289,25,0.1562589504192,1
403,290,25,0.164975963884776,1
404,279,25,0.206501504424145,1
404,280,25,0.165591116774895,1
404,281,25,0.133612022692987,1
404,282,25,0.170965089784953,1
404,283,25,0.196918844099526,1
404,284,25,0.158253044932612,1
404,285,25,0.150719948166709,1
404,286,25,0.15180077016944,1
404,287,25,0.143478246430102,1
404,288,25,0.131749770209764,1
404,289,25,0.125446543480006,1
404,290,25,0.148600924644254,1
404,291,25,0.207875535093746,1
405,275,25,0.121273127883213,1
405,281,25,0.165791582611239,1
405,282,25,0.151759810224733,1
405,283,25,0.168914007010345,1
405,284,25,0.159901794587314,1
405,285,25,0.159423712656496,1
405,286,25,0.143200229922137,1
405,290,25,0.122633626932207,1
405,291,25,0.149494918423053,1
405,292,25,0.178797177659603,1
405,293,25,0.211769838933909,1
406,277,25,0.132133071912002,1
406,278,25,0.173193496851525,1
406,282,25,0.153011267258764,1
406,283,25,0.122065239982408,1
406,284,25,0.11591568959494,1
406,285,25,0.118007414338835,1
406,292,25,0.143933752106175,1
406,293,25,0.202247747038165,1
407,283,25,0.152943703370671,1
407,284,25,0.11620392842378,1
407,293,25,0.142831343105558,1
408,279,25,0.121915179138401,1
408,285,25,0.141816707097437,1
409,281,25,0.14463645422831,1
409,282,25,0.17554826970496,1
409,286,25,0.162040367709601,1
409,287,25,0.139612065749214,1
409,288,25,0.122954617229199,1
410,276,25,0.117966795923282,1
410,277,25,0.167530519516248,1
410,278,25,0.119155293824361,1
410,283,25,0.1641746776059,1
410,284,25,0.23292808818669,1
410,285,25,0.232969354329949,1
410,286,25,0.197169090754236,1
410,287,25,0.20773517838845,1
410,288,25,0.197408808889519,1
410,289,25,0.128213553798803,1
411,277,25,0.172210540616625,1
411,278,25,0.139372159184053,1
411,285,25,0.121315018200442,1
411,286,25,0.129019232849207,1
411,287,25,0.161286212453934,1
411,288,25,0.177010144028261,1
411,289,25,0.130093683566691,1
412,278,25,0.122727217697183,1
413,279,25,0.132497836825002,1
413,284,25,0.160447687720439,1
413,285,25,0.192620110857066,1
413,286,25,0.133050478103129,1
414,283,25,0.171579276971947,1
414,284,25,0.318889939804191,3
414,285,25,0.318414130808775,1
414,286,25,0.173544141300551,1
414,289,25,0.132201354189003,1
415,282,25,0.139145171842396,1
415,283,25,0.252038669956401,1
415,284,25,0.355753890040614,3
415,285,25,0.276568330138191,1
415,286,25,0.146707463462505,1
415,287,25,0.132224931477475,1
415,290,25,0.253148686813338,1
416,280,25,0.145677281989458,1
416,285,25,0.173829235705804,1
416,286,25,0.153844727939289,1
397,291,26,0.14342585114718,1
398,275,26,0.124154915551382,1
398,290,26,0.124911379073053,1
398,291,26,0.192049592294273,1
399,275,26,0.155245233006734,1
399,276,26,0.119370516075518,1
399,290,26,0.16084059934645,1
400,274,26,0.131361757760579,1
400,275,26,0.16845819513572,1
400,276,26,0.142927960525448,1
400,280,26,0.115776239708431,1
400,289,26,0.139601549006654,1
401,275,26,0.183623137700409,1
401,279,26,0.144536174202668,1
401,280,26,0.21641225649678,1
401,281,26,0.188226797592771,1
401,289,26,0.152479518143348,1
402,274,26,0.125797717888063,1
402,279,26,0.156050629412321,1
402,280,26,0.220958881020476,1
402,281,26,0.181971820688621,1
402,289,26,0.127626877373981,1
402,290,26,0.148663047619622,1
402,291,26,0.164726541610782,1
403,279,26,0.129109726298065,1
403,280,26,0.139395147629156,1
403,281,26,0.118657308987691,1
403,291,26,0.15602946638166,1
404,279,26,0.133265500147541,1
404,291,26,0.129536873277515,1
404,292,26,0.182280892795836,1
404,293,26,0.199479335272151,1
405,278,26,0.17918997151694,1
405,279,26,0.160021141361225,1
405,280,26,0.145675821657904,1
405,281,26,0.114900346974777,1
405,292,26,0.121993966381095,1
405,293,26,0.160104191829907,1
406,278,26,0.130364798830378,1
406,279,26,0.169991201737926,1
406,280,26,0.196985913359188,1
406,281,26,0.156948321127474,1
406,293,26,0.162267602365473,1
406,294,26,0.201811461209637,1
407,279,26,0.150246294338021,1
407,282,26,0.138931327484721,1
407,293,26,0.120775402137624,1
407,294,26,0.148168148322202,1
408,280,26,0.155475458986918,1
408,281,26,0.178089093509081,1
408,282,26,0.155371457471188,1
408,283,26,0.139406912719657,1
408,284,26,0.13229221272075,1
409,282,26,0.127678848689677,1
409,283,26,0.164679198603961,1
409,284,26,0.195700904030025,1
409,285,26,0.155697700251026,1
410,277,26,0.1319909486766,1
410,283,26,0.132512934768968,1
410,284,26,0.160345358519876,1
410,285,26,0.144565946123376,1
410,286,26,0.118725944570713,1
410,287,26,0.123992689203383,1
410,288,26,0.126205397705753,1
411,277,26,0.129369936182569,1
411,288,26,0.114538384956211,1
413,285,26,0.14560262842721,1
414,283,26,0.120769725687552,1
414,284,26,0.227492757697643,1
414,285,26,0.234377914774674,1
414,286,26,0.139761019567689,1
414,289,26,0.118522287203312,1
415,283,26,0.197733461792262,1
415,284,26,0.29201077102868,1
415,285,26,0.226773096886498,1
415,286,26,0.121764835649576,1
415,288,26,0.171987816500955,1
415,291,26,0.156042055852877,1
416,279,26,0.121574521472904,1
416,280,26,0.120099033090925,1
416,281,26,0.138073111828987,1
416,282,26,0.167925810069467,1
416,284,26,0.253095502480302,1
416,285,26,0.155628770246319,1
416,286,26,0.132399547089946,1
397,291,27,0.13431334692164,1
397,292,27,0.136129822721402,1
398,274,27,0.122424422660276,1
398,275,27,0.118766374556389,1
398,291,27,0.162205467613238,1
398,292,27,0.225405614155154,1
399,274,27,0.181050363255119,1
399,275,27,0.180951779098378,1
399,276,27,0.116403452110735,1
399,291,27,0.167687622926942,1
400,273,27,0.113792673714447,1
400,274,27,0.179859698410443,1
400,275,27,0.216978558941054,1
400,276,27,0.156811627027929,1
400,290,27,0.137518268276662,1
400,291,27,0.190431910015689,1
401,274,27,0.134210487762045,1
401,275,27,0.204681766432122,1
401,276,27,0.183938734192146,1
401,280,27,0.12932804586534,1
401,281,27,0.116375458497,1
401,290,27,0.134918253937148,1
401,291,27,0.166985250557093,1
401,292,27,0.179400341698741,1
402,274,27,0.134324381846364,1
402,275,27,0.266791787246086,1
402,277,27,0.159953259497714,1
402,280,27,0.136649889184389,1
402,281,27,0.11652112656948,1
402,291,27,0.124091897534094,1
402,292,27,0.16494341262337,1
403,274,27,0.147949204580956,1
403,278,27,0.115431307040079,1
403,292,27,0.169520456795479,1
403,293,27,0.230920273622794,1
404,275,27,0.203181487744332,1
404,278,27,0.123917305475358,1
404,292,27,0.132962057382928,1
404,293,27,0.165492143981531,1
404,294,27,0.175948494765606,1
405,276,27,0.119911227387001,1
405,277,27,0.124380419007751,1
405,293,27,0.126409337717971,1
405,294,27,0.15729399573847,1
406,280,27,0.113882083691507,1
406,293,27,0.121674130217105,1
406,294,27,0.161464455341554,1
407,280,27,0.121512174737056,1
407,294,27,0.126339559778813,1
414,284,27,0.140305228608781,1
414,285,27,0.144918121565159,1
415,283,27,0.134905228721839,1
415,284,27,0.191640652351774,1
415,285,27,0.157258099846731,1
415,288,27,0.13143098218697,1
415,291,27,0.160490049112363,1
416,278,27,0.114216888253922,1
416,282,27,0.129997195692342,1
416,283,27,0.184490727742569,1
416,284,27,0.189890068124938,1
416,285,27,0.133734384344944,1
416,286,27,0.116150590991469,1
416,287,27,0.161262305413176,1
417,282,27,0.181213908612263,1
417,284,27,0.21831770652951,1
417,285,27,0.16006649407746,1
417,286,27,0.182413983173966,1
418,289,27,0.190740982122904,1
397,292,28,0.124046050189429,1
398,274,28,0.132274205890544,1
398,291,28,0.127032510654767,1
398,292,28,0.191116546423281,1
398,293,28,0.237220214606557,1
399,273,28,0.163301104915118,1
399,274,28,0.213917421359733,1
399,275,28,0.190319582254729,1
399,291,28,0.121068964110515,1
399,292,28,0.20337809076818,1
400,273,28,0.14014811342122,1
400,274,28,0.219371217976813,1
400,275,28,0.23870848088963,1
400,276,28,0.152650400488862,1
400,291,28,0.120047049998361,1
400,292,28,0.166927897213009,1
401,274,28,0.146927113815792,1
401,275,28,0.196336960859723,1
401,276,28,0.156948003152055,1
401,292,28,0.128736517371162,1
401,293,28,0.163182629629392,1
402,274,28,0.13294911460569,1
402,275,28,0.221096976567237,1
402,276,28,0.219196472818802,1
402,277,28,0.118470563201831,1
402,293,28,0.155022744428411,1
403,274,28,0.133585100774183,1
403,275,28,0.243866042184927,1
403,277,28,0.14935029849177,1
403,293,28,0.14644193043395,1
403,294,28,0.176556381328559,1
404,275,28,0.146304647491037,1
404,276,28,0.165289911615081,1
404,293,28,0.117669559567772,1
404,294,28,0.136768152486502,1
405,294,28,0.121984497779731,1
406,294,28,0.119080652038981,1
415,289,28,0.1437814418805,1
415,290,28,0.193757367608226,1
415,291,28,0.149717713199927,1
416,277,28,0.132469466351511,1
416,278,28,0.113935774429839,1
416,284,28,0.117438532760607,1
416,288,28,0.141574704249885,1
416,291,28,0.252367527200795,1
417,280,28,0.137378017563172,1
417,281,28,0.123420015473862,1
417,282,28,0.127945665396775,1
417,283,28,0.152984875298991,1
417,284,28,0.1494073103067,1
417,285,28,0.128282636902786,1
417,286,28,0.133965599581987,1
417,287,28,0.178631371143924,1
417,288,28,0.201664815657166,1
417,289,28,0.225861096277492,1
418,282,28,0.180725050847803,1
418,283,28,0.180428756641682,1
418,284,28,0.183846650866193,1
418,285,28,0.179706234051766,1
418,286,28,0.20042904541047,1
418,288,28,0.242068421149822,1
418,289,28,0.221387464777745,1
419,282,28,0.21113056701942,1
419,283,28,0.166292064143792,1
419,284,28,0.179321731109057,1
419,285,28,0.222154350827038,1
419,288,28,0.256806181404458,1
420,283,28,0.174741648505167,1
420,284,28,0.185769978183589,1
397,293,29,0.118660370973206,1
398,273,29,0.123971031544292,1
398,274,29,0.138112941194427,1
398,292,29,0.147189172668472,1
398,293,29,0.203034583100779,1
398,294,29,0.250840185271793,1
399,273,29,0.180080655996008,1
399,274,29,0.234874521717862,1
399,275,29,0.185080265946161,1
399,292,29,0.143724689156652,1
399,293,29,0.219173178175147,1
400,273,29,0.152809706173754,1
400,274,29,0.23594694681416,1
400,275,29,0.226169603095074,1
400,276,29,0.13405186513546,1
400,292,29,0.11408510510807,1
400,293,29,0.162890115797697,1
400,294,29,0.214848500493875,1
401,274,29,0.1516730971503,1
401,275,29,0.172360507245694,1
401,276,29,0.125620311158026,1
401,293,29,0.126681760213936,1
401,294,29,0.176630999560205,1
402,274,29,0.129866001389859,1
402,275,29,0.168826716869411,1
402,276,29,0.141874260648267,1
402,294,29,0.157316701538756,1
403,274,29,0.117868659287501,1
403,275,29,0.163226569121544,1
403,276,29,0.14744430672314,1
403,294,29,0.127029071809496,1
415,290,29,0.121689310599143,1
415,291,29,0.120024520851085,1
416,276,29,0.164011191133093,1
416,277,29,0.155512403019853,1
416,278,29,0.114966061894693,1
416,289,29,0.131298822181362,1
416,290,29,0.201324864603711,1
416,291,29,0.191813736971487,1
417,279,29,0.149031510468976,1
417,280,29,0.114116914426832,1
417,288,29,0.121464466647346,1
417,289,29,0.167475050470943,1
417,290,29,0.24636756658264,1
417,291,29,0.232215045975006,1
418,280,29,0.184930252209623,1
418,281,29,0.14499875777603,1
418,282,29,0.125834391053048,1
418,283,29,0.118076049921858,1
418,284,29,0.117857188618685,1
418,285,29,0.11897696849867,1
418,286,29,0.13245389733285,1
418,287,29,0.15361653935716,1
418,288,29,0.183081684446282,1
419,281,29,0.18323684467386,1
419,282,29,0.149799703750546,1
419,283,29,0.12688329774521,1
419,284,29,0.132780198997025,1
419,285,29,0.156198911949356,1
419,286,29,0.202117777529888,1
420,280,29,0.199907589277134,1
420,281,29,0.187165419198065,1
420,282,29,0.162497828345657,1
420,283,29,0.138619652689818,1
420,284,29,0.164824301386806,1
420,285,29,0.219906829904726,1
421,282,29,0.194053673591213,1
421,283,29,0.167083846490701,1
421,284,29,0.21062246585368,1
397,293,30,0.119461892789429,1
398,273,30,0.116332755575923,1
398,274,30,0.126962438293926,1
398,293,30,0.166676425764093,1
398,294,30,0.255320647354614,1
399,273,30,0.16856890946585,1
399,274,30,0.22076526932094,1
399,275,30,0.157637703612615,1
399,293,30,0.152571895890985,1
399,294,30,0.235903843479591,1
399,295,30,0.287869624048476,1
400,273,30,0.143034446960193,1
400,274,30,0.212526855968347,1
400,275,30,0.178568152919891,1
400,293,30,0.121920561166788,1
400,294,30,0.169335748407673,1
400,295,30,0.195545366942691,1
401,274,30,0.137715118614724,1
401,275,30,0.134354000667795,1
401,294,30,0.148661940594089,1
401,295,30,0.193846377171796,1
402,275,30,0.118372509004122,1
402,294,30,0.122363241834297,1
404,295,30,0.128882150113039,1
405,295,30,0.119826410388215,1
406,295,30,0.118666918911463,1
416,275,30,0.118934654214215,1
416,276,30,0.178777156985077,1
416,277,30,0.156285224610299,1
416,291,30,0.125932904548584,1
417,276,30,0.314002563400059,1
417,277,30,0.26259269807843,1
417,278,30,0.166247076510444,1
417,279,30,0.118293580439019,1
417,290,30,0.182393762292694,1
417,292,30,0.16973458379797,1
418,279,30,0.19268032597992,1
418,280,30,0.137585596627407,1
418,288,30,0.12420764058659,1
418,289,30,0.20118408393119,1
419,280,30,0.160899660336302,1
419,281,30,0.115032789625202,1
419,286,30,0.126851865286204,1
419,287,30,0.16470368271122,1
419,288,30,0.231203248191921,1
420,279,30,0.209315728204222,1
420,280,30,0.146797309183658,1
420,281,30,0.121956963463824,1
420,282,30,0.117034468441199,1
420,283,30,0.115840576734864,1
420,284,30,0.139195517950395,1
420,285,30,0.177866628484492,1
420,286,30,0.208750838984031,1
421,280,30,0.143466151587314,1
421,282,30,0.137287500560579,1
421,283,30,0.132321643112304,1
421,284,30,0.180281227824159,1
421,285,30,0.241385150858845,1
421,286,30,0.251566488236134,1
421,287,30,0.225294416973462,1
397,293,31,0.118513690090134,1
397,294,31,0.176703651055,1
398,293,31,0.140591312270893,1
398,294,31,0.249694578721669,1
398,295,31,0.303036980870976,1
399,273,31,0.140405579295626,1
399,274,31,0.181881138809884,1
399,275,31,0.126057174053055,1
399,293,31,0.114830757465498,1
399,294,31,0.18904386487392,1
399,295,31,0.242962944887652,1
400,273,31,0.120562865012227,1
400,274,31,0.167496602138227,1
400,275,31,0.129300264235218,1
400,294,31,0.143178148295821,1
400,295,31,0.158423432649697,1
401,294,31,0.13196441539442,1
401,295,31,0.155304847509353,1
403,295,31,0.154110991133621,1
416,275,31,0.129865671637572,1
416,276,31,0.172635014247183,1
416,277,31,0.138395633118737,1
417,275,31,0.194802576364034,1
417,276,31,0.270192098607616,1
417,277,31,0.214055705336372,1
417,278,31,0.133428986620348,1
417,290,31,0.13921416073144,1
418,276,31,0.236958485506162,1
418,277,31,0.210451300863348,1
418,278,31,0.167725002703969,1
418,279,31,0.13419547225615,1
418,289,31,0.160348856249484,1
419,277,31,0.209573123417425,1
419,278,31,0.196504486798037,1
419,279,31,0.159228334426855,1
419,280,31,0.115781150662124,1
419,287,31,0.117294748986907,1
419,288,31,0.177162371815865,1
419,289,31,0.227818034774357,1
420,278,31,0.228460298013158,1
420,279,31,0.17008887907588,1
420,280,31,0.115747221507236,1
420,284,31,0.120363541532018,1
420,285,31,0.134820635483532,1
420,286,31,0.145101169414665,1
420,287,31,0.173719534186267,1
420,288,31,0.228343424381394,1
420,289,31,0.222068309034044,1
421,280,31,0.120567210676286,1
421,283,31,0.117063227551312,1
421,284,31,0.152954467427446,1
421,285,31,0.200411309448213,1
421,286,31,0.203529564836271,1
421,287,31,0.17539625390097,1
421,288,31,0.176964108253719,1
422,284,31,0.182901851681567,1
422,285,31,0.25304382558629,1
422,286,31,0.257568969103907,1
397,294,32,0.178178385717467,1
398,293,32,0.116148989337507,1
398,294,32,0.224831774515763,1
398,295,32,0.287703169805092,1
399,274,32,0.124365344617519,1
399,294,32,0.152942019278638,1
399,295,32,0.194522616672954,1
400,274,32,0.114143329940339,1
400,294,32,0.120713585360807,1
400,295,32,0.127463755984062,1
401,294,32,0.114364782154334,1
401,295,32,0.128863625100669,1
402,295,32,0.150620692728529,1
403,295,32,0.134368132908637,1
416,275,32,0.128394693795796,1
416,276,32,0.142982923165456,1
416,292,32,0.116776908351853,1
417,275,32,0.169297155613307,1
417,276,32,0.200180859707549,1
417,277,32,0.155187620571568,1
417,291,32,0.171166591985625,1
418,276,32,0.182717202178099,1
418,277,32,0.158866266416482,1
418,278,32,0.120539311277491,1
418,289,32,0.114477498551916,1
418,290,32,0.193612994991157,1
419,277,32,0.15728208932556,1
419,278,32,0.1425433633678,1
419,288,32,0.116907454926631,1
419,289,32,0.15804048425348,1
419,290,32,0.211961236582379,1
420,278,32,0.177302587198752,1
420,279,32,0.134889706810647,1
420,287,32,0.114426940460304,1
420,288,32,0.151915359088934,1
420,289,32,0.160139828630563,1
421,279,32,0.137628146449209,1
421,284,32,0.124611598914192,1
421,285,32,0.149345458199281,1
421,286,32,0.150857796399256,1
421,287,32,0.136280236871431,1
421,288,32,0.139510525598764,1
422,284,32,0.146965765494495,1
422,285,32,0.21566303574854,1
422,287,32,0.170848757889088,1
397,294,33,0.155609055770345,1
398,294,33,0.183780111565562,1
398,295,33,0.249707651044448,1
399,294,33,0.122461237147669,1
399,295,33,0.155693660785519,1
402,295,33,0.126243154342536,1
403,295,33,0.126332116798637,1
416,275,33,0.114495941126215,1
416,292,33,0.119939432984349,1
416,293,33,0.126031206060508,1
417,275,33,0.134791770381612,1
417,276,33,0.135726076377413,1
417,291,33,0.14678772281362,1
418,275,33,0.127223237021798,1
418,276,33,0.139944797582972,1
418,277,33,0.121365364308442,1
418,290,33,0.126138257784886,1
419,276,33,0.121573049364483,1
419,277,33,0.120392595063816,1
419,290,33,0.147379557506349,1
420,289,33,0.118921134370477,1
421,285,33,0.114657613961448,1
421,286,33,0.114907095119779,1
421,287,33,0.113939024845233,1
422,283,33,0.116057176879503,1
422,284,33,0.129545705928042,1
422,285,33,0.179106591295972,1
422,286,33,0.202704336186036,1
397,294,34,0.128346491077657,1
398,294,34,0.14008725057066,1
398,295,34,0.206269712120601,1
399,295,34,0.126158408004953,1
403,295,34,0.129274955747243,1
404,295,34,0.13881556087849,1
417,291,34,0.116692797965108,1
419,291,34,0.159933639236678,1
422,285,34,0.141228134596969,1
422,286,34,0.174939770744905,1
422,287,34,0.174726762544813,1
391,275,35,0.140185952496074,1
392,274,35,0.12069997130213,1
397,294,35,0.118712754479261,1
398,294,35,0.114315366418856,1
398,295,35,0.18051236062313,1
403,295,35,0.143007089297296,1
404,294,35,0.120368841122334,1
404,295,35,0.196257914525946,1
404,296,35,0.169929879589539,1
405,295,35,0.141785910589269,1
416,293,35,0.118959880264118,1
417,292,35,0.185471222612188,1
418,291,35,0.119528008122835,1
419,291,35,0.121655899626419,1
422,285,35,0.114862449015586,1
422,286,35,0.153226171534501,1
422,287,35,0.173829647896162,1
422,288,35,0.129554244156884,1
423,285,35,0.186048112460227,1
391,275,36,0.121604905790714,1
397,294,36,0.11727723678513,1
403,295,36,0.151280197301157,1
404,294,36,0.135753068957421,1
404,295,36,0.246281053714952,1
404,296,36,0.199471562539688,1
405,295,36,0.17707875605755,1
417,292,36,0.155539077624442,1
419,292,36,0.176468655443532,1
422,286,36,0.129867343952739,1
422,287,36,0.155748576318058,1
422,288,36,0.12050937448064,1
423,285,36,0.166144229127717,1
397,294,37,0.115716036362444,1
403,295,37,0.148609886840321,1
404,294,37,0.140037493306029,1
404,295,37,0.278015448046679,1
404,296,37,0.230022593684509,1
405,295,37,0.209642677596102,1
405,296,37,0.176113041156477,1
417,292,37,0.125360890323636,1
417,293,37,0.218112953913444,1
417,294,37,0.203131341843078,1
418,292,37,0.174715692289487,1
419,292,37,0.138621960955822,1
422,287,37,0.125352269656722,1
423,285,37,0.157879682906433,1
423,288,37,0.210046883237919,1
403,295,38,0.125252060292285,1
404,294,38,0.125107887881962,1
404,295,38,0.253846984387077,1
404,296,38,0.220569043156849,1
405,295,38,0.206506992444339,1
405,296,38,0.189679968811087,1
417,293,38,0.173535650179178,1
418,292,38,0.128801254811086,1
418,293,38,0.228088596525278,1
423,284,38,0.115068756178145,1
423,285,38,0.15147869640065,1
423,288,38,0.212496660080414,1
423,289,38,0.134975560173762,1
424,284,38,0.116954362189359,1
398,295,39,0.126014188487161,1
404,295,39,0.194243057395364,1
404,296,39,0.175896111259552,1
405,295,39,0.181798700738306,1
405,296,39,0.179507534745527,1
417,293,39,0.129158647405113,1
417,294,39,0.133973678513002,1
418,293,39,0.150178271152102,1
423,284,39,0.114979793722044,1
423,285,39,0.140935644319009,1
423,286,39,0.164767030480794,1
423,289,39,0.16719890648489,1
424,284,39,0.133192683776602,1
424,285,39,0.199593476670685,1
425,285,39,0.181843134858887,1
404,295,40,0.127129728694893,1
404,296,40,0.118614193876255,1
405,295,40,0.145532579620103,1
405,296,40,0.150012853273046,1
419,293,40,0.121658655413383,1
420,292,40,0.134410129217673,1
420,293,40,0.172208267681223,1
421,291,40,0.117473568941028,1
421,292,40,0.183821365931953,1
422,291,40,0.152134043739097,1
423,285,40,0.125826535882513,1
423,286,40,0.128785780007364,1
423,287,40,0.14595257804106,1
423,288,40,0.180716265304746,1
423,289,40,0.192634313759112,1
423,290,40,0.156935590333849,1
424,284,40,0.15796539494714,1
424,285,40,0.188597674699935,1
424,286,40,0.222195334325479,1
424,289,40,0.25421795570918,1
425,285,40,0.171443536798659,1
397,295,41,0.132459514898585,1
405,296,41,0.115077753704814,1
406,296,41,0.11821051819347,1
419,293,41,0.121234959056072,1
420,292,41,0.158442746712181,1
420,293,41,0.224637197113104,1
421,291,41,0.126813790674002,1
421,292,41,0.24511198764503,1
421,293,41,0.253341686115771,1
422,290,41,0.122656474054902,1
422,291,41,0.186920377918732,1
422,292,41,0.242448413552329,1
423,287,41,0.114675444138644,1
423,288,41,0.147824322679382,1
423,289,41,0.198214429055586,1
423,290,41,0.213460596674514,1
423,291,41,0.190625486384622,1
424,283,41,0.121845153885028,1
424,284,41,0.17485342275336,1
424,285,41,0.170278569078582,1
424,286,41,0.174024625712312,1
424,289,41,0.278240880841844,1
424,290,41,0.236708391950728,1
425,283,41,0.120518972627545,1
425,284,41,0.170610311655481,1
425,285,41,0.170133030551644,1
389,285,42,0.129840869554895,1
389,286,42,0.120563218318248,1
390,286,42,0.114453155767066,1
397,295,42,0.139464972675783,1
419,293,42,0.114467806190072,1
420,292,42,0.155833864391539,1
420,293,42,0.237318834093899,1
421,291,42,0.120737221533616,1
421,292,42,0.253681071879592,1
421,293,42,0.287577534184006,1
422,290,42,0.139260867787422,1
422,291,42,0.200640675717079,1
422,292,42,0.253624071841529,1
423,288,42,0.12641234081915,1
423,289,42,0.200892630017558,1
423,291,42,0.261849059565322,1
424,283,42,0.127798890298763,1
424,284,42,0.171316758821439,1
424,285,42,0.143312557683096,1
424,286,42,0.13756897946755,1
424,287,42,0.187118782803286,1
425,283,42,0.137474988289083,1
425,284,42,0.182445757162125,1
425,285,42,0.166565464119748,1
425,286,42,0.189312436334255,1
426,285,42,0.180772064102337,1
389,285,43,0.164287464664687,1
389,286,43,0.162373747271064,1
390,285,43,0.124570097233586,1
390,286,43,0.141680378080781,1
396,295,43,0.161352563324687,1
397,295,43,0.1573364631222,1
420,292,43,0.136924843706838,1
420,293,43,0.208954037053605,1
421,292,43,0.222755654121131,1
422,291,43,0.20156289864696,1
422,292,43,0.224414637873576,1
424,283,43,0.122944665776273,1
424,284,43,0.146183286872806,1
424,285,43,0.115566446593131,1
424,287,43,0.150462376300496,1
425,282,43,0.136638277193164,1
425,283,43,0.166395512146755,1
425,284,43,0.182356806482892,1
425,285,43,0.166468281410224,1
425,286,43,0.190559064852665,1
426,285,43,0.207269238407888,1
387,282,44,0.116586700166987,1
388,285,44,0.119846819699364,1
389,285,44,0.177045392192295,1
389,286,44,0.190090816606099,1
389,287,44,0.115448336390294,1
390,285,44,0.121364068853031,1
390,286,44,0.154520307935875,1
390,287,44,0.121113939966995,1
396,294,44,0.118602640769367,1
396,295,44,0.189164189127822,1
396,296,44,0.182774732175193,1
397,295,44,0.171288871199511,1
414,270,44,0.121012058287391,1
414,271,44,0.117604492375562,1
421,291,44,0.114088473292138,1
421,292,44,0.179325181731196,1
424,283,44,0.114966226770836,1
424,284,44,0.115021330733252,1
424,287,44,0.121137175726312,1
425,281,44,0.115715671279556,1
425,282,44,0.192554513705824,1
425,284,44,0.177710349454514,1
425,285,44,0.163401997337863,1
386,282,45,0.177995220099287,1
387,282,45,0.122359249476259,1
388,285,45,0.119011086083436,1
389,285,45,0.152856436783472,1
389,286,45,0.176040896066979,1
389,287,45,0.122423162535467,1
390,286,45,0.13645857397399,1
390,287,45,0.12389138459028,1
392,290,45,0.119399675599122,1
396,294,45,0.128292223272823,1
396,295,45,0.208594583507788,1
397,295,45,0.172862696424015,1
414,270,45,0.115199302752923,1
414,271,45,0.121527131358613,1
421,291,45,0.124380901859313,1
421,292,45,0.139364586658336,1
422,289,45,0.154393895041543,1
423,288,45,0.11532081647043,1
424,282,45,0.115124637413807,1
424,288,45,0.16709933307129,1
425,281,45,0.133150746351903,1
425,284,45,0.178990942458414,1
425,285,45,0.154507553588515,1
385,282,46,0.173545837169452,1
386,281,46,0.15314535867062,1
386,282,46,0.195495350586978,1
386,283,46,0.152057235010121,1
387,282,46,0.114461529119765,1
389,286,46,0.135143333426292,1
396,294,46,0.131722836514092,1
401,295,46,0.119848574452602,1
421,290,46,0.141925242707104,1
421,291,46,0.133785472395588,1
422,289,46,0.231285804032173,1
423,288,46,0.134865152042184,1
424,282,46,0.131655355064072,1
424,283,46,0.11783411773551,1
424,288,46,0.146710101480795,1
424,289,46,0.228295892944695,1
425,285,46,0.151733995331461,1
385,281,47,0.160486881135041,1
385,282,47,0.184385878292388,1
385,283,47,0.133135401093722,1
386,281,47,0.156360773214467,1
386,282,47,0.18523824084504,1
386,283,47,0.14828415046578,1
394,270,47,0.114422912771664,1
401,295,47,0.137059029333633,1
402,295,47,0.129694318217363,1
408,270,47,0.115804091999757,1
409,270,47,0.119304836486205,1
421,289,47,0.139977466613052,1
421,291,47,0.131995965622099,1
422,288,47,0.151035203129293,1
423,288,47,0.151466024491362,1
424,282,47,0.136530742617223,1
424,283,47,0.125304714666289,1
424,288,47,0.133717743631353,1
425,285,47,0.145269802378513,1
425,286,47,0.138208310266376,1
384,281,48,0.136189025033663,1
384,282,48,0.129922777667442,1
385,280,48,0.115022143337101,1
385,281,48,0.182545377683194,1
385,282,48,0.1877355255705,1
385,283,48,0.128084420448109,1
386,281,48,0.145449599812625,1
386,282,48,0.154992313003131,1
386,283,48,0.123920343907139,1
394,269,48,0.115647648093636,1
401,295,48,0.146528148879954,1
402,295,48,0.166816735361919,1
402,296,48,0.325811416740186,1
403,295,48,0.126602796318231,1
408,269,48,0.123815506233826,1
408,270,48,0.128799193859296,1
409,269,48,0.132149889278604,1
409,270,48,0.133473797600685,1
421,289,48,0.17422834196405,1
421,290,48,0.173484515021065,1
421,291,48,0.127375252825789,1
422,288,48,0.174757040870817,1
422,289,48,0.330378509459368,1
423,288,48,0.148507663631564,1
423,289,48,0.271714258714976,1
424,282,48,0.131850686186243,1
424,283,48,0.132853298012781,1
384,281,49,0.174081437320497,1
384,282,49,0.161024754221489,1
385,280,49,0.121859651208759,1
385,281,49,0.193779378573337,1
385,282,49,0.184018969989527,1
385,283,49,0.11410569107223,1
386,281,49,0.125400931672688,1
386,282,49,0.121486583604264,1
401,295,49,0.139902035777558,1
401,296,49,0.284590143346145,1
402,295,49,0.189846258178328,1
402,296,49,0.370724738054205,4
403,295,49,0.172950316317236,1
404,295,49,0.127740512367218,1
408,268,49,0.125567079717521,1
408,269,49,0.122225947114517,1
408,270,49,0.121216398713099,1
409,268,49,0.162547185196798,1
409,269,49,0.141309677626628,1
409,270,49,0.127890796971706,1
421,288,49,0.117806053460571,1
421,289,49,0.210049521256209,1
421,290,49,0.188464431222529,1
422,288,49,0.176578474731742,1
422,289,49,0.316420212948374,1
423,288,49,0.134746076136223,1
384,281,50,0.183053667278813,1
384,282,50,0.173386837683111,1
385,281,50,0.178589716364042,1
385,282,50,0.16630938791569,1
401,295,50,0.132706840890188,1
401,296,50,0.254672589897068,4
402,295,50,0.195150406141759,4
402,296,50,0.34986924850773,4
402,297,50,0.288306451612903,4
403,295,50,0.220248783025634,1
403,296,50,0.316447134867178,4
404,295,50,0.158298550748123,1
408,268,50,0.137030647083275,1
409,267,50,0.168379431446761,1
409,268,50,0.188517968861586,1
409,269,50,0.131017755464749,1
410,268,50,0.12946466930368,1
420,290,50,0.115951585486679,1
421,288,50,0.122651539547474,1
421,289,50,0.216035396740992,1
421,290,50,0.18630009031444,1
422,288,50,0.149277293690953,1
422,289,50,0.255820575374401,1
384,281,51,0.164071217826069,1
384,282,51,0.170288320324763,1
385,281,51,0.149142413228983,1
385,282,51,0.147920751669395,1
401,295,51,0.127977345169996,1
402,295,51,0.180971988202782,1
402,296,51,0.285394950908364,4
403,294,51,0.115112460132949,1
403,295,51,0.237318575002817,1
403,296,51,0.335598417490514,1
404,295,51,0.172186032955632,1
408,268,51,0.127431534474942,1
409,268,51,0.181080146952693,1
410,268,51,0.131606693048106,1
420,289,51,0.138783139162625,1
420,290,51,0.14036680984825,1
421,288,51,0.122704982971592,1
421,289,51,0.207072093648142,1
422,288,51,0.117349829395589,1
384,281,52,0.129243770602452,1
384,282,52,0.147925462416342,1
385,282,52,0.120992520464427,1
398,295,52,0.12541014118297,1
399,295,52,0.121713064540625,1
400,295,52,0.11457495212939,1
401,295,52,0.119871892649991,1
402,295,52,0.157166758463422,1
402,296,52,0.220131815178931,1
403,294,52,0.115827009783656,1
403,295,52,0.214714102883467,1
409,268,52,0.154331312768348,1
410,268,52,0.136528198813872,1
417,292,52,0.163079794023532,1
418,291,52,0.137973373539244,1
418,292,52,0.196890249865555,1
419,290,52,0.122862792994328,1
419,291,52,0.142910554315478,1
420,289,52,0.182588481017763,1
420,290,52,0.170524187424416,1
421,288,52,0.127232034341722,1
421,289,52,0.203265197717587,1
384,282,53,0.122819077262657,1
394,294,53,0.135679016015409,1
395,294,53,0.11654837824057,1
395,295,53,0.131038671181195,1
397,295,53,0.116584156363635,1
398,295,53,0.144531675439334,1
399,295,53,0.141706357850196,1
400,295,53,0.125700782492754,1
401,295,53,0.117553027465162,1
402,295,53,0.137967967957122,1
403,294,53,0.119216733741422,1
403,295,53,0.18010714217072,1
409,268,53,0.125759207531768,1
410,268,53,0.150782789530987,1
411,293,53,0.120517441634787,1
417,292,53,0.191170508029562,1
418,291,53,0.15606633975339,1
418,292,53,0.234191369195559,1
419,289,53,0.126983106696157,1
419,290,53,0.1479068549659,1
419,291,53,0.158211849450557,1
420,288,53,0.131998356326175,1
420,289,53,0.230354960435379,1
420,290,53,0.209626331304195,1
421,288,53,0.134848475997991,1
421,289,53,0.210664085302959,1
393,294,54,0.164406940984139,1
394,294,54,0.153991408822362,1
394,295,54,0.163727568836261,1
395,295,54,0.12291518827725,1
396,295,54,0.114559547986872,1
397,295,54,0.131159914030753,1
398,295,54,0.156608417181488,1
399,295,54,0.160997561434735,1
400,295,54,0.139982412897347,1
401,295,54,0.123457666118838,1
402,294,54,0.117610522131654,1
402,295,54,0.131586637042977,1
403,294,54,0.127916564757508,1
403,295,54,0.154889995579435,1
403,296,54,0.207591736143903,1
404,294,54,0.120779794909152,1
404,295,54,0.161220038236191,1
405,294,54,0.117296645062553,1
409,268,54,0.114628266007966,1
410,268,54,0.171631036304031,1
410,269,54,0.120926652445236,1
410,293,54,0.118063448673774,1
411,269,54,0.122491315266928,1
411,292,54,0.114415669998233,1
411,293,54,0.140428108442902,1
412,293,54,0.11413634625799,1
418,291,54,0.150701116955787,1
419,289,54,0.148688391438199,1
419,290,54,0.163483811235471,1
419,291,54,0.157150847915608,1
420,288,54,0.141764076277168,1
420,289,54,0.256903034361696,1
420,290,54,0.235204415326585,1
421,288,54,0.130850853700405,1
421,289,54,0.202705160566752,1
392,294,55,0.135742375561851,1
393,293,55,0.11695968533341,1
393,294,55,0.217115241263731,1
393,295,55,0.22753421227078,1
394,294,55,0.16522207685904,1
394,295,55,0.175392614848953,1
395,295,55,0.12015338333383,1
396,295,55,0.136006200944637,1
397,295,55,0.150204038937904,1
398,295,55,0.164322076877883,1
398,296,55,0.206111666560518,1
399,268,55,0.116976326047001,1
399,295,55,0.1791893002355,1
399,296,55,0.21904405660132,1
400,268,55,0.130764882568616,1
400,295,55,0.156869168801891,1
401,295,55,0.141081100407875,1
402,294,55,0.135549882664715,1
402,295,55,0.148546444855808,1
402,296,55,0.140001197000799,1
403,294,55,0.143619074210093,1
403,295,55,0.156089940595597,1
403,296,55,0.171400657224571,1
404,294,55,0.151012732866354,1
404,295,55,0.163218690397274,1
404,296,55,0.193085909515219,1
405,294,55,0.160117181714614,1
405,295,55,0.173479474521831,1
406,294,55,0.132249804221357,1
406,295,55,0.147374281469768,1
409,268,55,0.117342621952759,1
410,268,55,0.18919637530634,1
410,269,55,0.150270260263116,1
411,269,55,0.141188611430081,1
411,293,55,0.134240789641783,1
412,293,55,0.113917673384694,1
419,289,55,0.153482542160243,1
419,290,55,0.163791682102214,1
419,291,55,0.142670294444296,1
420,288,55,0.128194498827401,1
420,289,55,0.236399649595799,1
420,290,55,0.224812484007014,1
421,289,55,0.174487703914103,1
382,281,56,0.133806729641188,1
382,282,56,0.12786200253099,1
383,281,56,0.122942345733401,1
383,282,56,0.120149555851935,1
392,294,56,0.166552768656725,1
393,293,56,0.11666911468483,1
393,294,56,0.234727310875758,1
393,295,56,0.248425998122485,1
394,294,56,0.159511509202727,1
394,295,56,0.177239522073995,1
395,295,56,0.125149472000639,1
396,294,56,0.114965072637834,1
396,295,56,0.153307549688017,1
396,296,56,0.18949915856638,1
397,294,56,0.125825676171195,1
397,295,56,0.165518889247324,1
397,296,56,0.197030111942422,1
398,268,56,0.143612231850152,1
398,269,56,0.117694455865389,1
398,295,56,0.164400204616004,1
398,296,56,0.194142365179365,1
399,268,56,0.164405080239095,1
399,269,56,0.122322223005253,1
399,295,56,0.185319136146993,1
399,296,56,0.219919101400524,1
400,267,56,0.120321698322258,1
400,268,56,0.153865502333327,1
400,295,56,0.163906588997127,1
400,296,56,0.177819568122488,1
401,268,56,0.118860848586418,1
401,294,56,0.131707715016392,1
401,295,56,0.156051147594485,1
401,296,56,0.147070296969256,1
402,294,56,0.151459841635993,1
402,295,56,0.18431239064001,1
402,296,56,0.17626263092579,1
403,266,56,0.125479966229597,1
403,267,56,0.114483834506561,1
403,294,56,0.157689533605903,1
403,295,56,0.180018709673651,1
403,296,56,0.172999437631029,1
404,267,56,0.114478040287815,1
404,293,56,0.114890737051005,1
404,294,56,0.182602825242217,1
404,295,56,0.178705659623283,1
404,296,56,0.156606850858129,1
405,293,56,0.127026963750237,1
405,294,56,0.203773817065491,1
405,295,56,0.195987034799607,1
405,296,56,0.155289561135509,1
406,294,56,0.160168988154167,1
406,295,56,0.170764541510537,1
406,296,56,0.13926580229485,1
407,295,56,0.115468086196871,1
409,268,56,0.131997178639438,1
410,268,56,0.186699926738463,1
410,269,56,0.173004690113876,1
411,269,56,0.148214348972888,1
419,289,56,0.145721810324977,1
419,290,56,0.162754246078868,1
419,291,56,0.129766086447106,1
420,289,56,0.188881921170737,1
420,290,56,0.200676548055083,1
421,289,56,0.140221047560832,1
382,280,57,0.125161248868008,1
382,281,57,0.169277017170107,1
382,282,57,0.160342826493392,1
383,280,57,0.118299044905478,1
383,281,57,0.14457335377295,1
383,282,57,0.129159024264869,1
391,294,57,0.129678631430028,1
392,293,57,0.118120554703643,1
392,294,57,0.20364825210561,1
392,295,57,0.191209689667297,1
393,294,57,0.216195844782019,1
393,295,57,0.229292427907671,1
394,294,57,0.148569468631513,1
394,295,57,0.174424780111754,1
394,296,57,0.130739609411243,1
395,294,57,0.11441075904454,1
395,295,57,0.144641259190196,1
395,296,57,0.142088540750034,1
396,294,57,0.130049002131896,1
396,295,57,0.167479631672349,1
396,296,57,0.190305084930999,1
397,293,57,0.125464715186355,1
397,294,57,0.15181750509797,1
397,295,57,0.174069424915781,1
397,296,57,0.191327116811827,1
398,267,57,0.119226873624226,1
398,268,57,0.173038136417202,1
398,269,57,0.125403275269295,1
398,293,57,0.131259193022668,1
398,294,57,0.141319004905583,1
398,295,57,0.159406765744353,1
399,267,57,0.141240241216624,1
399,268,57,0.209585606896835,1
399,269,57,0.146588705531962,1
399,293,57,0.116720909347516,1
399,294,57,0.133192236255642,1
399,295,57,0.181763181706323,1
400,267,57,0.123222116994604,1
400,268,57,0.157992505295822,1
400,293,57,0.123878418259307,1
400,294,57,0.138607758053776,1
400,295,57,0.174769347697217,1
401,267,57,0.118023595754599,1
401,293,57,0.140212297348377,1
401,294,57,0.154109483694597,1
401,295,57,0.173594746499632,1
401,296,57,0.164540997065393,1
402,266,57,0.115479910171709,1
402,267,57,0.131648076960038,1
402,293,57,0.127003539561041,1
402,294,57,0.166639316855015,1
402,295,57,0.213986951984675,1
402,296,57,0.216313660563172,1
403,267,57,0.118548608501881,1
403,294,57,0.170077903035492,1
403,295,57,0.206933691902829,1
403,296,57,0.192152639883746,1
404,293,57,0.125371454173665,1
404,294,57,0.202368671912303,1
404,295,57,0.202299400378443,1
404,296,57,0.14594143712453,1
405,293,57,0.138837878042153,1
405,294,57,0.227130006628963,1
405,295,57,0.216656555833469,1
405,296,57,0.139001588275441,1
406,293,57,0.114998236296343,1
406,294,57,0.181524476381634,1
406,295,57,0.19221652938922,1
406,296,57,0.131664305483272,1
407,294,57,0.122132144365928,1
407,295,57,0.144038295357804,1
408,268,57,0.153359473896244,1
409,268,57,0.155808190820676,1
409,269,57,0.14073448364749,1
410,269,57,0.178886717182205,1
412,294,57,0.121211016684712,1
419,289,57,0.12968605085647,1
419,290,57,0.167901938359311,1
419,291,57,0.143601538454581,1
420,289,57,0.153118766504102,1
420,290,57,0.210756109744576,1
420,291,57,0.185641598552406,1
421,289,57,0.13231843980438,1
421,290,57,0.188051310492115,1
381,281,58,0.124848207956489,1
381,282,58,0.121932608902106,1
382,280,58,0.162684103056823,1
382,281,58,0.19766338943142,1
382,282,58,0.174697485252536,1
382,283,58,0.115953293132447,1
383,280,58,0.145252761251431,1
383,281,58,0.157867175873288,1
383,282,58,0.127484565708702,1
391,293,58,0.114094585486302,1
391,294,58,0.168869572889764,1
391,295,58,0.144220130189971,1
392,293,58,0.120036203503514,1
392,294,58,0.216288151868452,1
392,295,58,0.196783892976352,1
393,294,58,0.169073866208003,1
393,295,58,0.17737214137743,1
393,296,58,0.12218163076261,1
394,294,58,0.122088028220766,1
394,295,58,0.150987883676207,1
394,296,58,0.127849825250131,1
395,294,58,0.114793942978104,1
395,295,58,0.151302420249881,1
395,296,58,0.136717559064287,1
396,294,58,0.133335772715128,1
396,295,58,0.168774027164805,1
396,296,58,0.165374952374348,1
397,293,58,0.122959716612769,1
397,294,58,0.165405972642997,1
397,295,58,0.172048102285014,1
397,296,58,0.1638390015553,1
398,267,58,0.160290548979143,1
398,268,58,0.178556258283848,1
398,293,58,0.151293834913569,1
398,294,58,0.172105738273914,1
398,295,58,0.156210099973356,1
399,267,58,0.184922691460772,1
399,268,58,0.224281017536415,1
399,269,58,0.143237680360368,1
399,293,58,0.156195060913727,1
399,294,58,0.16755512139218,1
399,295,58,0.170840043007235,1
400,267,58,0.13055001362348,1
400,268,58,0.146460302347045,1
400,293,58,0.16557184981988,1
400,294,58,0.171425376869177,1
400,295,58,0.18691318225277,1
401,267,58,0.124844722003748,1
401,293,58,0.168656906218827,1
401,294,58,0.174942550085604,1
401,295,58,0.198049128945203,1
402,266,58,0.123145826447792,1
402,267,58,0.155553975361663,1
402,293,58,0.143816843143809,1
402,294,58,0.171066453282392,1
402,295,58,0.222291551331879,1
403,267,58,0.123101686748895,1
403,293,58,0.121907123761121,1
403,294,58,0.170522880192138,1
403,295,58,0.219311744796603,1
403,296,58,0.199717227992992,1
404,293,58,0.129247974944102,1
404,294,58,0.202412340536505,1
404,295,58,0.229975439107566,1
404,296,58,0.154160124224281,1
405,293,58,0.136925420773339,1
405,294,58,0.220695291175037,1
405,295,58,0.232505675507922,1
405,296,58,0.139796821244489,1
406,293,58,0.114653974909431,1
406,294,58,0.187715010267544,1
406,295,58,0.204895398806184,1
406,296,58,0.130276578316922,1
407,267,58,0.129295836133087,1
407,268,58,0.128445664077766,1
407,294,58,0.146683250223195,1
407,295,58,0.174428454494373,1
407,296,58,0.11620218544741,1
408,267,58,0.154490017833004,1
408,268,58,0.172011664657376,1
408,269,58,0.131168970441759,1
408,295,58,0.119481878133353,1
409,268,58,0.172558888576514,1
409,269,58,0.178101612319093,1
410,269,58,0.181588071465423,1
412,294,58,0.135679381098297,1
412,295,58,0.119600388749681,1
418,291,58,0.11456846307547,1
419,290,58,0.163096682051338,1
419,291,58,0.174512129137025,1
419,292,58,0.134975359967017,1
420,289,58,0.127924043068287,1
420,290,58,0.227909329050197,1
420,291,58,0.244411805772512,1
421,289,58,0.12929913365595,1
421,290,58,0.21793253230536,1
381,280,59,0.128184900680496,1
381,281,59,0.138483229458223,1
381,282,59,0.124442730412997,1
382,280,59,0.201345615444014,1
382,281,59,0.213993947443892,1
382,282,59,0.166019158796265,1
382,283,59,0.123955179880814,1
383,280,59,0.169839833661641,1
383,281,59,0.163539562925592,1
383,282,59,0.121911905169272,1
391,293,59,0.12092667599897,1
391,294,59,0.201435025421075,1
391,295,59,0.171478525871611,1
392,294,59,0.197813049861937,1
392,295,59,0.177736246785857,1
393,294,59,0.122713391654893,1
393,295,59,0.128236259599089,1
394,295,59,0.124607170812061,1
395,295,59,0.145321573487464,1
395,296,59,0.12201117238432,1
396,294,59,0.127881387254678,1
396,295,59,0.163544827185306,1
396,296,59,0.136545451924566,1
397,294,59,0.163802587481397,1
397,295,59,0.173233326216965,1
397,296,59,0.138084747373947,1
398,266,59,0.12858437202163,1
398,267,59,0.190843959051173,1
398,268,59,0.166238196752449,1
398,293,59,0.164375402533327,1
398,294,59,0.200391877617055,1
398,295,59,0.162073342938232,1
398,296,59,0.118778174977492,1
399,266,59,0.153368377207974,1
399,267,59,0.230477157211193,1
399,268,59,0.214062771456793,1
399,269,59,0.1223616166266,1
399,292,59,0.115754440726932,1
399,293,59,0.220741809801142,1
399,294,59,0.230923665360596,1
399,295,59,0.164556636745258,1
399,296,59,0.123543507705086,1
400,266,59,0.121062934354422,1
400,267,59,0.161890624841012,1
400,268,59,0.146214177595914,1
400,292,59,0.129702350040908,1
400,293,59,0.238023750267099,1
400,294,59,0.240250355472965,1
400,295,59,0.19532716514409,1
401,266,59,0.116314548538971,1
401,267,59,0.144921701732839,1
401,292,59,0.115583051976121,1
401,293,59,0.199187740036111,1
401,294,59,0.211833080711677,1
401,295,59,0.223889884217377,1
402,266,59,0.125790357345958,1
402,267,59,0.169963478992141,1
402,268,59,0.116226186703106,1
402,293,59,0.150673959499636,1
402,294,59,0.175911374079661,1
402,295,59,0.216326191150052,1
403,267,59,0.137352426430381,1
403,268,59,0.126721754455519,1
403,293,59,0.128213553798803,1
403,294,59,0.166689910277229,1
403,295,59,0.217610317214162,1
404,268,59,0.124627321032128,1
404,293,59,0.131537904365807,1
404,294,59,0.194225474532383,1
404,295,59,0.254811957345505,1
404,296,59,0.187295836227302,1
405,293,59,0.128720712815154,1
405,294,59,0.20049478388412,1
405,295,59,0.24530383281446,1
405,296,59,0.168806625533681,1
406,268,59,0.114725342725683,1
406,294,59,0.178216613428945,1
406,295,59,0.202257074317121,1
406,296,59,0.137762779596964,1
407,268,59,0.12716648429795,1
407,294,59,0.162218410390476,1
407,295,59,0.184518839124977,1
407,296,59,0.121599924175817,1
408,268,59,0.153333470573094,1
408,269,59,0.141376334695933,1
408,294,59,0.119251463723291,1
408,295,59,0.140302084185193,1
409,268,59,0.170695976588718,1
409,269,59,0.216385099040628,1
409,270,59,0.146332040484536,1
410,269,59,0.215801249063975,1
410,270,59,0.154011441273756,1
412,294,59,0.123001194739641,1
412,295,59,0.12542781826089,1
413,295,59,0.117696493263443,1
418,291,59,0.120185357528735,1
419,290,59,0.142856274733777,1
419,291,59,0.187844967998954,1
419,292,59,0.153527788884672,1
420,290,59,0.218633774095942,1
420,291,59,0.270528021972431,1
421,289,59,0.127164046486405,1
421,290,59,0.221643022799638,1
381,280,60,0.133705024614595,1
381,281,60,0.144584800888032,1
381,282,60,0.1229171550141,1
382,279,60,0.119576128402902,1
382,280,60,0.214062253274629,1
382,281,60,0.207063260997616,1
382,282,60,0.14934667121662,1
382,283,60,0.127757918577189,1
383,279,60,0.119858667227936,1
383,280,60,0.178424510468599,1
383,281,60,0.156445130915426,1
383,282,60,0.115081604740444,1
390,294,60,0.13328787619554,1
390,295,60,0.114527173378476,1
391,293,60,0.119442955586701,1
391,294,60,0.209585371359488,1
391,295,60,0.178479767530291,1
392,294,60,0.160038312033848,1
392,295,60,0.144716124736057,1
395,295,60,0.126372888313466,1
396,294,60,0.114689953239241,1
396,295,60,0.148657382946418,1
396,296,60,0.114034747223203,1
397,294,60,0.147277828926021,1
397,295,60,0.169756418110071,1
397,296,60,0.119549877765538,1
398,266,60,0.144062532150848,1
398,267,60,0.190832935903316,1
398,268,60,0.140207197964807,1
398,293,60,0.154853428406256,1
398,294,60,0.204088282977961,1
398,295,60,0.172561102627579,1
399,266,60,0.188963723291478,1
399,267,60,0.250396809769109,1
399,268,60,0.182994936041247,1
399,292,60,0.116342848351257,1
399,293,60,0.25462595350229,1
399,294,60,0.272294057449255,1
399,295,60,0.1666905344512,1
400,266,60,0.149796359120213,1
400,267,60,0.197584131114031,1
400,268,60,0.14682016808322,1
400,292,60,0.134106321370172,1
400,293,60,0.288515797207243,1
400,294,60,0.29703344008514,1
400,295,60,0.196888542219787,1
400,296,60,0.151547025785121,1
401,266,60,0.119962656966799,1
401,267,60,0.158005412742457,1
401,268,60,0.114035606934521,1
401,293,60,0.21133046756613,1
401,294,60,0.23985849198815,1
401,295,60,0.232691467367525,1
401,296,60,0.238405226554895,1
402,266,60,0.11611648518357,1
402,267,60,0.157433009880886,1
402,268,60,0.121388894489444,1
402,293,60,0.13976361047851,1
402,294,60,0.177352615331333,1
402,295,60,0.207262643362162,1
402,296,60,0.209064527623255,1
403,267,60,0.137619596443499,1
403,268,60,0.141160382278999,1
403,293,60,0.123759471898887,1
403,294,60,0.163580287332952,1
403,295,60,0.207134251954112,1
403,296,60,0.185337378514547,1
404,268,60,0.141155306449163,1
404,293,60,0.130057033955441,1
404,294,60,0.181194417896768,1
404,295,60,0.250223383620243,1
404,296,60,0.218264475089005,1
405,268,60,0.126140730927034,1
405,269,60,0.124384411365789,1
405,293,60,0.121148257758506,1
405,294,60,0.175795230613675,1
405,295,60,0.232458638699653,1
405,296,60,0.1961687518631,1
406,268,60,0.126154333208844,1
406,269,60,0.130828041908312,1
406,294,60,0.15711727206674,1
406,295,60,0.179291358568114,1
406,296,60,0.140664187526168,1
407,294,60,0.158240007940435,1
407,295,60,0.169525827046999,1
407,296,60,0.119341980725885,1
408,268,60,0.116945906398589,1
408,269,60,0.136068877432771,1
408,294,60,0.127282097804905,1
408,295,60,0.144882967616064,1
409,268,60,0.145722446275815,1
409,269,60,0.225010170502659,1
409,270,60,0.194985553552337,1
410,269,60,0.244492877727475,1
410,270,60,0.212332278565687,1
411,270,60,0.123262912063168,1
413,295,60,0.116426899853665,1
415,275,60,0.126637502746365,1
415,276,60,0.118080430916519,1
418,291,60,0.122454995407964,1
418,292,60,0.128908918932567,1
419,290,60,0.130961285385718,1
419,291,60,0.184217987271185,1
419,292,60,0.173110387498507,1
420,290,60,0.188619273474688,1
420,291,60,0.246289957026682,1
421,289,60,0.121088914123837,1
421,290,60,0.194127231904796,1
381,280,61,0.123007071396458,1
381,281,61,0.134914190917906,1
381,282,61,0.121277367555465,1
382,279,61,0.122377692050558,1
382,280,61,0.183746488609225,1
382,281,61,0.168510036905876,1
382,282,61,0.12977371785716,1
382,283,61,0.123215993023572,1
382,284,61,0.115415973558766,1
383,279,61,0.123323480492043,1
383,280,61,0.162859919909765,1
383,281,61,0.13533827591184,1
390,294,61,0.149675693337157,1
390,295,61,0.1418815387523,1
391,294,61,0.179472686994984,1
391,295,61,0.160398778390259,1
392,294,61,0.118317287273032,1
396,295,61,0.122256602300277,1
397,294,61,0.121424001331069,1
397,295,61,0.149918167259404,1
398,266,61,0.137577282159045,1
398,267,61,0.170652991022824,1
398,268,61,0.122831266320383,1
398,293,61,0.129930762383517,1
398,294,61,0.180902669561452,1
398,295,61,0.170301581077419,1
399,266,61,0.196679597038938,1
399,267,61,0.252539610786781,1
399,268,61,0.168255185496025,1
399,293,61,0.239160477059228,1
399,294,61,0.269891388076233,1
399,295,61,0.178367380884995,1
400,266,61,0.167140410784671,1
400,267,61,0.232592447466692,1
400,268,61,0.163549325948641,1
400,292,61,0.121134313947542,1
400,293,61,0.286788036549367,1
400,294,61,0.308608334178127,1
400,295,61,0.201935660052904,1
400,296,61,0.139733473474915,1
401,267,61,0.15886260381073,1
401,268,61,0.123488368412068,1
401,293,61,0.204506385323272,1
401,294,61,0.242525764017204,1
401,295,61,0.223580011283181,1
401,296,61,0.201435637818178,1
402,267,61,0.122472354510465,1
402,293,61,0.125518900553117,1
402,294,61,0.174983415815372,1
402,295,61,0.204161864845278,1
402,296,61,0.182059028391483,1
403,267,61,0.117418476755479,1
403,268,61,0.132852332309657,1
403,293,61,0.115284496611466,1
403,294,61,0.16453702826109,1
403,295,61,0.202333623955015,1
403,296,61,0.181134544303068,1
404,268,61,0.143787165438041,1
404,269,61,0.141235883775698,1
404,293,61,0.126780627015493,1
404,294,61,0.167998284911251,1
404,295,61,0.219460415970261,1
404,296,61,0.222901404631682,1
405,268,61,0.131231811806036,1
405,269,61,0.158839214952137,1
405,293,61,0.124523708153022,1
405,294,61,0.156890461378093,1
405,295,61,0.195202141920108,1
405,296,61,0.197443256226571,1
406,268,61,0.122892070286606,1
406,269,61,0.157482990905997,1
406,270,61,0.126987016616123,1
406,294,61,0.139625090964524,1
406,295,61,0.149490254783575,1
406,296,61,0.138291525611201,1
407,269,61,0.127219951275802,1
407,270,61,0.116832483388964,1
407,294,61,0.13533022053456,1
407,295,61,0.139801249346619,1
408,269,61,0.134034953553919,1
408,270,61,0.138832908204124,1
408,294,61,0.114059690628289,1
408,295,61,0.130244133047322,1
409,269,61,0.211876961319492,1
409,270,61,0.230183913213721,1
409,271,61,0.12539922402692,1
410,269,61,0.24270460752506,1
410,270,61,0.254137731688667,1
410,271,61,0.127862862242308,1
411,270,61,0.136377537349628,1
415,275,61,0.127709350776162,1
415,276,61,0.130577335955775,1
416,276,61,0.123644588557709,1
416,277,61,0.114676456949237,1
418,290,61,0.129149155250014,1
418,291,61,0.139488655956061,1
418,292,61,0.141020696855143,1
419,290,61,0.136694464627378,1
419,291,61,0.173941928549651,1
419,292,61,0.173605428118335,1
420,290,61,0.150551715616352,1
420,291,61,0.184820562466954,1
421,285,61,0.120133256667497,1
381,281,62,0.114296841406486,1
381,282,62,0.117696245949229,1
381,283,62,0.123464708685524,1
382,279,62,0.116485831297977,1
382,280,62,0.13363254977281,1
382,281,62,0.118758978683682,1
382,283,62,0.117261114253703,1
382,284,62,0.114793931201237,1
383,279,62,0.117130155488567,1
383,280,62,0.13166494143411,1
384,280,62,0.115574407755472,1
389,294,62,0.13537904742667,1
389,295,62,0.150091310763454,1
390,294,62,0.152995851339378,1
390,295,62,0.168483668499838,1
391,294,62,0.131101865851494,1
391,295,62,0.132574150925549,1
397,295,62,0.11443268757158,1
398,266,62,0.121705244700692,1
398,267,62,0.149433478505992,1
398,294,62,0.145432558685543,1
398,295,62,0.1502481786368,1
399,266,62,0.178166950379253,1
399,267,62,0.242449591239066,1
399,268,62,0.167854501137551,1
399,293,62,0.188941147036733,1
399,294,62,0.229611816550701,1
399,295,62,0.185025915703256,1
399,296,62,0.118505505167313,1
400,266,62,0.168359210565489,1
400,267,62,0.255777118733812,1
400,268,62,0.194294322099018,1
400,293,62,0.240847725293357,1
400,294,62,0.273892578764631,1
400,295,62,0.202290449959243,1
400,296,62,0.135436801184244,1
401,267,62,0.158528435199153,1
401,268,62,0.143975501100996,1
401,293,62,0.184372817746477,1
401,294,62,0.221564306218148,1
401,295,62,0.198990053540466,1
401,296,62,0.15494966896639,1
402,293,62,0.115841554214856,1
402,294,62,0.168297476226744,1
402,295,62,0.194720291391732,1
402,296,62,0.157344848251766,1
403,268,62,0.116310980148159,1
403,269,62,0.115469193222403,1
403,294,62,0.160911684517885,1
403,295,62,0.199293661181222,1
403,296,62,0.176760356671379,1
404,268,62,0.14274957631542,1
404,269,62,0.155089342613379,1
404,293,62,0.115340000987373,1
404,294,62,0.151133857947237,1
404,295,62,0.184242789353863,1
404,296,62,0.199485977425347,1
405,268,62,0.143642651498564,1
405,269,62,0.175525952541297,1
405,270,62,0.136729430146595,1
405,293,62,0.125356591767046,1
405,294,62,0.138553337149666,1
405,295,62,0.151672178554645,1
405,296,62,0.172708855205583,1
406,268,62,0.120231993923513,1
406,269,62,0.163853475325296,1
406,270,62,0.158522217013183,1
406,293,62,0.117645146121717,1
406,294,62,0.123838106042306,1
406,295,62,0.120078388242428,1
407,269,62,0.136280919929738,1
407,270,62,0.154235661051582,1
408,269,62,0.140540553972535,1
408,270,62,0.171323989818003,1
408,271,62,0.115862505261904,1
409,269,62,0.196367015425247,1
409,270,62,0.256703816873293,1
409,271,62,0.163989639465809,1
410,270,62,0.272283764467175,1
410,271,62,0.163576565842864,1
415,276,62,0.123576647809861,1
416,276,62,0.125187523059106,1
416,277,62,0.117531381582939,1
418,278,62,0.120025533661679,1
418,290,62,0.149562164335726,1
418,291,62,0.160235138818175,1
418,292,62,0.136855218866956,1
419,290,62,0.152903426484272,1
419,291,62,0.165350786242509,1
420,290,62,0.127451696471877,1
421,285,62,0.119124933060286,1
381,282,63,0.11515210106851,1
387,291,63,0.11817001754659,1
389,294,63,0.157938084391713,1
389,295,63,0.180076180786408,1
390,294,63,0.139350301318218,1
390,295,63,0.171191240969027,1
398,267,63,0.135584082687553,1
398,268,63,0.113963779820441,1
398,295,63,0.127350144544559,1
399,266,63,0.142306978085982,1
399,267,63,0.215786763517112,1
399,268,63,0.173723561874907,1
399,293,63,0.132171735367572,1
399,294,63,0.177156695365793,1
399,295,63,0.184090502681922,1
399,296,63,0.155324750415205,1
400,266,63,0.143806891690883,1
400,267,63,0.242944455205884,1
400,268,63,0.221076131511995,1
400,269,63,0.13469444634968,1
400,293,63,0.175946151169,1
400,294,63,0.215757910192059,1
400,295,63,0.197589948886511,1
400,296,63,0.156425345778247,1
401,267,63,0.160820213589035,1
401,268,63,0.179329386072846,1
401,269,63,0.146412653141673,1
401,293,63,0.156996429630674,1
401,294,63,0.189331950603484,1
401,295,63,0.174410541879106,1
401,296,63,0.136035442906312,1
402,268,63,0.118693923268339,1
402,269,63,0.128557402995357,1
402,293,63,0.113873251040981,1
402,294,63,0.156156079482737,1
402,295,63,0.1720540260493,1
402,296,63,0.138425499254383,1
403,269,63,0.125663650029942,1
403,270,63,0.115517019080786,1
403,294,63,0.151220500360466,1
403,295,63,0.184068644816087,1
403,296,63,0.161123126394617,1
404,268,63,0.141373131388008,1
404,269,63,0.151290278299624,1
404,270,63,0.130508500166007,1
404,294,63,0.148785962784345,1
404,295,63,0.166453807640229,1
404,296,63,0.167001985485623,1
405,267,63,0.13070055731905,1
405,268,63,0.167037857823627,1
405,269,63,0.173953493433407,1
405,270,63,0.152299485171888,1
405,293,63,0.125824616253132,1
405,294,63,0.140125666712015,1
405,295,63,0.132572125304361,1
406,268,63,0.128952116482074,1
406,269,63,0.157036918500686,1
406,270,63,0.174362833789396,1
406,271,63,0.116544456543736,1
406,293,63,0.123934405486777,1
406,294,63,0.124637802444086,1
407,269,63,0.140515716559255,1
407,270,63,0.184388021682249,1
407,271,63,0.128992723120761,1
408,269,63,0.153569007920461,1
408,270,63,0.203797370800228,1
408,271,63,0.141389701440396,1
409,269,63,0.19092470125385,1
409,270,63,0.272426500099679,1
409,271,63,0.191774425788212,1
410,270,63,0.262274510675872,1
410,271,63,0.187669822427452,1
418,278,63,0.132851496152073,1
418,290,63,0.151773318291604,1
418,291,63,0.16400453720303,1
418,292,63,0.120814548444756,1
419,289,63,0.12045818043819,1
419,290,63,0.174769948317453,1
419,291,63,0.167186894080174,1
420,285,63,0.11992278049389,1
420,286,63,0.11602237623643,1
420,289,63,0.122565509531349,1
420,290,63,0.137242984001926,1
387,291,64,0.147630357673826,1
388,291,64,0.122073719326913,1
389,293,64,0.11896443791179,1
389,294,64,0.172152916404592,1
389,295,64,0.189805156911212,1
390,294,64,0.134868532003119,1
390,295,64,0.167641528268062,1
390,296,64,0.116183672211907,1
398,267,64,0.129918090474229,1
398,268,64,0.126152884654158,1
399,267,64,0.178160614424609,1
399,268,64,0.173882526030645,1
399,269,64,0.117509429502164,1
399,294,64,0.128793458524888,1
399,295,64,0.175352184863277,1
399,296,64,0.198029838436454,1
400,267,64,0.198535207368965,1
400,268,64,0.224849722461633,1
400,269,64,0.162035456755908,1
400,293,64,0.115257727791937,1
400,294,64,0.158481904796181,1
400,295,64,0.18751762997045,1
400,296,64,0.194219291677015,1
401,267,64,0.153855491996064,1
401,268,64,0.21806360883917,1
401,269,64,0.194215805724274,1
401,270,64,0.133737422776725,1
401,293,64,0.125252837565531,1
401,294,64,0.154826388718779,1
401,295,64,0.152684777164711,1
401,296,64,0.137837397828609,1
402,268,64,0.167799903580431,1
402,269,64,0.18319030249402,1
402,270,64,0.147094604423504,1
402,294,64,0.14344285694366,1
402,295,64,0.143282503117572,1
402,296,64,0.121540038805249,1
403,268,64,0.119881738111111,1
403,269,64,0.149150704143611,1
403,270,64,0.146450904406885,1
403,294,64,0.147520149748993,1
403,295,64,0.159894269169066,1
403,296,64,0.138771268080318,1
404,268,64,0.135375090399234,1
404,269,64,0.140456243379045,1
404,270,64,0.14548788640844,1
404,294,64,0.160517712973812,1
404,295,64,0.163133602530538,1
404,296,64,0.144804357026381,1
405,268,64,0.188481766771295,1
405,269,64,0.161219449392822,1
405,270,64,0.155326010540014,1
405,271,64,0.125954550430807,1
405,293,64,0.121155064787845,1
405,294,64,0.149211955630794,1
405,295,64,0.134827195198656,1
406,268,64,0.154565801974519,1
406,269,64,0.154033852652358,1
406,270,64,0.172678824193793,1
406,271,64,0.141303141465238,1
406,293,64,0.11612812072853,1
406,294,64,0.123804412424765,1
407,269,64,0.144966065192215,1
407,270,64,0.190364569888076,1
407,271,64,0.148618342631092,1
408,269,64,0.160758514580892,1
408,270,64,0.214962453462531,1
408,271,64,0.155643620876071,1
409,269,64,0.18372682124072,1
409,270,64,0.263802700539324,1
409,271,64,0.196765839038676,1
410,270,64,0.226430672690895,1
410,271,64,0.187481722301844,1
418,278,64,0.123735929941018,1
418,290,64,0.137589694977251,1
418,291,64,0.148541910761871,1
419,289,64,0.132730159087577,1
419,290,64,0.190169321203976,1
419,291,64,0.175310165000507,1
420,285,64,0.120094369451447,1
420,286,64,0.123064601393552,1
420,287,64,0.116821436687373,1
420,288,64,0.118345304440501,1
420,289,64,0.14557309204385,1
420,290,64,0.172623096057406,1
387,290,65,0.123111532210015,1
387,291,65,0.151482029254115,1
388,291,65,0.141578637723586,1
388,292,65,0.116931974364492,1
389,293,65,0.130633841365408,1
389,294,65,0.166764175202854,1
389,295,65,0.173553456802639,1
390,294,65,0.144284337670864,1
390,295,65,0.169258562818941,1
390,296,65,0.13923447582765,1
391,295,65,0.120280173087917,1
391,296,65,0.114485871904615,1
397,268,65,0.125964289900121,1
397,269,65,0.121015979984225,1
398,267,65,0.130876197518981,1
398,268,65,0.155072148387021,1
398,269,65,0.131259346121944,1
398,296,65,0.138781137095173,1
399,267,65,0.142556800773467,1
399,268,65,0.166317290193695,1
399,269,65,0.136889230459916,1
399,295,65,0.161616883335902,1
399,296,65,0.22343609796394,1
400,267,65,0.142258351400618,1
400,268,65,0.187229296926671,1
400,269,65,0.165690701965361,1
400,270,65,0.12952123359765,1
400,294,65,0.115425925011692,1
400,295,65,0.17301679673353,1
400,296,65,0.229089700912792,1
401,267,65,0.129738881883485,1
401,268,65,0.216850944806251,1
401,269,65,0.217359681922829,1
401,270,65,0.164853084050654,1
401,294,65,0.127592700904878,1
401,295,65,0.13949837187164,1
402,268,65,0.21992440099084,1
402,269,65,0.247012726930813,1
402,270,65,0.18263033600439,1
402,293,65,0.114602545329634,1
402,294,65,0.144663058171695,1
402,295,65,0.124045202254978,1
403,268,65,0.153587368056689,1
403,269,65,0.191708251570469,1
403,270,65,0.168290198122711,1
403,293,65,0.119263558566079,1
403,294,65,0.162891375922506,1
403,295,65,0.13548237766096,1
404,268,65,0.125936661369275,1
404,269,65,0.131520875015593,1
404,270,65,0.146336150611248,1
404,271,65,0.128027102434627,1
404,293,65,0.115922484847411,1
404,294,65,0.171222249460808,1
404,295,65,0.151205579069511,1
405,269,65,0.134586546690851,1
405,270,65,0.140123358446011,1
405,271,65,0.147533339840445,1
405,294,65,0.143127295782525,1
405,295,65,0.133441281669881,1
406,268,65,0.190334232677736,1
406,269,65,0.1515835929583,1
406,270,65,0.145768222959276,1
406,271,65,0.146020648334449,1
407,269,65,0.15527420410046,1
407,270,65,0.1653181996505,1
407,271,65,0.141433370064598,1
408,269,65,0.160823805533583,1
408,270,65,0.196558224643839,1
408,271,65,0.15017595110923,1
409,270,65,0.231616898881367,1
409,271,65,0.181469054443798,1
410,271,65,0.167428543621705,1
418,291,65,0.11737922445654,1
419,289,65,0.136703297277904,1
419,290,65,0.183737455751954,1
420,286,65,0.116395926692487,1
420,287,65,0.129914357207273,1
387,290,66,0.126408795982072,1
387,291,66,0.132818144063686,1
388,290,66,0.118982586064405,1
388,291,66,0.140623474895676,1
389,293,66,0.119891171381873,1
389,294,66,0.138292326438182,1
389,295,66,0.137546674080754,1
390,293,66,0.117513256984059,1
390,294,66,0.148046693489032,1
390,295,66,0.160355792824364,1
390,296,66,0.155809898466445,1
391,294,66,0.126608143016016,1
391,295,66,0.131927754006302,1
391,296,66,0.132582618493187,1
393,296,66,0.116002002255883,1
397,268,66,0.14705005253425,1
397,269,66,0.131544852717555,1
398,267,66,0.12280559274952,1
398,268,66,0.17315257223742,1
398,269,66,0.153530120704411,1
398,296,66,0.141771248389396,1
399,268,66,0.139832882012371,1
399,269,66,0.140620365802691,1
399,270,66,0.114350473260481,1
399,295,66,0.132677316283696,1
399,296,66,0.205699405541421,1
400,268,66,0.124520634390638,1
400,269,66,0.142253899744753,1
400,270,66,0.13406175770405,1
400,295,66,0.142118324447608,1
401,268,66,0.165196332626973,1
401,269,66,0.19698112017417,1
401,270,66,0.166129331390496,1
401,295,66,0.114397745606098,1
402,268,66,0.219029288409641,1
402,269,66,0.268817808846934,1
402,270,66,0.193639540050205,1
402,294,66,0.135941534165917,1
403,268,66,0.167073942145244,1
403,269,66,0.21371457659618,1
403,270,66,0.168506621614339,1
403,293,66,0.123170463654326,1
403,294,66,0.168339496089515,1
404,269,66,0.120437288275478,1
404,270,66,0.134901625000424,1
404,271,66,0.133654560737922,1
404,294,66,0.152327419901285,1
404,295,66,0.116656348560603,1
405,270,66,0.117923892795459,1
405,271,66,0.15171802589931,1
406,269,66,0.137113874204967,1
406,270,66,0.114005658360803,1
406,271,66,0.13609582290531,1
406,272,66,0.114897108336251,1
407,269,66,0.164002676457986,1
407,270,66,0.135726724105118,1
407,271,66,0.119950185264256,1
408,269,66,0.158502690967086,1
408,270,66,0.168920719824745,1
408,271,66,0.130769075133399,1
409,270,66,0.182461738371144,1
409,271,66,0.149523818855575,1
410,271,66,0.132902195566094,1
410,295,66,0.119770128739061,1
411,294,66,0.14125959060971,1
411,295,66,0.139245286991894,1
412,294,66,0.134354165543939,1
386,287,67,0.114494421910325,1
386,288,67,0.114345126562696,1
388,290,67,0.122155592108858,1
388,291,67,0.122024185822762,1
390,293,67,0.141306321219428,1
390,294,67,0.169857216317877,1
390,295,67,0.164511166260349,1
391,293,67,0.145743621083344,1
391,294,67,0.176977628097457,1
391,295,67,0.155792350934066,1
397,268,67,0.159781105250523,1
397,269,67,0.135158996659892,1
397,296,67,0.118763477447016,1
398,267,67,0.125745463927549,1
398,268,67,0.18868133756572,1
398,269,67,0.172033864052365,1
398,270,67,0.118234955193259,1
398,296,67,0.146789771988542,1
399,268,67,0.136049398494144,1
399,269,67,0.15382387110718,1
399,270,67,0.127137913617714,1
399,295,67,0.121877033864995,1
399,296,67,0.181890878279198,1
400,269,67,0.134689829817671,1
400,270,67,0.138858110700292,1
400,295,67,0.128200964327586,1
401,268,67,0.127080666265437,1
401,269,67,0.176516363533241,1
401,270,67,0.168720383533942,1
402,268,67,0.190665103766449,1
402,269,67,0.256526787003012,1
402,270,67,0.20495882901383,1
402,271,67,0.116548849315265,1
402,294,67,0.139221415281738,1
403,268,67,0.172068370273755,1
403,269,67,0.218619312102813,1
403,270,67,0.177212659039528,1
403,271,67,0.116188064983435,1
403,293,67,0.125951217577342,1
403,294,67,0.178023390366033,1
403,295,67,0.11723181340769,1
404,269,67,0.125706494273428,1
404,270,67,0.136031273895264,1
404,271,67,0.134009020891974,1
404,294,67,0.140176495671577,1
405,271,67,0.143968894278402,1
405,272,67,0.122087851567755,1
406,271,67,0.125058201278534,1
406,272,67,0.122551954357008,1
407,270,67,0.135126834035109,1
408,270,67,0.171111134717187,1
408,271,67,0.120786908137043,1
409,271,67,0.12604327734956,1
411,294,67,0.167695854957232,1
412,294,67,0.163114017600104,1
386,287,68,0.12938930912939,1
386,288,68,0.119038243539587,1
390,292,68,0.128006963991427,1
390,293,68,0.155030069639914,1
390,294,68,0.177161429666475,1
391,293,68,0.168875732191398,1
391,294,68,0.200217862624821,1
391,295,68,0.170996074722999,1
392,294,68,0.116714125871912,1
397,268,68,0.15189559750549,1
397,269,68,0.127473142147354,1
397,271,68,0.11426943663612,1
398,267,68,0.122965075087422,1
398,268,68,0.17614408497886,1
398,269,68,0.164550053476399,1
398,270,68,0.119250827772454,1
399,268,68,0.128409238226995,1
399,269,68,0.153276823841053,1
399,270,68,0.131439002233648,1
400,269,68,0.132158875028406,1
400,270,68,0.142774390174965,1
401,269,68,0.155645540505452,1
401,270,68,0.167310845609226,1
402,268,68,0.148027626740762,1
402,269,68,0.212891891749296,1
402,270,68,0.200455237163497,1
402,271,68,0.125183719130946,1
402,294,68,0.119997481163607,1
403,269,68,0.191306872376821,1
403,270,68,0.173348880839583,1
403,271,68,0.122160844591704,1
403,294,68,0.151768442668514,1
403,295,68,0.116049910552337,1
404,269,68,0.125183577808538,1
404,270,68,0.129928277464503,1
404,271,68,0.124976493372733,1
404,294,68,0.113917331855541,1
405,271,68,0.120542809007099,1
411,294,68,0.163360354334848,1
386,287,69,0.128726401042093,1
386,288,69,0.115759704986646,1
389,290,69,0.124732547342065,1
389,291,69,0.127762629324136,1
390,291,69,0.131683595992021,1
390,292,69,0.15151109456278,1
390,293,69,0.16713468722713,1
391,292,69,0.125270526420318,1
391,293,69,0.171931570182404,1
391,294,69,0.189588721642717,1
392,294,69,0.125301593796436,1
397,268,69,0.137702882449528,1
397,269,69,0.117185577426402,1
397,271,69,0.130215220837933,1
398,268,69,0.148979868905565,1
398,269,69,0.137216262289868,1
398,270,69,0.113996978809553,1
399,269,69,0.135588746327031,1
399,270,69,0.121167901573276,1
400,269,69,0.124746667806039,1
400,270,69,0.132356632185255,1
401,269,69,0.132391091299175,1
401,270,69,0.148093353437545,1
402,269,69,0.154838271577953,1
402,270,69,0.167742879988634,1
402,271,69,0.126357013096253,1
403,270,69,0.145491172154436,1
403,271,69,0.120535613341137,1
417,280,69,0.119013406126308,1
418,280,69,0.126322919065222,1
386,287,70,0.115290173061537,1
387,288,70,0.114606761448151,1
388,288,70,0.116231604062096,1
388,289,70,0.115743370471606,1
389,289,70,0.118898322578384,1
389,290,70,0.137506750500376,1
389,291,70,0.13810706453761,1
390,290,70,0.120461207093104,1
390,291,70,0.148826781406644,1
390,292,70,0.156902026261849,1
391,292,70,0.129484949069288,1
391,293,70,0.153410962360378,1
396,269,70,0.116314654530778,1
397,271,70,0.130894663647015,1
397,272,70,0.114810489476757,1
401,270,70,0.115357360089874,1
402,270,70,0.122686175314405,1
402,271,70,0.113956925683633,1
417,280,70,0.127581524657745,1
