x,y,z,signal,mito.p
60,255,33,0.125486820366406,1
61,255,33,0.134656312853141,1
62,255,33,0.120948663410347,1
62,256,33,0.13694765549893,1
63,255,33,0.118061022639096,1
63,256,33,0.14266857502166,1
64,256,33,0.136423596677906,1
65,255,33,0.16346734717489,1
65,256,33,0.189083764900564,1
65,257,33,0.181494610245988,1
66,256,33,0.274283924067282,1
66,257,33,0.254832284218583,1
66,258,33,0.181579203484295,1
67,260,33,0.245504039559722,1
67,261,33,0.24346635886018,1
59,255,34,0.141435230809642,1
60,254,34,0.157512539066224,1
60,255,34,0.16295718505736,1
60,256,34,0.120684661374551,1
61,254,34,0.167055558455282,1
61,255,34,0.172490429646502,1
61,256,34,0.142354862828702,1
62,254,34,0.140105245623999,1
62,255,34,0.162076452031218,1
62,256,34,0.169970980856655,1
62,257,34,0.12884495876589,1
63,254,34,0.1154540363941,1
63,255,34,0.156402121795797,1
63,256,34,0.183556786829656,1
63,257,34,0.133700996925955,1
64,255,34,0.147696131478078,1
64,256,34,0.167573410867203,1
64,257,34,0.129340364468607,1
65,254,34,0.149797772344298,1
65,255,34,0.204973738527918,1
65,256,34,0.220319090923823,1
65,257,34,0.177518716268696,1
65,258,34,0.122909947571271,1
65,262,34,0.122609990759399,1
65,263,34,0.114921451121101,1
66,255,34,0.313645889194941,2
66,256,34,0.316618040766427,2
66,257,34,0.247874675853503,1
66,258,34,0.154293509024095,1
66,259,34,0.121550614432146,1
66,260,34,0.131898040969931,1
66,261,34,0.126789706980234,1
66,262,34,0.118842877086814,1
67,256,34,0.228674260139506,1
67,257,34,0.185754526933601,1
67,258,34,0.139074911051676,1
67,259,34,0.142295554524635,1
67,260,34,0.180425270688941,1
67,261,34,0.177392444696773,1
67,262,34,0.158244942447862,1
68,260,34,0.198917743574824,1
68,261,34,0.247018568257027,1
68,262,34,0.256915235196289,1
58,255,35,0.168913076637823,1
59,254,35,0.165663862484629,1
59,255,35,0.171291038143106,1
60,253,35,0.137946180752491,1
60,254,35,0.191019033961471,1
60,255,35,0.192532891377336,1
60,256,35,0.128024593961878,1
61,253,35,0.156342295309566,1
61,254,35,0.213013334805599,1
61,255,35,0.20621346580205,1
61,256,35,0.15248469996499,1
62,253,35,0.139021385189487,1
62,254,35,0.189371603315914,1
62,255,35,0.222593463103734,1
62,256,35,0.198652175215667,1
62,257,35,0.128149428755982,1
63,254,35,0.144191288641786,1
63,255,35,0.197512256892482,1
63,256,35,0.203290023353999,1
63,257,35,0.131596682710843,1
64,254,35,0.12544576620676,1
64,255,35,0.175931394754188,1
64,256,35,0.197460603552205,1
64,257,35,0.142424240354369,1
65,254,35,0.171976758022496,1
65,255,35,0.258137391384308,2
65,256,35,0.268581847532341,2
65,257,35,0.190828048503358,1
65,258,35,0.1144581962663,1
66,254,35,0.256748639630497,2
66,255,35,0.376486570414173,2
66,256,35,0.343506560374629,2
66,257,35,0.230139844176028,2
66,258,35,0.135304476302493,1
67,255,35,0.27933940347623,2
67,256,35,0.232852881111676,2
67,257,35,0.165162898100514,1
67,258,35,0.118002338509,1
67,260,35,0.130098629850986,1
67,261,35,0.128402089668503,1
67,262,35,0.120362175415403,1
68,256,35,0.133389840313216,1
68,257,35,0.114647014780816,1
68,260,35,0.14446353448474,1
68,261,35,0.174039523449533,1
68,262,35,0.190045393228659,1
68,263,35,0.126252952696187,1
69,260,35,0.154005682385613,1
69,261,35,0.208883234526986,1
69,262,35,0.221697243497002,1
55,263,36,0.127817792170889,1
57,257,36,0.115739048361282,1
58,254,36,0.196173262403302,1
58,255,36,0.157371675955632,1
58,268,36,0.130321483512197,1
59,253,36,0.138010152696036,1
59,254,36,0.167832089758949,1
59,255,36,0.179843670093955,1
59,256,36,0.11602237623643,1
59,268,36,0.175124243595363,1
60,252,36,0.12349489279659,1
60,253,36,0.145651820402207,1
60,254,36,0.19997325708958,1
60,255,36,0.196610137075199,1
60,256,36,0.128924252413881,1
60,268,36,0.181440742854645,1
61,252,36,0.11461961001045,1
61,253,36,0.176338921472602,1
61,254,36,0.246030441977353,1
61,255,36,0.238060164341002,1
61,256,36,0.159562585476503,1
61,268,36,0.124781715763328,1
62,253,36,0.160247115892289,1
62,254,36,0.248376558833272,1
62,255,36,0.293341109520344,1
62,256,36,0.213220277918996,1
62,257,36,0.119311643515544,1
63,253,36,0.123679730729936,1
63,254,36,0.172105644058976,1
63,255,36,0.226169155574114,1
63,256,36,0.197982283446021,1
63,257,36,0.121202596224544,1
64,254,36,0.137123790327291,1
64,255,36,0.192907631296997,1
64,256,36,0.21298415172826,1
64,257,36,0.147974418853992,1
65,254,36,0.189441816999164,1
65,255,36,0.301037268791829,2
65,256,36,0.309960930949118,2
65,257,36,0.200577834352802,1
66,253,36,0.121161436073091,1
66,254,36,0.263658952096226,2
66,255,36,0.404915221629338,2
66,256,36,0.347270776937841,2
66,257,36,0.204875425239127,2
66,258,36,0.115507915562311,1
67,254,36,0.205711794805893,1
67,255,36,0.284319699363898,2
67,256,36,0.226854215948931,2
67,257,36,0.143598547130269,1
68,255,36,0.141890889584991,1
68,256,36,0.141077897099951,1
68,257,36,0.114124133646529,1
68,261,36,0.118693240210031,1
68,262,36,0.120423521117525,1
69,260,36,0.122071528829583,1
69,261,36,0.157317549473207,1
69,262,36,0.153712285288865,1
70,260,36,0.163906942303148,1
70,261,36,0.247167192323216,1
55,262,37,0.127983775339579,1
55,263,37,0.16064579818331,1
55,264,37,0.16542291955514,1
56,258,37,0.119925206528568,1
57,255,37,0.134691549240307,1
58,254,37,0.168975776679692,1
58,255,37,0.137260790625387,1
58,268,37,0.120666065700976,1
58,269,37,0.185235814810362,1
59,253,37,0.13852503733738,1
59,254,37,0.156278028944337,1
59,255,37,0.163180969091093,1
59,268,37,0.151861715458071,1
59,269,37,0.24892964763236,1
60,252,37,0.125239718135283,1
60,253,37,0.147171625136093,1
60,254,37,0.185249687960122,1
60,255,37,0.182431895789233,1
60,256,37,0.130466338980828,1
60,268,37,0.158674539015725,1
60,269,37,0.273970117659384,1
61,252,37,0.119509647986608,1
61,253,37,0.181955415512377,1
61,254,37,0.259630910150228,1
61,255,37,0.260052074481055,1
61,256,37,0.164679339926369,1
61,268,37,0.116842105089604,1
61,269,37,0.182107301770826,1
62,253,37,0.17585741247338,1
62,254,37,0.298635847766748,1
62,255,37,0.339149354985685,1
62,256,37,0.207781979659372,1
63,253,37,0.135962544097302,1
63,254,37,0.197621628659732,1
63,255,37,0.238627102736115,1
63,256,37,0.18097244750061,1
64,253,37,0.123966309020477,1
64,254,37,0.154451401484903,1
64,255,37,0.206849110441389,2
64,256,37,0.217591120920352,2
64,257,37,0.147916500220275,1
65,253,37,0.122551648158456,1
65,254,37,0.201697390472307,2
65,255,37,0.31905641760131,2
65,256,37,0.321181576871665,2
65,257,37,0.199057487883017,2
66,253,37,0.116593448311989,1
66,254,37,0.245524036680514,2
66,255,37,0.38772596510957,2
66,256,37,0.325836430806476,2
66,257,37,0.180089806621954,2
67,254,37,0.176718030610057,1
67,255,37,0.263159754242216,2
67,256,37,0.214994109682017,2
67,257,37,0.128089390286138,1
68,255,37,0.135227773565323,1
68,256,37,0.144010160421661,1
69,261,37,0.120642476635637,1
70,260,37,0.127118811538843,1
70,261,37,0.203538020627042,1
70,262,37,0.184258711678545,1
71,261,37,0.319781801969997,1
54,261,38,0.124410591341949,1
54,262,38,0.17797757835197,1
54,263,38,0.2435231940221,1
54,264,38,0.225854359909358,1
55,261,38,0.114616654016741,1
55,262,38,0.144570503771047,1
55,263,38,0.184952934456174,1
55,264,38,0.171484119883611,1
55,265,38,0.116153170125423,1
57,254,38,0.168142669305187,1
57,269,38,0.124182096561268,1
58,253,38,0.192605837293815,1
58,254,38,0.14109763512966,1
58,255,38,0.113893507252854,1
58,269,38,0.185670746299143,1
58,270,38,0.214897610030801,1
59,252,38,0.136527810177248,1
59,253,38,0.130312356439987,1
59,254,38,0.129038064060129,1
59,255,38,0.128857371584096,1
59,268,38,0.129563006146206,1
59,269,38,0.253231949265632,1
59,270,38,0.266134025649829,1
60,252,38,0.114131741502849,1
60,253,38,0.136743998131529,1
60,254,38,0.161613562259304,1
60,255,38,0.161402721002809,1
60,256,38,0.130056445112072,1
60,268,38,0.133372952285409,1
60,269,38,0.267093039513369,1
60,270,38,0.277492201829503,1
60,271,38,0.210161872570903,1
61,252,38,0.115495326091094,1
61,253,38,0.174321367439392,1
61,254,38,0.258005137163761,1
61,255,38,0.258034131811222,1
61,256,38,0.162177002924809,1
61,269,38,0.173232819811668,1
61,270,38,0.19255779945182,1
62,252,38,0.117687731274121,1
62,253,38,0.185809030275782,1
62,254,38,0.316822416522738,1
62,255,38,0.330001437719968,1
62,256,38,0.185577709046933,1
63,252,38,0.120581401801465,1
63,253,38,0.155078072151308,1
63,254,38,0.217315683546341,1
63,255,38,0.23340987983073,1
63,256,38,0.165545422529505,1
64,252,38,0.115613495178268,1
64,253,38,0.142201457354362,1
64,254,38,0.179860322584414,1
64,255,38,0.222624412711178,2
64,256,38,0.216772958390538,1
64,257,38,0.144569538067923,1
65,253,38,0.131601275689116,1
65,254,38,0.215962733469329,2
65,255,38,0.324356549652969,2
65,256,38,0.307666137681189,2
65,257,38,0.188602856521577,1
66,253,38,0.113820902865529,1
66,254,38,0.226863519674152,2
66,255,38,0.362808728222688,2
66,256,38,0.305186942224008,2
66,257,38,0.167385051650514,1
67,254,38,0.154386546276305,1
67,255,38,0.247432383822617,2
67,256,38,0.219235831109547,1
67,257,38,0.1310505069329,1
68,255,38,0.130841420429643,1
68,256,38,0.14687713279068,1
70,261,38,0.156453881127881,1
70,262,38,0.165465763798626,1
71,261,38,0.256872885581233,1
71,262,38,0.31337577496498,1
53,264,39,0.205541666179889,1
54,259,39,0.119726719205941,1
54,261,39,0.117579749177221,1
54,262,39,0.165717435454287,1
54,263,39,0.224097133529326,1
54,264,39,0.196451290688135,1
54,265,39,0.127439801835835,1
55,261,39,0.116781430668922,1
55,262,39,0.148880990327141,1
55,263,39,0.176384391957511,1
55,264,39,0.150874849303205,1
57,253,39,0.202904872683584,1
57,254,39,0.129770043474541,1
57,269,39,0.11776475198671,1
57,270,39,0.147547837164176,1
58,252,39,0.15139420915415,1
58,253,39,0.149994033838991,1
58,269,39,0.163085152498184,1
58,270,39,0.220529048915266,1
58,271,39,0.210444682263887,1
59,253,39,0.115360457405991,1
59,269,39,0.22037477195274,1
59,270,39,0.281085677369609,1
59,271,39,0.219553335453798,1
60,253,39,0.12460619333207,1
60,254,39,0.144260253977095,1
60,255,39,0.142504393713678,1
60,256,39,0.120565149724497,1
60,269,39,0.213463069816661,1
60,270,39,0.256836966135759,1
60,271,39,0.206296422055793,1
60,272,39,0.198767588515877,1
61,253,39,0.156833343571357,1
61,254,39,0.231912592467252,1
61,255,39,0.225397205471853,1
61,256,39,0.144107743544675,1
61,269,39,0.141008613789223,1
61,270,39,0.167337508436948,1
61,271,39,0.1690609469845,1
62,252,39,0.12147930550023,1
62,253,39,0.180647358853774,1
62,254,39,0.277987089350056,1
62,255,39,0.264716632554578,1
62,256,39,0.150296522677347,1
63,252,39,0.137788983126858,1
63,253,39,0.179413001831162,1
63,254,39,0.224664307461785,1
63,255,39,0.214719802887273,1
63,256,39,0.149494188257276,1
64,252,39,0.125789627180181,1
64,253,39,0.169624858724699,1
64,254,39,0.215722603143689,1
64,255,39,0.238403577793464,2
64,256,39,0.204766536323439,1
64,257,39,0.134553759892098,1
65,253,39,0.1418793011475,1
65,254,39,0.230643917653128,2
65,255,39,0.318254365826056,2
65,256,39,0.275018188193964,2
65,257,39,0.169080378815658,1
66,253,39,0.116062311593676,1
66,254,39,0.212259026450656,2
66,255,39,0.342048843285509,2
66,256,39,0.297112345096508,2
66,257,39,0.16778590088513,1
67,254,39,0.141643928676276,1
67,255,39,0.243729430523454,2
67,256,39,0.25040566597337,1
67,257,39,0.158594338548947,1
68,255,39,0.130794878249803,1
68,256,39,0.16088933202362,1
68,257,39,0.127648205280785,1
70,261,39,0.11893897632454,1
70,262,39,0.139720377598401,1
71,261,39,0.180223721380799,1
71,262,39,0.258500542866478,1
71,263,39,0.181830828032487,1
72,261,39,0.195843898753612,1
72,262,39,0.288221328415565,1
53,259,40,0.192015144957221,1
53,260,40,0.131322140378752,1
53,262,40,0.187518760549718,1
53,264,40,0.197469565748272,1
53,265,40,0.13367618306641,1
54,257,40,0.122847141537595,1
54,258,40,0.129156445130915,1
54,259,40,0.119090203078417,1
54,262,40,0.141826929418313,1
54,263,40,0.181907413000983,1
54,264,40,0.154513147600515,1
55,262,40,0.130839630345803,1
55,263,40,0.136886733764034,1
55,264,40,0.114910333758306,1
56,253,40,0.176718219039935,1
56,270,40,0.114675397031174,1
57,252,40,0.15951659680943,1
57,253,40,0.135785526003888,1
57,270,40,0.14037034290846,1
57,271,40,0.159182651958333,1
58,269,40,0.127965167889137,1
58,270,40,0.192714396457217,1
58,271,40,0.211090054595673,1
58,272,40,0.173884528098098,1
59,269,40,0.163530506514586,1
59,270,40,0.243491396480205,1
59,271,40,0.224887573313355,1
59,272,40,0.193227467460987,1
60,254,40,0.129462419922013,1
60,255,40,0.124079143186734,1
60,269,40,0.143807986939548,1
60,270,40,0.198014834707427,1
60,271,40,0.187383491451125,1
60,272,40,0.211395004799309,1
60,273,40,0.193845128823855,1
61,253,40,0.140559444067794,1
61,254,40,0.194287609284618,1
61,255,40,0.182062855873378,1
61,256,40,0.117939662020865,1
61,270,40,0.124039525804906,1
61,271,40,0.13592133683838,1
61,272,40,0.17904077038425,1
62,252,40,0.126983860415669,1
62,253,40,0.179125493168098,1
62,254,40,0.225492621651271,1
62,255,40,0.196702067301876,1
62,256,40,0.118882046947681,1
63,252,40,0.155736175276719,1
63,253,40,0.216599838440223,1
63,254,40,0.237420397798084,1
63,255,40,0.199831392945261,1
63,256,40,0.135966442240401,1
64,252,40,0.137517750094498,1
64,253,40,0.206282054277603,1
64,254,40,0.25903485933898,1
64,255,40,0.250810695995903,1
64,256,40,0.187655772624681,1
64,257,40,0.12064778800282,1
65,253,40,0.152604023185166,1
65,254,40,0.24124246233381,1
65,255,40,0.304382794166362,2
65,256,40,0.24610138582638,1
65,257,40,0.150644399562541,1
66,253,40,0.1179229035386,1
66,254,40,0.196348513966611,2
66,255,40,0.3239430873934,2
66,256,40,0.312566303763284,2
66,257,40,0.1849600712378,1
67,254,40,0.131480480360519,1
67,255,40,0.248130728503825,2
67,256,40,0.312677288961363,3
67,257,40,0.215567902213938,1
68,255,40,0.132618679261068,1
68,256,40,0.188003154881446,1
68,257,40,0.159892396647154,1
71,261,40,0.127152410941445,1
71,262,40,0.184420655381727,1
71,263,40,0.15426377243399,1
72,261,40,0.153956490410615,1
72,262,40,0.224576970213382,1
72,263,40,0.185422489935018,1
52,259,41,0.242821457603089,1
52,260,41,0.16182713574903,1
52,265,41,0.154909804270349,1
53,257,41,0.121212017718438,1
53,258,41,0.187725126596613,1
53,259,41,0.193856811476284,1
53,260,41,0.125336217786499,1
53,262,41,0.160627237840337,1
53,264,41,0.195491546658818,1
53,265,41,0.125995145292626,1
54,257,41,0.123076837558748,1
54,258,41,0.142706001906157,1
54,259,41,0.12474970623782,1
54,262,41,0.116306599153498,1
54,263,41,0.139031289534944,1
54,264,41,0.120685862615022,1
55,253,41,0.131607199453403,1
56,252,41,0.175771417787856,1
56,253,41,0.128981876625914,1
56,270,41,0.123353087536607,1
56,271,41,0.145013891050598,1
57,270,41,0.124764980834797,1
57,271,41,0.159598787566794,1
57,272,41,0.139613537857635,1
58,270,41,0.149093904312293,1
58,271,41,0.188007088355147,1
58,272,41,0.173976340556102,1
59,270,41,0.179214290748055,1
59,271,41,0.209309886878007,1
59,272,41,0.204862588453695,1
59,273,41,0.15980398770382,1
60,270,41,0.137405563655947,1
60,271,41,0.164103027144831,1
60,272,41,0.206711203324506,1
60,273,41,0.223389932643856,1
61,253,41,0.132304637315824,1
61,254,41,0.152258866756334,1
61,255,41,0.138002156203093,1
61,272,41,0.152246972120292,1
61,273,41,0.195807437572239,1
62,252,41,0.141657978479047,1
62,253,41,0.196090683009316,1
62,254,41,0.190365877120354,1
62,255,41,0.148404804471969,1
63,252,41,0.166845388480226,1
63,253,41,0.256603642839457,1
63,254,41,0.259528498511592,1
63,255,41,0.192882122602277,1
63,256,41,0.12450308685826,1
64,252,41,0.139945409980075,1
64,253,41,0.232346169616285,1
64,254,41,0.296074520436539,1
64,255,41,0.257531589326879,1
64,256,41,0.168475224485935,1
65,253,41,0.152532714253251,1
65,254,41,0.237804135244414,1
65,255,41,0.277536176652257,1
65,256,41,0.22009387011227,1
65,257,41,0.133098869251146,1
66,254,41,0.172699987224454,1
66,255,41,0.287542815979004,2
66,256,41,0.321922153399256,3
66,257,41,0.202036682021189,1
67,254,41,0.123082408017013,1
67,255,41,0.235347928232336,3
67,256,41,0.353580186522968,3
67,257,41,0.261905729851099,3
67,258,41,0.117848933034659,1
68,255,41,0.129681222340849,1
68,256,41,0.204526523766472,3
68,257,41,0.187971957959787,1
68,258,41,0.113864418390455,1
69,257,41,0.120383962620035,1
71,262,41,0.126511902455882,1
71,263,41,0.115306860882598,1
72,261,41,0.131025575304682,1
72,262,41,0.164302927691542,1
72,263,41,0.139368838107456,1
73,262,41,0.173008670695046,1
51,260,42,0.143468400968982,1
51,265,42,0.160084677560677,1
52,258,42,0.160550358450157,1
52,259,42,0.18684314522253,1
52,260,42,0.134199629490331,1
52,262,42,0.186239521885565,1
52,264,42,0.282989219549826,1
52,265,42,0.154516327354705,1
53,258,42,0.177165857768606,1
53,259,42,0.173905137615993,1
53,262,42,0.131969102587632,1
53,263,42,0.204019270535182,1
53,264,42,0.189615749553327,1
53,265,42,0.120891533826743,1
54,258,42,0.140406921858507,1
54,259,42,0.120500718483124,1
55,271,42,0.118219680596283,1
56,270,42,0.116653298351955,1
56,271,42,0.158238700708157,1
56,272,42,0.139120723065739,1
57,271,42,0.149562376319339,1
57,272,42,0.151453329028339,1
58,271,42,0.154181346139279,1
58,272,42,0.166832763678407,1
58,273,42,0.117603809317254,1
59,270,42,0.119991262977637,1
59,271,42,0.17705056223707,1
59,272,42,0.202986674804325,1
59,273,42,0.172011181805814,1
60,271,42,0.138296660325373,1
60,272,42,0.188877057324514,1
60,273,42,0.2270953826389,1
60,274,42,0.162120332639032,1
61,253,42,0.127064602618346,1
61,254,42,0.117719093071923,1
61,272,42,0.12415483311331,1
61,273,42,0.191992674694282,1
61,274,42,0.168671968832191,1
62,252,42,0.157187850832879,1
62,253,42,0.217251216974366,1
62,254,42,0.17782014518899,1
62,255,42,0.121329680400316,1
62,274,42,0.115209183544645,1
63,252,42,0.171220694914315,1
63,253,42,0.283574788949115,1
63,254,42,0.282465549365425,1
63,255,42,0.190084786850006,1
64,252,42,0.138015687823699,1
64,253,42,0.241102317612126,1
64,254,42,0.316480722492912,1
64,255,42,0.256147006584117,1
64,256,42,0.150105643211041,1
65,253,42,0.147580541524857,1
65,254,42,0.226041659207984,1
65,255,42,0.247397265204124,1
65,256,42,0.196286167230763,1
65,257,42,0.117191795612373,1
66,254,42,0.150106149616338,1
66,255,42,0.239236673391101,1
66,256,42,0.301215923869807,1
66,257,42,0.199476885683739,1
67,254,42,0.120848642475788,1
67,255,42,0.20712106186266,1
67,256,42,0.338535450443507,3
67,257,42,0.266024524337038,1
67,258,42,0.119941811911557,1
68,255,42,0.124793315977685,1
68,256,42,0.198868304285611,1
68,257,42,0.196252179191538,1
68,258,42,0.123606525722374,1
69,257,42,0.1270056476203,1
69,258,42,0.127025892055306,1
70,258,42,0.121790933187664,1
70,259,42,0.1153158466324,1
71,259,42,0.118379669339482,1
72,261,42,0.118461341914681,1
72,262,42,0.120233713346149,1
73,262,42,0.139724075534755,1
50,262,43,0.199034240346832,1
50,263,43,0.251133217285653,1
50,264,43,0.249666008041433,1
51,258,43,0.126969539744949,1
51,259,43,0.149032063981742,1
51,260,43,0.139660374459159,1
51,261,43,0.126289190117079,1
51,262,43,0.173232749150464,1
51,264,43,0.268365953999744,1
51,265,43,0.17096773958011,1
51,266,43,0.11876896546721,1
52,258,43,0.126265977911496,1
52,259,43,0.141185608328902,1
52,262,43,0.144400622459259,1
52,263,43,0.256198895461742,1
52,264,43,0.27541841325461,1
52,265,43,0.157916674046837,1
53,258,43,0.146686253324374,1
53,259,43,0.142120668044215,1
53,263,43,0.167579099094142,1
53,264,43,0.173563843999658,1
53,265,43,0.117059176308938,1
54,258,43,0.12129815372637,1
55,271,43,0.12439724815122,1
56,271,43,0.149785017996938,1
56,272,43,0.146542469550674,1
57,271,43,0.12952128070512,1
57,272,43,0.151496679677122,1
58,271,43,0.122475769802002,1
58,272,43,0.15109782073309,1
58,273,43,0.124488236228508,1
59,271,43,0.143181457595552,1
59,272,43,0.183401308626659,1
59,273,43,0.176038034288208,1
59,274,43,0.124122505612384,1
60,271,43,0.11674675957139,1
60,272,43,0.162047645813635,1
60,273,43,0.206077278107802,1
60,274,43,0.18935989710975,1
61,273,43,0.168477414983266,1
61,274,43,0.20194086542828,1
61,275,43,0.135469729305406,1
62,252,43,0.155928126437956,1
62,253,43,0.209993486921271,1
62,254,43,0.162376797479713,1
62,274,43,0.124771764310401,1
63,252,43,0.158843136648971,1
63,253,43,0.26727002227618,1
63,254,43,0.271417175458742,1
63,255,43,0.17387382292566,1
64,252,43,0.126980197809917,1
64,253,43,0.218583086458788,1
64,254,43,0.292480950681494,1
64,255,43,0.231176891562751,1
64,256,43,0.130931325035133,1
65,253,43,0.136883389133701,1
65,254,43,0.19756659535852,1
65,255,43,0.211568807807931,1
65,256,43,0.172364652703008,1
66,254,43,0.130588076458815,1
66,255,43,0.192041737123739,1
66,256,43,0.253703518588796,1
66,257,43,0.181143647821543,1
67,254,43,0.120055776657081,1
67,255,43,0.171728713641984,1
67,256,43,0.276715729410173,1
67,257,43,0.234784475789964,1
67,258,43,0.117529155755006,1
68,255,43,0.117219565465627,1
68,256,43,0.174618662679239,1
68,257,43,0.185357375635338,1
68,258,43,0.130663707501054,1
69,257,43,0.126881495884503,1
69,258,43,0.138817056540646,1
70,258,43,0.131397924520267,1
70,259,43,0.134439689154768,1
71,259,43,0.139855905788076,1
71,260,43,0.128660956990127,1
71,275,43,0.122486745842389,1
72,260,43,0.129870193954642,1
72,261,43,0.120947014648916,1
73,261,43,0.12447104200215,1
50,260,44,0.162270876334602,1
50,262,44,0.165876953122792,1
50,263,44,0.217918188080906,1
50,264,44,0.236418516137323,1
50,265,44,0.208069217454486,1
50,266,44,0.157299683965409,1
51,258,44,0.116641344831576,1
51,259,44,0.145739016328203,1
51,260,44,0.132703802458407,1
51,262,44,0.137169519903283,1
51,263,44,0.216798184440441,1
51,264,44,0.255025118644873,1
51,265,44,0.197384183459851,1
51,266,44,0.131754775378395,1
51,268,44,0.13347131268167,1
52,262,44,0.114719890036092,1
52,263,44,0.20130705798025,1
52,264,44,0.232313406371266,1
52,265,44,0.153581161647586,1
53,263,44,0.134673236211549,1
53,264,44,0.145483105000288,1
55,271,44,0.116322910114803,1
56,271,44,0.125198981951056,1
56,272,44,0.13224034739686,1
57,272,44,0.137216662703358,1
58,272,44,0.129153807112625,1
58,273,44,0.124547356102697,1
59,272,44,0.147487963570475,1
59,273,44,0.167361639238186,1
59,274,44,0.146770634579068,1
60,272,44,0.127845762230889,1
60,273,44,0.174055033583857,1
60,274,44,0.204016985822913,1
60,275,44,0.157111937145823,1
61,273,44,0.135590642402677,1
61,274,44,0.213499719427912,1
61,275,44,0.205658657580327,1
61,276,44,0.128283119754348,1
62,252,44,0.138110373837341,1
62,253,44,0.17645604241858,1
62,254,44,0.139436154681333,1
62,274,44,0.128065742336463,1
62,275,44,0.150223871182552,1
63,252,44,0.139582293828507,1
63,253,44,0.223150885790013,1
63,254,44,0.231740508881265,1
63,255,44,0.148814074166754,1
63,275,44,0.117801966887594,1
64,252,44,0.117193385489467,1
64,253,44,0.186688491400249,1
64,254,44,0.242341244059277,1
64,255,44,0.191986338739638,1
65,253,44,0.13344808869922,1
65,254,44,0.171574754654877,1
65,255,44,0.176916176403529,1
65,256,44,0.14487260397278,1
66,254,44,0.128491699852309,1
66,255,44,0.158071846051282,1
66,256,44,0.19340341385947,1
66,257,44,0.147560603288403,1
67,255,44,0.142712008108515,1
67,256,44,0.20153256143662,1
67,257,44,0.186287913033582,1
68,256,44,0.14009485842698,1
68,257,44,0.158759909527278,1
68,258,44,0.126325274438696,1
69,257,44,0.116740199856266,1
69,258,44,0.132948007580157,1
70,258,44,0.124430034949974,1
70,259,44,0.139093565609588,1
71,259,44,0.146858266249156,1
71,260,44,0.140704558627507,1
71,275,44,0.127471116526167,1
71,276,44,0.128275264583813,1
72,259,44,0.123761980371636,1
72,260,44,0.160301006837367,1
72,261,44,0.128925135678934,1
72,275,44,0.140254941385118,1
73,261,44,0.125633147943457,1
49,260,45,0.136321479460955,1
49,262,45,0.156049545940523,1
49,263,45,0.186482796634793,1
49,264,45,0.194533215853585,1
49,265,45,0.19233744248649,1
49,266,45,0.168134943680194,1
50,259,45,0.193502092231149,1
50,260,45,0.156497585082685,1
50,261,45,0.127413668967144,1
50,262,45,0.14095143709815,1
50,263,45,0.185836658806628,1
50,264,45,0.224689509957954,1
50,265,45,0.234953238299353,1
50,266,45,0.174923342014926,1
50,267,45,0.125451913731526,1
50,268,45,0.129086996944044,1
51,259,45,0.142107925473722,1
51,260,45,0.127199647956459,1
51,262,45,0.117194622060541,1
51,263,45,0.177186985468665,1
51,264,45,0.229049306257719,1
51,265,45,0.213391113157041,1
51,266,45,0.143857661766108,1
51,267,45,0.11420857378556,1
51,268,45,0.147436015808513,1
51,269,45,0.166285669304811,1
52,263,45,0.151756760016084,1
52,264,45,0.179607402580811,1
52,265,45,0.142643348971757,1
53,264,45,0.117484980725508,1
58,273,45,0.114371895382224,1
59,273,45,0.145247202570033,1
59,274,45,0.16655319262395,1
59,275,45,0.12117880695246,1
60,273,45,0.138205271834595,1
60,274,45,0.198235862954196,1
60,275,45,0.197114905387474,1
60,276,45,0.125511422242338,1
61,274,45,0.193835094932857,1
61,275,45,0.255006016566001,1
61,276,45,0.189115538888723,1
62,253,45,0.135481788817591,1
62,254,45,0.117080727976222,1
62,274,45,0.122175577452782,1
62,275,45,0.176634155760659,1
62,276,45,0.161705916453207,1
63,252,45,0.117111783575472,1
63,253,45,0.170420468553503,1
63,254,45,0.179926284818544,1
63,255,45,0.125210853033363,1
63,275,45,0.117223322286318,1
63,276,45,0.153130025189306,1
64,253,45,0.15522099621369,1
64,254,45,0.18582931004139,1
64,255,45,0.151881877455006,1
64,276,45,0.140563094896678,1
65,253,45,0.139758216673255,1
65,254,45,0.161237126470742,1
65,255,45,0.148770688187369,1
65,256,45,0.120250577820221,1
66,254,45,0.153079078461071,1
66,255,45,0.142300618577603,1
66,256,45,0.141991699569664,1
66,257,45,0.114192097948112,1
67,255,45,0.121891766726072,1
67,256,45,0.138868109260688,1
67,257,45,0.138032564074638,1
67,276,45,0.123498885154627,1
68,257,45,0.125075642819107,1
69,258,45,0.115752756634899,1
70,259,45,0.127164317354354,1
71,259,45,0.133918162360227,1
71,260,45,0.136494093005973,1
71,275,45,0.118516905174925,1
71,276,45,0.128219819092243,1
72,259,45,0.128087659086635,1
72,260,45,0.173853872912338,1
72,261,45,0.127761698951614,1
72,275,45,0.151517925145854,1
72,276,45,0.140760581185578,1
73,260,45,0.145023618743045,1
73,261,45,0.129229956337029,1
73,275,45,0.158202828370153,1
48,263,46,0.150333749355099,1
48,264,46,0.147396386649819,1
49,259,46,0.15496667476287,1
49,260,46,0.123486707873769,1
49,262,46,0.130474900763405,1
49,263,46,0.155514640624653,1
49,264,46,0.171997426424728,1
49,265,46,0.178150027020844,1
49,266,46,0.155352402499786,1
49,268,46,0.140715840866446,1
50,258,46,0.134497560681016,1
50,259,46,0.165307777122879,1
50,260,46,0.136472082040861,1
50,262,46,0.117211203889796,1
50,263,46,0.158140976262735,1
50,264,46,0.213089248492655,1
50,265,46,0.233118496578302,1
50,266,46,0.167312777015474,1
50,268,46,0.119816882902514,1
50,269,46,0.141820228380781,1
51,259,46,0.125421918050339,1
51,260,46,0.114773698543098,1
51,263,46,0.142131820737613,1
51,264,46,0.194758377780801,1
51,265,46,0.19761197162849,1
51,266,46,0.135335508348009,1
51,268,46,0.136499957885922,1
51,269,46,0.165632229818877,1
52,264,46,0.132635791049355,1
52,265,46,0.121240988812164,1
59,274,46,0.164516972255962,1
59,275,46,0.138371525871234,1
60,274,46,0.174105544568,1
60,275,46,0.199648663071173,1
60,276,46,0.145490065128903,1
61,274,46,0.156201973934872,1
61,275,46,0.244953824316273,1
61,276,46,0.223234501548328,1
62,275,46,0.17695573490102,1
62,276,46,0.188516355430756,1
63,253,46,0.122425706338819,1
63,254,46,0.127880280229146,1
63,276,46,0.148642485209197,1
64,253,46,0.123368750770207,1
64,254,46,0.134157150329733,1
64,276,46,0.131414117712898,1
64,277,46,0.150336034067368,1
65,254,46,0.147365460596109,1
65,255,46,0.12124678303091,1
66,255,46,0.132069135299059,1
71,259,46,0.1177690505433,1
71,260,46,0.124224434399457,1
71,276,46,0.11475739935866,1
72,260,46,0.168187386070585,1
72,261,46,0.117775386497944,1
72,275,46,0.139725512312574,1
72,276,46,0.144380778437743,1
73,261,46,0.128505855646885,1
73,262,46,0.117779272864176,1
73,275,46,0.15629448122805,1
73,276,46,0.14935768258761,1
74,275,46,0.149505953347777,1
76,270,46,0.120412274209188,1
76,271,46,0.131382214179198,1
48,264,47,0.13837212649147,1
48,265,47,0.133007633859643,1
48,266,47,0.137951845425695,1
49,259,47,0.127698268743968,1
49,262,47,0.114680084224387,1
49,263,47,0.141301033405979,1
49,264,47,0.175276106300078,1
49,265,47,0.177970512231549,1
49,266,47,0.1473815242432,1
49,267,47,0.1289447088325,1
49,268,47,0.137660909694227,1
49,269,47,0.150645094397716,1
50,258,47,0.119842462258438,1
50,259,47,0.12827599474959,1
50,263,47,0.144671349086322,1
50,264,47,0.211018262812195,1
50,265,47,0.215985180178534,1
50,266,47,0.150252265209777,1
50,269,47,0.142507396814857,1
50,270,47,0.119341592089261,1
51,263,47,0.123580604837296,1
51,264,47,0.170592870114908,1
51,265,47,0.168772048651087,1
51,266,47,0.120422708513676,1
51,268,47,0.115049253685783,1
51,269,47,0.148972308156715,1
51,270,47,0.114156154948903,1
59,274,47,0.148797197915815,1
59,275,47,0.141798900473977,1
60,274,47,0.147061958947159,1
60,275,47,0.178246856424347,1
60,276,47,0.148942500905406,1
61,274,47,0.125329822947518,1
61,275,47,0.202748146132646,1
61,276,47,0.217584408105952,1
61,277,47,0.117122429863573,1
62,275,47,0.166195069864146,1
62,276,47,0.196378521424666,1
62,277,47,0.129516876156724,1
63,276,47,0.138178915205424,1
63,277,47,0.142196546400669,1
64,277,47,0.148948507107763,1
65,277,47,0.128021425984556,1
66,277,47,0.120560026787191,1
72,276,47,0.126499901828034,1
73,275,47,0.130140849920501,1
73,276,47,0.143772102824677,1
74,263,47,0.167355727250767,1
74,264,47,0.116743202957445,1
74,275,47,0.151141465803557,1
74,276,47,0.175551614335293,1
75,264,47,0.127138184485664,1
75,275,47,0.150344548742476,1
76,270,47,0.117852795847156,1
76,271,47,0.116362350843619,1
77,269,47,0.181354536185508,1
77,270,47,0.192200430411527,1
48,263,48,0.117919252709716,1
48,264,48,0.124756407275353,1
48,265,48,0.120653464452892,1
48,266,48,0.114204746303665,1
48,268,48,0.155890746660928,1
49,263,48,0.127052001370262,1
49,264,48,0.170612172400525,1
49,265,48,0.168037725640068,1
49,266,48,0.131213663653422,1
49,267,48,0.117960083108882,1
49,268,48,0.137406388036662,1
49,269,48,0.161941359585635,1
50,263,48,0.126991008974161,1
50,264,48,0.189622097284839,1
50,265,48,0.183857367815498,1
50,266,48,0.126761430721683,1
50,269,48,0.141220620955588,1
50,270,48,0.140121061956874,1
51,264,48,0.139278273997393,1
51,265,48,0.134696625070143,1
51,269,48,0.124939066488236,1
51,270,48,0.11831809987688,1
52,251,48,0.12014550460956,1
59,274,48,0.121660115744937,1
59,275,48,0.12703070879406,1
60,274,48,0.118771297286949,1
60,275,48,0.146571617297411,1
60,276,48,0.131694595586143,1
61,275,48,0.158705606391843,1
61,276,48,0.175522113282535,1
62,275,48,0.145907060448682,1
62,276,48,0.173090307939644,1
62,277,48,0.125276438407737,1
63,276,48,0.11959090837145,1
63,277,48,0.127108648102304,1
64,277,48,0.127584786850006,1
65,277,48,0.12401261566297,1
66,277,48,0.120492227361752,1
73,276,48,0.117655132905246,1
74,263,48,0.200756230339698,1
74,264,48,0.15373513241156,1
74,275,48,0.131830689065452,1
74,276,48,0.187978447013707,1
75,264,48,0.178943293253042,1
75,275,48,0.166772678101094,1
77,268,48,0.131758967943179,1
77,269,48,0.170213984737934,1
77,270,48,0.192658150138666,1
77,271,48,0.179200876896123,1
78,269,48,0.219843611680693,1
78,270,48,0.254654453521321,1
48,268,49,0.14231857830034,1
49,256,49,0.116863126797857,1
49,257,49,0.124112436390784,1
49,263,49,0.115509705646151,1
49,264,49,0.154530812901568,1
49,265,49,0.151584334900944,1
49,266,49,0.116168904020227,1
49,268,49,0.152016934569986,1
49,269,49,0.196021034615699,1
49,270,49,0.183069259851208,1
50,256,49,0.121071095723509,1
50,257,49,0.127987061085575,1
50,263,49,0.11459146329744,1
50,264,49,0.161852927088566,1
50,265,49,0.155647436581098,1
50,268,49,0.114925443479139,1
50,269,49,0.150911475360721,1
50,270,49,0.160597100836742,1
50,271,49,0.153472520046113,1
51,269,49,0.115588905079203,1
51,270,49,0.120626518980353,1
51,271,49,0.114592688091646,1
52,251,49,0.122296502326921,1
61,275,49,0.115424641333149,1
61,276,49,0.121312792372509,1
62,275,49,0.113815862366295,1
62,276,49,0.129503956933221,1
65,277,49,0.114123686125569,1
74,263,49,0.191104746002178,1
74,264,49,0.168158473861196,1
74,276,49,0.164118584386625,1
75,264,49,0.216532828064897,1
75,265,49,0.123703366902744,1
75,275,49,0.156326596745364,1
75,276,49,0.284441707709835,1
76,275,49,0.167620588997881,1
77,268,49,0.132507011004682,1
77,269,49,0.167079995455071,1
77,270,49,0.18690400807309,1
77,271,49,0.181888416913918,1
77,272,49,0.151680964097702,1
78,269,49,0.195840601230749,1
78,270,49,0.237208555507862,1
78,271,49,0.264384383572382,1
48,268,50,0.12594419856439,1
48,269,50,0.155763662485156,1
48,270,50,0.128450221725437,1
49,255,50,0.122638726315778,1
49,256,50,0.132826434978314,1
49,257,50,0.131812564466572,1
49,264,50,0.12914689409148,1
49,265,50,0.126575097126181,1
49,268,50,0.145200106877427,1
49,269,50,0.200544812016701,1
49,270,50,0.188420656606521,1
49,271,50,0.15212441026159,1
50,255,50,0.114182817776625,1
50,256,50,0.1333543330581,1
50,257,50,0.135083636485602,1
50,264,50,0.133291774338639,1
50,265,50,0.126932136414187,1
50,269,50,0.141331464831259,1
50,270,50,0.160633126274022,1
50,271,50,0.172816095359839,1
50,272,50,0.133757113698965,1
51,271,50,0.121950015112076,1
53,250,50,0.1138545493756,1
54,249,50,0.122947080034083,1
55,248,50,0.126122841865501,1
55,249,50,0.123333102192683,1
56,248,50,0.133370632242538,1
56,249,50,0.116442127343173,1
57,248,50,0.117919782668747,1
65,278,50,0.120223243711059,1
74,263,50,0.156144679475125,1
74,264,50,0.156899352912956,1
74,276,50,0.122548221090052,1
75,264,50,0.214648458624756,1
75,265,50,0.126602501896547,1
75,275,50,0.126717938750491,1
75,276,50,0.233679051911301,1
76,275,50,0.160130454244138,1
77,267,50,0.116532597238296,1
77,268,50,0.139272432671178,1
77,269,50,0.172442050275353,1
77,270,50,0.180616691891146,1
77,271,50,0.174946707319785,1
77,272,50,0.155849362748996,1
77,273,50,0.142039772742261,1
78,269,50,0.195705096594808,1
78,270,50,0.230030931706606,1
78,271,50,0.250375046118213,1
78,272,50,0.253314787750701,1
48,269,51,0.146400099001058,1
48,270,51,0.127711553050359,1
49,254,51,0.122372333575905,1
49,255,51,0.133835347428893,1
49,256,51,0.13757743525832,1
49,257,51,0.127937021176127,1
49,268,51,0.133368288645932,1
49,269,51,0.186022168021415,1
49,270,51,0.178982781089328,1
49,271,51,0.152203256388621,1
49,272,51,0.119377252443653,1
50,255,51,0.123093501826074,1
50,256,51,0.134070413701565,1
50,257,51,0.127002797618397,1
50,263,51,0.116202267885481,1
50,269,51,0.137502699258001,1
50,270,51,0.160368182088836,1
50,271,51,0.176366020044417,1
50,272,51,0.142942481402913,1
51,255,51,0.120245184014966,1
51,256,51,0.117412235015773,1
51,271,51,0.121770111686157,1
53,250,51,0.124885434634241,1
54,249,51,0.136516857690596,1
54,250,51,0.13259173378853,1
55,248,51,0.136757341322258,1
55,249,51,0.13215961697105,1
56,247,51,0.121061356254195,1
56,248,51,0.161879907891707,1
56,249,51,0.135086192065821,1
57,248,51,0.132209056260262,1
57,249,51,0.122648088925335,1
64,278,51,0.139484180746461,1
65,278,51,0.12616858321836,1
74,264,51,0.121037201899222,1
75,263,51,0.144130119592675,1
75,264,51,0.166587286654982,1
75,265,51,0.113829299771962,1
75,276,51,0.164450692046413,1
75,277,51,0.157191584099835,1
76,264,51,0.126620473396151,1
76,275,51,0.138247821656397,1
76,276,51,0.260306713907293,1
77,268,51,0.132742124384824,1
77,269,51,0.165493286337666,1
77,270,51,0.163050516731254,1
77,271,51,0.152985322819951,1
77,272,51,0.148195647307507,1
77,273,51,0.147038805625913,1
78,270,51,0.214733723144503,1
78,271,51,0.217557768831965,1
48,269,52,0.124732500234595,1
48,270,52,0.125139461663376,1
49,254,52,0.121696459157636,1
49,255,52,0.132460645477853,1
49,256,52,0.121500268324146,1
49,269,52,0.154751629164724,1
49,270,52,0.161750692102941,1
49,271,52,0.150127819052296,1
49,272,52,0.131838756219599,1
50,254,52,0.114356561900911,1
50,255,52,0.134728952571069,1
50,256,52,0.129281597900439,1
50,262,52,0.120246738561458,1
50,263,52,0.115348868968501,1
50,269,52,0.126654061021885,1
50,270,52,0.153160633267596,1
50,271,52,0.165313665556563,1
50,272,52,0.141967403892283,1
51,255,52,0.141293767078813,1
51,256,52,0.135477513814736,1
52,255,52,0.120098220487076,1
53,250,52,0.126291769251033,1
54,249,52,0.138124670954326,1
54,250,52,0.140708468547473,1
55,248,52,0.137963798946074,1
55,249,52,0.129774259593059,1
56,247,52,0.137303446438996,1
56,248,52,0.179332024091137,1
56,249,52,0.143648728362126,1
57,248,52,0.137133317812992,1
57,249,52,0.127583008543034,1
64,278,52,0.12479942817185,1
65,278,52,0.125658939282994,1
65,279,52,0.115526440574681,1
75,277,52,0.11620979330373,1
76,276,52,0.199418095561836,1
76,277,52,0.203468466448364,1
77,268,52,0.114928317034777,1
77,269,52,0.137360788006212,1
77,270,52,0.132307499094594,1
77,271,52,0.122618493657639,1
77,272,52,0.131299422801598,1
77,273,52,0.140001950720311,1
77,274,52,0.131282487666322,1
77,276,52,0.266155765746991,1
78,269,52,0.167645650171641,1
78,270,52,0.184452017179529,1
78,271,52,0.177482455294069,1
78,272,52,0.215812978823873,1
79,270,52,0.268218955141253,1
79,271,52,0.191015465570658,1
48,270,53,0.116232911294374,1
49,254,53,0.129169906090317,1
49,255,53,0.127064402411601,1
49,269,53,0.124461184764163,1
49,270,53,0.145597941233997,1
49,271,53,0.145702366716952,1
49,272,53,0.131461272289841,1
50,254,53,0.141555413741136,1
50,255,53,0.154171524231894,1
50,256,53,0.128000274730762,1
50,262,53,0.1143921869247,1
50,270,53,0.138987079174843,1
50,271,53,0.145406578916129,1
50,272,53,0.127395167508509,1
51,254,53,0.123822372147501,1
51,255,53,0.15991761092019,1
51,256,53,0.149587037079608,1
51,257,53,0.121005345472991,1
52,255,53,0.11467353628613,1
53,250,53,0.114565377536219,1
54,249,53,0.12633603849547,1
54,250,53,0.130708059183563,1
55,248,53,0.127559925882992,1
55,249,53,0.119699632410994,1
56,247,53,0.135766306156343,1
56,248,53,0.169701384808859,1
56,249,53,0.137190447396596,1
57,248,53,0.127372120179069,1
57,249,53,0.12098624339412,1
64,278,53,0.118020156909328,1
65,278,53,0.126813190053767,1
65,279,53,0.126421986073525,1
76,276,53,0.147548849974769,1
76,277,53,0.162372922890349,1
77,273,53,0.125552700162464,1
77,274,53,0.129348879143714,1
77,275,53,0.150879866248704,1
77,276,53,0.236736962630963,1
78,270,53,0.152675979844787,1
78,271,53,0.144837485354288,1
78,272,53,0.178161603681468,1
78,273,53,0.242186496022057,1
79,272,53,0.168698513891239,1
49,254,54,0.132608150741641,1
49,255,54,0.115274085860712,1
49,270,54,0.119602908999298,1
49,271,54,0.129199454250545,1
50,253,54,0.123048243324777,1
50,254,54,0.168576387776629,1
50,255,54,0.165737679889294,1
50,256,54,0.122403259629615,1
51,254,54,0.126813743566533,1
51,255,54,0.156260752279907,1
51,256,54,0.143872100205502,1
51,257,54,0.12091307371716,1
55,248,54,0.115567141428306,1
56,247,54,0.121682303363059,1
56,248,54,0.14149533994069,1
56,249,54,0.11820071983982,1
65,278,54,0.126216467961079,1
65,279,54,0.140578416601124,1
66,279,54,0.128876614985376,1
70,280,54,0.133457545523716,1
71,280,54,0.140719809670749,1
72,280,54,0.116908950588787,1
76,277,54,0.131496120040384,1
76,278,54,0.121050780627298,1
77,274,54,0.119393033445926,1
77,275,54,0.134936331428559,1
77,276,54,0.186734150315036,1
77,277,54,0.201815559559481,1
78,270,54,0.114603475702156,1
78,272,54,0.136954203437187,1
78,273,54,0.193165686014772,1
78,274,54,0.216079041811459,1
78,276,54,0.198271805953404,1
79,273,54,0.205969519771382,1
49,253,55,0.123614993290012,1
49,254,55,0.137023993153212,1
50,253,55,0.132180662233037,1
50,254,55,0.179723816914747,1
50,255,55,0.163189342443792,1
50,256,55,0.116110420096876,1
51,254,55,0.123470196705718,1
51,255,55,0.137943684056609,1
51,256,55,0.126077972000828,1
57,251,55,0.121534197479034,1
57,252,55,0.128173653772159,1
58,251,55,0.116317893169304,1
58,252,55,0.147472736080968,1
58,253,55,0.11865024286727,1
65,278,55,0.118114513170683,1
65,279,55,0.152469272268737,1
66,279,55,0.158211013292974,1
66,280,55,0.124560039788853,1
67,279,55,0.120452268450771,1
69,280,55,0.132821771338836,1
70,280,55,0.173623164080592,1
70,281,55,0.210723794020517,1
71,280,55,0.170462559077477,1
71,281,55,0.245026464034201,1
72,280,55,0.143974170314983,1
73,280,55,0.122495861137732,1
76,278,55,0.125667983917133,1
77,267,55,0.116747748828249,1
77,275,55,0.114275348623539,1
77,276,55,0.139503942329905,1
77,277,55,0.166497782462982,1
77,278,55,0.153285691822181,1
78,273,55,0.146165963100908,1
78,274,55,0.171354327028344,1
78,275,55,0.166465360747117,1
79,274,55,0.207577910101613,1
48,252,56,0.115405892560298,1
48,253,56,0.122994411264037,1
49,253,56,0.134578020238876,1
49,254,56,0.138508420177524,1
50,253,56,0.125283598743097,1
50,254,56,0.16409175668276,1
50,255,56,0.144696975549716,1
57,251,56,0.123266268470368,1
57,252,56,0.1498934829454,1
58,251,56,0.127615394928297,1
58,252,56,0.192915003615969,1
58,253,56,0.158420123349967,1
59,252,56,0.114564376502493,1
59,253,56,0.114583384366425,1
62,278,56,0.135605434148092,1
63,278,56,0.119152208285111,1
65,279,56,0.147040242403732,1
65,280,56,0.118198340912611,1
66,279,56,0.169532422092725,1
66,280,56,0.155196818304983,1
67,279,56,0.12683881651716,1
67,280,56,0.122084436276219,1
69,280,56,0.150704850222743,1
70,279,56,0.120082710352752,1
70,280,56,0.19668249414831,1
70,281,56,0.18192693904708,1
71,280,56,0.187868203758272,1
71,281,56,0.215123984975355,1
72,280,56,0.167728111796954,1
72,281,56,0.21213652347629,1
73,280,56,0.127861731663041,1
76,278,56,0.11654009910281,1
77,277,56,0.135561341556664,1
77,278,56,0.157076924519136,1
78,274,56,0.134337053755652,1
47,252,57,0.12760795194812,1
48,252,57,0.14650408873992,1
48,253,57,0.146624259894547,1
49,253,57,0.135964381288612,1
49,254,57,0.136020804260173,1
50,254,57,0.130483144570563,1
50,255,57,0.117079762273097,1
57,252,57,0.150462870928925,1
57,253,57,0.120967047100309,1
58,251,57,0.124331721661183,1
58,252,57,0.207915717765207,1
58,253,57,0.184060801422419,1
59,252,57,0.131156687169094,1
59,253,57,0.144981116028712,1
62,278,57,0.137850670358134,1
63,278,57,0.122084836689709,1
65,279,57,0.133485927774074,1
65,280,57,0.125014073356505,1
66,279,57,0.162467726672664,1
66,280,57,0.172130787670807,1
67,279,57,0.126429841244059,1
67,280,57,0.137890205301889,1
69,260,57,0.162991255534657,1
69,261,57,0.143623949833183,1
69,280,57,0.153527941983948,1
70,279,57,0.126438061497482,1
70,280,57,0.200380077195952,1
70,281,57,0.146988329972372,1
71,262,57,0.118731891888734,1
71,279,57,0.120054328102394,1
71,280,57,0.203648487642957,1
71,281,57,0.184531463926796,1
72,262,57,0.118865052928068,1
72,280,57,0.190829402843105,1
72,281,57,0.214918784838329,1
73,280,57,0.129842977614154,1
76,265,57,0.118959715387975,1
76,266,57,0.122042958149347,1
47,250,58,0.122482046872309,1
47,251,58,0.152188888610431,1
47,252,58,0.166320363956078,1
47,253,58,0.120348620241062,1
48,251,58,0.128481607076974,1
48,252,58,0.161958224059707,1
48,253,58,0.151675299424497,1
49,248,58,0.150315683640556,1
49,249,58,0.12650582559232,1
49,253,58,0.127281426523465,1
49,254,58,0.126435282156783,1
50,248,58,0.134041642814585,1
50,249,58,0.116292608235064,1
54,248,58,0.127010911880014,1
54,279,58,0.134746606095254,1
55,248,58,0.115343581155053,1
57,252,58,0.13638652309943,1
57,253,58,0.123165764684246,1
58,252,58,0.190726213931224,1
58,253,58,0.200323124265359,1
58,254,58,0.123932933378356,1
59,252,58,0.141907377199306,1
59,253,58,0.186557191105959,1
59,254,58,0.155131574459762,1
60,254,58,0.117515082398501,1
62,278,58,0.116852939807583,1
65,280,58,0.116439406886811,1
66,279,58,0.1348066798957,1
66,280,58,0.161175545231273,1
67,279,58,0.114935253609657,1
67,280,58,0.139338230029165,1
68,260,58,0.117670454609692,1
68,280,58,0.114278457716524,1
69,260,58,0.180930239207961,1
69,261,58,0.184937353660646,1
69,280,58,0.135805181595526,1
70,261,58,0.133955977881347,1
70,279,58,0.122196446061759,1
70,280,58,0.186680859990194,1
70,281,58,0.124035521670001,1
71,262,58,0.12248065720196,1
71,279,58,0.132589472629995,1
71,280,58,0.224239633624483,1
71,281,58,0.171650067721698,1
72,262,58,0.115094853716233,1
72,279,58,0.116678371302582,1
72,280,58,0.208803316705025,1
72,281,58,0.199231785520068,1
73,263,58,0.116387600447257,1
73,280,58,0.126721012512874,1
76,266,58,0.131003729215713,1
46,248,59,0.120020610931119,1
46,249,59,0.117760900951081,1
46,250,59,0.118764125174722,1
46,251,59,0.124999752685785,1
47,248,59,0.122567546929403,1
47,249,59,0.126992186660898,1
47,250,59,0.150575269351089,1
47,251,59,0.188428417562117,1
47,252,59,0.180563095367753,1
47,253,59,0.116223925544572,1
48,247,59,0.135795548118019,1
48,248,59,0.148851901464741,1
48,249,59,0.11910021341568,1
48,251,59,0.136691061112709,1
48,252,59,0.156022294269433,1
48,253,59,0.136434443172752,1
49,247,59,0.161573544463987,1
49,248,59,0.193836284396461,1
49,249,59,0.132139631627126,1
49,253,59,0.114178566327505,1
50,247,59,0.126019170102057,1
50,248,59,0.152041571776521,1
50,249,59,0.114204275228971,1
53,279,59,0.156017536415016,1
54,248,59,0.146953458668095,1
54,249,59,0.124542786678158,1
54,279,59,0.140601817236585,1
54,280,59,0.179469695670673,1
55,248,59,0.121498619562715,1
58,252,59,0.147280843804068,1
58,253,59,0.188559176120508,1
58,254,59,0.142355110142917,1
59,252,59,0.130353834566858,1
59,253,59,0.200426690036996,1
59,254,59,0.184790013273001,1
59,255,59,0.12696067176382,1
60,253,59,0.1141656117734,1
60,254,59,0.129686168625144,1
60,255,59,0.118565096116196,1
66,280,59,0.128531305457268,1
67,280,59,0.123738968372799,1
69,260,59,0.15371096627972,1
69,261,59,0.187166349570587,1
70,261,59,0.141364404729288,1
70,280,59,0.164039691152124,1
70,281,59,0.120366108889104,1
71,279,59,0.130739079452212,1
71,280,59,0.224513045377306,1
71,281,59,0.169462373285618,1
72,279,59,0.116507112097311,1
72,280,59,0.19971965402767,1
72,281,59,0.167208280871315,1
73,280,59,0.116687474821058,1
45,248,60,0.122301872578441,1
46,247,60,0.121290063018488,1
46,248,60,0.164436948442194,1
46,249,60,0.147504604284066,1
46,250,60,0.13860845288895,1
46,251,60,0.143131735661523,1
46,252,60,0.114125582201215,1
47,247,60,0.142792291013365,1
47,248,60,0.164711632096693,1
47,249,60,0.148908925056538,1
47,250,60,0.168689716571315,1
47,251,60,0.20232961982011,1
47,252,60,0.173510294583734,1
48,246,60,0.134226162772512,1
48,247,60,0.186025618643554,1
48,248,60,0.185503220360828,1
48,249,60,0.127584245114107,1
48,250,60,0.113991749880441,1
48,251,60,0.136226133942741,1
48,252,60,0.140707479290614,1
48,253,60,0.116273105742702,1
49,246,60,0.149536537872333,1
49,247,60,0.207992809139,1
49,248,60,0.208439694148159,1
49,249,60,0.124719439688684,1
50,246,60,0.140500147540594,1
50,247,60,0.159900416693832,1
50,248,60,0.153874747174211,1
51,246,60,0.119009484429474,1
53,279,60,0.143908584940609,1
53,280,60,0.226642467873648,1
54,247,60,0.117547657213642,1
54,248,60,0.151630888857651,1
54,249,60,0.156369629418728,1
54,279,60,0.139744155093618,1
54,280,60,0.200968331721002,1
54,281,60,0.21338717968334,1
55,248,60,0.115227178597984,1
55,249,60,0.121652519665484,1
58,253,60,0.165070296592396,1
58,254,60,0.165586559127223,1
59,253,60,0.18096103571613,1
59,254,60,0.197591597647943,1
59,255,60,0.142133316399768,1
60,254,60,0.129571061523486,1
60,255,60,0.129103861418116,1
69,260,60,0.118904093243395,1
69,261,60,0.166053288157898,1
70,261,60,0.138588326222618,1
70,280,60,0.132719135939721,1
70,281,60,0.116016205157929,1
71,279,60,0.114804353728858,1
71,280,60,0.193525775511427,1
71,281,60,0.160564761558948,1
72,280,60,0.16544390593279,1
72,281,60,0.134158057148521,1
73,264,60,0.120292114831429,1
74,264,60,0.13617811965448,1
74,265,60,0.115330897468897,1
75,265,60,0.150130692607934,1
42,271,61,0.132310820171192,1
42,272,61,0.145777055609802,1
43,271,61,0.120726422146239,1
43,272,61,0.133957155568084,1
45,248,61,0.146533212932922,1
45,249,61,0.126830714032411,1
46,247,61,0.137439339711559,1
46,248,61,0.200076351786523,1
46,249,61,0.168957263444189,1
46,250,61,0.143299685567063,1
46,251,61,0.137583535675617,1
47,246,61,0.123701718141313,1
47,247,61,0.1900902748702,1
47,248,61,0.209151935532863,1
47,249,61,0.161695458594984,1
47,250,61,0.162450532446306,1
47,251,61,0.177884505769158,1
47,252,61,0.142749517431083,1
48,246,61,0.172278575579412,1
48,247,61,0.235637497847189,1
48,248,61,0.211208953848624,1
48,249,61,0.131678131525562,1
48,251,61,0.119854710200501,1
49,245,61,0.115331227221183,1
49,246,61,0.197237467246176,1
49,247,61,0.233216244577459,1
49,248,61,0.195408178214717,1
50,245,61,0.118476168990698,1
50,246,61,0.196089564206916,1
50,247,61,0.18907603927557,1
50,248,61,0.147970897570649,1
51,246,61,0.159791574885614,1
51,247,61,0.137543529657167,1
51,280,61,0.116527992483155,1
52,280,61,0.156798684250692,1
53,279,61,0.124167493245731,1
53,280,61,0.219909703460364,1
53,281,61,0.249927572265685,1
54,247,61,0.126689285632184,1
54,248,61,0.1353879507384,1
54,249,61,0.154839731909507,1
54,279,61,0.130362749655456,1
54,280,61,0.198748062469781,1
54,281,61,0.197452724827935,1
55,249,61,0.128313197873607,1
55,280,61,0.118003586856941,1
58,253,61,0.129713832486592,1
58,254,61,0.166916591420335,1
58,255,61,0.117134878012381,1
59,253,61,0.132717864038045,1
59,254,61,0.172761014951157,1
59,255,61,0.138353224619343,1
60,255,61,0.124597819979371,1
69,261,61,0.130909561384236,1
70,261,61,0.120740271742264,1
71,280,61,0.140871872582209,1
71,281,61,0.139318009147894,1
72,264,61,0.120070933485384,1
72,280,61,0.118151280550607,1
73,264,61,0.131332138939147,1
74,264,61,0.16187609218668,1
74,265,61,0.152900399829358,1
42,271,62,0.151328612002908,1
42,272,62,0.18167445478757,1
43,271,62,0.132422853510467,1
43,272,62,0.160331414708912,1
45,248,62,0.159009190478864,1
45,249,62,0.157268357498209,1
46,247,62,0.148793747293676,1
46,248,62,0.213330674273706,1
46,249,62,0.186882491736408,1
46,250,62,0.136531072369509,1
47,246,62,0.149711188815405,1
47,247,62,0.230998872435611,1
47,248,62,0.232211371592387,1
47,249,62,0.167124523790591,1
47,250,62,0.138240296238148,1
47,251,62,0.132765077499324,1
48,245,62,0.117290874397543,1
48,246,62,0.216424551546312,1
48,247,62,0.266402679548236,1
48,248,62,0.215020136558901,1
48,249,62,0.132261793072338,1
49,245,62,0.147113058774671,1
49,246,62,0.250623490912215,1
49,247,62,0.242289661380204,1
49,248,62,0.172510909618855,1
50,246,62,0.248175268616212,1
50,247,62,0.211830089387365,1
50,248,62,0.141651077234769,1
51,246,62,0.193704171498323,1
51,247,62,0.169000402109359,1
51,248,62,0.124457298397931,1
51,280,62,0.135589723807022,1
51,281,62,0.201590362301663,1
52,247,62,0.143083874472538,1
52,248,62,0.116885125986101,1
52,280,62,0.155627510121511,1
52,281,62,0.205679903049059,1
53,280,62,0.195152137341262,1
53,281,62,0.214877801339887,1
54,249,62,0.125125753389759,1
54,279,62,0.119080710923318,1
54,280,62,0.186685582514009,1
54,281,62,0.174738869164468,1
55,249,62,0.117368919697593,1
55,280,62,0.12977466000655,1
57,254,62,0.114517539900969,1
58,254,62,0.146670107239212,1
58,255,62,0.130082460212089,1
59,254,62,0.131821809307456,1
59,255,62,0.130554736147295,1
60,255,62,0.114054438145443,1
73,264,62,0.129439796559798,1
73,265,62,0.125108994907494,1
74,265,62,0.186583547735129,1
74,266,62,0.124642937158259,1
41,271,63,0.115210690983668,1
41,272,63,0.116797129233124,1
42,271,63,0.155298158248687,1
42,272,63,0.1928534223765,1
42,273,63,0.122758320403903,1
43,271,63,0.135174294810603,1
43,272,63,0.170308941619525,1
43,273,63,0.122314980231822,1
44,271,63,0.11870765509569,1
44,272,63,0.120435451084169,1
45,248,63,0.151895491513684,1
45,249,63,0.177839141276055,1
45,250,63,0.117698365785355,1
45,271,63,0.125094203162079,1
46,247,63,0.148710979469811,1
46,248,63,0.197065784073681,1
46,249,63,0.187568082070256,1
46,250,63,0.120475009581659,1
47,246,63,0.173952822151967,1
47,247,63,0.242594540922636,1
47,248,63,0.224290297707901,1
47,249,63,0.161185708667812,1
48,245,63,0.13249735397344,1
48,246,63,0.244683427441495,1
48,247,63,0.271059464889296,1
48,248,63,0.20794044918668,1
48,249,63,0.133894867716573,1
49,246,63,0.280009624998163,1
49,247,63,0.244848138708509,1
49,248,63,0.166587863721483,1
50,246,63,0.264805053274779,1
50,247,63,0.220055760169466,1
50,248,63,0.144847107054928,1
50,281,63,0.15624848078411,1
51,246,63,0.203694040565938,1
51,247,63,0.19452679746087,1
51,248,63,0.138508832367881,1
51,280,63,0.142958333066391,1
51,281,63,0.214038134250258,1
51,282,63,0.163720066971747,1
52,246,63,0.168355324199258,1
52,247,63,0.193596024525279,1
52,248,63,0.142671224816818,1
52,280,63,0.146472691611516,1
52,281,63,0.194650984527269,1
52,282,63,0.151890604113726,1
53,247,63,0.162973790440349,1
53,248,63,0.121341209953469,1
53,280,63,0.159266185278577,1
53,281,63,0.170499149804391,1
53,282,63,0.129200090201383,1
54,280,63,0.163305014835084,1
54,281,63,0.150439328971056,1
55,280,63,0.146209596394507,1
55,281,63,0.12412937152606,1
56,280,63,0.119244374049136,1
57,254,63,0.115327270193747,1
58,254,63,0.118423255525612,1
58,255,63,0.135807454530928,1
59,255,63,0.124046438826052,1
73,264,63,0.114007566213317,1
73,265,63,0.132798417810844,1
74,265,63,0.210654004304492,1
74,266,63,0.176148442419786,1
41,271,64,0.115543446371161,1
41,272,64,0.115841436446182,1
42,271,64,0.148694126772607,1
42,272,64,0.185338673969957,1
42,273,64,0.148654544721382,1
43,271,64,0.137118749828058,1
43,272,64,0.171708339661437,1
43,273,64,0.151672779174881,1
44,249,64,0.117045314936045,1
44,270,64,0.124663735106031,1
44,271,64,0.134414498435467,1
44,272,64,0.127890808748573,1
45,248,64,0.137549936273015,1
45,249,64,0.186361318247889,1
45,250,64,0.134751034197385,1
45,270,64,0.135497664034804,1
45,271,64,0.138434696987798,1
46,247,64,0.141227263108784,1
46,248,64,0.172104690132719,1
46,249,64,0.180816615991592,1
46,250,64,0.114718135282854,1
47,246,64,0.179160988646346,1
47,247,64,0.224779226133566,1
47,248,64,0.200118583632905,1
47,249,64,0.15614443216091,1
48,246,64,0.24793527961298,1
48,247,64,0.262500131900915,1
48,248,64,0.198695914501073,1
48,249,64,0.141486259975949,1
49,246,64,0.281394985014172,1
49,247,64,0.251535609289894,1
49,248,64,0.173101696170389,1
49,249,64,0.126245580377214,1
50,246,64,0.253378359280756,1
50,247,64,0.219756203771085,1
50,248,64,0.150558805290508,1
50,281,64,0.149632413349578,1
50,282,64,0.136094162367011,1
51,246,64,0.202645922923889,1
51,247,64,0.212698444925904,1
51,248,64,0.151372092197232,1
51,280,64,0.133338092757999,1
51,281,64,0.192806397345098,1
51,282,64,0.165876611593638,1
52,247,64,0.247022171978442,1
52,248,64,0.170515896509789,1
52,280,64,0.125982873796828,1
52,281,64,0.169643937249836,1
52,282,64,0.148536328526738,1
53,248,64,0.140339405077884,1
53,280,64,0.116701124210337,1
53,281,64,0.130417217667035,1
54,280,64,0.129401085996758,1
54,281,64,0.124782033738746,1
55,280,64,0.152739433606167,1
55,281,64,0.137804163508896,1
56,280,64,0.144066312525273,1
56,281,64,0.12870672189672,1
58,255,64,0.132827695103122,1
59,255,64,0.11851961385442,1
73,265,64,0.131535925852089,1
73,266,64,0.134782219342176,1
74,266,64,0.22588321323441,1
74,267,64,0.125697155217604,1
75,267,64,0.131685798266219,1
42,271,65,0.131029614770189,1
42,272,65,0.161530146707734,1
42,273,65,0.157488314050048,1
43,271,65,0.140409088802102,1
43,272,65,0.168790985853815,1
43,273,65,0.170524352300559,1
44,249,65,0.114893115978213,1
44,250,65,0.118191416114599,1
44,270,65,0.148449909873989,1
44,271,65,0.153790742779273,1
44,272,65,0.141298242288413,1
44,273,65,0.12462297536807,1
45,248,65,0.116529523475913,1
45,249,65,0.169755676167427,1
45,250,65,0.144447965466079,1
45,270,65,0.147508384658492,1
45,271,65,0.142188290816644,1
46,247,65,0.123355913984776,1
46,248,65,0.143164687336419,1
46,249,65,0.165901201692703,1
46,250,65,0.120430763890956,1
47,246,65,0.161246182881749,1
47,247,65,0.189367469635467,1
47,248,65,0.173603272951607,1
47,249,65,0.159779609588367,1
48,246,65,0.226662936069134,1
48,247,65,0.255424260233721,1
48,248,65,0.198222908400091,1
48,249,65,0.161251600240738,1
48,282,65,0.169910883502474,1
49,246,65,0.263849643132654,1
49,247,65,0.276972889086028,1
49,248,65,0.195550183681445,1
49,249,65,0.151557931164304,1
49,282,65,0.139715961273138,1
50,246,65,0.235316884409953,1
50,247,65,0.230655270553272,1
50,248,65,0.164407800695457,1
50,249,65,0.128372517954541,1
50,281,65,0.12571950771187,1
50,282,65,0.137207606292352,1
51,246,65,0.201612973887011,1
51,247,65,0.218754557647672,1
51,248,65,0.1651475646192,1
51,249,65,0.124545448250184,1
51,281,65,0.152721544544635,1
51,282,65,0.155776829022874,1
51,283,65,0.120125059967809,1
52,247,65,0.276939254352824,1
52,248,65,0.198067618626972,1
52,249,65,0.133209642465612,1
52,250,65,0.119569026951879,1
52,281,65,0.140557124024922,1
52,282,65,0.144357095157465,1
53,248,65,0.16997950730863,1
55,280,65,0.147501742505296,1
55,281,65,0.149871695740769,1
55,282,65,0.11493009534175,1
56,280,65,0.160372256884945,1
56,281,65,0.160356369890865,1
56,282,65,0.117252458256187,1
57,280,65,0.116302653902929,1
57,281,65,0.121142180894944,1
58,255,65,0.116992625231439,1
59,281,65,0.114367820586115,1
73,265,65,0.123457065498602,1
73,266,65,0.142644868187648,1
74,266,65,0.246971625663697,1
74,267,65,0.155700856451481,1
75,267,65,0.151409095114503,1
42,272,66,0.123289410014747,1
42,273,66,0.138736997396276,1
43,271,66,0.132913065614675,1
43,272,66,0.161131535077918,1
43,273,66,0.170306480254245,1
43,274,66,0.123104937164289,1
44,250,66,0.121907594835815,1
44,270,66,0.139588005609181,1
44,271,66,0.156476386721422,1
44,272,66,0.154715886372261,1
44,273,66,0.137367053299652,1
45,249,66,0.135471342736235,1
45,250,66,0.137232196391417,1
45,270,66,0.133980167566922,1
45,271,66,0.132544779418332,1
46,248,66,0.117048718450714,1
46,249,66,0.142794999692859,1
46,250,66,0.121635290108524,1
47,246,66,0.134239376417699,1
47,247,66,0.156044046143462,1
47,248,66,0.153050460673365,1
47,249,66,0.158277258171921,1
47,250,66,0.119579967661664,1
48,246,66,0.195964564536668,1
48,247,66,0.241880132594336,1
48,248,66,0.199166117707622,1
48,249,66,0.176167462060586,1
48,250,66,0.126762502416613,1
48,282,66,0.1832923372729,1
49,246,66,0.235082548303057,1
49,247,66,0.29073908133651,1
49,248,66,0.215590772890367,1
49,249,66,0.166803333286854,1
49,250,66,0.123118056594537,1
49,282,66,0.143742201358429,1
50,246,66,0.211867422056923,1
50,247,66,0.239531377720127,1
50,248,66,0.181188376363808,1
50,249,66,0.13932326163074,1
50,250,66,0.115320898908501,1
50,282,66,0.131145369599553,1
51,247,66,0.206975970856681,1
51,248,66,0.172677304977903,1
51,249,66,0.138326538237887,1
51,250,66,0.126298305412422,1
51,282,66,0.138224962756835,1
52,247,66,0.252481550830655,1
52,248,66,0.204852884314984,1
52,249,66,0.15605435090241,1
52,250,66,0.140702215030901,1
52,251,66,0.122185481798239,1
52,282,66,0.128712174586312,1
53,248,66,0.187828456830903,1
53,249,66,0.136640703227841,1
53,250,66,0.115724115293459,1
55,280,66,0.121304631003423,1
55,281,66,0.139920902319082,1
56,280,66,0.148560259121231,1
56,281,66,0.169392065387429,1
56,282,66,0.120272023495698,1
57,281,66,0.128349977030398,1
59,281,66,0.115699395648853,1
73,266,66,0.138748786040512,1
74,266,66,0.226481548757927,1
74,267,66,0.173683143666099,1
75,267,66,0.165471298926289,1
42,273,67,0.115108644427921,1
43,271,67,0.128170521125439,1
43,272,67,0.169542573752396,1
43,273,67,0.172032792357435,1
43,274,67,0.127404530118066,1
44,250,67,0.115646835489788,1
44,271,67,0.148712357363293,1
44,272,67,0.178466495000767,1
44,273,67,0.154851414561936,1
44,278,67,0.127453074365359,1
45,250,67,0.126864172112604,1
46,249,67,0.131174741106769,1
46,250,67,0.130863372510417,1
47,247,67,0.138879238400351,1
47,248,67,0.148351125510504,1
47,249,67,0.162710035718768,1
47,250,67,0.148361913121013,1
48,246,67,0.166933644324285,1
48,247,67,0.221772521233221,1
48,248,67,0.202711755612478,1
48,249,67,0.187362516850342,1
48,250,67,0.158888512918941,1
48,282,67,0.164089907714583,1
49,246,67,0.201020809441995,1
49,247,67,0.273498242137669,1
49,248,67,0.229291156005995,1
49,249,67,0.173799145809678,1
49,250,67,0.138098856061054,1
49,282,67,0.136527339102554,1
50,247,67,0.236118606432921,1
50,248,67,0.208585868625935,1
50,249,67,0.151769797008261,1
50,250,67,0.124987328090712,1
50,282,67,0.128699443792686,1
50,283,67,0.148994389783031,1
51,247,67,0.191496421057114,1
51,248,67,0.182576927910874,1
51,249,67,0.147785765215618,1
51,250,67,0.136374758008929,1
51,251,67,0.123468335960674,1
51,282,67,0.131658358165251,1
51,283,67,0.147644737228882,1
52,247,67,0.209597831285163,1
52,248,67,0.195157601807721,1
52,249,67,0.167180405026254,1
52,250,67,0.150773368037092,1
52,251,67,0.144485097928892,1
52,282,67,0.123247814119201,1
52,283,67,0.13278380271844,1
53,248,67,0.190235495421719,1
53,249,67,0.15986977328494,1
53,250,67,0.127529117597956,1
53,251,67,0.123407991292278,1
55,281,67,0.121292512606901,1
56,280,67,0.126341385193256,1
56,281,67,0.159760260195281,1
57,281,67,0.1300915872843,1
73,266,67,0.134792241456307,1
74,266,67,0.186781234230775,1
74,267,67,0.1673020129587,1
75,267,67,0.165533657439004,1
43,271,68,0.116950263839515,1
43,272,68,0.165751600146523,1
43,273,68,0.162700190257648,1
43,274,68,0.121634689488289,1
44,271,68,0.130707741208145,1
44,272,68,0.178839150414904,1
44,273,68,0.156165430315428,1
44,278,68,0.133267926182218,1
45,250,68,0.117682820320429,1
46,249,68,0.12224557915242,1
46,250,68,0.142305965275388,1
47,247,68,0.117680382508884,1
47,248,68,0.14459214965327,1
47,249,68,0.164562054104248,1
47,250,68,0.1739192463031,1
48,247,68,0.183559460178549,1
48,248,68,0.199966120307955,1
48,249,68,0.190791763974996,1
48,250,68,0.182127687528241,1
48,282,68,0.131839239071161,1
49,247,68,0.226144541921314,1
49,248,68,0.233944526055518,1
49,249,68,0.180109591759132,1
49,250,68,0.147780418517833,1
49,282,68,0.12310613840476,1
49,283,68,0.149632448680181,1
50,247,68,0.214627260263493,1
50,248,68,0.237375999008105,1
50,249,68,0.17324968428574,1
50,250,68,0.133331014860711,1
50,282,68,0.120832779035443,1
50,283,68,0.153037070375168,1
51,247,68,0.173241299156173,1
51,248,68,0.193508581285069,1
51,249,68,0.162707692122161,1
51,250,68,0.148464842941812,1
51,251,68,0.143012871739174,1
51,282,68,0.121064924645008,1
51,283,68,0.149998049750764,1
52,248,68,0.175026919563431,1
52,249,68,0.168164256303074,1
52,250,68,0.158680415672542,1
52,251,68,0.162645486708722,1
52,252,68,0.125011517776286,1
52,283,68,0.131205773152285,1
53,249,68,0.167974189440616,1
53,250,68,0.140681110884577,1
53,251,68,0.138709345311695,1
53,252,68,0.120012649768778,1
56,281,68,0.127760709694755,1
57,281,68,0.119646695392173,1
62,284,68,0.120206968080356,1
73,266,68,0.12501543947312,1
74,266,68,0.147518289003948,1
74,267,68,0.143972286016204,1
75,267,68,0.14804079327848,1
77,271,68,0.116397752106929,1
77,279,68,0.136062588585596,1
43,272,69,0.145967416893945,1
43,273,69,0.143131641446584,1
44,271,69,0.115703493998697,1
44,272,69,0.155481606511684,1
44,273,69,0.141474624430989,1
44,277,69,0.118791942135446,1
44,278,69,0.119510283937446,1
44,279,69,0.114831440523805,1
44,280,69,0.124660626013046,1
45,250,69,0.114539009130181,1
45,251,69,0.125694599637386,1
45,280,69,0.117642378557886,1
45,281,69,0.132383777864539,1
46,249,69,0.119489215121724,1
46,250,69,0.150949891502076,1
46,251,69,0.131895308736702,1
47,248,69,0.144099723497997,1
47,249,69,0.166867140354256,1
47,250,69,0.180209930669111,1
47,251,69,0.126170985699303,1
48,247,69,0.147367863077052,1
48,248,69,0.187123776195051,1
48,249,69,0.184698259699334,1
48,250,69,0.179196802100013,1
48,251,69,0.126786833424596,1
49,247,69,0.176137631255542,1
49,248,69,0.21554538484353,1
49,249,69,0.178070073868281,1
49,250,69,0.145782531853129,1
49,251,69,0.115730333479429,1
49,283,69,0.137781657915355,1
50,247,69,0.183118816909094,1
50,248,69,0.237306421275693,1
50,249,69,0.19106360940446,1
50,250,69,0.141847268068258,1
50,251,69,0.121850700789559,1
50,283,69,0.144243059750737,1
51,247,69,0.155754464751742,1
51,248,69,0.193846271179989,1
51,249,69,0.177369750673354,1
51,250,69,0.159646707640116,1
51,251,69,0.156817633230287,1
51,252,69,0.116469296576191,1
51,283,69,0.141306003244009,1
52,248,69,0.157354293299396,1
52,249,69,0.162755164674523,1
52,250,69,0.163058654546606,1
52,251,69,0.171668616287803,1
52,252,69,0.135968691622068,1
52,283,69,0.121563627870588,1
53,249,69,0.161829962197198,1
53,250,69,0.151885810928707,1
53,251,69,0.150394329560842,1
53,252,69,0.123583713930282,1
74,266,69,0.119337387747611,1
74,267,69,0.118588178776238,1
75,267,69,0.124331121040947,1
77,271,69,0.132180662233037,1
77,279,69,0.133417362852256,1
44,273,70,0.113943028980138,1
44,276,70,0.126549046695562,1
44,277,70,0.127168121282514,1
44,278,70,0.114065579061973,1
45,251,70,0.132154305603867,1
45,279,70,0.118051141847374,1
45,280,70,0.122541284515172,1
46,249,70,0.11517855191262,1
46,250,70,0.145316144351607,1
46,251,70,0.140819335976879,1
47,248,70,0.132002902196979,1
47,249,70,0.156866460122397,1
47,250,70,0.165420422859258,1
47,251,70,0.129849690428554,1
48,248,70,0.159661593600469,1
48,249,70,0.167899936291858,1
48,250,70,0.160574536358864,1
48,251,70,0.127264868247945,1
49,248,70,0.179385314415979,1
49,249,70,0.168710031667525,1
49,250,70,0.144488807642113,1
49,251,70,0.123384755532961,1
50,248,70,0.202198449071361,1
50,249,70,0.188369415456601,1
50,250,70,0.150531730272428,1
50,251,70,0.129371608497735,1
51,248,70,0.176140080843955,1
51,249,70,0.177758304858438,1
51,250,70,0.163365618594562,1
51,251,70,0.154367503081771,1
51,252,70,0.118605514325005,1
52,249,70,0.152519724368543,1
52,250,70,0.159101403350359,1
52,251,70,0.163118280826092,1
52,252,70,0.131733105942438,1
53,250,70,0.151053469050581,1
53,251,70,0.149488299823592,1
53,252,70,0.119637014807197,1
54,251,70,0.1156559978926,1
76,271,70,0.114663396403326,1
