x,y,z,signal,mito.p
234,331,1,0.150922604500384,1
234,332,1,0.180902398693503,1
235,331,1,0.160858759275932,1
235,332,1,0.205207297361567,1
236,331,1,0.158849460826747,1
236,332,1,0.213140854725463,1
237,332,1,0.162461402494887,1
237,333,1,0.22506516847327,1
238,333,1,0.187622656073641,1
238,334,1,0.280157471791105,1
239,333,1,0.166902152980942,1
240,333,1,0.140778988429275,1
241,334,1,0.216695702140601,1
242,334,1,0.174791276224257,1
242,335,1,0.29055752914916,1
243,334,1,0.153484873979982,1
243,335,1,0.231335219767651,1
243,336,1,0.236756064709835,1
243,337,1,0.226663948879728,1
244,334,1,0.143363951932292,1
244,335,1,0.193062190904339,1
244,336,1,0.180650067533268,1
244,337,1,0.16530168848245,1
245,334,1,0.129935661560343,1
245,335,1,0.185470080256054,1
245,336,1,0.196629580683224,1
245,337,1,0.17740592920991,1
246,335,1,0.177123967451377,1
246,336,1,0.214263143078198,1
246,337,1,0.202420042607764,1
247,335,1,0.131163211553616,1
247,336,1,0.163851061067485,1
234,331,2,0.16181343925228,1
234,332,2,0.186784272662556,1
235,330,2,0.119518445306532,1
235,331,2,0.187048357136424,1
236,331,2,0.180962990676113,1
237,332,2,0.16692153770463,1
238,333,2,0.174289946757254,1
239,333,2,0.149925633793316,1
240,333,2,0.121703737261669,1
242,334,2,0.169104792261713,1
243,334,2,0.16353348606203,1
243,335,2,0.2390408476405,1
244,334,2,0.157352491438688,1
244,335,2,0.199650971337178,1
244,336,2,0.1712707937081,1
245,334,2,0.13526184404262,1
245,335,2,0.186950797567144,1
245,336,2,0.186525228687921,1
246,334,2,0.11512064505577,1
246,335,2,0.178896503758988,1
246,336,2,0.205647752201144,1
247,335,2,0.130990609785465,1
247,336,2,0.154452956031395,1
233,331,3,0.202660078718466,1
234,331,3,0.170598169705224,1
234,332,3,0.189259063571342,1
235,330,3,0.125290558871712,1
235,331,3,0.203738580678325,1
236,331,3,0.18059823753998,1
237,332,3,0.157350065404011,1
238,333,3,0.154145391363203,1
239,333,3,0.126407135443773,1
242,334,3,0.16059679463819,1
243,334,3,0.168552810488158,1
243,335,3,0.236940090039333,1
243,336,3,0.213716437341224,1
244,334,3,0.164549393971827,1
244,335,3,0.203213709253452,1
244,336,3,0.165866872124325,1
245,334,3,0.133754499234409,1
245,335,3,0.187304668877828,1
245,336,3,0.177826528251103,1
246,335,3,0.175568879222855,1
246,336,3,0.192578668060797,1
247,335,3,0.134955492391767,1
249,335,3,0.133505430266436,1
250,335,3,0.141940917717572,1
253,316,3,0.136663055722107,1
233,330,4,0.132373579097398,1
233,331,4,0.20405610857631,1
234,331,4,0.183871358733932,1
234,332,4,0.202738795299956,1
235,330,4,0.129072935364406,1
235,331,4,0.218782916344295,1
236,331,4,0.174031680055866,1
237,332,4,0.1471012465767,1
238,333,4,0.142949052894905,1
242,334,4,0.1449037066795,1
243,334,4,0.15839545081283,1
243,335,4,0.222219123597564,1
243,336,4,0.197062722088165,1
244,334,4,0.159444275066921,1
244,335,4,0.201116861572251,1
244,336,4,0.160208004915759,1
245,334,4,0.129982981013429,1
245,335,4,0.190355902113693,1
246,335,4,0.177944073164307,1
247,335,4,0.150611294788369,1
248,335,4,0.133607665252061,1
249,335,4,0.163112769252163,1
250,334,4,0.124247835034918,1
250,335,4,0.186410098032528,1
250,336,4,0.152467352639356,1
251,335,4,0.149246944703745,1
254,316,4,0.128712963636425,1
232,330,5,0.20208362461452,1
233,330,5,0.123968570179012,1
233,331,5,0.192432246268806,1
233,332,5,0.194456454232079,1
234,331,5,0.186132823467208,1
234,332,5,0.217900546333588,1
235,327,5,0.114940659191779,1
235,330,5,0.117352255430266,1
235,331,5,0.213172605159888,1
236,327,5,0.129020139667994,1
236,331,5,0.151014428735255,1
237,332,5,0.136988391683157,1
238,333,5,0.131883049017772,1
242,334,5,0.132240194297584,1
243,334,5,0.15073730726921,1
243,335,5,0.213898813909291,1
244,334,5,0.166655356948371,1
244,335,5,0.221176988604138,1
244,336,5,0.167260899914717,1
245,334,5,0.15169699241419,1
245,335,5,0.230175834282706,1
245,336,5,0.189069244023098,1
246,334,5,0.12628976718358,1
246,335,5,0.217746222263593,1
246,336,5,0.200174358876762,1
247,335,5,0.194255552651642,1
247,336,5,0.182711254860078,1
248,335,5,0.177023699202602,1
248,336,5,0.150133601494174,1
249,334,5,0.128393704538937,1
249,335,5,0.207494836079196,1
249,336,5,0.155351707664611,1
250,334,5,0.153600911454162,1
250,335,5,0.244203001914071,1
250,336,5,0.178266794660802,1
251,334,5,0.135663105467594,1
251,335,5,0.209720192937121,1
251,336,5,0.161148717527408,1
252,316,5,0.126151447876339,1
252,335,5,0.132445783071234,1
254,316,5,0.140667755916981,1
256,317,5,0.134868767540466,1
256,318,5,0.115263993085377,1
257,318,5,0.129227824724035,1
232,330,6,0.195289373176705,1
233,331,6,0.173205839008527,1
233,332,6,0.196303314349651,1
234,331,6,0.179659538772651,1
234,332,6,0.227323783204642,1
235,331,6,0.198128340155123,1
235,332,6,0.255830797695277,1
236,327,6,0.117252493586789,1
236,331,6,0.125237845613371,1
236,332,6,0.187157599358132,1
237,332,6,0.114592052140808,1
237,333,6,0.199312009540582,1
238,334,6,0.169822180137456,1
238,335,6,0.247562400438363,1
239,334,6,0.148558151061972,1
240,334,6,0.152140933206507,1
241,334,6,0.130934622557996,1
242,334,6,0.116048191129701,1
242,335,6,0.213326929229883,1
243,334,6,0.136169145681545,1
243,335,6,0.18961708033934,1
243,336,6,0.163482186027774,1
244,334,6,0.161692561485611,1
244,335,6,0.217370351764665,1
244,336,6,0.154340769592844,1
245,334,6,0.166371051593231,1
245,335,6,0.247748474942783,1
245,336,6,0.180551754244477,1
246,334,6,0.148525517362494,1
246,335,6,0.241299179727056,1
246,336,6,0.189911761114631,1
247,334,6,0.124704282860381,1
247,335,6,0.211065087636852,1
247,336,6,0.171917614594572,1
248,335,6,0.186645800256039,1
248,336,6,0.142388179586487,1
249,334,6,0.129061064282099,1
249,335,6,0.218618346399689,1
249,336,6,0.150769787869412,1
250,334,6,0.157746415875293,1
250,335,6,0.266885484002869,1
250,336,6,0.18069355950446,1
251,334,6,0.149162869647602,1
251,335,6,0.244393292537009,1
251,336,6,0.172971726662112,1
252,335,6,0.161914213906351,1
254,316,6,0.134794914805199,1
256,317,6,0.150881562117605,1
256,318,6,0.123554530852943,1
257,318,6,0.154810713708311,1
262,333,6,0.245299451819799,2
262,334,6,0.19812007279423,2
263,333,6,0.33052197525765,2
232,330,7,0.177587999579425,1
233,331,7,0.143896219229872,1
233,332,7,0.179387964211136,1
233,333,7,0.197322519782311,1
234,331,7,0.153044324925467,1
234,332,7,0.207903069409653,1
234,333,7,0.182841954534132,1
235,331,7,0.162945137322042,1
235,332,7,0.224025907035482,1
235,333,7,0.200811699385003,1
236,332,7,0.152771984867573,1
236,333,7,0.205357287544371,1
237,333,7,0.159228346203722,1
237,334,7,0.221641845112902,1
237,335,7,0.247081409621305,1
238,334,7,0.14458615522778,1
238,335,7,0.223658845633345,1
238,336,7,0.278324143294139,1
239,334,7,0.122581007888805,1
239,335,7,0.232985229547162,1
239,336,7,0.256565038268224,1
240,334,7,0.126123324717063,1
240,335,7,0.252541400870621,1
241,315,7,0.146015584281481,1
241,335,7,0.224148245133704,1
242,335,7,0.173058851926903,1
242,336,7,0.18856301537927,1
243,334,7,0.128027962145945,1
243,335,7,0.173036428771433,1
243,336,7,0.142442989127219,1
244,334,7,0.168159698655402,1
244,335,7,0.220895545027769,1
244,336,7,0.146120433731662,1
245,334,7,0.201419244418801,1
245,335,7,0.277581517591625,1
245,336,7,0.175483626479975,1
246,334,7,0.197437273577948,1
246,335,7,0.282526365108515,1
246,336,7,0.182787627844961,1
247,334,7,0.165628390560115,1
247,335,7,0.240097256197176,1
247,336,7,0.162468079978685,1
248,334,7,0.137525181297807,1
248,335,7,0.205754332850827,1
248,336,7,0.138941008069698,1
249,334,7,0.143137129466777,1
249,335,7,0.23120110480206,1
249,336,7,0.149412386136536,1
250,334,7,0.15829789124355,1
250,335,7,0.269774537998204,1
250,336,7,0.173791137539867,1
251,334,7,0.1488853359912,1
251,335,7,0.253523874253959,1
251,336,7,0.171521275900158,1
252,335,7,0.180235133165279,1
253,316,7,0.118775171876313,1
253,326,7,0.118481763002698,1
254,316,7,0.130552439658158,1
256,316,7,0.139284021108669,1
256,317,7,0.163018306999002,1
256,318,7,0.134735959807153,1
257,317,7,0.271258705931433,1
257,318,7,0.180128481854391,1
258,318,7,0.181428848218603,1
261,333,7,0.188730317557105,2
261,334,7,0.184314946220229,2
262,332,7,0.233205315644541,2
262,333,7,0.368121579291104,2
262,334,7,0.322444598789451,2
262,335,7,0.152968423015278,2
263,332,7,0.293072149423386,2
263,333,7,0.413926079712622,2
263,334,7,0.327548645999426,2
264,333,7,0.20984549880592,2
232,330,8,0.157503612200759,1
233,331,8,0.115032777848334,1
233,332,8,0.151156328210176,1
233,333,8,0.176590628458866,1
234,331,8,0.1161214550216,1
234,332,8,0.166277649258133,1
234,333,8,0.154291353857367,1
235,331,8,0.118322669301419,1
235,332,8,0.169549781195226,1
235,333,8,0.155051951059485,1
235,334,8,0.185590086534537,1
236,332,8,0.11385701074088,1
236,333,8,0.147948863051803,1
236,334,8,0.196763165689783,1
236,335,8,0.236348443776481,1
237,333,8,0.116208686278197,1
237,334,8,0.165225185952025,1
237,335,8,0.206178700489579,1
238,334,8,0.120170989750545,1
238,335,8,0.19723651331992,1
238,336,8,0.235029764383512,1
239,335,8,0.201946636093291,1
240,335,8,0.199008943635724,1
241,315,8,0.128651794587314,1
241,335,8,0.170654722222327,1
242,335,8,0.135827192560638,1
243,315,8,0.154033157817183,1
243,335,8,0.148415073900314,1
244,315,8,0.118233141555685,1
244,334,8,0.15363941003359,1
244,335,8,0.192106580555469,1
245,334,8,0.198937246067186,1
245,335,8,0.248924630686861,1
246,334,8,0.207062224633287,1
246,335,8,0.261773593399226,1
247,334,8,0.182014523609698,1
247,335,8,0.22615700184699,1
248,334,8,0.151286321272188,1
248,335,8,0.193811117230895,1
249,334,8,0.145721986977988,1
249,335,8,0.210018430326357,1
249,336,8,0.129903593150499,1
250,334,8,0.141820263711383,1
250,335,8,0.23250004616532,1
250,336,8,0.148261597764769,1
251,334,8,0.128397426029025,1
251,335,8,0.225475568747322,1
251,336,8,0.153968797237015,1
252,326,8,0.126011844890554,1
252,335,8,0.176333245022531,1
253,335,8,0.117575203306417,1
254,316,8,0.1269597767219,1
255,316,8,0.126452452829407,1
256,316,8,0.138286308458956,1
256,317,8,0.16299428218957,1
256,318,8,0.138584640063132,1
257,317,8,0.295530711808938,1
257,318,8,0.194026728118675,1
258,318,8,0.215356319014798,1
261,333,8,0.282605340781087,2
261,334,8,0.317178195685936,2
262,332,8,0.248291553404608,2
262,333,8,0.45879528488148,2
262,334,8,0.456485181685973,2
262,335,8,0.221880444445784,2
263,332,8,0.270186516372484,2
263,333,8,0.395183477940703,2
263,334,8,0.343955753649793,2
263,335,8,0.15812255724217,2
264,333,8,0.168236801806063,2
264,334,8,0.137925983424954,2
232,330,9,0.125061522355132,1
233,332,9,0.127542237028205,1
233,333,9,0.160541431584692,1
234,332,9,0.128973361950807,1
234,333,9,0.141059760724204,1
234,334,9,0.17306651866756,1
235,332,9,0.119817601291423,1
235,333,9,0.123702189216007,1
235,334,9,0.146714871112079,1
235,335,9,0.220126256497533,1
236,334,9,0.138182259835757,1
237,334,9,0.121167607151592,1
238,335,9,0.171295242484757,1
239,335,9,0.183310179226963,1
240,335,9,0.16650351779739,1
241,335,9,0.130820728473677,1
243,335,9,0.134742813943962,1
244,334,9,0.151473585240212,1
244,335,9,0.178427419354839,1
245,334,9,0.185363841135524,1
246,334,9,0.189040661565995,1
246,335,9,0.21945026431059,1
247,334,9,0.175857542018921,1
247,335,9,0.199960090551862,1
248,334,9,0.151502367904061,1
248,335,9,0.176901879286544,1
249,334,9,0.140175965712546,1
249,335,9,0.183468636977404,1
250,334,9,0.125145138113448,1
250,335,9,0.192928535236576,1
250,336,9,0.123987990233303,1
251,335,9,0.18904095598768,1
251,336,9,0.13100445938149,1
252,326,9,0.114371224100784,1
252,335,9,0.157600653587874,1
253,335,9,0.113943935798926,1
256,317,9,0.155904325389004,1
256,318,9,0.137988542144415,1
257,317,9,0.276634139273045,1
257,318,9,0.198005625197145,1
258,318,9,0.233884793784226,1
260,333,9,0.133767489119117,2
260,334,9,0.183844884336088,2
261,332,9,0.1371407136857,2
261,333,9,0.33137000392311,2
261,334,9,0.433510444856562,2
261,335,9,0.264637374237189,2
262,332,9,0.219980600201921,2
262,333,9,0.457061117607755,2
262,334,9,0.521515912714758,2
262,335,9,0.273451370205543,2
263,333,9,0.303103920585097,2
263,334,9,0.296697563827795,2
233,333,10,0.136821831447967,1
234,333,10,0.123607832954652,1
234,334,10,0.150452789930458,1
235,334,10,0.119157319445549,1
239,335,10,0.165464126814062,1
240,335,10,0.151737681490948,1
241,314,10,0.114477404336977,1
243,335,10,0.11487079881455,1
244,334,10,0.141444864287149,1
245,334,10,0.155035522329506,1
246,334,10,0.149240950278254,1
246,335,10,0.161836992987017,1
247,334,10,0.149095553073725,1
247,335,10,0.159431815141245,1
248,334,10,0.130187203670463,1
248,335,10,0.14398273209756,1
249,334,10,0.11417702355788,1
249,335,10,0.142282128895835,1
250,335,10,0.14556208067286,1
251,335,10,0.141818826933564,1
252,318,10,0.1346338072596,1
252,319,10,0.154408168604794,1
252,335,10,0.119640795181622,1
253,318,10,0.114909320947712,1
253,319,10,0.137121164085868,1
254,316,10,0.125932798556778,1
256,316,10,0.123227922990216,1
256,317,10,0.136205677524122,1
256,318,10,0.123169403736263,1
257,316,10,0.142348691750201,1
257,317,10,0.217872376066843,1
257,318,10,0.1802019223993,1
258,317,10,0.282018099066631,1
258,318,10,0.221502642540608,1
259,318,10,0.187077893519783,1
260,333,10,0.149962778032996,2
260,334,10,0.248966014598793,2
260,335,10,0.222720629717578,2
261,332,10,0.126886194854583,2
261,333,10,0.337671169701079,2
261,334,10,0.549785482005512,2
261,335,10,0.411068587721834,2
261,336,10,0.168984114701789,2
262,332,10,0.172529446408093,2
262,333,10,0.388330848571344,2
262,334,10,0.543876179712358,2
262,335,10,0.355096646626521,2
262,336,10,0.141148322766814,2
263,333,10,0.208470337557052,2
263,334,10,0.242638303761776,2
263,335,10,0.161773303688289,2
231,330,11,0.170882475060363,1
232,331,11,0.126243436987353,1
240,317,11,0.117475665223419,1
241,316,11,0.131509522115449,1
241,317,11,0.116550533407298,1
242,316,11,0.121592116112752,1
244,334,11,0.123812679785657,1
245,334,11,0.120963408048292,1
247,334,11,0.114268624032271,1
250,335,11,0.116003073950813,1
251,317,11,0.114671734425423,1
251,318,11,0.145374074762192,1
251,319,11,0.155301385110346,1
252,317,11,0.11473412826874,1
252,318,11,0.166595094718047,1
252,319,11,0.220752196998161,1
252,320,11,0.138420505862619,1
253,318,11,0.12955502143013,1
253,319,11,0.17241342071078,1
253,320,11,0.117054336016449,1
254,316,11,0.133829494325811,1
256,317,11,0.116537708398734,1
257,317,11,0.150987624585125,1
257,318,11,0.148924364529658,1
258,317,11,0.188033974943349,1
258,318,11,0.180755199628266,1
259,318,11,0.179378295403027,1
260,334,11,0.281574676456478,2
260,335,11,0.306206771830638,2
261,333,11,0.292239501346708,2
261,334,11,0.56028630224077,2
261,335,11,0.552900086564686,2
261,336,11,0.275299396232985,2
262,333,11,0.275974516931744,2
262,334,11,0.47990579071395,2
262,335,11,0.435382589908374,2
262,336,11,0.218591589357028,2
263,334,11,0.193657735310289,2
263,335,11,0.179259007513453,2
229,330,12,0.115467674006513,1
231,330,12,0.1349241541477,1
232,332,12,0.138210748077921,1
240,316,12,0.13286072921609,1
240,317,12,0.127560432288289,1
241,316,12,0.159251181549549,1
241,317,12,0.126723108795266,1
242,316,12,0.148437120196027,1
251,317,12,0.119224223829068,1
251,318,12,0.164267455767028,1
251,319,12,0.198338745667526,1
251,320,12,0.125753495751095,1
252,318,12,0.169607817597617,1
252,319,12,0.254406197157196,1
252,320,12,0.186328766986482,1
253,317,12,0.116431127749051,1
253,318,12,0.125966138868298,1
253,319,12,0.177448384816773,1
253,320,12,0.140675140012821,1
254,316,12,0.133603566902217,1
254,317,12,0.120751718857346,1
258,317,12,0.117682867427898,1
258,318,12,0.133110610787912,1
259,318,12,0.146945085315396,1
260,332,12,0.121832234661525,1
260,333,12,0.164237460085841,1
260,334,12,0.257795909338095,2
260,335,12,0.342883422768434,2
260,336,12,0.246909585126401,2
261,332,12,0.13863154732586,1
261,333,12,0.226342204863224,2
261,334,12,0.460885490409485,2
261,335,12,0.610143293384943,2
261,336,12,0.401871608026661,2
261,337,12,0.176345893378084,2
262,333,12,0.18207614017977,2
262,334,12,0.368172290481992,2
262,335,12,0.467231855804413,2
262,336,12,0.31046123582866,2
262,337,12,0.150354971270097,2
263,334,12,0.153590418265337,2
263,335,12,0.186028704182804,2
263,336,12,0.146580179079987,2
230,330,13,0.140459882431062,1
231,330,13,0.114872011831889,1
231,331,13,0.218201139096298,1
232,332,13,0.154541565181475,1
240,316,13,0.128516937679079,1
241,316,13,0.15327969739669,1
242,316,13,0.147051136006048,1
251,318,13,0.158838190364676,1
251,319,13,0.210471816166304,1
251,320,13,0.158504245513579,1
252,318,13,0.156470356965329,1
252,319,13,0.251645652338584,1
252,320,13,0.220873875591811,1
253,317,13,0.115193814732729,1
253,318,13,0.114940282332023,1
253,319,13,0.162506967194735,1
253,320,13,0.153306466216219,1
254,317,13,0.118456489845325,1
259,335,13,0.115963032601761,2
259,336,13,0.114223436192179,2
260,332,13,0.122314862463148,1
260,333,13,0.158799950876331,1
260,334,13,0.215421845504836,2
260,335,13,0.327912833845925,2
260,336,13,0.316029291612948,2
260,337,13,0.190580592966214,2
261,332,13,0.142937723548496,1
261,333,13,0.176911783632001,2
261,334,13,0.327283902020986,2
261,335,13,0.562908256884191,2
261,336,13,0.52021409779586,2
261,337,13,0.281004252108625,2
262,334,13,0.253940327837839,2
262,335,13,0.424546270275526,2
262,336,13,0.379699582477077,2
262,337,13,0.210441808708249,2
263,335,13,0.174777697496181,2
263,336,13,0.162664282589042,2
230,331,14,0.199241560319984,1
231,331,14,0.181283003493113,1
231,332,14,0.29777778521029,1
232,331,14,0.117651482076362,1
232,332,14,0.182520269401965,1
232,333,14,0.197702229540001,1
233,332,14,0.114475920451689,1
233,333,14,0.125675050037554,1
237,313,14,0.116513542266894,1
241,316,14,0.120262719770477,1
242,316,14,0.119432815703897,1
251,318,14,0.136701801615749,1
251,319,14,0.182556836575144,1
251,320,14,0.157723321438383,1
252,318,14,0.13461438720531,1
252,319,14,0.214959155939668,1
252,320,14,0.217908790140746,1
253,319,14,0.128774285784812,1
253,320,14,0.139118391246,1
259,336,14,0.117558162179335,2
260,333,14,0.128447795690759,1
260,334,14,0.164301903104081,1
260,335,14,0.273698967065095,2
260,336,14,0.352046178887035,2
260,337,14,0.25921511607092,2
261,332,14,0.120530078213474,1
261,333,14,0.135936705650296,1
261,334,14,0.225389456293125,2
261,335,14,0.467933238917403,2
261,336,14,0.595529802634777,2
261,337,14,0.404250299697721,2
261,338,14,0.186088094924943,2
262,334,14,0.181031579151666,2
262,335,14,0.356008553020587,2
262,336,14,0.417295912541403,2
262,337,14,0.276516606136709,2
263,335,14,0.160163735671321,2
263,336,14,0.17222694579287,2
230,331,15,0.138263343567588,1
231,331,15,0.145713272096135,1
231,332,15,0.262711267579094,1
232,331,15,0.125184413966121,1
232,332,15,0.209286168267127,1
232,333,15,0.233322495474856,1
233,332,15,0.147835416488443,1
233,333,15,0.150684440911594,1
251,318,15,0.115698677259943,1
251,319,15,0.142357265309645,1
251,320,15,0.131234249617582,1
252,318,15,0.116477128192991,1
252,319,15,0.170310825918304,1
252,320,15,0.187157281382714,1
253,320,15,0.116654040294599,1
260,334,15,0.122571657056115,1
260,335,15,0.207534618337167,2
260,336,15,0.325286851513864,2
260,337,15,0.286793218371009,2
261,334,15,0.162785113248241,2
261,335,15,0.362467387498884,2
261,336,15,0.579195947099442,2
261,337,15,0.471010440145815,2
261,338,15,0.221271321311758,2
262,335,15,0.292466323812223,2
262,336,15,0.415590339501648,2
262,337,15,0.324737437097396,2
262,338,15,0.177253465884959,2
263,336,15,0.187289665148801,2
263,337,15,0.161535622951061,2
231,331,16,0.115102626448696,1
231,332,16,0.211450238307267,1
232,331,16,0.126781557388015,1
232,332,16,0.214465328337178,1
232,333,16,0.248256882307075,1
233,332,16,0.168546568748453,1
233,333,16,0.169706495969296,1
233,334,16,0.197617436094949,1
234,333,16,0.118369706109688,1
252,319,16,0.126956608744578,1
252,320,16,0.141566519327064,1
260,336,16,0.265829522967153,2
260,337,16,0.27430107118617,2
261,335,16,0.274104939237017,2
261,336,16,0.496245723112846,2
261,337,16,0.464339221641398,2
261,338,16,0.23352479850251,2
262,335,16,0.260042017036322,2
262,336,16,0.408217926314119,2
262,337,16,0.368039518079281,2
262,338,16,0.216359755222051,2
263,336,16,0.227276228214209,2
263,337,16,0.218001167888383,2
231,332,17,0.178247433490848,1
232,331,17,0.128710961568973,1
232,332,17,0.207145439978112,1
233,332,17,0.168424077550954,1
233,333,17,0.183764153910278,1
234,333,17,0.134231427032226,1
260,336,17,0.207572162990337,2
260,337,17,0.236928878461598,2
261,335,17,0.21153538505834,2
261,336,17,0.394461084896328,2
261,337,17,0.417386594420139,2
261,338,17,0.238995341824989,2
262,335,17,0.258092191767348,2
262,336,17,0.423345924845874,2
262,337,17,0.437629050912622,2
262,338,17,0.276585547918283,2
263,335,17,0.229315180815427,2
263,336,17,0.312155432414537,2
263,337,17,0.321179433481804,2
263,338,17,0.232175852560404,2
264,336,17,0.18001276235563,2
264,337,17,0.1734017471972,2
231,332,18,0.161696424298108,1
232,331,18,0.127365748893822,1
232,332,18,0.197766884541853,1
233,332,18,0.156055234167462,1
233,333,18,0.19272507807592,1
234,333,18,0.138432353391191,1
260,336,18,0.15557613942605,2
260,337,18,0.18387933167314,2
261,335,18,0.164842072679665,2
261,336,18,0.300031312334959,2
261,337,18,0.350668568049755,2
261,338,18,0.231979108214148,2
262,335,18,0.246515272053173,2
262,336,18,0.416674894771335,2
262,337,18,0.47756728171435,2
262,338,18,0.309601854263056,2
262,339,18,0.157237172353418,2
263,335,18,0.273013058755828,2
263,336,18,0.367572659503065,2
263,337,18,0.391207583963411,2
263,338,18,0.262445322360182,2
264,336,18,0.206690334715529,2
264,337,18,0.189096307264311,2
231,332,19,0.160025781446968,1
232,331,19,0.128337399336048,1
232,332,19,0.198274632401573,1
233,332,19,0.147752566226507,1
233,333,19,0.211867021643433,1
234,333,19,0.148019630247819,1
260,337,19,0.145576683988397,2
261,336,19,0.250044045483958,2
261,337,19,0.31376000703974,2
261,338,19,0.228043444015787,2
262,335,19,0.235730982620359,2
262,336,19,0.419782574532496,2
262,337,19,0.507882681296865,2
262,338,19,0.319442651743523,2
262,339,19,0.152863820879312,2
263,335,19,0.296796819265975,2
263,336,19,0.39663207973448,2
263,337,19,0.422297312575395,2
263,338,19,0.264123926373663,2
264,336,19,0.229746591020864,2
264,337,19,0.201088220230812,2
231,332,20,0.149758920458849,1
232,331,20,0.116670469024578,1
232,332,20,0.187183885326099,1
233,332,20,0.147639944043863,1
233,333,20,0.241678653947399,1
234,333,20,0.173490674322698,1
234,334,20,0.244182887024606,1
261,336,20,0.225992973638283,2
261,337,20,0.287135124384447,2
262,334,20,0.121975535583663,1
262,335,20,0.221320265972541,2
262,336,20,0.405265654094751,2
262,337,20,0.4879499093087,2
262,338,20,0.298753616440431,2
263,335,20,0.288697702700615,2
263,336,20,0.384503696428915,2
263,337,20,0.402770183006866,2
263,338,20,0.24815178554268,2
264,336,20,0.256500289051433,2
264,337,20,0.226612460415593,2
231,332,21,0.139685094103765,1
232,328,21,0.115412146076871,1
232,329,21,0.137660839033023,1
232,332,21,0.171900738343634,1
233,332,21,0.146929645842276,1
234,333,21,0.198189674080377,1
261,335,21,0.122524761570254,1
261,336,21,0.211397949016151,2
261,337,21,0.253071171472319,2
262,334,21,0.117151236081156,1
262,335,21,0.207632225013916,2
262,336,21,0.366219685872319,2
262,337,21,0.417517741615153,2
262,338,21,0.266546051131578,2
263,333,21,0.124157824437622,1
263,334,21,0.188601937925922,1
263,335,21,0.264350937269056,2
263,336,21,0.351145484070703,2
263,337,21,0.359843265911867,2
263,338,21,0.23608598451031,2
264,336,21,0.286897113894932,2
264,337,21,0.269576380427864,2
232,328,22,0.163040859700012,1
232,329,22,0.165132584443908,1
232,332,22,0.156574170051181,1
233,328,22,0.14464871394724,1
233,329,22,0.146981570050503,1
233,332,22,0.146876779484659,1
234,332,22,0.116182553409507,1
234,333,22,0.204117371840361,1
261,335,22,0.114225885780591,1
261,336,22,0.182311995502556,1
261,337,22,0.202118248604583,2
262,335,22,0.190781459216049,1
262,336,22,0.310032086781757,2
262,337,22,0.329840353728104,2
262,338,22,0.23143909173784,2
263,333,22,0.14922750109572,1
263,334,22,0.205861149037858,1
263,335,22,0.24842821217355,2
263,336,22,0.321157269417416,2
263,337,22,0.326259102576326,2
263,338,22,0.231854673833534,2
264,332,22,0.123754560945194,1
264,333,22,0.224455856909366,1
264,334,22,0.291378541680877,2
264,335,22,0.281263743604219,2
264,336,22,0.303636140775208,2
264,337,22,0.299436203673101,2
265,336,22,0.246552981582487,2
232,327,23,0.125104166391873,1
232,328,23,0.194268507205747,1
232,329,23,0.167332679921327,1
232,332,23,0.168134025084539,1
233,328,23,0.181722198207881,1
233,329,23,0.159148145736944,1
233,332,23,0.172755102963738,1
234,332,23,0.134515367304477,1
262,335,23,0.172941307013699,1
262,336,23,0.266631716064815,2
262,337,23,0.277640425482201,2
263,333,23,0.178870347336563,1
263,334,23,0.236301430521947,2
263,335,23,0.259381193454549,2
263,336,23,0.335125152298449,2
263,337,23,0.348482875681127,2
263,338,23,0.249969309483638,2
264,332,23,0.158081397090718,1
264,333,23,0.312541148374585,2
264,334,23,0.383483018887834,2
264,335,23,0.32287278213323,2
264,336,23,0.327613183232605,2
264,337,23,0.320348858133783,2
264,338,23,0.209879769489962,2
265,329,23,0.114769164449161,1
265,330,23,0.135379059203537,1
265,331,23,0.134638741767028,1
265,334,23,0.291313792464086,2
265,335,23,0.255791486512001,2
265,336,23,0.2607896361306,2
265,337,23,0.231701009268112,2
232,327,24,0.1541738678285,1
232,328,24,0.19324436726566,1
232,329,24,0.147779523475913,1
233,327,24,0.147728741623821,1
233,328,24,0.186642137650287,1
233,329,24,0.140898606071135,1
233,331,24,0.114469855364994,1
233,332,24,0.209321569530437,1
262,335,24,0.156643453361909,2
262,336,24,0.230315366607286,2
262,337,24,0.246319446302572,2
263,333,24,0.17665200949159,2
263,334,24,0.251965040981614,2
263,335,24,0.291536069058797,2
263,336,24,0.369798699419297,2
263,337,24,0.388118629421366,2
263,338,24,0.262998693804086,2
264,332,24,0.164710101103935,2
264,333,24,0.343321428019598,2
264,334,24,0.441521776652558,2
264,335,24,0.387589094357015,2
264,336,24,0.360003831721567,2
264,337,24,0.330965515636477,2
264,338,24,0.211909135721142,2
265,327,24,0.116339268183577,1
265,328,24,0.132218748622107,1
265,329,24,0.14894122900373,1
265,330,24,0.169509692738704,1
265,331,24,0.170037013751989,1
265,332,24,0.208050398020431,1
265,333,24,0.306256493764667,2
265,334,24,0.35543492536481,2
265,335,24,0.308920986453022,2
265,336,24,0.260599581045009,2
265,337,24,0.204293388900048,2
266,331,24,0.191604756460036,1
266,334,24,0.158362016286371,2
266,335,24,0.151845404496766,2
232,326,25,0.11589304267899,1
232,327,25,0.169794716482753,1
232,328,25,0.177737047612838,1
232,329,25,0.130190748507541,1
233,326,25,0.125915733875961,1
233,327,25,0.17550177463259,1
233,328,25,0.166339854671572,1
233,331,25,0.120943516919307,1
262,335,25,0.15673706768062,2
262,336,25,0.196310992867175,2
262,337,25,0.203747884403546,2
263,333,25,0.159927986340341,1
263,334,25,0.260840865503652,2
263,335,25,0.337770448692994,2
263,336,25,0.383814349274375,2
263,337,25,0.375749244301975,2
263,338,25,0.241188430066324,2
264,332,25,0.149587319724425,1
264,333,25,0.314952061554765,2
264,334,25,0.441932836431183,2
264,335,25,0.446753767749623,2
264,336,25,0.396616440054614,2
264,337,25,0.335667524148231,2
264,338,25,0.202616763400285,2
265,327,25,0.12270422925208,1
265,328,25,0.160264369002984,1
265,329,25,0.1605136028471,1
265,330,25,0.169857852268715,1
265,331,25,0.175698742739326,1
265,332,25,0.216435857338986,2
265,333,25,0.320438409433252,2
265,334,25,0.379424828161373,2
265,335,25,0.341709528182892,2
265,336,25,0.26218031929066,2
265,337,25,0.192339197239728,2
266,328,25,0.154618126596237,1
266,329,25,0.172118539728744,1
266,330,25,0.219503943272055,1
266,331,25,0.237437756900585,1
266,332,25,0.204090426367822,1
266,333,25,0.18708354641612,2
266,334,25,0.180158548196783,2
266,335,25,0.158624098692787,2
231,328,26,0.114371259431386,1
231,329,26,0.115836278178275,1
232,326,26,0.120314526210031,1
232,327,26,0.162747521487601,1
232,328,26,0.161759053678773,1
232,329,26,0.124929703878678,1
232,331,26,0.12619113591937,1
233,326,26,0.144943453606868,1
233,327,26,0.170673824301198,1
233,328,26,0.13277288556239,1
233,331,26,0.124009000164688,1
262,334,26,0.117139965619084,1
262,335,26,0.175021325551431,2
262,336,26,0.176625122903388,2
262,337,26,0.163256399926588,2
263,333,26,0.138517193943713,1
263,334,26,0.26362724876927,2
263,335,26,0.379801876347038,2
263,336,26,0.378742806218337,2
263,337,26,0.326283362923105,2
263,338,26,0.201066338811241,2
264,332,26,0.12406475185481,1
264,333,26,0.25407175767767,2
264,334,26,0.394312390168935,2
264,335,26,0.468658741054763,2
264,336,26,0.439327510724487,2
264,337,26,0.357696955387719,2
264,338,26,0.196706530734609,2
265,327,26,0.114471080159201,1
265,328,26,0.172760214124176,1
265,329,26,0.158584422426623,1
265,330,26,0.143939063473358,1
265,331,26,0.150913077014683,1
265,332,26,0.195420744132199,1
265,333,26,0.291770405165692,2
265,334,26,0.351426645002256,2
265,335,26,0.330383973925827,2
265,336,26,0.273962180050778,2
265,337,26,0.214326125764884,2
266,327,26,0.114553765544994,1
266,328,26,0.205284812702586,1
266,329,26,0.213085315018954,1
266,330,26,0.214972558014733,1
266,331,26,0.226257482079376,1
266,332,26,0.207530001805158,1
266,334,26,0.189829252381848,2
266,335,26,0.152050157112832,2
267,329,26,0.116379827714794,1
231,328,27,0.156587972539737,1
231,329,27,0.161754248716887,1
231,330,27,0.140776868593149,1
231,331,27,0.156597076058213,1
232,316,27,0.125453056087661,1
232,317,27,0.135777211535526,1
232,326,27,0.123557887260143,1
232,327,27,0.154739793413019,1
232,328,27,0.159063682044178,1
232,329,27,0.135558008703199,1
232,330,27,0.125352246102987,1
232,331,27,0.167686598339481,1
232,332,27,0.255257876651541,1
233,326,27,0.13965495710017,1
233,327,27,0.141677916715501,1
233,331,27,0.129822580079872,1
262,334,27,0.139614892197383,1
262,335,27,0.208772131560233,2
262,336,27,0.174378273262516,2
263,333,27,0.122508038418591,1
263,334,27,0.263528511513254,2
263,335,27,0.402065408156074,2
263,336,27,0.367168265431371,2
263,337,27,0.279368963413324,2
264,333,27,0.193874123471315,2
264,334,27,0.326183518641556,2
264,335,27,0.442036096004269,2
264,336,27,0.461973861384198,2
264,337,27,0.38151658823587,2
264,338,27,0.193365421685339,2
265,328,27,0.148133971853099,1
265,329,27,0.134505451182153,1
265,331,27,0.115645987555337,1
265,332,27,0.158824117008171,1
265,333,27,0.236451373597281,1
265,334,27,0.288019237371524,2
265,335,27,0.288120023802462,2
265,336,27,0.285571274166603,2
265,337,27,0.246841067312052,2
266,328,27,0.21004813158586,1
266,329,27,0.215378412417981,1
266,330,27,0.175763079765759,1
266,331,27,0.181331724393416,1
266,332,27,0.187503968804303,1
266,333,27,0.195891500851515,1
266,335,27,0.140110215462028,2
267,328,27,0.115134671304805,1
267,329,27,0.124370997513856,1
267,330,27,0.115550441830378,1
267,331,27,0.123710915874727,1
230,328,28,0.149524148607861,1
230,329,28,0.159972561783331,1
230,330,28,0.125810872648913,1
231,316,28,0.134455658586919,1
231,317,28,0.124018327443643,1
231,327,28,0.130494933214798,1
231,328,28,0.193031971462672,1
231,329,28,0.193354469198687,1
231,330,28,0.173701138719438,1
231,331,28,0.212258414053553,1
232,316,28,0.165928088280905,1
232,317,28,0.156693457940755,1
232,326,28,0.120636800185566,1
232,327,28,0.141208961856894,1
232,328,28,0.143022540547283,1
232,329,28,0.132245599879706,1
232,330,28,0.158115997527046,1
232,331,28,0.22668832699518,1
232,332,28,0.25872093516241,1
233,331,28,0.141200835818409,1
262,334,28,0.148497205773341,1
262,335,28,0.221976920543266,2
262,336,28,0.171646605322692,2
263,334,28,0.234398924706059,2
263,335,28,0.366875516062328,2
263,336,28,0.333214049369382,2
263,337,28,0.253699019825461,2
264,333,28,0.135698589168975,1
264,334,28,0.240843838927125,2
264,335,28,0.359330477552914,2
264,336,28,0.418157225513255,2
264,337,28,0.367281252696903,2
264,338,28,0.182758315222082,2
265,332,28,0.116468283765598,1
265,333,28,0.166932490191283,1
265,334,28,0.207498557569285,1
265,335,28,0.225960493038081,2
265,336,28,0.259022941149204,2
265,337,28,0.23815209456768,2
266,328,28,0.178648200287393,1
266,329,28,0.1855900276502,1
266,330,28,0.132583383989566,1
266,331,28,0.130877269213912,1
266,332,28,0.147775731324621,1
266,333,28,0.162552308134103,1
229,329,29,0.131397429891837,1
230,327,29,0.118214863857529,1
230,328,29,0.207830029278234,1
230,329,29,0.224226914607725,1
230,330,29,0.162616232970179,1
231,316,29,0.162649679273505,1
231,317,29,0.126674329010626,1
231,327,29,0.157353198050731,1
231,328,29,0.208714330695189,1
231,329,29,0.207044370902357,1
231,330,29,0.19177081028993,1
231,331,29,0.233042747767389,1
232,315,29,0.121055797572797,1
232,316,29,0.19348973829728,1
232,317,29,0.156970897382219,1
232,326,29,0.115275157555642,1
232,327,29,0.125323757860823,1
232,328,29,0.118984317263908,1
232,329,29,0.122700719745605,1
232,330,29,0.177585938627635,1
232,331,29,0.256111723089481,1
232,332,29,0.251723780076706,1
233,331,29,0.14851202107249,1
233,332,29,0.165967623224661,1
234,332,29,0.118277281254581,1
262,334,29,0.145817226504396,1
262,335,29,0.219355766726826,1
262,336,29,0.179997640857929,2
263,334,29,0.192632676774548,1
263,335,29,0.307882761379563,2
263,336,29,0.314172220951367,2
263,337,29,0.269966901349799,2
264,334,29,0.175093800393215,1
264,335,29,0.277216764455492,2
264,336,29,0.359928601092818,2
264,337,29,0.341857068777282,2
264,338,29,0.17591330548591,2
265,333,29,0.118438259254639,1
265,334,29,0.147857969189454,1
265,336,29,0.216172550138364,2
265,337,29,0.201768734734825,2
266,328,29,0.132458431426787,1
266,329,29,0.136434066312996,1
266,333,29,0.125659292589015,1
229,328,30,0.14476864956452,1
229,329,30,0.171081680771899,1
230,326,30,0.120318612783008,1
230,327,30,0.165451266474895,1
230,328,30,0.239488321493028,1
230,329,30,0.256705748279541,1
230,330,30,0.195878828942226,1
231,315,30,0.158513678784341,1
231,316,30,0.184824660816798,1
231,317,30,0.122455654912537,1
231,326,30,0.162422597716908,1
231,327,30,0.184045939015801,1
231,328,30,0.195850870659094,1
231,329,30,0.195153091267519,1
231,330,30,0.194199376994295,1
231,331,30,0.218541184364692,1
232,315,30,0.157056444546783,1
232,316,30,0.199902360348022,1
232,317,30,0.139714371396043,1
232,330,30,0.173177232997689,1
232,331,30,0.235339849301321,1
232,332,30,0.232033776432472,1
233,331,30,0.140112606166104,1
233,332,30,0.151787226771966,1
262,334,30,0.12893419208994,1
262,335,30,0.198059775233304,1
262,336,30,0.19793315035536,1
263,334,30,0.144862723181058,1
263,335,30,0.244285487093119,1
263,336,30,0.314082646098164,2
264,334,30,0.125888623527279,1
264,335,30,0.206482496560213,1
264,336,30,0.299736019162565,2
264,337,30,0.295075559438886,2
229,327,31,0.131849508499506,1
229,328,31,0.169259069224238,1
229,329,31,0.186952422774841,1
230,326,31,0.174897609559726,1
230,327,31,0.212350085189148,1
230,328,31,0.238812941703188,1
230,329,31,0.246124421378952,1
230,330,31,0.219661941724669,1
231,314,31,0.148040357534388,1
231,315,31,0.205782456010103,1
231,316,31,0.181246495204271,1
231,325,31,0.125885549764896,1
231,326,31,0.191729921006427,1
231,327,31,0.188629719556044,1
231,328,31,0.170032173459501,1
231,329,31,0.180059339866072,1
231,330,31,0.20241500210853,1
231,331,31,0.197493296136019,1
232,314,31,0.130168843534236,1
232,315,31,0.187547142800076,1
232,316,31,0.178648058964985,1
232,330,31,0.167382201648611,1
232,331,31,0.195072690593995,1
232,332,31,0.198869882385839,1
233,331,31,0.125018807657187,1
233,332,31,0.137593981756973,1
262,335,31,0.166877103584049,1
262,336,31,0.219685660335548,1
262,337,31,0.204665231710337,1
263,335,31,0.192260409997034,1
263,336,31,0.31858859332197,1
264,335,31,0.152148246641143,1
229,326,32,0.121625008903312,1
229,327,32,0.171417239053826,1
229,328,32,0.180196964338138,1
229,329,32,0.17060140834375,1
230,314,32,0.114350755905298,1
230,315,32,0.13323762430248,1
230,325,32,0.121202631555146,1
230,326,32,0.21125627330171,1
230,327,32,0.24421562671589,1
230,328,32,0.216132744326659,1
230,329,32,0.205974254072064,1
230,330,32,0.225518695635625,1
231,314,32,0.177718098633243,1
231,315,32,0.232273412129683,1
231,316,32,0.160091578804955,1
231,325,32,0.12275529374899,1
231,326,32,0.186246729328394,1
231,327,32,0.17021740002947,1
231,328,32,0.135656781289818,1
231,329,32,0.159064730185374,1
231,330,32,0.216748226969064,1
231,331,32,0.205236197794089,1
232,314,32,0.147075207922949,1
232,315,32,0.197399929131523,1
232,316,32,0.146162924669127,1
232,330,32,0.156699652572991,1
232,331,32,0.165907443432409,1
232,332,32,0.167103513859206,1
233,332,32,0.116667195055449,1
261,336,32,0.117653354598273,1
262,335,32,0.143666582093056,1
262,336,32,0.240288159217217,1
262,337,32,0.238287293005068,1
263,335,32,0.153440074776513,1
263,336,32,0.29841557323949,1
229,326,33,0.133583558004558,1
229,327,33,0.189601252229597,1
229,328,33,0.176795286859993,1
229,329,33,0.145197904603229,1
229,330,33,0.152830598336466,1
230,314,33,0.126863736368512,1
230,315,33,0.145554590585214,1
230,325,33,0.118096471009875,1
230,326,33,0.206731624412523,1
230,327,33,0.238446681128032,1
230,328,33,0.185336730786842,1
230,329,33,0.172036136987768,1
230,330,33,0.238078324270484,1
230,331,33,0.237816453847682,1
231,314,33,0.178366050098982,1
231,315,33,0.222017126768461,1
231,316,33,0.132575693695174,1
231,326,33,0.151087174444989,1
231,327,33,0.140412786738456,1
231,329,33,0.14848136588673,1
231,330,33,0.256628539137074,1
231,331,33,0.270634602622115,1
231,332,33,0.214543738720116,1
232,314,33,0.139676803189138,1
232,315,33,0.175563132111579,1
232,330,33,0.154614334444944,1
232,331,33,0.169503392114662,1
232,332,33,0.151798143928017,1
235,310,33,0.126936175879694,1
260,334,33,0.11508300618766,1
260,335,33,0.119164632880185,1
261,335,33,0.128408119424595,1
261,336,33,0.143068717644235,1
262,335,33,0.134915780795001,1
262,336,33,0.247173198525574,1
263,335,33,0.126623500051064,1
229,326,34,0.12218270245754,1
229,327,34,0.168858620403112,1
229,328,34,0.153773313015568,1
229,329,34,0.120730402727409,1
229,330,34,0.12893508713186,1
230,314,34,0.124374318590454,1
230,315,34,0.143346298408107,1
230,326,34,0.162919875941537,1
230,327,34,0.18791685399737,1
230,328,34,0.146145118045666,1
230,329,34,0.141606713775392,1
230,330,34,0.229128470360169,1
230,331,34,0.26104368671347,1
231,314,34,0.156228460109583,1
231,315,34,0.186242395441203,1
231,329,34,0.128949996645948,1
231,330,34,0.260345954429365,1
231,331,34,0.30758110869879,1
231,332,34,0.212678730449929,1
232,314,34,0.119501415956317,1
232,315,34,0.137906186510908,1
232,330,34,0.135330255865163,1
232,331,34,0.161885195705155,1
232,332,34,0.130926060775419,1
235,310,34,0.121268193375785,1
236,310,34,0.11789229546031,1
260,334,34,0.122178380347216,1
260,335,34,0.149161079563762,1
260,336,34,0.128208513299569,1
261,335,34,0.150792328793555,1
261,336,34,0.192266581075535,1
261,337,34,0.170315383565975,1
262,335,34,0.126317819681651,1
262,336,34,0.229204737353246,1
229,327,35,0.134135433786306,1
229,328,35,0.124869948053651,1
229,330,35,0.117754093921742,1
230,315,35,0.129183685025138,1
230,326,35,0.120625588607831,1
230,327,35,0.13007860917646,1
230,329,35,0.117941169459888,1
230,330,35,0.206698884721239,1
230,331,35,0.257294520986754,1
231,314,35,0.130815405329626,1
231,315,35,0.150803799462372,1
231,330,35,0.225242127682346,1
231,331,35,0.290803901214506,1
231,332,35,0.195943012869384,1
232,331,35,0.142014381816215,1
260,335,35,0.176952979114055,1
260,336,35,0.198215724510996,1
260,337,35,0.136271580873915,1
261,335,35,0.172231338564398,1
261,336,35,0.250605637181285,1
261,337,35,0.202762278373488,1
262,335,35,0.119504737032915,1
262,336,35,0.204693967266715,1
262,337,35,0.189541178429151,1
263,336,35,0.120239590002966,1
229,331,36,0.126708152173708,1
230,330,36,0.168388617403308,1
230,331,36,0.223146669671495,1
230,332,36,0.167914598491732,1
231,315,36,0.119983172269755,1
231,330,36,0.163213673451775,1
231,331,36,0.223951712771061,1
231,332,36,0.162472225435998,1
259,336,36,0.117716996789532,1
260,335,36,0.178300017203648,1
260,336,36,0.243415624115557,1
260,337,36,0.16340227998268,1
261,335,36,0.167448316982017,1
261,336,36,0.269922596774759,1
261,337,36,0.205989446230969,1
262,336,36,0.16795054149094,1
229,331,37,0.129675451675839,1
230,330,37,0.123931991228966,1
230,331,37,0.177537429710945,1
230,332,37,0.147672247991055,1
231,331,37,0.148320305448601,1
231,332,37,0.127565896754748,1
259,336,37,0.138804172647745,1
260,335,37,0.165528828923383,1
260,336,37,0.26363177108634,1
260,337,37,0.190975836411964,1
261,335,37,0.153002882129197,1
261,336,37,0.257735870868251,1
261,337,37,0.198426130023399,1
262,336,37,0.139420267687253,1
229,331,38,0.135250267381997,1
230,331,38,0.144743682605699,1
230,332,38,0.131841476675961,1
259,336,38,0.156708779645202,1
260,335,38,0.145848753178341,1
260,336,38,0.255981353167714,1
260,337,38,0.219481355240442,1
261,335,38,0.134772326773587,1
261,336,38,0.223162427120034,1
261,337,38,0.189287434044832,1
262,336,38,0.122216820042306,1
230,331,39,0.119678598925874,1
259,336,39,0.15644609661855,1
260,335,39,0.123079157601619,1
260,336,39,0.224536269359757,1
260,337,39,0.241009044822569,1
261,336,39,0.181243833632246,1
231,316,40,0.118753643762764,1
259,336,40,0.139977231075705,1
260,336,40,0.185608505555101,1
231,316,41,0.121197190642422,1
259,334,41,0.122744235270531,1
259,335,41,0.118643294515522,1
259,336,41,0.123097211539295,1
231,316,42,0.117419371797399,1
258,334,42,0.118525148982083,1
259,334,42,0.142225564601865,1
259,335,42,0.133004206791239,1
260,334,42,0.116224549718542,1
260,335,42,0.136372414412323,1
230,317,43,0.131718055105941,1
231,316,43,0.115801677741947,1
231,317,43,0.120045318798858,1
252,331,43,0.122764774127221,1
257,334,43,0.116348407032655,1
258,334,43,0.152481767525015,1
258,335,43,0.120081261798066,1
259,334,43,0.161683493297738,1
259,335,43,0.158521769492223,1
260,334,43,0.143184166275047,1
228,322,44,0.116787907945975,1
229,318,44,0.121883746679394,1
229,319,44,0.119158037834458,1
229,320,44,0.118429556149654,1
229,321,44,0.129964138025639,1
229,322,44,0.11577190582124,1
230,316,44,0.115049183024578,1
230,317,44,0.167228348653311,1
230,318,44,0.161837511169181,1
230,319,44,0.123651301372109,1
231,317,44,0.144369307768926,1
252,330,44,0.1214390757213,1
252,331,44,0.122737110265773,1
253,331,44,0.11518074240995,1
256,334,44,0.114647450524909,1
257,334,44,0.168892655549806,1
257,335,44,0.132494291987924,1
258,334,44,0.177397697179619,1
258,335,44,0.151224009866942,1
259,334,44,0.171534807520764,1
259,335,44,0.19475981455862,1
260,334,44,0.170253166375668,1
260,335,44,0.252376713157342,1
261,334,44,0.148939733341574,1
228,321,45,0.152337913090111,1
228,322,45,0.180456361618794,1
228,323,45,0.145734494011133,1
229,317,45,0.123486601881962,1
229,318,45,0.178857675427274,1
229,319,45,0.166328066027337,1
229,320,45,0.14481850104409,1
229,321,45,0.160923708699468,1
229,322,45,0.153518296729573,1
230,317,45,0.186744089991095,1
230,318,45,0.210983521053459,1
230,319,45,0.15670601208137,1
231,317,45,0.150828507330111,1
231,318,45,0.129592330545953,1
252,329,45,0.113782804699592,1
252,330,45,0.131948104433114,1
253,330,45,0.142397836617729,1
256,334,45,0.148306656059321,1
257,333,45,0.118176824575929,1
257,334,45,0.198183479448142,1
257,335,45,0.186614626888114,1
258,334,45,0.179864915562687,1
258,335,45,0.185535936498377,1
259,334,45,0.178186664855227,1
259,335,45,0.239139231590495,1
260,333,45,0.120110515536609,1
260,334,45,0.196803701667265,1
261,333,45,0.132832865147897,1
227,321,46,0.119576599477597,1
227,322,46,0.165680185222801,1
227,323,46,0.142156775919566,1
228,318,46,0.164461832962943,1
228,319,46,0.17374122717596,1
228,320,46,0.147085288921416,1
228,321,46,0.187305257721197,1
228,322,46,0.23808049121408,1
228,323,46,0.177826504697368,1
229,317,46,0.142358478326984,1
229,318,46,0.251288153752751,1
229,319,46,0.229977205637671,1
229,320,46,0.165539746079434,1
229,321,46,0.165144361311276,1
229,322,46,0.166526941986586,1
230,317,46,0.179465715089502,1
230,318,46,0.238960670727456,1
230,319,46,0.177297935336142,1
231,317,46,0.134826771231431,1
231,318,46,0.130771595383016,1
252,329,46,0.141102145669863,1
252,330,46,0.136938269335638,1
253,329,46,0.13093536450064,1
253,330,46,0.1523008159579,1
255,334,46,0.114915539133682,1
256,334,46,0.173225895013656,1
256,335,46,0.230141351615051,1
257,333,46,0.119912346189401,1
257,334,46,0.196514344036025,1
257,335,46,0.232064631824977,1
258,334,46,0.169573923773331,1
258,335,46,0.208690329439493,1
259,333,46,0.114166624583994,1
259,334,46,0.184056738403177,1
260,333,46,0.143946000048238,1
226,322,47,0.125578208857184,1
227,319,47,0.129751659784579,1
227,320,47,0.121347640123052,1
227,321,47,0.168499838138735,1
227,322,47,0.239316920965349,1
227,323,47,0.174640838520494,1
228,318,47,0.211411586628564,1
228,319,47,0.25016061291717,3
228,320,47,0.188706587169357,1
228,321,47,0.211615679740057,1
228,322,47,0.270065426622202,1
228,323,47,0.184555771381044,1
229,317,47,0.141311267503722,1
229,318,47,0.281477894160445,1
229,319,47,0.279284311290681,3
229,320,47,0.178308296341408,1
229,321,47,0.15364898462676,1
229,322,47,0.157210273988348,1
230,317,47,0.148217728933822,1
230,318,47,0.222605216417368,1
230,319,47,0.176693087204971,1
231,318,47,0.117974851300562,1
235,314,47,0.121510843951043,1
236,314,47,0.140302943896511,1
237,314,47,0.11578617938449,1
251,329,47,0.118146310712578,1
251,330,47,0.122680039566506,1
252,329,47,0.137472750684283,1
252,330,47,0.133616050381627,1
253,329,47,0.11949227710724,1
253,330,47,0.135008594286731,1
255,334,47,0.135109227618393,1
256,333,47,0.12124785472584,1
256,334,47,0.184508546142897,1
256,335,47,0.302907011362698,4
256,336,47,0.286017970745885,4
257,333,47,0.118614111438184,1
257,334,47,0.175995708226886,1
258,333,47,0.11727549380876,1
258,334,47,0.160249789241182,1
259,333,47,0.133595169995783,1
226,322,48,0.171491068235358,1
226,323,48,0.135573412845717,1
227,318,48,0.118371390201722,1
227,319,48,0.174261929589784,3
227,320,48,0.156205059474122,1
227,321,48,0.215510595977324,1
227,322,48,0.321861573193513,1
227,323,48,0.216231293152797,1
228,318,48,0.25003351696453,3
228,319,48,0.354255260114256,3
228,320,48,0.250176158382096,3
228,321,48,0.230104372251515,1
228,322,48,0.29073465323438,1
228,323,48,0.187046873251135,1
229,317,48,0.129150992441324,1
229,318,48,0.278557796342727,3
229,319,48,0.337344055433055,3
229,320,48,0.208765772051854,3
229,321,48,0.147542596458197,1
229,322,48,0.145936867699991,1
230,317,48,0.115798815963176,1
230,318,48,0.184753293000546,1
230,319,48,0.176985153515706,3
235,314,48,0.129152700087092,1
235,315,48,0.118865629994569,1
236,314,48,0.160690444287503,1
236,315,48,0.134487609228089,1
237,314,48,0.118805956607614,1
251,330,48,0.131754386741772,1
252,329,48,0.11666284939139,1
252,330,48,0.131297114535594,1
255,333,48,0.116807940397368,1
255,334,48,0.154237274482411,1
255,335,48,0.239915091612722,4
255,336,48,0.253221185208858,4
256,333,48,0.129593390464016,1
256,334,48,0.187983876149564,4
256,335,48,0.344126565334103,4
256,336,48,0.389326064525174,4
256,337,48,0.193056514454267,4
257,333,48,0.122316793869396,1
257,334,48,0.158527010198202,1
257,335,48,0.25236710323357,4
257,336,48,0.300656098702585,4
258,333,48,0.135238455184026,1
226,321,49,0.122209388838997,1
226,322,49,0.185981785143209,1
226,323,49,0.146455202963474,1
227,318,49,0.122091773264589,1
227,319,49,0.204042824269919,3
227,320,49,0.190223871653627,3
227,321,49,0.238898394652812,1
227,322,49,0.35435338497317,1
227,323,49,0.240515311435018,1
227,324,49,0.113878256209612,1
228,318,49,0.246167642482194,3
228,319,49,0.419707155473869,3
228,320,49,0.31822807985809,3
228,321,49,0.249516795131876,3
228,322,49,0.29710096864263,1
228,323,49,0.192256853383089,1
229,318,49,0.242605163657002,3
229,319,49,0.369653726181992,3
229,320,49,0.256924256276693,3
229,321,49,0.160731416009078,1
229,322,49,0.146153043877405,1
230,318,49,0.145810819888547,1
230,319,49,0.178730991664993,3
230,320,49,0.1268652202538,1
235,314,49,0.116864080724113,1
235,315,49,0.118457879515675,1
236,314,49,0.154402503931589,1
236,315,49,0.148008830860442,1
237,314,49,0.116966457032147,1
251,330,49,0.120924509055375,1
252,330,49,0.122110439599368,1
255,334,49,0.153900644505554,1
255,335,49,0.234491208238757,4
255,336,49,0.28639497182408,4
256,332,49,0.127276009164476,1
256,333,49,0.130119156930809,1
256,334,49,0.171167993432842,4
256,335,49,0.325482111974832,4
256,336,49,0.446050782982672,4
256,337,49,0.254540547660134,4
257,332,49,0.135206728303336,1
257,333,49,0.129252332385029,1
257,335,49,0.242141272851362,4
257,336,49,0.344322037778683,4
257,337,49,0.223380016521532,4
258,332,49,0.126150529280684,1
258,333,49,0.149468208487862,1
258,336,49,0.267859148289415,4
259,332,49,0.119101049573263,1
226,321,50,0.119016644764834,1
226,322,50,0.167402976042648,1
226,323,50,0.148892095913069,1
227,319,50,0.200364814375843,3
227,320,50,0.207963037218293,3
227,321,50,0.229632214084983,1
227,322,50,0.318953440673041,1
227,323,50,0.24523138152641,1
227,324,50,0.136956594141263,1
228,318,50,0.204331216198035,3
228,319,50,0.400824456087736,3
228,320,50,0.355560725862038,3
228,321,50,0.264925624842897,3
228,322,50,0.289739790586571,1
228,323,50,0.208779456771736,1
229,318,50,0.192158610755502,3
229,319,50,0.345400186432521,3
229,320,50,0.287271759599654,3
229,321,50,0.180934997062378,1
229,322,50,0.155442177559735,1
229,323,50,0.115431083279599,1
229,328,50,0.147002803742368,1
229,329,50,0.120988551660124,1
230,318,50,0.114329922626924,1
230,319,50,0.165768052430237,3
230,320,50,0.141458902313052,1
230,328,50,0.127280295944198,1
236,314,50,0.125488728218919,1
236,315,50,0.135635582928555,1
237,315,50,0.118319112687474,1
255,336,50,0.288402857049181,4
256,332,50,0.135872121309648,1
256,333,50,0.123374921848708,1
256,335,50,0.282704572665533,4
256,336,50,0.447918358609945,4
256,337,50,0.313901282340691,4
257,331,50,0.119868571573393,1
257,332,50,0.155404574022228,1
257,333,50,0.130924953749886,1
257,335,50,0.241670998983609,4
257,336,50,0.36384716527976,4
257,337,50,0.261805155403773,4
258,332,50,0.144164649367799,1
258,336,50,0.276685557075975,4
226,322,51,0.133896434039933,1
226,323,51,0.14544984712684,1
227,319,51,0.182296285161486,3
227,320,51,0.224087547159288,3
227,321,51,0.211145971161938,1
227,322,51,0.251596660570332,1
227,323,51,0.236751212640479,1
227,324,51,0.166015519744248,1
228,318,51,0.157402637339943,3
228,319,51,0.340041570457511,3
228,320,51,0.389050697812367,3
228,321,51,0.287702957821479,3
228,322,51,0.273280275876416,1
228,323,51,0.230124180942428,1
228,324,51,0.134730636663103,1
229,318,51,0.151616921492953,1
229,319,51,0.301252502819853,3
229,320,51,0.331082412821975,3
229,321,51,0.223276804055915,3
229,322,51,0.175308893098831,1
229,323,51,0.138836335272528,1
229,327,51,0.116804466221495,1
229,328,51,0.168008354132851,1
229,329,51,0.130791144982847,1
230,319,51,0.155698783722824,1
230,320,51,0.169002227523802,3
230,321,51,0.124978978291747,1
230,327,51,0.125458131917496,1
230,328,51,0.173193555735862,1
230,329,51,0.126098605072457,1
255,336,51,0.2713605287267,4
255,337,51,0.263270244811866,4
256,332,51,0.132129067777096,1
256,333,51,0.118203499180518,1
256,335,51,0.247439756141589,4
256,336,51,0.416164862199346,4
256,337,51,0.366207296607848,4
256,338,51,0.163683864881457,4
257,331,51,0.12971670604223,1
257,332,51,0.16279259155902,1
257,333,51,0.137943931370824,1
257,335,51,0.259859923113073,4
257,336,51,0.367048259152887,4
257,337,51,0.292536867247759,4
258,331,51,0.126695185842736,1
258,332,51,0.152815830144786,1
258,336,51,0.281429302805683,4
259,331,51,0.133585866270562,1
227,320,52,0.227075456179313,3
227,321,52,0.205358159032556,3
227,322,52,0.209347549299851,1
227,323,52,0.234607186828601,1
227,324,52,0.205449571077069,1
228,319,52,0.27517062796518,3
228,320,52,0.398553263662014,3
228,321,52,0.314727665123928,3
228,322,52,0.264815935100228,3
228,323,52,0.257366548307579,1
228,324,52,0.172181369316154,1
229,318,52,0.119523309152755,1
229,319,52,0.256097661509843,3
229,320,52,0.371580633667068,3
229,321,52,0.285100623439094,3
229,322,52,0.209622209400616,1
229,323,52,0.183535400038515,1
229,324,52,0.116167113936387,1
229,327,52,0.129928642547391,1
229,328,52,0.169771304070425,1
230,319,52,0.144505248148959,1
230,320,52,0.20117513351199,3
230,321,52,0.16780939573553,1
230,322,52,0.123321184002906,1
230,327,52,0.155836596624769,1
230,328,52,0.212178378462917,1
230,329,52,0.147581519004849,1
231,327,52,0.119372765457186,1
231,328,52,0.15279643364423,1
235,331,52,0.118528634934824,1
255,336,52,0.25134145585446,4
255,337,52,0.305187319083764,4
256,332,52,0.116225586082871,1
256,335,52,0.215439086838663,4
256,336,52,0.36148945998635,4
256,337,52,0.398969976336976,4
256,338,52,0.208610600047409,4
257,331,52,0.126213818165922,1
257,332,52,0.156897892581403,1
257,333,52,0.143239352675535,1
257,335,52,0.264912505412648,4
257,336,52,0.34189166921361,4
257,337,52,0.313737018594637,4
257,338,52,0.182941928361222,4
258,331,52,0.131915400072432,1
258,332,52,0.152199805766482,1
258,336,52,0.275233799081744,4
258,337,52,0.241836958598564,4
259,331,52,0.158086826226575,1
227,320,53,0.210771984961788,3
227,321,53,0.214454352296791,3
228,319,53,0.20862656947956,3
228,320,53,0.363440816248082,3
228,321,53,0.329802055355422,3
228,322,53,0.260276541573096,3
228,323,53,0.261233082294488,1
228,324,53,0.211823776986456,1
229,319,53,0.209471159299749,3
229,320,53,0.385806853910693,3
229,321,53,0.349434470118225,3
229,322,53,0.252130741505487,3
229,323,53,0.225576143194648,1
229,324,53,0.155466355468442,1
229,327,53,0.134466929048991,1
230,319,53,0.13490379194402,1
230,320,53,0.23760371651554,3
230,321,53,0.227173557484491,3
230,322,53,0.167009558011341,1
230,323,53,0.136743032428405,1
230,327,53,0.162475452297657,1
230,328,53,0.200359090818302,1
231,320,53,0.126091480067699,1
231,321,53,0.129376354575285,1
231,327,53,0.150652207625606,1
231,328,53,0.18290027358134,1
231,329,53,0.124629181777173,1
232,327,53,0.115037288388536,1
232,328,53,0.141195430236287,1
236,331,53,0.118639820339649,1
255,336,53,0.243896497163942,4
255,337,53,0.311573019215702,4
256,335,53,0.193409891136522,4
256,336,53,0.305363359697186,4
256,337,53,0.393599960354354,4
256,338,53,0.25563589054033,4
257,331,53,0.124412817169881,1
257,332,53,0.152924130217105,1
257,335,53,0.243264574014691,4
257,336,53,0.298144375537732,4
257,337,53,0.318561647849431,4
257,338,53,0.233184329266891,4
258,331,53,0.141068028085096,1
258,336,53,0.266119492995496,4
258,337,53,0.264750078857904,4
258,338,53,0.248007212718866,4
259,338,53,0.2751133452823,4
227,321,54,0.24016172276915,3
228,320,54,0.294785283211991,3
228,321,54,0.336120109161197,3
228,322,54,0.261174362833789,3
228,323,54,0.24112073663269,1
228,324,54,0.24404695842144,1
229,319,54,0.16390138362175,3
229,320,54,0.351678316657917,3
229,321,54,0.39651756147619,3
229,322,54,0.284476190377489,3
229,323,54,0.237229023703348,1
229,324,54,0.194297301646463,1
229,325,54,0.142883597066071,1
230,319,54,0.123086588804929,1
230,320,54,0.25365480946536,3
230,321,54,0.293881385087735,3
230,322,54,0.21760249737423,1
230,323,54,0.170585438911599,1
230,324,54,0.124283566050514,1
230,327,54,0.145453662831867,1
230,328,54,0.153103798105677,1
231,320,54,0.151422202767884,1
231,321,54,0.176003869595972,1
231,322,54,0.139634206259867,1
231,326,54,0.117088618477358,1
231,327,54,0.171532758345842,1
231,328,54,0.187913756681252,1
231,329,54,0.129340258476801,1
232,321,54,0.11591591335542,1
232,327,54,0.152141380727467,1
232,328,54,0.179512316153679,1
232,329,54,0.123383306978274,1
233,328,54,0.139904473589103,1
236,332,54,0.119979333010993,1
237,332,54,0.130487431350285,1
255,337,54,0.280705920504449,4
256,336,54,0.250757323232989,4
256,337,54,0.347641536276332,4
256,338,54,0.296699236142961,4
257,331,54,0.121651024003328,1
257,332,54,0.139407713546638,1
257,336,54,0.245523282961002,4
257,337,54,0.308948779860012,4
257,338,54,0.292592383400534,4
258,331,54,0.151662721730148,1
258,336,54,0.258021718993016,4
258,337,54,0.290986678196063,4
258,338,54,0.298796107377896,4
258,339,54,0.228695953129198,4
259,337,54,0.293959253734774,4
259,338,54,0.32440429307328,4
259,339,54,0.286354153201782,4
260,338,54,0.24321678348691,4
227,321,55,0.257640478242567,3
228,320,55,0.231608136892045,3
228,321,55,0.337517787780473,3
228,322,55,0.275592710891661,3
229,320,55,0.290927911627895,3
229,321,55,0.410266111979354,3
229,322,55,0.307831037378081,3
229,323,55,0.233629636175823,3
229,324,55,0.237639164886318,1
230,320,55,0.242348734146923,3
230,321,55,0.342193015695832,3
230,322,55,0.270103253920189,3
230,323,55,0.203241455552972,1
230,324,55,0.170780934909914,1
230,325,55,0.137173971559148,1
230,326,55,0.129454211445457,1
230,327,55,0.12715234028024,1
231,320,55,0.164878062786343,1
231,321,55,0.228579974539355,3
231,322,55,0.196913897815231,1
231,323,55,0.148668323656203,1
231,326,55,0.134639318833529,1
231,327,55,0.176291130944821,1
231,328,55,0.169267277700794,1
232,320,55,0.11606354816475,1
232,321,55,0.147714762482255,1
232,322,55,0.12851415833838,1
232,326,55,0.122290543232032,1
232,327,55,0.187954822617766,1
232,328,55,0.20738048269705,1
232,329,55,0.148462087154848,1
233,327,55,0.133146471349049,1
233,328,55,0.172258413582478,1
233,329,55,0.137223587501371,1
234,328,55,0.114724271030753,1
236,329,55,0.116185992254778,1
236,332,55,0.137771011627254,1
237,331,55,0.115517490155481,1
237,332,55,0.183973275744138,1
237,333,55,0.160956789919906,1
238,332,55,0.135991385645487,1
238,333,55,0.13584485786169,1
256,337,55,0.285425547209787,4
256,338,55,0.314044371279217,4
257,336,55,0.207022701466399,4
257,337,55,0.29765203182053,4
257,338,55,0.346302082489324,4
257,339,55,0.232231345159444,4
258,336,55,0.258961819207562,4
258,337,55,0.320476472268586,4
258,338,55,0.334582356481441,4
258,339,55,0.271574467299314,4
259,336,55,0.308353035247316,4
259,337,55,0.324814057396495,4
259,338,55,0.333735034428023,4
259,339,55,0.343576020338367,4
259,340,55,0.219879766663514,4
260,337,55,0.226028374901592,4
260,338,55,0.244351225566769,4
260,339,55,0.2845731611034,4
227,321,56,0.23967112202832,3
228,320,56,0.179877022182342,3
228,321,56,0.316644279626924,3
228,322,56,0.278516695075611,3
229,320,56,0.221887227921389,3
229,321,56,0.375559165662649,3
229,322,56,0.301889042501113,3
229,323,56,0.221959726316908,3
230,320,56,0.210711145664963,3
230,321,56,0.356179246936224,3
230,322,56,0.303212008673804,3
230,323,56,0.224622829334914,3
230,324,56,0.212812280125886,1
230,325,56,0.192975360061232,1
231,320,56,0.173181543331146,1
231,321,56,0.294093250931692,3
231,322,56,0.273377694123287,3
231,323,56,0.189618505340291,1
231,324,56,0.133899684455326,1
231,325,56,0.114042107765308,1
231,326,56,0.137647943363255,1
231,327,56,0.162939025127878,1
232,320,56,0.127903680864607,1
232,321,56,0.191953516610282,1
232,322,56,0.185937139039015,1
232,323,56,0.140667025751204,1
232,326,56,0.131669063337689,1
232,327,56,0.197078232222489,1
232,328,56,0.202690486590011,1
233,321,56,0.12090882226804,1
233,322,56,0.129371655605205,1
233,323,56,0.127837930614089,1
233,327,56,0.149267848643324,1
233,328,56,0.182721218089871,1
233,329,56,0.166001717255692,1
234,328,56,0.129531208604311,1
234,329,56,0.132650382588024,1
235,329,56,0.130084438725807,1
236,328,56,0.118475485932391,1
236,329,56,0.15396210797635,1
236,330,56,0.114231762437408,1
236,332,56,0.140051590216269,1
237,329,56,0.138244512356666,1
237,331,56,0.124084207239702,1
237,332,56,0.210301593325361,1
237,333,56,0.203723671164237,1
238,332,56,0.164181119552351,1
238,333,56,0.175986168964318,1
246,334,56,0.131943275917493,1
256,337,56,0.237302110942236,4
256,338,56,0.312815926244023,4
257,336,56,0.178977587490819,4
257,337,56,0.288088791550201,4
257,338,56,0.384287543805236,4
257,339,56,0.292556652384938,4
258,336,56,0.25681628595666,4
258,337,56,0.343897929231014,4
258,338,56,0.365077847919753,4
258,339,56,0.302050102939242,4
258,340,56,0.185488628822159,4
259,335,56,0.254137260613972,4
259,336,56,0.332295265284772,4
259,337,56,0.344635420219355,4
259,338,56,0.324345149645356,4
259,339,56,0.346027799248316,4
259,340,56,0.253261579863931,4
260,336,56,0.26731606982759,4
260,337,56,0.229063768250847,4
260,338,56,0.237812520373981,4
260,339,56,0.315150501769922,4
228,321,57,0.274960905511084,3
229,321,57,0.309204173005762,3
229,322,57,0.27308576913496,3
230,320,57,0.172741453574458,3
230,321,57,0.315588507021086,3
230,322,57,0.292983281182224,3
231,320,57,0.165293868642517,1
231,321,57,0.315492572659503,3
231,322,57,0.31182372516824,1
231,323,57,0.211792615395399,1
231,324,57,0.152816006797796,1
231,325,57,0.135964734594633,1
232,320,57,0.129350563235748,1
232,321,57,0.219481449455381,1
232,322,57,0.236821096571443,1
232,323,57,0.188628329885695,1
232,324,57,0.116100091784194,1
232,326,57,0.125659916762986,1
232,327,57,0.170934387491723,1
233,321,57,0.134909727485173,1
233,322,57,0.169976139124562,1
233,323,57,0.187500270867949,1
233,324,57,0.116542501583753,1
233,327,57,0.145592806519825,1
233,328,57,0.167205560414953,1
234,322,57,0.139118285254194,1
234,323,57,0.162443207234803,1
234,328,57,0.130238868787608,1
234,329,57,0.147767393302524,1
235,322,57,0.125934765293628,1
235,323,57,0.132343347878864,1
235,329,57,0.148200546484332,1
235,330,57,0.120444790139992,1
236,329,57,0.164978389919454,1
236,330,57,0.144161304737466,1
236,331,57,0.116682716966641,1
237,329,57,0.133245915217107,1
237,330,57,0.1230335104637,1
237,331,57,0.130509936943826,1
237,332,57,0.200798697723428,1
238,332,57,0.172374215519311,1
238,333,57,0.194046324825976,1
256,338,57,0.292830794303539,4
256,339,57,0.248746917758272,4
257,337,57,0.278420807821498,4
257,338,57,0.386322138965528,4
257,339,57,0.32845094246972,4
257,340,57,0.175132228311438,4
258,336,57,0.243323858765023,4
258,337,57,0.342310619493372,4
258,338,57,0.38210613821633,4
258,339,57,0.324294038040977,4
258,340,57,0.204161323109379,4
259,336,57,0.303612539933002,4
259,337,57,0.322935105315343,4
259,338,57,0.312812134092731,4
259,339,57,0.322912375961322,4
259,340,57,0.261121131393284,4
260,337,57,0.22242740927384,4
260,338,57,0.221320760600971,4
260,339,57,0.302653337639584,4
230,321,58,0.248335740210974,3
231,322,58,0.311438621605294,1
232,320,58,0.130073745330237,1
232,321,58,0.224533113159302,1
232,322,58,0.276394692005712,1
232,323,58,0.241167161043856,1
232,324,58,0.160634021315942,1
233,321,58,0.141093195250663,1
233,322,58,0.201219061227274,1
233,323,58,0.231156753119551,1
233,324,58,0.152408091442759,1
233,327,58,0.1252344067681,1
234,321,58,0.129683024201557,1
234,322,58,0.168846749320805,1
234,323,58,0.19078310797748,1
234,324,58,0.129791712910499,1
234,328,58,0.125289687383527,1
235,321,58,0.145107246278227,1
235,322,58,0.181897814854078,1
235,323,58,0.179058435685302,1
235,324,58,0.12949107304032,1
235,328,58,0.115325397671836,1
235,329,58,0.157118084670589,1
236,322,58,0.144930923019988,1
236,323,58,0.157485699585492,1
236,324,58,0.134815583207431,1
236,329,58,0.159408108307233,1
236,330,58,0.162957161503625,1
237,329,58,0.115047758023627,1
237,330,58,0.131798444002597,1
237,331,58,0.124240839575701,1
238,332,58,0.151286297718453,1
256,338,58,0.274443924587348,4
256,339,58,0.275192485831015,4
257,337,58,0.276339128745468,4
257,338,58,0.365026854084048,4
257,339,58,0.337850743374711,4
257,340,58,0.201213596760815,4
258,336,58,0.220258392949406,4
258,337,58,0.316746809034233,4
258,338,58,0.387223563947636,4
258,339,58,0.342932014123196,4
258,340,58,0.218747679957128,4
259,337,58,0.269575579600883,4
259,338,58,0.307766264607555,4
259,339,58,0.306024701461123,4
259,340,58,0.242597155387191,4
260,338,58,0.202071729978478,4
260,339,58,0.267701550250291,4
233,322,59,0.213099164614979,1
233,323,59,0.253876591431641,1
234,320,59,0.121064300471037,1
234,321,59,0.141367631590947,1
234,322,59,0.182349198626572,1
234,323,59,0.199699892444226,1
235,319,59,0.11494571146788,1
235,320,59,0.119297099084344,1
235,321,59,0.1641836280251,1
235,322,59,0.218303362305055,1
235,323,59,0.215233132982125,1
236,321,59,0.128529397604755,1
236,322,59,0.188526153784407,1
236,323,59,0.200327787904837,1
236,324,59,0.162804874831685,1
237,323,59,0.117031806869174,1
241,318,59,0.115804268652768,1
256,338,59,0.266859103819964,4
256,339,59,0.292297796840182,4
257,337,59,0.289408059786539,4
257,338,59,0.337628184135184,4
257,339,59,0.330098220016001,4
257,340,59,0.231786674201349,4
258,337,59,0.285253840483556,4
258,338,59,0.368167933041066,4
258,339,59,0.348378933049734,4
258,340,59,0.233562437370619,4
259,338,59,0.299449393764554,4
259,339,59,0.2958668707111,4
235,321,60,0.160295589478377,1
236,322,60,0.201643687957107,1
255,339,60,0.268111738540731,4
256,338,60,0.265239125052242,4
256,339,60,0.302273203914668,4
256,340,60,0.272132737920043,4
257,337,60,0.287301531520362,4
257,338,60,0.313300332352619,4
257,339,60,0.325602659989214,4
257,340,60,0.266486954811124,4
258,337,60,0.248596008979814,4
258,338,60,0.322119839894901,4
258,339,60,0.330327068102703,4
258,340,60,0.244250651119443,4
259,338,60,0.268349607707837,4
259,339,60,0.272009292796288,4
255,339,61,0.281023542617374,4
256,338,61,0.270092183664863,4
256,339,61,0.305113760770181,4
256,340,61,0.296001621627529,4
257,338,61,0.286813286153004,4
257,339,61,0.313964265027377,4
257,340,61,0.276371326700853,4
258,338,61,0.254631535737422,4
258,339,61,0.279886745164041,4
255,339,62,0.287229504199537,4
256,338,62,0.27809948777222,4
256,339,62,0.31885025176116,4
256,340,62,0.308116178890804,4
257,339,62,0.296741303113201,4
255,339,63,0.283592878217393,4
256,338,63,0.284393563876033,4
256,339,63,0.323874781562664,4
256,340,63,0.307244125415912,4
257,339,63,0.271292434879576,4
255,339,64,0.276228025778715,4
256,338,64,0.288191156081367,4
256,339,64,0.312873515125455,4
256,340,64,0.29577293841697,4
257,339,64,0.242321082062342,4
256,339,65,0.283272382548831,4
