x,y,z,signal,mito.p
643,814,31,0.15851506845469,1
628,808,32,0.133820296592396,1
628,809,32,0.139123184431019,1
631,806,32,0.134749526758362,1
631,807,32,0.141415551664269,1
632,805,32,0.136529894682773,1
632,806,32,0.141409168602156,1
632,807,32,0.148063275318286,1
633,806,32,0.148962191827645,1
642,813,32,0.203688010809845,1
642,814,32,0.224603468164961,1
643,813,32,0.209165926451296,1
643,814,32,0.238960694281191,1
643,815,32,0.180079195664455,1
644,814,32,0.174758654301647,1
627,808,33,0.116733381050059,1
627,809,33,0.11792026552031,1
628,806,33,0.146593051196021,1
628,807,33,0.139479646652524,1
628,808,33,0.130663731054789,1
628,809,33,0.127307842036972,1
628,810,33,0.127465345861157,1
629,808,33,0.140261147794221,1
629,809,33,0.138535730732951,1
630,806,33,0.138474808998054,1
630,807,33,0.140704570404374,1
631,805,33,0.13362029005388,1
631,806,33,0.143590621298531,1
631,807,33,0.142118760191701,1
631,808,33,0.145521650687185,1
632,804,33,0.124272413357116,1
632,805,33,0.138216153660043,1
632,806,33,0.148410056954815,1
632,807,33,0.144710730930802,1
632,808,33,0.143986006066688,1
633,805,33,0.141465744672993,1
633,806,33,0.147779959220006,1
633,807,33,0.149420759489234,1
634,806,33,0.154639701817255,1
641,813,33,0.159763063089715,1
641,814,33,0.190384037049836,1
642,812,33,0.156392346995881,1
642,813,33,0.251961366598995,1
642,814,33,0.334279408345258,2
642,815,33,0.221075071593932,1
643,812,33,0.161207766740393,1
643,813,33,0.250694434761242,1
643,814,33,0.325358313545056,2
643,815,33,0.212494469583084,1
644,813,33,0.193213323443277,1
644,814,33,0.227257149689072,1
644,815,33,0.163991029136158,1
645,813,33,0.160731039149322,1
645,814,33,0.174111621431562,1
627,806,34,0.142903594186863,1
627,807,34,0.127218773589065,1
627,808,34,0.118449317733098,1
627,809,34,0.114928540795257,1
628,805,34,0.148685988957255,1
628,806,34,0.150485659167283,1
628,807,34,0.142251662139953,1
628,808,34,0.135252728747277,1
628,809,34,0.12843078989428,1
628,810,34,0.114464167138055,1
629,806,34,0.14733538247685,1
629,807,34,0.145954603662248,1
629,808,34,0.138825088364191,1
629,809,34,0.130017864094574,1
629,810,34,0.11706570069346,1
630,805,34,0.133981592567873,1
630,806,34,0.142560180734402,1
630,807,34,0.141342440871646,1
630,808,34,0.136017471406708,1
630,809,34,0.129720615962196,1
631,804,34,0.119987529710681,1
631,805,34,0.136867914329979,1
631,806,34,0.151827020806804,1
631,807,34,0.143180221024478,1
631,808,34,0.134878389241106,1
632,804,34,0.121439723449005,1
632,805,34,0.140782757026833,1
632,806,34,0.156316115333406,1
632,807,34,0.142874128464707,1
632,808,34,0.131864524005401,1
633,804,34,0.131769437578269,1
633,805,34,0.140216360367619,1
633,806,34,0.145825246551074,1
633,807,34,0.140901338304365,1
633,808,34,0.138432859796488,1
634,805,34,0.146945591720693,1
634,806,34,0.151143373656071,1
634,807,34,0.158297196408376,1
641,813,34,0.173389369709596,1
641,814,34,0.231488625241991,2
641,815,34,0.162397041914719,1
642,812,34,0.151053421943111,1
642,813,34,0.286725689813518,2
642,814,34,0.42312885362654,2
642,815,34,0.268719189359591,2
642,816,34,0.117507274335436,1
643,812,34,0.166027072851136,1
643,813,34,0.290327738913069,2
643,814,34,0.38689534265408,2
643,815,34,0.233333707052591,2
644,812,34,0.175020689600593,1
644,813,34,0.27495631253281,2
644,814,34,0.299049003827765,2
644,815,34,0.178786861123788,1
645,812,34,0.167042215264554,1
645,813,34,0.230662383781162,1
645,814,34,0.229669523200806,1
645,815,34,0.145952318949978,1
646,813,34,0.158326991882818,1
646,814,34,0.151798567895242,1
627,806,35,0.142675311389795,1
627,807,35,0.131125902437793,1
627,808,35,0.118152599559752,1
628,805,35,0.139683939970763,1
628,806,35,0.152420869343853,1
628,807,35,0.146937171260524,1
628,808,35,0.136398335297401,1
628,809,35,0.128135602713692,1
629,806,35,0.153399739005776,1
629,807,35,0.153410314632673,1
629,808,35,0.140159324998954,1
629,809,35,0.127567474854975,1
630,805,35,0.136265056489393,1
630,806,35,0.147876588416763,1
630,807,35,0.147345793227604,1
630,808,35,0.136196891981065,1
630,809,35,0.123832005625009,1
631,804,35,0.117475629892817,1
631,805,35,0.137813078597494,1
631,806,35,0.154498815152928,1
631,807,35,0.145177259754732,1
631,808,35,0.134258337174162,1
632,804,35,0.118664504653653,1
632,805,35,0.140075603248833,1
632,806,35,0.159795520136182,1
632,807,35,0.143857355567556,1
632,808,35,0.130439935244188,1
633,804,35,0.128104346907696,1
633,805,35,0.141347634470156,1
633,806,35,0.151182826161755,1
633,807,35,0.140484696290607,1
633,808,35,0.132298666444068,1
634,805,35,0.147743992667063,1
634,806,35,0.153198307466308,1
634,807,35,0.157626739349095,1
635,804,35,0.171458316767207,1
641,813,35,0.172405353556633,1
641,814,35,0.233082200273073,2
641,815,35,0.157071990011709,1
642,812,35,0.150914443131298,1
642,813,35,0.286618119906976,2
642,814,35,0.421305888772858,2
642,815,35,0.266818779826094,2
642,816,35,0.116684165521327,1
643,812,35,0.175837603782466,2
643,813,35,0.309371663613475,2
643,814,35,0.38669096689777,2
643,815,35,0.229106659601802,2
644,811,35,0.121839465658089,1
644,812,35,0.210404287608814,2
644,813,35,0.3537239585198,2
644,814,35,0.350366703385369,2
644,815,35,0.18850242339666,2
645,812,35,0.203881504740707,1
645,813,35,0.296758379570885,2
645,814,35,0.270622189803909,2
645,815,35,0.153736251213959,1
646,813,35,0.183049592482703,1
646,814,35,0.166056291259077,1
627,807,36,0.120885951591611,1
628,806,36,0.141001382792659,1
628,807,36,0.135437307589541,1
628,808,36,0.120936827658642,1
629,806,36,0.14649491456024,1
629,807,36,0.146544200750177,1
629,808,36,0.129466742032337,1
630,805,36,0.126122735873695,1
630,806,36,0.134927381009359,1
630,807,36,0.136790705187512,1
630,808,36,0.125061216156581,1
631,805,36,0.117633569461094,1
631,806,36,0.126793240040445,1
631,807,36,0.123426952048742,1
631,808,36,0.117757120576656,1
632,805,36,0.113903706019995,1
632,806,36,0.125082143649894,1
632,807,36,0.114665904876075,1
633,805,36,0.12188994131163,1
633,806,36,0.127747684479446,1
633,807,36,0.116192869945321,1
634,804,36,0.139648703583597,1
634,806,36,0.135264882474401,1
635,803,36,0.15914820462128,1
635,804,36,0.179598593484019,1
635,805,36,0.149394296868258,1
636,803,36,0.161656500717729,1
636,804,36,0.16720651434121,1
641,813,36,0.154118492998134,1
641,814,36,0.197676885721425,2
642,812,36,0.143598629568341,1
642,813,36,0.253276348055611,2
642,814,36,0.345856422274371,2
642,815,36,0.223167349850594,2
643,812,36,0.180890292073848,2
643,813,36,0.296873839978564,2
643,814,36,0.340328313624196,2
643,815,36,0.205162875017854,2
644,811,36,0.131595234156156,1
644,812,36,0.242715583565448,2
644,813,36,0.380551992137198,2
644,814,36,0.349996462229043,2
644,815,36,0.18553995241015,2
645,811,36,0.153232731249625,1
645,812,36,0.240526734996365,2
645,813,36,0.321878296345176,2
645,814,36,0.270198363901056,2
645,815,36,0.155346325636224,1
646,812,36,0.201287037305724,1
646,813,36,0.202286540039276,2
646,814,36,0.173109869316342,1
646,817,36,0.187099127211649,1
646,818,36,0.223985606595347,1
646,819,36,0.216540930549646,1
647,813,36,0.160137143504803,1
647,815,36,0.17955491308295,1
647,816,36,0.188069599967138,1
647,817,36,0.181495399296101,1
647,818,36,0.213889439522865,1
647,819,36,0.218823946950206,1
648,812,36,0.187390545794679,1
648,815,36,0.190479158807571,1
648,816,36,0.185857386093197,1
649,811,36,0.168294732216648,1
649,812,36,0.200804515495908,1
627,807,37,0.118006448635711,1
628,806,37,0.135472390877431,1
628,807,37,0.130286494439246,1
629,806,37,0.146464812887247,1
629,807,37,0.144430323718762,1
629,808,37,0.122668333360342,1
630,805,37,0.128427680801294,1
630,806,37,0.136258143468248,1
630,807,37,0.136828285171285,1
630,808,37,0.122010654202156,1
631,805,37,0.114496023564287,1
631,806,37,0.119030918328084,1
631,807,37,0.11777531583674,1
633,805,37,0.11467935405861,1
633,806,37,0.119367077230247,1
634,803,37,0.119662052427222,1
634,804,37,0.127004481710431,1
634,805,37,0.12515748027045,1
634,806,37,0.127374923073502,1
635,802,37,0.13613386218691,1
635,803,37,0.160214305539801,1
635,804,37,0.165564807253194,1
635,805,37,0.133315834478673,1
635,806,37,0.128114204145683,1
636,802,37,0.166576510821339,1
636,803,37,0.171547903397278,1
636,804,37,0.1527931243445,1
636,805,37,0.114491807445769,1
637,802,37,0.158301848270986,1
637,803,37,0.151637330804102,1
637,804,37,0.118161420433411,1
638,803,37,0.120569990016985,1
641,804,37,0.134216800162954,1
641,813,37,0.127403317100727,1
641,814,37,0.145863109179663,1
641,820,37,0.211226548488472,1
642,804,37,0.163986118182466,1
642,812,37,0.132304531324018,1
642,813,37,0.205425852466189,1
642,814,37,0.245439361004135,2
642,815,37,0.167628361730344,1
643,803,37,0.142135436235895,1
643,804,37,0.161770194595304,1
643,805,37,0.163371754342461,1
643,806,37,0.139266897543515,1
643,811,37,0.117843421460731,1
643,812,37,0.190029718218192,1
643,813,37,0.277016769693843,2
643,814,37,0.28888862927439,2
643,815,37,0.1865606770587,1
644,805,37,0.130294125849301,1
644,811,37,0.152644924245536,1
644,812,37,0.279544179646031,2
644,813,37,0.370839326973699,2
644,814,37,0.318566382150113,2
644,815,37,0.18798080238718,2
644,816,37,0.123490452917592,1
644,818,37,0.133683578939117,1
644,819,37,0.141856218487458,1
645,811,37,0.168148333978392,1
645,812,37,0.279841545547082,2
645,813,37,0.32019434563391,2
645,814,37,0.248330723265475,2
645,815,37,0.168718746549378,1
645,816,37,0.152025943873523,1
645,817,37,0.176423962231869,1
645,818,37,0.229853666298977,1
645,819,37,0.242528307820556,1
645,820,37,0.138224279698527,1
646,811,37,0.161273199015492,1
646,812,37,0.218501284338048,1
646,813,37,0.214948062130607,2
646,814,37,0.178615389934905,1
646,815,37,0.187953480054886,1
646,816,37,0.215478492236877,1
646,817,37,0.230073045784315,1
646,818,37,0.288897932999611,3
646,819,37,0.293831144971541,3
646,820,37,0.15662062979295,1
647,811,37,0.14756598531679,1
647,812,37,0.173997762677845,1
647,813,37,0.159504749280857,1
647,814,37,0.168912994199752,1
647,815,37,0.242843315468925,1
647,816,37,0.281561580579965,3
647,817,37,0.256779565684206,3
647,818,37,0.304234122992704,3
647,819,37,0.298105276338069,3
647,820,37,0.158353984462826,1
648,811,37,0.186235682626803,1
648,812,37,0.223440620281009,1
648,813,37,0.168884729718067,1
648,814,37,0.181360542387866,1
648,815,37,0.256438389836545,1
648,816,37,0.260624642218769,1
648,817,37,0.21180147159966,1
648,818,37,0.24041940062717,1
648,819,37,0.226753735716544,1
649,810,37,0.125686862235525,1
649,811,37,0.238043252759461,1
649,812,37,0.28989373779681,1
649,813,37,0.194738569089887,1
649,815,37,0.199597221714508,1
649,816,37,0.176235838552527,1
650,811,37,0.158979065252136,1
650,812,37,0.193386384509255,1
625,813,38,0.131434220825496,1
625,814,38,0.155572394382227,1
628,806,38,0.127898381274291,1
628,807,38,0.125614882022169,1
629,805,38,0.12460256605692,1
629,806,38,0.140692663991465,1
629,807,38,0.139218176643212,1
629,808,38,0.119290633584159,1
630,805,38,0.126510112372042,1
630,806,38,0.135495944612168,1
630,807,38,0.133803608771335,1
630,808,38,0.118223060557217,1
631,806,38,0.115660308226057,1
633,825,38,0.135949259790911,1
634,805,38,0.116549343943694,1
634,806,38,0.118733517096431,1
634,826,38,0.168196042068101,1
635,801,38,0.11486050583247,1
635,802,38,0.137200281080849,1
635,803,38,0.152113763973489,1
635,804,38,0.137773637868677,1
635,805,38,0.116809494943861,1
635,806,38,0.114696866260387,1
635,807,38,0.118493516316332,1
635,828,38,0.150051575612953,1
636,801,38,0.146525781729613,1
636,802,38,0.189618057819331,1
636,803,38,0.180334459264664,1
636,804,38,0.132064130130427,1
637,801,38,0.133952703912219,1
637,802,38,0.187718366674744,1
637,803,38,0.169715045975006,1
638,802,38,0.123427281801028,1
638,803,38,0.127443464441586,1
640,805,38,0.117387244503218,1
641,804,38,0.117039650262841,1
641,805,38,0.123333926573399,1
641,819,38,0.125237233216268,1
641,820,38,0.166610734397912,1
641,821,38,0.138012107656019,1
642,804,38,0.138832189815214,1
642,805,38,0.14051265457374,1
642,806,38,0.120952973743804,1
642,812,38,0.11398786351421,1
642,813,38,0.153408512771966,1
642,814,38,0.164058958107139,1
642,815,38,0.122757766891137,1
642,819,38,0.118913985811984,1
642,820,38,0.14259388612881,1
642,821,38,0.117265000619934,1
643,803,38,0.136662678862351,1
643,804,38,0.153698471023442,1
643,805,38,0.147507913583797,1
643,806,38,0.130624066565492,1
643,811,38,0.114849258924133,1
643,812,38,0.181702754599856,1
643,813,38,0.23719706128531,2
643,814,38,0.231980592099437,1
643,815,38,0.164514640436223,1
644,802,38,0.15041393804501,1
644,803,38,0.178361480674443,1
644,804,38,0.158284477391618,1
644,805,38,0.132404870233996,1
644,806,38,0.117268981201105,1
644,811,38,0.158586165402993,1
644,812,38,0.279527315171959,2
644,813,38,0.321761469820882,2
644,814,38,0.262839329234858,2
644,815,38,0.177137546179452,1
644,816,38,0.122771380949815,1
644,818,38,0.136549244075859,1
644,819,38,0.149164059111206,1
645,801,38,0.16678777604506,1
645,802,38,0.183256323612487,1
645,803,38,0.17093578893894,1
645,804,38,0.134039581862795,1
645,811,38,0.170293207724721,1
645,812,38,0.282116789215178,1
645,813,38,0.283436716956089,2
645,814,38,0.211276953480809,1
645,815,38,0.172431462871588,1
645,816,38,0.156386482115932,1
645,817,38,0.167735319239783,1
645,818,38,0.238114149501019,3
645,819,38,0.276159107550875,3
645,820,38,0.146778336650327,1
646,804,38,0.128524745742144,1
646,811,38,0.144684280086693,1
646,812,38,0.211411327537482,1
646,813,38,0.202377245471747,1
646,814,38,0.174760102856333,1
646,815,38,0.224788058784092,1
646,816,38,0.261078875993167,3
646,817,38,0.248951175745909,3
646,818,38,0.315368397369971,3
646,819,38,0.331563992482402,3
646,820,38,0.162724980563458,3
647,811,38,0.129464645749945,1
647,812,38,0.160092874260366,1
647,813,38,0.148195800406782,1
647,814,38,0.168105183536354,1
647,815,38,0.291372370602376,3
647,816,38,0.365151594663214,3
647,817,38,0.323998674207379,3
647,818,38,0.373749155363072,3
647,819,38,0.344260727407163,3
647,820,38,0.161491271268551,3
648,811,38,0.191150923099129,1
648,812,38,0.229285550217128,1
648,813,38,0.163906035484361,1
648,814,38,0.179276979013057,1
648,815,38,0.279158440132248,1
648,816,38,0.305490408542355,3
648,817,38,0.256897946754993,3
648,818,38,0.286874455202116,3
648,819,38,0.249093581626127,3
649,810,38,0.131414683002532,1
649,811,38,0.274941638556069,1
649,812,38,0.334424499351236,1
649,813,38,0.207991513683589,1
649,814,38,0.182584100023101,1
649,815,38,0.211389187026829,1
649,816,38,0.181928823345859,1
649,817,38,0.14529191933543,1
649,818,38,0.14356475929779,1
650,811,38,0.194476792882024,1
650,812,38,0.237555266483186,1
650,813,38,0.164756867044255,1
651,812,38,0.120540583179166,1
624,805,39,0.141985222292611,1
624,811,39,0.125548260283466,1
624,812,39,0.166388234042722,1
625,806,39,0.114265691592297,1
625,812,39,0.13719660669823,1
625,813,39,0.149440544626413,1
625,815,39,0.135928874033496,1
625,816,39,0.118202168394506,1
628,806,39,0.115049783644814,1
628,807,39,0.114644706514812,1
629,806,39,0.125278876219283,1
629,807,39,0.123487002295453,1
630,805,39,0.114315778609214,1
630,806,39,0.122231788440731,1
630,807,39,0.119339637129278,1
632,800,39,0.145705628909213,1
632,824,39,0.116876811517739,1
633,799,39,0.14885620002133,1
633,800,39,0.135061354652541,1
634,799,39,0.119336952003518,1
635,798,39,0.121818950355134,1
635,801,39,0.119377970832562,1
635,802,39,0.134589408469622,1
635,803,39,0.129808012094937,1
635,828,39,0.148320588093417,1
635,829,39,0.204915890555405,1
636,801,39,0.158005459849927,1
636,802,39,0.203368787042959,1
636,803,39,0.172653268391604,1
636,829,39,0.151037428957225,1
637,801,39,0.140255942418844,1
637,802,39,0.198261984046019,1
637,803,39,0.168921379329318,1
638,802,39,0.12384444199695,1
638,803,39,0.122161621864951,1
641,795,39,0.148821764461145,1
641,819,39,0.118813482025862,1
641,820,39,0.11741318894203,1
642,795,39,0.165176465051722,1
642,804,39,0.114628725305793,1
643,803,39,0.12178956707105,1
643,804,39,0.138358241564842,1
643,805,39,0.128103993601675,1
643,806,39,0.115316906550463,1
643,812,39,0.160501990855875,1
643,813,39,0.190308629768077,1
643,814,39,0.174135281158105,1
643,815,39,0.138581660515687,1
644,802,39,0.132349990032059,1
644,803,39,0.158511123204122,1
644,804,39,0.156470345188462,1
644,805,39,0.131781767958404,1
644,811,39,0.146025571065009,1
644,812,39,0.237355931226109,1
644,813,39,0.254512071194838,2
644,814,39,0.202154780447159,1
644,815,39,0.153402518346475,1
644,816,39,0.118405919976846,1
644,818,39,0.134369298818507,1
644,819,39,0.141572160446534,1
645,800,39,0.115425760135549,1
645,801,39,0.148821752684278,1
645,802,39,0.163484270533298,1
645,803,39,0.154559195151925,1
645,804,39,0.132169309332894,1
645,811,39,0.152047389549001,1
645,812,39,0.235623813127307,1
645,813,39,0.224640895049457,1
645,814,39,0.172660169635882,1
645,815,39,0.159693520687905,1
645,816,39,0.149076144796302,1
645,817,39,0.150216887500203,1
645,818,39,0.216055158324436,3
645,819,39,0.25422695323585,1
645,820,39,0.144156900189071,1
646,799,39,0.121824320606654,1
646,800,39,0.178673885635124,1
646,801,39,0.218428220652894,1
646,802,39,0.191636836646747,1
646,803,39,0.145652267923167,1
646,804,39,0.121688121135539,1
646,811,39,0.123679483415721,1
646,812,39,0.176672407025872,1
646,813,39,0.169500789426973,1
646,814,39,0.161997464581778,1
646,815,39,0.229672797169934,1
646,816,39,0.267842990427385,3
646,817,39,0.239476591733129,3
646,818,39,0.299714820801302,3
646,819,39,0.313818773607908,3
646,820,39,0.162721117750961,1
647,804,39,0.148261856855852,1
647,805,39,0.155274380753471,1
647,806,39,0.126297210163757,1
647,811,39,0.115086574578473,1
647,812,39,0.141057558450006,1
647,813,39,0.132319499722443,1
647,814,39,0.157926554838559,1
647,815,39,0.287715064441134,3
647,816,39,0.381860425655557,3
647,817,39,0.343631088970182,3
647,818,39,0.383267290231381,3
647,819,39,0.33600172809041,3
647,820,39,0.161118427424537,3
648,811,39,0.169566433685685,1
648,812,39,0.202184505260397,1
648,813,39,0.151179575746361,1
648,814,39,0.161863526269198,1
648,815,39,0.248639654050281,1
648,816,39,0.301877218526275,3
648,817,39,0.275574386086036,3
648,818,39,0.289672262029081,3
648,819,39,0.233469494333348,3
649,810,39,0.120242051368246,1
649,811,39,0.251692006088546,1
649,812,39,0.303317270314342,1
649,813,39,0.193764304183106,1
649,814,39,0.169072052570428,1
649,815,39,0.191137862553217,1
649,816,39,0.175509205835899,1
649,817,39,0.149423220854514,1
649,818,39,0.137874977812382,1
650,811,39,0.205244229617634,1
650,812,39,0.24635100830712,1
650,813,39,0.164719652143371,1
651,812,39,0.135710483805017,1
653,816,39,0.202871190842911,1
654,816,39,0.179873383130325,1
623,805,40,0.126502751829937,1
623,809,40,0.125647021093217,1
623,810,40,0.141859551340924,1
623,811,40,0.145174185992349,1
624,804,40,0.138611985949161,1
624,805,40,0.172406766780717,1
624,806,40,0.133412934750125,1
624,808,40,0.114842192803712,1
624,811,40,0.134647374210809,1
624,816,40,0.114770059491081,1
625,805,40,0.142474916214655,1
625,806,40,0.115752473990082,1
625,808,40,0.119195299842812,1
625,812,40,0.15521925323732,1
625,815,40,0.119224812672437,1
631,799,40,0.123728993366138,1
632,799,40,0.12954231419024,1
632,800,40,0.120966858670431,1
632,824,40,0.122283524219081,1
633,798,40,0.133272118747002,1
633,799,40,0.128580367886725,1
633,800,40,0.11873674395809,1
633,825,40,0.14618278046751,1
634,798,40,0.142179658372863,1
634,799,40,0.117357060392153,1
634,826,40,0.171129400638476,1
634,829,40,0.147189796842443,1
635,797,40,0.184189416590949,1
635,798,40,0.144941557531222,1
635,801,40,0.124890333811066,1
635,802,40,0.131741078881646,1
635,827,40,0.121359228560543,1
635,828,40,0.127419133433603,1
635,829,40,0.149011183595898,1
635,830,40,0.18042317440655,1
636,797,40,0.138514579479157,1
636,798,40,0.113938765754151,1
636,801,40,0.165785329094666,1
636,802,40,0.202404049621878,1
636,803,40,0.15381921924457,1
636,829,40,0.121258053492981,1
636,830,40,0.164214589409412,1
637,801,40,0.141994102050607,1
637,802,40,0.188679677027421,1
637,803,40,0.153879799450312,1
638,802,40,0.115624282788777,1
640,795,40,0.11728502129446,1
641,794,40,0.15153754540689,1
641,795,40,0.128786192197722,1
642,794,40,0.136973093532446,1
642,795,40,0.137997033265787,1
643,795,40,0.143518323109756,1
643,804,40,0.119158061388193,1
643,812,40,0.130618401892288,1
643,813,40,0.140904364959278,1
643,814,40,0.121646277925779,1
644,796,40,0.115504252956559,1
644,803,40,0.132243774465264,1
644,804,40,0.144591278165085,1
644,805,40,0.126269652294115,1
644,811,40,0.120443247370367,1
644,812,40,0.170996840219378,1
644,813,40,0.176784251935269,1
644,814,40,0.142692670492296,1
644,815,40,0.118108483414591,1
644,818,40,0.117152943726924,1
644,819,40,0.116196532551073,1
645,801,40,0.131333964353589,1
645,802,40,0.144845387632292,1
645,803,40,0.140937269526706,1
645,804,40,0.130076136034312,1
645,811,40,0.121488291250033,1
645,812,40,0.164381373405082,1
645,813,40,0.156418138335418,1
645,814,40,0.133503169107901,1
645,815,40,0.132464873373238,1
645,816,40,0.129759408963308,1
645,817,40,0.128974339430799,1
645,818,40,0.169222973125754,1
645,819,40,0.187922424455636,1
645,820,40,0.126827946468579,1
646,798,40,0.115140936598245,1
646,799,40,0.121725807111117,1
646,800,40,0.164343546107095,1
646,801,40,0.194165400731937,1
646,802,40,0.178513790900118,1
646,803,40,0.143090869931754,1
646,804,40,0.118550304370782,1
646,812,40,0.130284245057579,1
646,813,40,0.12609183337372,1
646,814,40,0.136356397872702,1
646,815,40,0.195369762073362,1
646,816,40,0.23153342444546,1
646,817,40,0.207835705728306,3
646,818,40,0.246446542255212,3
646,819,40,0.246522126189982,1
646,820,40,0.14807458111096,1
646,824,40,0.117854974567619,1
647,799,40,0.139906510987158,1
647,800,40,0.177435571585076,1
647,801,40,0.192617213747693,1
647,802,40,0.164505807785696,1
647,803,40,0.135752527221522,1
647,804,40,0.139848286154889,1
647,805,40,0.15463395470598,1
647,806,40,0.128365687371467,1
647,812,40,0.118796146477096,1
647,814,40,0.135514469624538,1
647,815,40,0.236526462903622,1
647,816,40,0.326132783896933,3
647,817,40,0.307003100048351,3
647,818,40,0.326982131571539,3
647,819,40,0.275529257130281,3
647,820,40,0.147372291179183,1
648,804,40,0.189040802888404,1
648,805,40,0.219994214260599,1
648,806,40,0.167375594826017,1
648,811,40,0.145245812899683,1
648,812,40,0.168023781829104,1
648,813,40,0.1363944018237,1
648,814,40,0.133314362370252,1
648,815,40,0.192348100551459,1
648,816,40,0.257589931927822,1
648,817,40,0.254820860657236,3
648,818,40,0.247462509049345,3
648,819,40,0.188768427499909,1
649,811,40,0.206716714898434,1
649,812,40,0.242332270086342,1
649,813,40,0.171982976208467,1
649,814,40,0.14114372978854,1
649,815,40,0.153443466514315,1
649,816,40,0.155747198424575,1
649,817,40,0.141402432234021,1
649,818,40,0.121813697872288,1
650,811,40,0.199395224885406,1
650,812,40,0.23317139826652,1
650,813,40,0.165283952520193,1
650,814,40,0.12896574231762,1
650,815,40,0.124294247669217,1
651,812,40,0.152531030161217,1
652,816,40,0.191071382136923,1
653,814,40,0.208633070310348,1
653,815,40,0.242467656953609,1
653,816,40,0.285680940355537,1
653,817,40,0.216506023914766,1
654,815,40,0.227340435695101,1
654,816,40,0.275259802404893,1
654,817,40,0.187333875508902,1
655,816,40,0.162520675468352,1
622,809,41,0.131544275651054,1
622,810,41,0.152750810060045,1
622,811,41,0.151376343646352,1
622,815,41,0.138860807602919,1
623,805,41,0.125981825655632,1
623,806,41,0.114674007360825,1
623,807,41,0.114215545691042,1
623,808,41,0.133232678018185,1
623,809,41,0.145613357153382,1
623,810,41,0.15198120355439,1
624,804,41,0.141642644997733,1
624,805,41,0.173406775919566,1
624,806,41,0.132822442620276,1
624,808,41,0.124924486726434,1
624,809,41,0.120038464662049,1
625,804,41,0.121660739918907,1
625,805,41,0.140792967570841,1
625,808,41,0.12002409688386,1
629,820,41,0.120199760637526,1
629,821,41,0.200513250012154,1
630,799,41,0.134347075869783,1
630,821,41,0.159191131302838,1
631,798,41,0.137758021742547,1
631,799,41,0.122899819465334,1
631,822,41,0.134294174181564,1
632,798,41,0.123007436479346,1
632,824,41,0.125663544038135,1
633,797,41,0.181413126100666,1
633,798,41,0.136295005063111,1
633,825,41,0.131962872624794,1
633,830,41,0.118511640915211,1
634,797,41,0.214675050791274,1
634,798,41,0.162414895645649,1
634,799,41,0.118414752627372,1
634,826,41,0.138116391816566,1
634,829,41,0.117073826731944,1
634,831,41,0.123766820664125,1
635,797,41,0.210628566270976,1
635,798,41,0.167107694647122,1
635,799,41,0.119238732929666,1
635,801,41,0.122826390697292,1
635,802,41,0.123607208780682,1
635,831,41,0.117773737736512,1
636,796,41,0.163690130174897,1
636,797,41,0.147653770086154,1
636,798,41,0.121288473141394,1
636,801,41,0.15078228312569,1
636,802,41,0.17172210681939,1
636,803,41,0.12637295897467,1
637,796,41,0.122033571986055,1
637,801,41,0.132048125367674,1
637,802,41,0.155586173317048,1
637,803,41,0.127566391383177,1
643,795,41,0.119141138029785,1
644,803,41,0.114250888070015,1
644,804,41,0.12920251623606,1
644,805,41,0.114980300127341,1
644,812,41,0.114122367116424,1
644,813,41,0.116296235510213,1
645,801,41,0.122049058566644,1
645,802,41,0.137388840504284,1
645,803,41,0.137117819455536,1
645,804,41,0.130357308742732,1
645,818,41,0.118608434988112,1
645,819,41,0.12018528686753,1
646,797,41,0.1233132463943,1
646,798,41,0.117677862259267,1
646,799,41,0.116552617912823,1
646,800,41,0.141971360919719,1
646,801,41,0.169197959059464,1
646,802,41,0.170539497351995,1
646,803,41,0.147040407279875,1
646,804,41,0.124381997107978,1
646,815,41,0.144081116047555,1
646,816,41,0.17069131294924,1
646,817,41,0.166626444738981,1
646,818,41,0.176838955484195,1
646,819,41,0.164821628037914,1
646,820,41,0.125732156067423,1
646,824,41,0.11634440289775,1
647,798,41,0.150691141949126,1
647,800,41,0.153238030839941,1
647,801,41,0.160226812572946,1
647,802,41,0.144923692023424,1
647,803,41,0.130713476542553,1
647,804,41,0.135007110401442,1
647,805,41,0.14698140517436,1
647,806,41,0.128157531240732,1
647,815,41,0.1657914883963,1
647,816,41,0.227119784308087,1
647,817,41,0.234343973842918,3
647,818,41,0.235976412536315,3
647,819,41,0.194185397852728,1
647,820,41,0.127371484228231,1
647,824,41,0.117781698898853,1
648,802,41,0.118863062637483,1
648,803,41,0.13779242197213,1
648,804,41,0.177405611234491,1
648,805,41,0.201979752644331,1
648,806,41,0.160743722835478,1
648,811,41,0.126635041381085,1
648,812,41,0.137967296675682,1
648,813,41,0.116669008693024,1
648,815,41,0.139954678374694,1
648,816,41,0.190374438902931,1
648,817,41,0.202443761218644,1
648,818,41,0.186793588164644,1
648,819,41,0.142950784094408,1
649,805,41,0.187508785543057,1
649,806,41,0.142230110472669,1
649,811,41,0.167596305097367,1
649,812,41,0.187590175473439,1
649,813,41,0.14774338026996,1
649,814,41,0.11739287384582,1
649,815,41,0.119271884811308,1
649,816,41,0.127029578214793,1
649,817,41,0.121330964078859,1
650,811,41,0.179934976146662,1
650,812,41,0.210683941101342,1
650,813,41,0.170302464342472,1
650,814,41,0.127100533840687,1
650,815,41,0.113959163288433,1
651,811,41,0.142687512224388,1
651,812,41,0.176118140540048,1
651,813,41,0.1634596922111,1
651,814,41,0.128985598116003,1
651,815,41,0.114581217422829,1
651,816,41,0.127268519076829,1
651,817,41,0.140817145479548,1
652,814,41,0.181162337710057,1
652,815,41,0.176510427992087,1
652,816,41,0.188235889334379,1
653,813,41,0.238440580710735,1
653,814,41,0.279145509131877,4
653,815,41,0.308791959094135,4
653,816,41,0.314772063913907,1
653,817,41,0.204648626327347,1
654,814,41,0.228637280775969,1
654,815,41,0.29357942620841,4
654,816,41,0.331817689759251,4
654,817,41,0.212748661488362,1
655,815,41,0.162626737935871,1
655,816,41,0.18938329774521,1
621,810,42,0.123080264627152,1
621,811,42,0.136369411311144,1
621,812,42,0.176209258162877,1
621,813,42,0.1747326863091,1
621,814,42,0.121659821323253,1
622,808,42,0.127282038920568,1
622,809,42,0.128311784649522,1
622,810,42,0.143288968617758,1
622,811,42,0.14553398106732,1
622,812,42,0.163512158155226,1
623,805,42,0.11586400092406,1
623,808,42,0.136356704071254,1
623,809,42,0.149819382895919,1
623,810,42,0.142395033723295,1
623,811,42,0.143022846745835,1
624,804,42,0.134505733826969,1
624,805,42,0.148906004393431,1
624,806,42,0.119941623481679,1
624,808,42,0.125838053658799,1
624,809,42,0.12662678579706,1
624,811,42,0.127150279328451,1
625,804,42,0.118551588049325,1
625,805,42,0.125293985940116,1
625,812,42,0.134937403123489,1
628,821,42,0.119986717106833,1
629,799,42,0.136048362129815,1
629,821,42,0.150038903703665,1
629,822,42,0.18595864359883,1
630,798,42,0.15986234208163,1
630,799,42,0.132866075913875,1
630,821,42,0.123602262496387,1
630,822,42,0.182589128745468,1
631,798,42,0.13374836348651,1
631,799,42,0.120297143553795,1
631,823,42,0.149353619568367,1
631,824,42,0.187869369668141,1
632,797,42,0.150408862215174,1
632,798,42,0.119821935178615,1
632,824,42,0.120352129747538,1
632,825,42,0.16573952885747,1
633,797,42,0.17792696137602,1
633,798,42,0.1321929101751,1
633,825,42,0.116726208937832,1
633,826,42,0.180010901610586,1
633,829,42,0.134290264261598,1
634,797,42,0.219073757860823,1
634,798,42,0.1626031606474,1
634,801,42,0.11791149175412,1
635,797,42,0.201533786230826,1
635,798,42,0.161476020225309,1
635,799,42,0.118571231864095,1
635,801,42,0.119467651677572,1
635,802,42,0.116229507779704,1
636,797,42,0.139079268492602,1
636,798,42,0.114775123544049,1
636,801,42,0.127056052612637,1
636,802,42,0.134766273463759,1
637,801,42,0.11727527004828,1
637,802,42,0.123100332409148,1
645,801,42,0.119681307605369,1
645,802,42,0.133558379062124,1
645,803,42,0.134307364273017,1
645,804,42,0.128827976523145,1
645,827,42,0.125323121909986,1
646,798,42,0.113786903049436,1
646,800,42,0.120132832700272,1
646,801,42,0.147516628465649,1
646,802,42,0.160456755908313,1
646,803,42,0.147071368664187,1
646,804,42,0.133250496418513,1
646,805,42,0.124601635684398,1
646,817,42,0.124012015042734,1
646,818,42,0.120606828058113,1
646,825,42,0.115328400773015,1
646,826,42,0.129365967378266,1
647,801,42,0.131312377355703,1
647,802,42,0.129846204475813,1
647,803,42,0.126644227337633,1
647,804,42,0.134770242268063,1
647,805,42,0.14879493675728,1
647,806,42,0.138919998138313,1
647,816,42,0.139402013542832,1
647,817,42,0.159800230883129,1
647,818,42,0.155063362843965,1
647,819,42,0.127802741334393,1
647,824,42,0.134568669406186,1
647,825,42,0.158963390241669,1
648,803,42,0.129441998833996,1
648,804,42,0.16002541636408,1
648,805,42,0.173664500885055,1
648,806,42,0.153264893874408,1
648,807,42,0.114962846809901,1
648,816,42,0.125709638697015,1
648,817,42,0.140802047535582,1
648,818,42,0.13124933578468,1
648,823,42,0.127474072519877,1
648,824,42,0.1725748815624,1
649,804,42,0.176740018021434,1
649,805,42,0.16325576397575,1
649,806,42,0.131785630770901,1
649,811,42,0.128031860289044,1
649,812,42,0.131847459324584,1
649,813,42,0.115175807902523,1
650,811,42,0.14585667901008,1
650,812,42,0.168137569921617,1
650,813,42,0.157444056582477,1
650,814,42,0.117438485653138,1
651,811,42,0.141095185541248,1
651,812,42,0.179447248961469,1
651,813,42,0.17803951289746,1
651,814,42,0.130177511308619,1
651,816,42,0.119989213802715,1
651,817,42,0.138511069972681,1
651,818,42,0.121335403957857,1
652,811,42,0.139382134190714,1
652,812,42,0.206661881803967,1
652,813,42,0.228088384541665,1
652,814,42,0.190718394091291,4
652,815,42,0.178910153148268,4
652,816,42,0.16788323669393,1
652,817,42,0.148037990384046,1
653,812,42,0.248576153181431,1
653,813,42,0.320003466167604,4
653,814,42,0.327206292465028,4
653,815,42,0.343683943550931,4
653,816,42,0.29910800593328,4
653,817,42,0.18067874420531,1
654,813,42,0.238507049350162,1
654,814,42,0.297085964913603,4
654,815,42,0.364933557740756,4
654,816,42,0.353595496450546,4
654,817,42,0.215069316757031,4
655,814,42,0.159624743782474,1
655,815,42,0.206657524363041,4
655,816,42,0.212693051120649,4
620,810,43,0.146907458224154,1
620,811,43,0.134249975598331,1
620,812,43,0.165376577582045,1
620,813,43,0.184728220049919,1
620,814,43,0.150974469824274,1
620,815,43,0.115676925385914,1
621,808,43,0.16921457621932,1
621,809,43,0.135396335867966,1
621,810,43,0.122813412589452,1
621,811,43,0.1313844871146,1
621,812,43,0.152360371576182,1
621,813,43,0.149711648113233,1
622,806,43,0.120764932502533,1
622,807,43,0.128884917676871,1
622,808,43,0.118458503689645,1
622,809,43,0.113806381988063,1
622,810,43,0.121004262001193,1
622,811,43,0.131990795577325,1
622,812,43,0.146442401508645,1
622,814,43,0.136894612488303,1
623,808,43,0.12061270471493,1
623,809,43,0.130976665974501,1
623,810,43,0.119602320155929,1
623,811,43,0.129349432656481,1
623,815,43,0.119512733525858,1
624,803,43,0.155650804765165,1
624,804,43,0.132398369403209,1
624,805,43,0.121937849608085,1
624,808,43,0.115482300875784,1
624,809,43,0.120446780430577,1
625,803,43,0.126124419965728,1
625,804,43,0.11785828386735,1
628,799,43,0.114846526690904,1
629,798,43,0.158331313993142,1
629,799,43,0.133340577677014,1
629,822,43,0.123593194308513,1
629,823,43,0.136597199479783,1
629,824,43,0.131921488712862,1
630,798,43,0.1489810112617,1
630,799,43,0.130758346407226,1
630,822,43,0.114618031910223,1
630,823,43,0.138015134310933,1
630,824,43,0.148773761949752,1
630,825,43,0.152247914269682,1
631,797,43,0.167483376716172,1
631,798,43,0.13921478490541,1
631,799,43,0.120213716225358,1
631,824,43,0.138314101865946,1
632,797,43,0.154924913991182,1
632,798,43,0.12686320640948,1
632,825,43,0.144365527394501,1
632,829,43,0.125369534544284,1
633,797,43,0.168151254641499,1
633,798,43,0.128808391592711,1
633,826,43,0.155808885655851,1
633,828,43,0.121185825965411,1
634,797,43,0.198161974888327,1
634,798,43,0.150121777519336,1
634,801,43,0.124583628854192,1
634,802,43,0.115991556174527,1
635,797,43,0.17527788460705,1
635,798,43,0.141504231475553,1
635,801,43,0.120595145405684,1
636,796,43,0.175309894132557,1
636,797,43,0.125455258361858,1
643,830,43,0.119841673208324,1
645,801,43,0.123455075208017,1
645,802,43,0.133165950287676,1
645,803,43,0.134321543621328,1
645,804,43,0.129266582394544,1
645,827,43,0.11426111039089,1
645,828,43,0.148940251523738,1
646,801,43,0.131511700835913,1
646,802,43,0.150147745511883,1
646,803,43,0.153255955232076,1
646,804,43,0.156889825427255,1
646,805,43,0.154697844211453,1
646,806,43,0.125358794041244,1
646,825,43,0.123210010374949,1
646,826,43,0.13947291028439,1
646,827,43,0.181933840291358,1
647,802,43,0.121035576691526,1
647,803,43,0.134617307868417,1
647,804,43,0.15522256253705,1
647,805,43,0.177138500105709,1
647,806,43,0.169122575331439,1
647,807,43,0.11865489472988,1
647,824,43,0.147187818328725,1
647,825,43,0.196334464163841,1
647,826,43,0.190107045129333,1
648,803,43,0.126675353598087,1
648,804,43,0.150710738656427,1
648,805,43,0.161546869859397,1
648,806,43,0.161518734923254,1
648,807,43,0.131942227776298,1
648,823,43,0.115038242314793,1
648,824,43,0.185535606746091,1
648,825,43,0.223467495092344,1
649,804,43,0.151745571992084,1
649,805,43,0.137673616934118,1
649,806,43,0.122984966216407,1
649,823,43,0.138345181018931,1
649,824,43,0.190269872097567,1
650,809,43,0.120120973394832,1
650,810,43,0.138110503382882,1
650,811,43,0.136623826976903,1
650,812,43,0.137811677150277,1
650,813,43,0.136373933628214,1
651,810,43,0.13270714708874,1
651,811,43,0.16382199575882,1
651,812,43,0.187329152985087,1
651,813,43,0.180279096211165,1
651,814,43,0.129748020732563,1
651,817,43,0.11715873794567,1
652,811,43,0.17454728308612,1
652,812,43,0.246038897768123,1
652,813,43,0.255692914132128,4
652,814,43,0.19187096077003,4
652,815,43,0.165047437692834,1
652,816,43,0.141448950860126,1
652,817,43,0.125843518125258,1
653,812,43,0.289885046468692,4
653,813,43,0.370529194948421,4
653,814,43,0.32485878593876,4
653,815,43,0.305501525905151,4
653,816,43,0.241435226098895,1
654,812,43,0.206975476228252,1
654,813,43,0.309347662357778,4
654,814,43,0.335088526240933,4
654,815,43,0.370729260371275,4
654,816,43,0.319729960199841,4
654,817,43,0.190374898200758,1
655,813,43,0.153546902740411,1
655,814,43,0.184182868652692,4
655,815,43,0.225009134138331,4
655,816,43,0.210839183766992,1
619,811,44,0.135957173845782,1
619,812,44,0.164972560370106,1
619,813,44,0.18317329669754,1
619,814,44,0.17966629869452,1
620,808,44,0.194390338898673,1
620,809,44,0.165432223280361,1
620,810,44,0.139491081990739,1
620,811,44,0.140976262734562,1
620,812,44,0.160546554521997,1
620,813,44,0.161510137810076,1
620,814,44,0.131882318851995,1
621,807,44,0.163666717762569,1
621,808,44,0.157247583104171,1
621,809,44,0.132465438662871,1
621,810,44,0.122352336455114,1
621,811,44,0.123990027631357,1
621,812,44,0.12606547674455,1
621,813,44,0.117579784507823,1
622,807,44,0.11416941570156,1
622,811,44,0.11434121664273,1
622,812,44,0.124482630439641,1
622,813,44,0.127321444318783,1
623,803,44,0.118742243755151,1
623,812,44,0.145603499915395,1
623,814,44,0.13896878969982,1
624,802,44,0.13235106172699,1
624,803,44,0.166991315643788,1
624,804,44,0.123026479673881,1
624,812,44,0.126570150841886,1
624,814,44,0.128038113805616,1
625,803,44,0.1296440309937,1
629,798,44,0.136000630486371,1
629,799,44,0.130899998567933,1
630,798,44,0.137246882145025,1
630,799,44,0.126859614464933,1
630,825,44,0.119402396055484,1
631,797,44,0.161950745748928,1
631,798,44,0.140126337993455,1
631,799,44,0.116359689271594,1
631,825,44,0.121388258538606,1
631,829,44,0.113870554138354,1
632,797,44,0.153942228624232,1
632,798,44,0.126861852069733,1
632,825,44,0.11462587530389,1
632,826,44,0.155289737788519,1
632,828,44,0.133691104357366,1
633,797,44,0.146623411960097,1
633,798,44,0.117080162686588,1
633,826,44,0.115650662971682,1
634,797,44,0.15714054315666,1
634,798,44,0.125775224071389,1
634,801,44,0.12340364562822,1
634,802,44,0.117299436180119,1
635,797,44,0.140839992602243,1
635,798,44,0.115246834189622,1
635,801,44,0.121974004590906,1
636,835,44,0.143289533907391,1
637,835,44,0.187251390329854,1
638,835,44,0.154916717291494,1
639,801,44,0.115873233988077,1
639,835,44,0.134612279146051,1
643,830,44,0.115268421187508,1
643,831,44,0.137230582960588,1
644,830,44,0.120335053289854,1
645,801,44,0.119309029050988,1
645,802,44,0.125990940950975,1
645,803,44,0.129209181942991,1
645,804,44,0.125720650068004,1
645,828,44,0.138238612146115,1
645,829,44,0.155754770950293,1
646,801,44,0.116102647364412,1
646,802,44,0.136040448074944,1
646,803,44,0.157794854130779,1
646,804,44,0.178406220993576,1
646,805,44,0.170139837580982,1
646,806,44,0.127099144170338,1
646,825,44,0.119066036946577,1
646,826,44,0.139438592492878,1
646,827,44,0.174155337163233,1
646,828,44,0.251595812635881,1
647,802,44,0.114216546724768,1
647,803,44,0.144325957120143,1
647,804,44,0.180231435228925,1
647,805,44,0.201884501341055,1
647,806,44,0.184861451750457,1
647,807,44,0.120950017750094,1
647,824,44,0.140486239060232,1
647,825,44,0.205648694350533,1
647,826,44,0.197051004105133,1
647,827,44,0.195165374540184,1
648,803,44,0.123100026210596,1
648,804,44,0.145020227005243,1
648,805,44,0.157627339969331,1
648,806,44,0.167504763507313,1
648,807,44,0.140346424090835,1
648,824,44,0.185150491406279,1
648,825,44,0.240275369539255,1
648,826,44,0.177099977972547,1
649,804,44,0.124983724369297,1
649,805,44,0.116630792758414,1
649,806,44,0.115449584738235,1
649,807,44,0.114765996471839,1
649,809,44,0.118320455250354,1
649,810,44,0.115644939414141,1
649,824,44,0.180341654930626,1
649,825,44,0.197887126357684,1
650,809,44,0.148835708272109,1
650,810,44,0.176619210915969,1
650,811,44,0.148962651125473,1
650,812,44,0.118686974916592,1
650,824,44,0.149326780087635,1
651,809,44,0.124162994482396,1
651,810,44,0.182428680704441,1
651,811,44,0.209113825590059,1
651,812,44,0.194266634683835,1
651,813,44,0.169752908603595,1
651,814,44,0.126310624015689,1
652,810,44,0.136091324141975,1
652,811,44,0.212384002567169,1
652,812,44,0.265929861877131,1
652,813,44,0.267210337112357,4
652,814,44,0.198614135934068,4
652,815,44,0.151398967008566,1
652,816,44,0.119931942896702,1
653,811,44,0.159465461651317,1
653,812,44,0.283009758406516,4
653,813,44,0.362726502134722,4
653,814,44,0.293497506318996,4
653,815,44,0.24569298761978,4
653,816,44,0.191305412045267,1
654,812,44,0.226286052759612,4
654,813,44,0.339829539737412,4
654,814,44,0.322716291119639,4
654,815,44,0.321283564543074,4
654,816,44,0.268617507886733,1
655,813,44,0.181276161133172,4
655,814,44,0.186623518422978,4
655,815,44,0.212426399289695,1
618,814,45,0.144707680722154,1
619,810,45,0.114157615280457,1
619,811,45,0.153311082748227,1
619,812,45,0.185730608115976,1
619,813,45,0.170197850429639,1
619,814,45,0.143432999705673,1
619,815,45,0.118581948813401,1
620,808,45,0.158891103829762,1
620,809,45,0.136141552481301,1
620,810,45,0.120862185873261,1
620,811,45,0.132544720533995,1
620,812,45,0.140462108258995,1
620,813,45,0.125341646922356,1
620,820,45,0.129301041508464,1
621,807,45,0.132522285601658,1
621,808,45,0.130756626984591,1
621,809,45,0.120138214728659,1
621,810,45,0.114480937397188,1
624,802,45,0.123572914542905,1
624,803,45,0.150979345447365,1
624,824,45,0.142981863247393,1
625,803,45,0.117678910400462,1
625,823,45,0.117231036134444,1
627,824,45,0.115552773650117,1
628,799,45,0.11979926470893,1
629,798,45,0.122958056074471,1
629,799,45,0.128887355488416,1
629,826,45,0.123064895815236,1
630,797,45,0.127586812471194,1
630,798,45,0.126791732601421,1
630,799,45,0.122717384012931,1
631,797,45,0.153984366255676,1
631,798,45,0.138069084140347,1
631,799,45,0.113917508508551,1
631,826,45,0.169181177023464,1
631,828,45,0.174947366824357,1
632,797,45,0.146340048754347,1
632,798,45,0.12353847898272,1
632,826,45,0.114338142880347,1
632,827,45,0.129284553894148,1
633,797,45,0.123176446302949,1
634,797,45,0.117932431024301,1
634,801,45,0.117830302030483,1
635,801,45,0.119078591087191,1
637,835,45,0.126888738657935,1
637,836,45,0.139019394898902,1
638,801,45,0.113922878760071,1
638,835,45,0.124680729125644,1
638,836,45,0.148393875539051,1
639,801,45,0.13146852684014,1
639,802,45,0.129130394700297,1
639,835,45,0.122556488450944,1
639,836,45,0.140953592264878,1
640,801,45,0.125131217856218,1
640,802,45,0.124190210822885,1
640,835,45,0.1388453681298,1
641,800,45,0.116604777658397,1
641,801,45,0.122130295397751,1
641,802,45,0.114188800425249,1
642,801,45,0.113816262779785,1
643,832,45,0.123323774913727,1
644,831,45,0.118117221850178,1
645,802,45,0.117296056219185,1
645,803,45,0.121500656960769,1
645,804,45,0.117528720010914,1
645,828,45,0.125063241777768,1
645,829,45,0.147627119035299,1
645,830,45,0.147120784399664,1
646,802,45,0.122369989979299,1
646,803,45,0.154721786582813,1
646,804,45,0.181403881259782,1
646,805,45,0.164223021646448,1
646,806,45,0.117444480078628,1
646,826,45,0.12991687745689,1
646,827,45,0.157109605326084,1
646,828,45,0.2106255985004,1
646,829,45,0.264410010035775,1
647,803,45,0.148618095316877,1
647,804,45,0.190041601077367,1
647,805,45,0.205628603014803,1
647,806,45,0.180289353862643,1
647,807,45,0.118222542375053,1
647,824,45,0.120706990315081,1
647,825,45,0.183140933866012,1
647,826,45,0.182680293475766,1
647,827,45,0.179091434467669,1
647,828,45,0.214904911688569,1
648,803,45,0.120069402492626,1
648,804,45,0.139212052672181,1
648,805,45,0.155941646281694,1
648,806,45,0.166006110027221,1
648,807,45,0.141234482328481,1
648,824,45,0.16622601947159,1
648,825,45,0.224532736299546,1
648,826,45,0.166675978243133,1
648,827,45,0.129213504053315,1
649,806,45,0.115255231096055,1
649,807,45,0.117616657879553,1
649,808,45,0.115796755011387,1
649,809,45,0.120852446403948,1
649,824,45,0.163629726622165,1
649,825,45,0.186121764988749,1
649,826,45,0.122173704930871,1
650,808,45,0.11381472001016,1
650,809,45,0.161512163431263,1
650,810,45,0.196209558708532,1
650,811,45,0.154656118770367,1
650,824,45,0.125876422692686,1
651,809,45,0.138083875885762,1
651,810,45,0.216313260149681,1
651,811,45,0.234106599304242,1
651,812,45,0.190182581956633,1
651,813,45,0.163253337941072,1
651,814,45,0.130534903902647,1
652,810,45,0.149437506194632,1
652,811,45,0.220643873372107,1
652,812,45,0.255509689629611,1
652,813,45,0.270932204060513,1
652,814,45,0.222705366897468,1
652,815,45,0.162373075989624,1
652,816,45,0.12032491340705,1
653,811,45,0.147361856874694,1
653,812,45,0.236570131527823,1
653,813,45,0.311334255006676,4
653,814,45,0.264993789351225,4
653,815,45,0.216092067026769,1
653,816,45,0.178210089044423,1
653,817,45,0.135140860284145,1
654,812,45,0.212336329808062,1
654,813,45,0.307192189430817,4
654,814,45,0.270257271791633,4
654,815,45,0.248929506309951,1
654,816,45,0.221351945745762,1
655,813,45,0.185836305500607,1
618,811,46,0.138175158384734,1
618,812,46,0.148856706426627,1
618,813,46,0.124852424075007,1
619,811,46,0.15560231940221,1
619,812,46,0.17970809479681,1
619,813,46,0.143319058513884,1
619,820,46,0.172173949889712,1
620,808,46,0.128704637391196,1
620,811,46,0.11803496043161,1
620,812,46,0.118907484981197,1
620,820,46,0.123678611927536,1
621,825,46,0.115040880333084,1
622,824,46,0.125882240465166,1
624,803,46,0.114521520482139,1
624,824,46,0.131501655168047,1
626,824,46,0.193585178030433,1
626,827,46,0.11872152824545,1
627,799,46,0.133194921381402,1
627,825,46,0.117924010564133,1
628,798,46,0.135232602080944,1
628,799,46,0.136294392666008,1
629,798,46,0.117521630336758,1
629,799,46,0.124716142165821,1
629,827,46,0.115422945464248,1
630,797,46,0.117644380625338,1
630,798,46,0.114425268145138,1
630,799,46,0.115478402732685,1
630,826,46,0.136890938105684,1
630,828,46,0.13166936953624,1
631,796,46,0.134424332119719,1
631,797,46,0.141423501049743,1
631,798,46,0.126877633072006,1
631,826,46,0.124197324050775,1
631,827,46,0.155440670120712,1
631,828,46,0.114920414756773,1
632,796,46,0.129336077688885,1
632,797,46,0.131532239692603,1
632,798,46,0.11540776508221,1
638,801,46,0.116381087839602,1
638,802,46,0.116914155964164,1
638,836,46,0.119673122682548,1
638,837,46,0.114871717410205,1
639,800,46,0.123281837489029,1
639,801,46,0.153787186165328,1
639,802,46,0.154637687972935,1
639,836,46,0.117345142202376,1
640,800,46,0.125029277292278,1
640,801,46,0.147720014965101,1
640,802,46,0.1430396052281,1
640,836,46,0.122164342321313,1
641,800,46,0.123198527929265,1
641,801,46,0.133632420227269,1
641,802,46,0.124965847084632,1
642,801,46,0.115028067101387,1
642,834,46,0.152101845783712,1
645,829,46,0.128718557648425,1
645,830,46,0.147786836910549,1
645,831,46,0.140599473639979,1
646,803,46,0.138322840301533,1
646,804,46,0.164670931243068,1
646,805,46,0.145579451552229,1
646,827,46,0.129978658903104,1
646,828,46,0.160124836678403,1
646,829,46,0.207268343365968,1
646,830,46,0.239770024160479,1
647,803,46,0.138890190887003,1
647,804,46,0.179240812253369,1
647,805,46,0.187749775580015,1
647,806,46,0.160483300967361,1
647,825,46,0.140421266082961,1
647,826,46,0.150732490530456,1
647,827,46,0.149398571871112,1
647,828,46,0.165240472325869,1
647,829,46,0.208302470089583,1
648,804,46,0.133021495232536,1
648,805,46,0.152561426255895,1
648,806,46,0.15513937074596,1
648,807,46,0.132621234841287,1
648,824,46,0.130229741715398,1
648,825,46,0.180062849372547,1
648,826,46,0.148816912391789,1
648,827,46,0.119855993879044,1
648,828,46,0.120794315786617,1
649,806,46,0.121454044119725,1
649,807,46,0.120655808049498,1
649,808,46,0.116607133031871,1
649,809,46,0.116088173594417,1
649,824,46,0.133195663324046,1
649,825,46,0.156382018683199,1
649,826,46,0.115623281755051,1
650,808,46,0.117523031783975,1
650,809,46,0.157583506468986,1
650,810,46,0.18825101083208,1
650,811,46,0.14501553981203,1
651,809,46,0.146839964997266,1
651,810,46,0.221814399773583,1
651,811,46,0.223890614383154,1
651,812,46,0.17434124679151,1
651,813,46,0.158084400191897,1
651,814,46,0.13554453596693,1
652,810,46,0.159462187682188,1
652,811,46,0.203162574095339,1
652,812,46,0.22405782234605,1
652,813,46,0.257769906014945,1
652,814,46,0.240510953994092,1
652,815,46,0.182091214570001,1
652,816,46,0.126114586281476,1
653,811,46,0.132906117262928,1
653,812,46,0.186696923637285,1
653,813,46,0.245675180996319,1
653,814,46,0.237922681191344,1
653,815,46,0.207354314497757,1
653,816,46,0.175698695631856,1
653,817,46,0.146959135118166,1
654,813,46,0.230951623643729,1
654,814,46,0.202898701605083,1
654,815,46,0.182237624585125,1
654,816,46,0.176462861224787,1
618,811,47,0.137782199651254,1
618,812,47,0.137550136479761,1
618,819,47,0.123028693724946,1
619,811,47,0.143948638066529,1
619,812,47,0.149520368233436,1
620,807,47,0.14545526448583,1
620,820,47,0.113790565655188,1
620,825,47,0.132570806295216,1
621,821,47,0.126453654069878,1
621,825,47,0.127786595249231,1
622,822,47,0.124986338833853,1
622,824,47,0.131980537925847,1
623,831,47,0.139143876386985,1
623,832,47,0.130709166209096,1
624,824,47,0.114130010303346,1
624,825,47,0.151627862202738,1
624,826,47,0.116108783112311,1
625,824,47,0.179307304446531,1
625,826,47,0.16852196687252,1
626,824,47,0.14218687759256,1
626,825,47,0.18773977701962,1
626,826,47,0.13808871617825,1
627,798,47,0.152121630920891,1
627,799,47,0.155190364581665,1
628,798,47,0.157160940690942,1
628,799,47,0.151383527535446,1
629,798,47,0.119635742905521,1
629,799,47,0.119816470712156,1
631,797,47,0.124172945935323,1
638,802,47,0.117510819172514,1
639,800,47,0.119683462772097,1
639,801,47,0.149960752411808,1
639,802,47,0.155442707518767,1
640,800,47,0.125301252267283,1
640,801,47,0.144445080133574,1
640,802,47,0.141260002800068,1
641,800,47,0.121625915722099,1
641,801,47,0.131653423657823,1
641,802,47,0.127743268154182,1
642,801,47,0.115101436985092,1
642,802,47,0.119685311740274,1
642,834,47,0.122751525151432,1
642,835,47,0.144996637939904,1
643,834,47,0.144880941994877,1
645,830,47,0.13829873305403,1
645,831,47,0.157972543505632,1
645,832,47,0.15079879429374,1
646,803,47,0.117117624901687,1
646,804,47,0.136010263963879,1
646,805,47,0.124768973192835,1
646,828,47,0.115662439839051,1
646,829,47,0.148040498856796,1
646,830,47,0.195950361634622,1
646,831,47,0.203288468807506,1
647,803,47,0.124743240737635,1
647,804,47,0.157882073610509,1
647,805,47,0.16267650697737,1
647,806,47,0.136758566116464,1
647,828,47,0.121186379478177,1
647,829,47,0.148684457964498,1
647,830,47,0.183115425171292,1
648,804,47,0.136002373462742,1
648,805,47,0.155970311176869,1
648,806,47,0.145000901165891,1
648,807,47,0.124893478234653,1
648,825,47,0.127908120743605,1
648,826,47,0.12149720633863,1
649,805,47,0.129055729361181,1
649,806,47,0.1350466806758,1
649,807,47,0.130973380228505,1
649,808,47,0.125361514497606,1
649,809,47,0.117571022518501,1
649,825,47,0.126442148070459,1
650,807,47,0.121524092926832,1
650,808,47,0.128376875395467,1
650,809,47,0.151229191688584,1
650,810,47,0.160902133478449,1
650,811,47,0.124091450013134,1
651,809,47,0.155878852024886,1
651,810,47,0.19932866203104,1
651,811,47,0.184266095774385,1
651,812,47,0.150683121902448,1
651,813,47,0.153496062003982,1
651,814,47,0.141608044561405,1
652,810,47,0.166413530753829,1
652,811,47,0.172669650014113,1
652,812,47,0.182114674089799,1
652,813,47,0.226235577106071,1
652,814,47,0.23915397622844,1
652,815,47,0.192350408817463,1
652,816,47,0.124884374716177,1
653,812,47,0.14240731699596,1
653,813,47,0.182239155577882,1
653,814,47,0.207602123340922,1
653,815,47,0.200252863474639,1
653,816,47,0.166976900758129,1
653,817,47,0.154529187693871,1
653,818,47,0.138448805674905,1
653,819,47,0.114041354045797,1
654,814,47,0.148460721038234,1
654,815,47,0.140137172711434,1
654,816,47,0.142598066916726,1
618,811,48,0.119732819623238,1
619,808,48,0.129596699763747,1
619,811,48,0.118534405599834,1
619,824,48,0.123942413756587,1
620,807,48,0.142984477711949,1
620,824,48,0.204752474743801,1
620,825,48,0.13001170479294,1
621,822,48,0.167703003515725,1
621,824,48,0.204206004544175,1
621,825,48,0.124634175168937,1
622,823,48,0.127231445498354,1
622,824,48,0.118857821931504,1
622,831,48,0.152010845929557,1
622,832,48,0.16665204764864,1
622,833,48,0.136592300302958,1
623,831,48,0.135785502450154,1
623,832,48,0.133214435650631,1
625,825,48,0.147329081852808,1
625,826,48,0.123793283285102,1
627,798,48,0.154901819554273,1
627,799,48,0.156507100791519,1
628,798,48,0.163920391485683,1
628,799,48,0.152847651240415,1
629,798,48,0.118150715260973,1
629,841,48,0.114141280765417,1
630,841,48,0.122282311201742,1
639,800,48,0.12220037953546,1
639,801,48,0.142542538987084,1
639,802,48,0.141223624056767,1
639,839,48,0.117060259780735,1
640,800,48,0.130111572628224,1
640,801,48,0.141618196221076,1
640,802,48,0.132335798906881,1
640,838,48,0.119603132759778,1
641,800,48,0.119216062459982,1
641,801,48,0.130007488674422,1
641,802,48,0.128630502011112,1
642,801,48,0.115693236347219,1
642,802,48,0.12854387137475,1
642,836,48,0.118036503201235,1
643,834,48,0.129355014891613,1
643,835,48,0.156182754087327,1
644,833,48,0.135362359605609,1
644,834,48,0.172306180556524,1
645,830,48,0.119677998305639,1
645,831,48,0.160318495485409,1
645,832,48,0.166138505570176,1
646,830,48,0.147470345376892,1
646,831,48,0.188240423428316,1
647,804,48,0.130539744195135,1
647,805,48,0.135552073162046,1
647,806,48,0.114551869469348,1
647,830,48,0.129631264869473,1
648,805,48,0.160932647341801,1
648,806,48,0.1411508901239,1
648,807,48,0.124520893481721,1
649,806,48,0.153223085995251,1
649,807,48,0.150120305410915,1
649,808,48,0.141617536716504,1
649,809,48,0.120745889307999,1
650,807,48,0.139241153311448,1
650,808,48,0.145571054645795,1
650,809,48,0.14961911726632,1
650,810,48,0.130451735665291,1
651,808,48,0.136608293288844,1
651,809,48,0.17767676182878,1
651,810,48,0.175820597985986,1
651,811,48,0.138763707331467,1
651,812,48,0.121155206110253,1
651,813,48,0.141325423298299,1
651,814,48,0.14141635249125,1
652,810,48,0.169216236757619,1
652,811,48,0.140542968230346,1
652,812,48,0.13942788732044,1
652,813,48,0.186301421100453,1
652,814,48,0.21865942411307,1
652,815,48,0.183099031771915,1
652,816,48,0.113762148074228,1
653,813,48,0.13768886797736,1
653,814,48,0.175902906512024,1
653,815,48,0.179637221608988,1
653,816,48,0.145021816882337,1
653,817,48,0.144547256234862,1
653,818,48,0.146954648131699,1
653,819,48,0.131159054319435,1
654,814,48,0.11564955594615,1
654,815,48,0.116406678972394,1
654,817,48,0.16103244451588,1
654,818,48,0.195492771453024,1
617,819,49,0.119004208392893,1
619,808,49,0.125298237389236,1
619,824,49,0.117501644992834,1
620,806,49,0.125572426415306,1
620,807,49,0.128746068410598,1
620,823,49,0.18499622622062,1
620,824,49,0.166538506870342,1
620,825,49,0.114005104848037,1
621,822,49,0.13463358349912,1
621,823,49,0.156489989003232,1
621,824,49,0.150195700915807,1
621,831,49,0.126067561250074,1
621,832,49,0.153527447355519,1
621,833,49,0.130982071556623,1
622,831,49,0.145730207231411,1
622,832,49,0.169725645155637,1
622,833,49,0.132524782297541,1
623,831,49,0.114364146203496,1
623,832,49,0.1174076420375,1
627,799,49,0.131453216912561,1
628,799,49,0.134170199098778,1
630,842,49,0.11920976183594,1
632,842,49,0.128590095579171,1
633,842,49,0.124833251334931,1
635,802,49,0.114429896454013,1
635,803,49,0.127628973656372,1
636,803,49,0.129528535255419,1
637,841,49,0.138067694469998,1
639,800,49,0.121867847908447,1
639,801,49,0.127977875129027,1
639,802,49,0.121469460039111,1
639,839,49,0.11454810087179,1
639,840,49,0.13403848661413,1
640,799,49,0.11419519526423,1
640,800,49,0.127400325776416,1
640,801,49,0.131895391174774,1
640,802,49,0.122746166676779,1
640,838,49,0.117011421111759,1
640,839,49,0.152740340424955,1
641,800,49,0.115939031346064,1
641,801,49,0.125938545668054,1
641,802,49,0.131662998250994,1
641,838,49,0.144547479995342,1
642,801,49,0.116227293728639,1
642,802,49,0.136792259734005,1
642,803,49,0.118298102756088,1
642,836,49,0.121748253820322,1
642,837,49,0.144648549071097,1
643,802,49,0.116541783194844,1
643,834,49,0.124052056391786,1
643,835,49,0.16080967329274,1
643,836,49,0.191038136040342,1
644,832,49,0.12745387519234,1
644,833,49,0.143352881676966,1
644,834,49,0.168118126313592,1
644,835,49,0.219636385922479,1
645,831,49,0.154989133248942,1
645,832,49,0.177535792726381,1
646,830,49,0.1237126941817,1
646,831,49,0.171086638833061,1
647,805,49,0.117857400602297,1
648,805,49,0.158174764095214,1
648,806,49,0.143542724778943,1
648,807,49,0.132002925750714,1
648,808,49,0.118095646629159,1
649,807,49,0.169753367901423,1
649,808,49,0.160381442841492,1
649,809,49,0.129390133510106,1
650,808,49,0.169404878619126,1
650,809,49,0.16139967079416,1
650,810,49,0.117256792143379,1
651,809,49,0.201580705270421,1
651,810,49,0.16178059356919,1
651,813,49,0.126595977512025,1
651,814,49,0.131178874787216,1
652,813,49,0.149680792720728,1
652,814,49,0.183601008966624,1
652,815,49,0.152420139178076,1
653,814,49,0.143262093806423,1
653,815,49,0.143031691173228,1
653,816,49,0.116403546325674,1
653,817,49,0.122335860617666,1
653,818,49,0.13701965926602,1
653,819,49,0.132664243960917,1
654,817,49,0.138597900815788,1
654,818,49,0.184926094975442,1
654,819,49,0.19176114148182,1
655,818,49,0.120526969120488,1
618,819,50,0.116599289638203,1
618,823,50,0.127128551008156,1
620,820,50,0.116195578624816,1
620,823,50,0.142743640774266,1
620,824,50,0.11777884889695,1
620,832,50,0.115975716287916,1
621,831,50,0.121856294801559,1
621,832,50,0.1459319920769,1
621,833,50,0.123081830950512,1
622,831,50,0.118622826320036,1
622,832,50,0.139945044897187,1
628,842,50,0.116438582506095,1
629,842,50,0.123263924873761,1
632,842,50,0.124104581220249,1
632,843,50,0.173116052171711,1
633,842,50,0.132074835302865,1
633,843,50,0.202372393402392,1
635,802,50,0.132831675684293,1
635,803,50,0.157026154443911,1
636,802,50,0.113972471148559,1
636,803,50,0.136242492011515,1
637,841,50,0.119437785541926,1
637,842,50,0.161808775612802,1
638,841,50,0.174774906378615,1
639,840,50,0.120272930314486,1
640,839,50,0.142162287493494,1
640,840,50,0.143707188731743,1
641,802,50,0.120065410134588,1
641,838,50,0.12481772942374,1
641,839,50,0.177032790944211,1
642,802,50,0.128602649719786,1
642,836,50,0.144492105164976,1
642,837,50,0.156943610380527,1
643,834,50,0.11969110595902,1
643,835,50,0.166628234822821,1
643,836,50,0.230756033430475,1
644,832,50,0.133287228467835,1
644,833,50,0.145475862226857,1
644,834,50,0.156395609188142,1
644,835,50,0.19292609742503,1
645,831,50,0.138166702593963,1
645,832,50,0.177324657048201,1
645,833,50,0.18630635560788,1
646,831,50,0.143486949535087,1
646,832,50,0.181032250433106,1
648,806,50,0.137345949153328,1
648,807,50,0.128755572342564,1
648,808,50,0.116264661728799,1
649,807,50,0.172889229706196,1
649,808,50,0.166182244855582,1
649,809,50,0.130409550926378,1
650,808,50,0.192921056925797,1
650,809,50,0.171084566104404,1
651,809,50,0.202191335843471,1
652,813,50,0.116573274538187,1
652,814,50,0.138206484851934,1
652,815,50,0.114123709679304,1
653,818,50,0.115721536159505,1
653,819,50,0.117702334589658,1
654,818,50,0.149009028429169,1
654,819,50,0.163031673743465,1
617,820,51,0.141739015103408,1
617,822,51,0.142799121596438,1
618,819,51,0.137646565469773,1
618,820,51,0.180899525137865,1
618,822,51,0.185894777647091,1
618,823,51,0.116891685701225,1
619,819,51,0.140037552190365,1
619,820,51,0.203190697254614,1
619,823,51,0.133072194646556,1
620,820,51,0.120702515105481,1
620,821,51,0.146347962809218,1
620,822,51,0.141457877725591,1
620,823,51,0.114844300862971,1
621,832,51,0.121147515815862,1
629,842,51,0.120206261468313,1
630,843,51,0.184117495261931,1
631,843,51,0.135488972706686,1
632,842,51,0.11909390101477,1
632,843,51,0.160400521366629,1
633,842,51,0.153636300940604,1
633,843,51,0.209848372361558,1
634,802,51,0.116503814574448,1
634,803,51,0.134214762764899,1
634,842,51,0.144373924300935,1
634,843,51,0.195322701711358,1
635,802,51,0.140584552349023,1
635,803,51,0.175726371270172,1
635,804,51,0.123576718471065,1
635,843,51,0.135906804184048,1
636,803,51,0.129866613786962,1
637,842,51,0.147000884112987,1
637,843,51,0.183000153193491,1
638,841,51,0.143461405509765,1
638,842,51,0.238734554873984,1
639,841,51,0.144738783428874,1
640,839,51,0.128057898942795,1
640,840,51,0.142209171202488,1
641,802,51,0.115374189233343,1
641,839,51,0.154834161451242,1
642,802,51,0.120427537029297,1
642,836,51,0.155479109815802,1
642,837,51,0.15939876925141,1
642,838,51,0.173242841925799,1
643,834,51,0.116170741211536,1
643,835,51,0.164893172507176,1
643,836,51,0.239711681559536,1
643,837,51,0.26084776674793,1
643,838,51,0.278884274659912,1
644,832,51,0.133631277871134,1
644,833,51,0.147171307160675,1
644,834,51,0.146917103478529,1
644,835,51,0.157923598844849,1
644,836,51,0.197880413543284,1
644,838,51,0.252612509595792,1
645,831,51,0.123768822731577,1
645,832,51,0.173161051581925,1
645,833,51,0.192420339855896,1
645,834,51,0.18475721469738,1
646,831,51,0.117727172002938,1
646,832,51,0.163272204482596,1
648,807,51,0.11879688841974,1
649,808,51,0.16041770381612,1
649,809,51,0.126925352938583,1
650,809,51,0.177735233975264,1
617,816,52,0.124359950812265,1
617,817,52,0.129183732132608,1
617,818,52,0.116530265418557,1
617,819,52,0.114882622789388,1
617,820,52,0.123455605167049,1
617,822,52,0.11718710841916,1
618,816,52,0.133008387579155,1
618,817,52,0.130029181664115,1
618,818,52,0.128546980467736,1
618,819,52,0.154596386499075,1
618,820,52,0.16560832277812,1
618,821,52,0.157351572843034,1
618,822,52,0.142524956124103,1
619,819,52,0.157224571105333,1
619,820,52,0.193634299344226,1
619,821,52,0.187904335187358,1
619,822,52,0.161078857150179,1
620,821,52,0.115855780670637,1
628,843,52,0.151994311207771,1
629,843,52,0.197435283287363,1
630,843,52,0.182014182080545,1
630,844,52,0.212815436326341,1
631,843,52,0.134845343351271,1
631,844,52,0.157113091278825,1
632,843,52,0.132076766709114,1
632,844,52,0.131224227503451,1
633,842,52,0.150132753559723,1
633,843,52,0.176491278805746,1
633,844,52,0.141549419315645,1
634,803,52,0.142307755359228,1
634,842,52,0.153057279479572,1
634,843,52,0.181015020876146,1
634,844,52,0.138334428739023,1
635,802,52,0.127853746946965,1
635,803,52,0.165106463352085,1
635,804,52,0.114473199995327,1
635,843,52,0.117058163498344,1
637,842,52,0.123307334406881,1
637,843,52,0.145513583533038,1
638,842,52,0.178972994512545,1
638,843,52,0.219820057945956,1
639,799,52,0.115565881303498,1
639,841,52,0.12902857190503,1
639,842,52,0.170701735476861,1
640,840,52,0.130952334966518,1
640,841,52,0.137180095530179,1
641,839,52,0.125530547874944,1
641,840,52,0.162776598573134,1
642,836,52,0.145856043059242,1
642,837,52,0.146938278286057,1
642,838,52,0.163663502677777,1
642,839,52,0.179826958719159,1
643,835,52,0.150337494398922,1
643,836,52,0.21662374548098,1
643,837,52,0.247868410560063,1
643,838,52,0.297707807064387,1
643,839,52,0.263821708403257,1
644,832,52,0.117164755924895,1
644,833,52,0.132018200347691,1
644,834,52,0.129809378211552,1
644,835,52,0.130595790306941,1
644,836,52,0.166619731924581,1
644,837,52,0.219843988540449,1
644,838,52,0.289103180244107,1
644,839,52,0.246570199362579,1
645,832,52,0.152904133096314,1
645,833,52,0.175173306024819,1
645,834,52,0.166434293370999,1
645,838,52,0.184823023832234,1
646,832,52,0.135749229698659,1
646,833,52,0.175169207674975,1
615,820,53,0.166161246701064,1
615,822,53,0.129182483784667,1
615,823,53,0.11568821940172,1
615,824,53,0.124035910306624,1
616,816,53,0.121292889466657,1
616,817,53,0.121313039686724,1
616,819,53,0.120388532044573,1
616,820,53,0.150166612053407,1
616,822,53,0.124964104108261,1
617,815,53,0.134576359700577,1
617,816,53,0.173154350544393,1
617,817,53,0.15906053762059,1
617,818,53,0.133003076211972,1
617,819,53,0.130644852736398,1
617,820,53,0.127666883392431,1
617,821,53,0.120927135296798,1
618,815,53,0.141321089411108,1
618,816,53,0.163873743314037,1
618,817,53,0.147312617792227,1
618,818,53,0.142066023379626,1
618,819,53,0.163444099638705,1
618,820,53,0.154177683533528,1
618,821,53,0.127901195945592,1
619,819,53,0.155270694593984,1
619,820,53,0.162552178588562,1
619,821,53,0.136649606539572,1
619,822,53,0.114461022714468,1
619,835,53,0.130959542409347,1
620,834,53,0.121438510431666,1
620,835,53,0.125406572792158,1
628,843,53,0.123852791795914,1
628,844,53,0.148014248219432,1
629,843,53,0.155445251322118,1
629,844,53,0.17177608020254,1
630,803,53,0.129726963693708,1
630,804,53,0.119370245207569,1
630,843,53,0.159195488743764,1
630,844,53,0.175532948000514,1
631,803,53,0.124119314081327,1
631,804,53,0.114757682003477,1
631,843,53,0.130974063286813,1
631,844,53,0.150272062123823,1
632,843,53,0.115832191605298,1
632,844,53,0.127111651203483,1
633,842,53,0.140359343314338,1
633,843,53,0.144211450638721,1
633,844,53,0.122839474796939,1
634,803,53,0.132430932441482,1
634,842,53,0.144905520317075,1
634,843,53,0.150786428583004,1
634,844,53,0.116764848839668,1
635,803,53,0.136148065088956,1
637,843,53,0.115908199507294,1
638,842,53,0.13097094241696,1
638,843,53,0.154861342461128,1
639,841,53,0.117191512967556,1
639,842,53,0.142032129555339,1
640,840,53,0.118718136507648,1
640,841,53,0.136022500129074,1
641,840,53,0.137577812118076,1
642,836,53,0.119308805290508,1
642,837,53,0.128565529033841,1
642,838,53,0.148060495977587,1
642,839,53,0.158386582831702,1
643,835,53,0.128355794802878,1
643,836,53,0.172403445704119,1
643,837,53,0.212647639520077,1
643,838,53,0.273067020362109,1
643,839,53,0.244410910730592,1
644,833,53,0.116719849429453,1
644,834,53,0.117941840741328,1
644,835,53,0.118967240806224,1
644,836,53,0.146728909137982,1
644,837,53,0.218566693059412,1
644,838,53,0.320637838905268,1
644,839,53,0.274070103263342,1
644,840,53,0.173975645720927,1
645,832,53,0.134036614092218,1
645,833,53,0.155132775700234,1
645,834,53,0.146777288509131,1
645,835,53,0.121550143357451,1
645,838,53,0.257727556399889,1
645,839,53,0.223543220349522,1
646,832,53,0.121914390088287,1
646,833,53,0.1534958029129,1
646,834,53,0.159233033396935,1
647,833,53,0.134474207153024,1
651,815,53,0.116387918422676,1
654,823,53,0.113943841583987,1
614,822,54,0.114363251161576,1
615,820,54,0.128903949094538,1
615,821,54,0.131031451961499,1
615,822,54,0.120832802589177,1
616,815,54,0.132291494331841,1
616,816,54,0.171647806563163,1
616,817,54,0.145057536121065,1
616,818,54,0.126315546746249,1
616,819,54,0.130125740199668,1
616,820,54,0.138653358084226,1
616,821,54,0.138638601669413,1
616,822,54,0.120328740888944,1
617,815,54,0.162520074848116,1
617,816,54,0.214287638962324,1
617,817,54,0.180696621489975,1
617,818,54,0.153614737496453,1
617,819,54,0.151304104341914,1
617,820,54,0.143376706279652,1
617,821,54,0.129045636585847,1
618,815,54,0.154050940886909,1
618,816,54,0.171462886191745,1
618,817,54,0.150139454597256,1
618,818,54,0.149980561102722,1
618,819,54,0.162514315959973,1
618,820,54,0.142583781576608,1
619,819,54,0.13640827497346,1
619,820,54,0.122856186171734,1
619,834,54,0.116391251276141,1
619,835,54,0.148526636164894,1
619,836,54,0.123839990341084,1
620,834,54,0.121688780640111,1
620,835,54,0.129481298240404,1
621,834,54,0.115141937631972,1
623,805,54,0.126720612099384,1
623,806,54,0.129398919053162,1
624,805,54,0.140541460791323,1
624,806,54,0.128007988578888,1
625,843,54,0.115701480154377,1
626,844,54,0.120486939548303,1
627,844,54,0.115914829883622,1
628,845,54,0.130087241620241,1
629,844,54,0.121415686862707,1
629,845,54,0.139469377224179,1
630,802,54,0.119329120386718,1
630,803,54,0.154092277691372,1
630,804,54,0.134073687670694,1
630,843,54,0.115322229694514,1
630,844,54,0.127416083224955,1
630,845,54,0.120412921936893,1
631,803,54,0.137181791399081,1
631,804,54,0.122654813516603,1
631,844,54,0.125783161679996,1
632,844,54,0.11712333668236,1
640,841,54,0.123304319528835,1
640,842,54,0.123367761513348,1
641,840,54,0.114948926552672,1
641,841,54,0.133119914513133,1
642,838,54,0.119470890316099,1
642,839,54,0.131935738722378,1
642,840,54,0.141231231913087,1
643,836,54,0.119460550226549,1
643,837,54,0.15711391565954,1
643,838,54,0.209078165235667,1
644,836,54,0.120182036452137,1
644,837,54,0.187502920663107,1
644,838,54,0.28928718201987,1
644,839,54,0.264361018267523,1
645,833,54,0.122071929243073,1
645,834,54,0.115347655951162,1
645,837,54,0.180993115902841,1
645,838,54,0.284695569862827,1
645,839,54,0.248343300959824,1
646,833,54,0.124760741162545,1
646,834,54,0.124199196572687,1
646,835,54,0.114597599045339,1
646,838,54,0.19173876543382,1
647,833,54,0.119008824924901,1
647,834,54,0.131981656728247,1
648,833,54,0.123112804111691,1
650,813,54,0.115623022663969,1
650,814,54,0.132832017213446,1
650,815,54,0.131801423550042,1
651,814,54,0.138398459566905,1
651,815,54,0.151644703123074,1
651,816,54,0.114746588194416,1
652,815,54,0.114870009764436,1
614,822,55,0.119206393651873,1
615,816,55,0.119906599078126,1
616,815,55,0.157183787813637,1
616,816,55,0.208137052210527,1
616,817,55,0.166732518983368,1
616,818,55,0.142845133817246,1
616,819,55,0.129310745647176,1
616,820,55,0.120661272515957,1
616,821,55,0.119166788046913,1
617,815,55,0.168237367095696,1
617,816,55,0.220742375090776,1
617,817,55,0.189428780006987,1
617,818,55,0.174517181413126,1
617,819,55,0.16672203757141,1
617,820,55,0.150143411624691,1
617,821,55,0.128987871051405,1
618,815,55,0.145002538150455,1
618,816,55,0.157561224635925,1
618,817,55,0.148557833086553,1
618,818,55,0.160011755197932,1
618,819,55,0.165635197589454,1
618,820,55,0.139787941486493,1
618,835,55,0.114162773548364,1
618,836,55,0.115049135917109,1
619,819,55,0.121228352233478,1
619,834,55,0.121470366857898,1
619,835,55,0.154501135195799,1
619,836,55,0.130466056336011,1
620,834,55,0.121237326206413,1
620,835,55,0.128926066051456,1
622,806,55,0.114745010094189,1
622,807,55,0.116644665908174,1
622,840,55,0.118199188847062,1
622,841,55,0.133452528578217,1
623,805,55,0.137619796650244,1
623,806,55,0.131838650227793,1
623,841,55,0.121663083515514,1
623,842,55,0.114658249912286,1
624,805,55,0.151949959525262,1
624,806,55,0.133207428414547,1
624,843,55,0.138443246993507,1
625,843,55,0.118707301789669,1
625,844,55,0.134543867323508,1
628,845,55,0.116293715260597,1
629,845,55,0.130487019159927,1
630,802,55,0.144429204916362,1
630,803,55,0.174135669794728,1
630,804,55,0.137585961710295,1
631,802,55,0.125132183559342,1
631,803,55,0.149950753851412,1
631,804,55,0.123002466641317,1
640,842,55,0.121677474847438,1
640,843,55,0.120363141118527,1
641,841,55,0.134907160128087,1
641,842,55,0.14764649198212,1
642,839,55,0.114085870604449,1
642,840,55,0.132924194754338,1
642,841,55,0.152405971606632,1
643,838,55,0.146888721228171,1
643,839,55,0.169637083113027,1
644,837,55,0.147257796474628,1
644,838,55,0.226522932669859,1
645,837,55,0.166161034717451,1
645,838,55,0.261177825232796,1
648,833,55,0.122794993568888,1
648,834,55,0.135606070098929,1
649,814,55,0.119726730982809,1
649,833,55,0.141455074831157,1
650,813,55,0.123602191835183,1
650,814,55,0.154082055370496,1
650,815,55,0.158451284941023,1
650,816,55,0.124794752755504,1
650,832,55,0.120251413977804,1
651,814,55,0.153769414872469,1
651,815,55,0.173010319456478,1
651,816,55,0.134717976530682,1
652,815,55,0.127507106632845,1
614,822,56,0.11495846581524,1
615,816,56,0.128272120160226,1
615,817,56,0.125157892460808,1
615,818,56,0.116690548583441,1
616,815,56,0.155697759135363,1
616,816,56,0.211169666219083,1
616,817,56,0.181170369533602,1
616,818,56,0.151495902403875,1
616,819,56,0.11941087539999,1
617,815,56,0.149961623899993,1
617,816,56,0.191930174859158,1
617,817,56,0.179996074534569,1
617,818,56,0.176822173448195,1
617,819,56,0.161643911246513,1
617,820,56,0.136285795552829,1
618,815,56,0.121560648323144,1
618,816,56,0.131497415495795,1
618,817,56,0.139054336864384,1
618,818,56,0.159445605852933,1
618,819,56,0.15839764131016,1
618,820,56,0.125655523991457,1
618,837,56,0.126592621104825,1
618,838,56,0.153701215033539,1
619,834,56,0.117901787615409,1
619,835,56,0.140346906942397,1
619,836,56,0.130059189122169,1
620,834,56,0.115094394418406,1
620,835,56,0.122715005085722,1
621,841,56,0.128592050539154,1
622,840,56,0.126134807162747,1
622,841,56,0.147244052870409,1
622,842,56,0.130788271427209,1
623,805,56,0.129056577295632,1
623,806,56,0.12568840500515,1
623,841,56,0.129648400211494,1
623,842,56,0.122693877385664,1
623,843,56,0.142437595321964,1
624,805,56,0.139016073822304,1
624,806,56,0.123081489421358,1
624,843,56,0.136847563903167,1
625,844,56,0.126803803890474,1
625,845,56,0.122927035805822,1
628,846,56,0.131649443076653,1
629,803,56,0.120898364409817,1
629,846,56,0.157177416528391,1
630,802,56,0.158806675467598,1
630,803,56,0.180934113797326,1
630,804,56,0.129896821451762,1
630,846,56,0.120956671680158,1
631,802,56,0.131930109379776,1
631,803,56,0.153557996549472,1
631,804,56,0.115671284266444,1
640,842,56,0.116255593540925,1
640,843,56,0.125438594094532,1
641,841,56,0.129331096073988,1
641,842,56,0.158617574308265,1
642,840,56,0.118634344096322,1
642,841,56,0.142961077076488,1
643,839,56,0.144890210389496,1
643,840,56,0.161446825371103,1
644,838,56,0.167260110864603,1
644,839,56,0.207258285921236,1
645,837,56,0.134314253740427,1
645,838,56,0.199744597432756,1
646,837,56,0.130141898061697,1
647,836,56,0.118833031625694,1
648,833,56,0.11970801754056,1
648,834,56,0.132878700715694,1
648,835,56,0.129373504573382,1
649,813,56,0.116435308536966,1
649,814,56,0.138918561360494,1
649,815,56,0.121765813129568,1
649,833,56,0.156543090898196,1
649,834,56,0.158968642724515,1
650,813,56,0.125741271362766,1
650,814,56,0.164663782684576,1
650,815,56,0.171875017665301,1
650,816,56,0.142669752708397,1
650,817,56,0.115334395198505,1
650,832,56,0.131994999918975,1
650,833,56,0.15410924815725,1
651,814,56,0.150128937854696,1
651,815,56,0.173483843739625,1
651,816,56,0.153321858581869,1
651,817,56,0.136517540748903,1
651,831,56,0.127012537087711,1
651,832,56,0.136815530823925,1
652,816,56,0.12227506842831,1
652,817,56,0.125245842106314,1
652,830,56,0.115943094365306,1
652,831,56,0.127353783596576,1
653,828,56,0.120720333505809,1
615,816,57,0.123280424264944,1
615,817,57,0.135251492176203,1
615,818,57,0.119823901915465,1
616,815,57,0.130356578576955,1
616,816,57,0.182982028594611,1
616,817,57,0.183989834019658,1
616,818,57,0.15202577899738,1
616,819,57,0.116733192620182,1
617,815,57,0.1201327502622,1
617,816,57,0.151398213289055,1
617,817,57,0.162656274319231,1
617,818,57,0.163452955842966,1
617,819,57,0.14862452548646,1
617,820,57,0.122257155813043,1
617,837,57,0.141551562705506,1
617,838,57,0.225860860740145,1
618,817,57,0.120326797705829,1
618,818,57,0.141823961647736,1
618,819,57,0.138851550985168,1
618,837,57,0.120973689253505,1
618,838,57,0.160512719582047,1
618,839,57,0.164159885860486,1
619,836,57,0.118860130197508,1
621,840,57,0.116247891469666,1
621,841,57,0.136753431402291,1
622,840,57,0.1351748012159,1
623,840,57,0.11384806032168,1
623,841,57,0.137394458070018,1
623,842,57,0.138652203951224,1
629,802,57,0.118144815050422,1
629,803,57,0.123740982217119,1
630,802,57,0.153596471575164,1
630,803,57,0.168400300055738,1
630,804,57,0.116144478797305,1
630,846,57,0.114268553371067,1
631,802,57,0.121592669625518,1
631,803,57,0.140886888088104,1
640,842,57,0.114236590953029,1
640,843,57,0.131707503032779,1
640,844,57,0.125610548134978,1
641,841,57,0.126037600899489,1
641,842,57,0.170161801438624,1
641,843,57,0.166052310677907,1
642,841,57,0.138556834879275,1
642,842,57,0.161817761362604,1
643,839,57,0.127865300053853,1
643,840,57,0.158091018791358,1
643,841,57,0.163050328301376,1
644,838,57,0.126141225555463,1
644,839,57,0.187059969127649,1
644,840,57,0.225627631658782,1
645,838,57,0.148326064336744,1
645,839,57,0.197551944935514,1
646,838,57,0.141123426469197,1
647,836,57,0.117730575517607,1
647,837,57,0.139728067892792,1
648,814,57,0.1170048378429,1
648,834,57,0.129518831116707,1
648,835,57,0.129095723602764,1
648,836,57,0.153581844705893,1
649,813,57,0.129028089053468,1
649,814,57,0.152018135810458,1
649,815,57,0.136523452736322,1
649,832,57,0.114410558837795,1
649,833,57,0.167723412826874,1
649,834,57,0.175972708004916,1
649,835,57,0.147805891881951,1
650,814,57,0.177268128084833,1
650,815,57,0.174749845204855,1
650,816,57,0.15007356302433,1
650,817,57,0.137042412173776,1
650,832,57,0.147688170315737,1
650,833,57,0.175646618324353,1
650,834,57,0.159229888973347,1
651,815,57,0.160046956254496,1
651,816,57,0.163478452760818,1
651,817,57,0.176683206413249,1
651,818,57,0.134735382740652,1
651,831,57,0.143612620486775,1
651,832,57,0.149026458192875,1
652,817,57,0.163840485440589,1
652,818,57,0.130509501199733,1
652,830,57,0.128469818432738,1
652,831,57,0.142658234932111,1
653,828,57,0.114263866177854,1
615,817,58,0.127917012278468,1
616,816,58,0.145966934042382,1
616,817,58,0.1725172455735,1
616,818,58,0.147568069822314,1
616,819,58,0.116578326814288,1
616,838,58,0.151471854040709,1
617,816,58,0.120783127762618,1
617,817,58,0.146996620887,1
617,818,58,0.150189482729836,1
617,819,58,0.136772839679714,1
617,837,58,0.118815401655243,1
617,838,58,0.201998030342486,1
617,839,58,0.238602041562355,1
618,818,58,0.117978561013783,1
618,838,58,0.153779896284427,1
618,839,58,0.172468936863555,1
618,840,58,0.128946475362605,1
621,840,58,0.116356144434516,1
627,846,58,0.119936630089915,1
629,802,58,0.114410064209365,1
629,846,58,0.119239215781228,1
630,802,58,0.126737382358516,1
630,803,58,0.131493258261614,1
630,847,58,0.153058233405829,1
640,843,58,0.125974547551599,1
640,844,58,0.120392265311529,1
641,842,58,0.162206280217086,1
641,843,58,0.161122867303535,1
642,841,58,0.125780570769175,1
642,842,58,0.159362626045456,1
643,840,58,0.139336534160264,1
643,841,58,0.152609782073309,1
644,839,58,0.157256144886748,1
644,840,58,0.224885524138433,1
644,841,58,0.216626595482884,1
645,839,58,0.181488933795916,1
645,840,58,0.247317300274693,1
646,838,58,0.117716584599174,1
646,839,58,0.149551211849074,1
647,836,58,0.114348424085559,1
647,837,58,0.13969899080726,1
648,815,58,0.11482117109546,1
648,834,58,0.117429758994418,1
648,835,58,0.128493996341445,1
648,836,58,0.159762332923938,1
649,814,58,0.145118434302227,1
649,815,58,0.13644581962663,1
649,816,58,0.119988577851877,1
649,832,58,0.11408890903623,1
649,833,58,0.164061407695552,1
649,834,58,0.180256213757868,1
649,835,58,0.161015073636512,1
650,815,58,0.155180307136932,1
650,816,58,0.140432077247205,1
650,817,58,0.143511704510295,1
650,818,58,0.116005900398981,1
650,831,58,0.117481930516859,1
650,832,58,0.159235070794989,1
650,833,58,0.18470507850554,1
650,834,58,0.168597880559576,1
651,817,58,0.19089337478665,1
651,818,58,0.156905547545192,1
651,831,58,0.153019511065921,1
651,832,58,0.151480722021838,1
651,833,58,0.130562555987227,1
652,818,58,0.148953924466753,1
652,830,58,0.141810795110019,1
652,831,58,0.15074406719108,1
616,817,59,0.140439637996056,1
616,818,59,0.137093712208033,1
616,819,59,0.117625572968151,1
616,838,59,0.132182228556397,1
617,817,59,0.126434622652211,1
617,818,59,0.1388352989082,1
617,819,59,0.128563102999163,1
617,838,59,0.162424941313515,1
617,839,59,0.209068343328282,1
618,838,59,0.135515918179225,1
618,839,59,0.15635802920437,1
618,840,59,0.129218944966039,1
628,846,59,0.12118994786899,1
630,847,59,0.139397067258537,1
641,842,59,0.136704062774283,1
641,843,59,0.144235946522847,1
641,844,59,0.124476129608853,1
642,841,59,0.114999908611509,1
642,842,59,0.15728924966092,1
642,843,59,0.171346330535401,1
643,840,59,0.121139707752797,1
643,841,59,0.144177651029374,1
643,842,59,0.177035358301297,1
644,839,59,0.132183630003614,1
644,840,59,0.203074436019954,1
644,841,59,0.203946253957499,1
645,839,59,0.16837612214703,1
645,840,59,0.247117988571351,1
646,838,59,0.11620531809413,1
646,839,59,0.148489433040878,1
647,837,59,0.138424592435596,1
647,838,59,0.12916367612748,1
648,815,59,0.121259337171524,1
648,816,59,0.120686298359115,1
648,835,59,0.130722650722233,1
648,836,59,0.160630735569946,1
649,815,59,0.126003601083396,1
649,816,59,0.125084027948673,1
649,817,59,0.117742882344007,1
649,833,59,0.147785706331282,1
649,834,59,0.170720543134049,1
649,835,59,0.172285241286343,1
650,816,59,0.122291167406003,1
650,817,59,0.133222255490564,1
650,818,59,0.11606372481776,1
650,831,59,0.12687215682868,1
650,832,59,0.160513390863487,1
650,833,59,0.176665423343522,1
650,834,59,0.165961993882059,1
651,818,59,0.160135612512045,1
651,819,59,0.115699725401139,1
651,830,59,0.118018025296334,1
651,831,59,0.155025170463089,1
651,832,59,0.147127862296953,1
651,833,59,0.127300104635111,1
652,819,59,0.127678801582208,1
652,830,59,0.145553577774621,1
652,831,59,0.151907539249001,1
616,818,60,0.116904534263524,1
616,839,60,0.156727858170338,1
617,818,60,0.12069773369733,1
617,819,60,0.118224532665638,1
617,838,60,0.123886732727669,1
617,839,60,0.159720171738759,1
617,840,60,0.143997629834781,1
618,839,60,0.126092398663354,1
618,840,60,0.119249803184993,1
618,841,60,0.127303013521351,1
619,841,60,0.116196037922644,1
628,846,60,0.114222305612912,1
629,847,60,0.138871618767164,1
630,847,60,0.128410215706987,1
630,848,60,0.154893198887359,1
631,847,60,0.122032040993297,1
641,843,60,0.116779145956653,1
641,844,60,0.117060012466521,1
642,842,60,0.144355717263983,1
642,843,60,0.170560601498319,1
643,841,60,0.13008505112291,1
643,842,60,0.178684696799368,1
644,840,60,0.16274318760041,1
644,841,60,0.180711566334666,1
645,839,60,0.140158948139198,1
645,840,60,0.211065747141425,1
646,839,60,0.14022213103263,1
647,837,60,0.129017548757173,1
648,815,60,0.115259223454093,1
648,816,60,0.129662473567999,1
648,817,60,0.115238555051862,1
648,835,60,0.133128912039802,1
648,836,60,0.155319309502481,1
649,816,60,0.1171709976646,1
649,817,60,0.117317348795387,1
649,833,60,0.129936438833589,1
649,834,60,0.15712045182093,1
649,835,60,0.179378318956762,1
650,831,60,0.128421427284722,1
650,832,60,0.150139383936051,1
650,833,60,0.157493990500119,1
650,834,60,0.156627154177472,1
651,818,60,0.143542147712442,1
651,819,60,0.122900408308702,1
651,830,60,0.121559223322192,1
651,831,60,0.153356294142054,1
651,832,60,0.142439043876651,1
651,833,60,0.123942225326709,1
652,830,60,0.144865208100073,1
652,831,60,0.15209505053124,1
616,839,61,0.129672790103814,1
617,839,61,0.119358397678996,1
617,840,61,0.126352255241837,1
618,841,61,0.117371628377087,1
619,842,61,0.117215737983732,1
629,847,61,0.115330932799499,1
629,848,61,0.133634222087976,1
629,849,61,0.137325115874953,1
630,847,61,0.125815159428635,1
630,848,61,0.142450149462579,1
630,849,61,0.140308219933092,1
631,847,61,0.144590653991114,1
631,848,61,0.147188642709441,1
632,847,61,0.123117397089964,1
632,848,61,0.118567687027017,1
642,842,61,0.126760877208916,1
642,843,61,0.159310195431932,1
643,841,61,0.118697503436019,1
643,842,61,0.170144253906246,1
644,840,61,0.12594755497159,1
644,841,61,0.160660613482459,1
645,839,61,0.113982881899313,1
645,840,61,0.163240418717569,1
646,839,61,0.130230201013225,1
648,816,61,0.120217708583395,1
648,817,61,0.11392274921453,1
648,835,61,0.124318142933107,1
648,836,61,0.140542744469866,1
649,834,61,0.134419350504822,1
649,835,61,0.169863634710592,1
650,831,61,0.120118865335573,1
650,832,61,0.130615045485088,1
650,833,61,0.133032435942321,1
651,830,61,0.11844335863821,1
651,831,61,0.143639931042202,1
651,832,61,0.135038495752979,1
652,830,61,0.131194420252142,1
617,840,62,0.115180718856216,1
623,809,62,0.12216999521765,1
623,810,62,0.131904871553005,1
624,809,62,0.113905036806008,1
627,846,62,0.13447015591065,1
628,847,62,0.123412796254165,1
628,848,62,0.125109042014964,1
630,847,62,0.119598210029218,1
630,848,62,0.133231570992652,1
630,849,62,0.121294714881099,1
631,847,62,0.154376983460002,1
631,848,62,0.172027127684231,1
631,849,62,0.142826019961508,1
632,847,62,0.140085389825616,1
632,848,62,0.15756147195014,1
632,849,62,0.134977279596398,1
617,840,63,0.114982973476234,1
621,845,63,0.132032874324432,1
622,810,63,0.133446392830319,1
622,811,63,0.131626654838295,1
622,845,63,0.124070286982473,1
623,809,63,0.140871766590403,1
623,810,63,0.173346113275752,1
623,811,63,0.139129155302775,1
623,845,63,0.114182876660962,1
624,809,63,0.132066332404625,1
624,810,63,0.133338681601368,1
626,845,63,0.114446548944472,1
627,846,63,0.121051275255728,1
627,848,63,0.143057965364327,1
630,848,63,0.125843788993208,1
631,847,63,0.151772293704143,1
631,848,63,0.185037245049664,1
631,849,63,0.15066798862788,1
632,847,63,0.154382000405501,1
632,848,63,0.192120689242576,1
632,849,63,0.155455720957209,1
633,847,63,0.113871378519069,1
633,848,63,0.128809816593663,1
642,843,63,0.12072767049418,1
617,840,64,0.119761154766126,1
621,844,64,0.127416153886159,1
621,845,64,0.115856275299066,1
622,810,64,0.143752694547254,1
622,811,64,0.171525280035063,1
622,812,64,0.156349420314324,1
622,813,64,0.118888901084489,1
622,844,64,0.118016812278995,1
623,809,64,0.144503516949456,1
623,810,64,0.196891733750844,1
623,811,64,0.184038778680441,1
623,812,64,0.144294925074628,1
623,846,64,0.124951385091503,1
624,809,64,0.136803318212464,1
624,810,64,0.153793121706481,1
624,811,64,0.121901223550569,1
626,810,64,0.124036145843972,1
626,848,64,0.139597733301627,1
627,809,64,0.12124946815667,1
627,810,64,0.139108392685604,1
627,847,64,0.119764793818143,1
627,848,64,0.114329404444759,1
630,807,64,0.128145295075536,1
630,808,64,0.137781893452702,1
631,807,64,0.142150663725402,1
631,808,64,0.140939919321863,1
631,847,64,0.134104978807292,1
631,848,64,0.175012033603077,1
631,849,64,0.143127825741556,1
632,847,64,0.151318236582756,1
632,848,64,0.201524082092114,1
632,849,64,0.157997522241321,1
633,848,64,0.140515469245041,1
643,842,64,0.118767964433484,1
646,815,64,0.117281087820759,1
646,816,64,0.115833286853963,1
646,817,64,0.131027471380328,1
617,840,65,0.128290150544167,1
620,817,65,0.114035171190428,1
621,816,65,0.119439775832511,1
622,810,65,0.13404117173989,1
622,811,65,0.185746012258494,1
622,812,65,0.195862871286942,1
622,813,65,0.174328021369456,1
622,814,65,0.140000996794054,1
623,809,65,0.125863809667734,1
623,810,65,0.180695820662994,1
623,811,65,0.207064697775435,1
623,812,65,0.193919959039113,1
623,813,65,0.163649358660068,1
623,814,65,0.123951670374339,1
623,846,65,0.11468942328021,1
623,847,65,0.118993597435394,1
624,809,65,0.122804839030008,1
624,810,65,0.155320451858616,1
624,811,65,0.151601411358628,1
624,812,65,0.127426611744382,1
624,846,65,0.148976347622222,1
625,810,65,0.123311939162022,1
625,845,65,0.116030443390577,1
625,848,65,0.137281093944731,1
626,809,65,0.137598409859103,1
626,810,65,0.164387732913461,1
626,846,65,0.162583705262507,1
626,847,65,0.163606125779958,1
626,848,65,0.135514128095385,1
627,809,65,0.16267959251662,1
627,810,65,0.186282425013388,1
628,808,65,0.114318593280515,1
628,809,65,0.119347492299813,1
629,808,65,0.12184210367638,1
630,807,65,0.138533928872243,1
630,808,65,0.148208908060163,1
631,807,65,0.169825713197666,1
631,808,65,0.151376320092617,1
631,848,65,0.148500267758856,1
631,849,65,0.12573467631704,1
632,807,65,0.144475523335721,1
632,847,65,0.133080768206001,1
632,848,65,0.181265338192061,1
641,844,65,0.113912256025705,1
646,816,65,0.114268553371067,1
646,817,65,0.132571041832563,1
646,818,65,0.120691550841961,1
617,840,66,0.131461331174178,1
620,816,66,0.119731182638674,1
620,817,66,0.122049129227848,1
620,818,66,0.115610550961426,1
620,819,66,0.132453155390206,1
620,820,66,0.117211415873408,1
621,814,66,0.117878116111998,1
621,815,66,0.125021975634509,1
621,816,66,0.134421305464806,1
621,817,66,0.122290366579022,1
622,810,66,0.114315495964397,1
622,811,66,0.165903957479667,1
622,812,66,0.199780563985699,1
622,813,66,0.207798726364769,1
622,814,66,0.185242551178497,1
622,815,66,0.139135985885848,1
623,810,66,0.142357123987237,1
623,811,66,0.196022494947253,1
623,812,66,0.218669293127925,1
623,813,66,0.206319292732222,1
623,814,66,0.167804602550511,1
623,815,66,0.114041177392786,1
624,810,66,0.136575541820692,1
624,811,66,0.164681024018403,1
624,812,66,0.156045636020557,1
624,813,66,0.121795738149551,1
624,846,66,0.119556567026203,1
624,847,66,0.120972664666044,1
625,810,66,0.129949475825766,1
625,811,66,0.122799657208366,1
625,846,66,0.1537889644723,1
625,847,66,0.151381089723901,1
626,809,66,0.147102259387294,1
626,810,66,0.172962163845809,1
626,811,66,0.11413227146188,1
626,846,66,0.140318454030835,1
626,847,66,0.140348320166482,1
626,848,66,0.124803773835908,1
627,808,66,0.116060556840438,1
627,809,66,0.178677713117018,1
627,810,66,0.187550240116193,1
628,808,66,0.117091786454681,1
628,809,66,0.140487675838051,1
628,810,66,0.1177992582081,1
629,808,66,0.113953204193545,1
630,808,66,0.12429217494056,1
631,808,66,0.133440728157114,1
632,808,66,0.117102892040609,1
641,818,66,0.127105079711491,1
646,817,66,0.114333502794604,1
617,839,67,0.113964121349595,1
620,816,67,0.114179355377619,1
620,817,67,0.115822369697913,1
620,818,67,0.117576769629777,1
620,819,67,0.145959903252563,1
620,820,67,0.126446882371141,1
621,814,67,0.123942719955139,1
621,815,67,0.134801674727069,1
621,816,67,0.138518124316235,1
621,817,67,0.121314134935389,1
622,811,67,0.132999566705496,1
622,812,67,0.175635571622762,1
622,813,67,0.20881761382201,1
622,814,67,0.214747078112098,1
622,815,67,0.174840809728408,1
622,816,67,0.124870430905213,1
623,811,67,0.165765567511222,1
623,812,67,0.211004201232558,1
623,813,67,0.216217608432915,1
623,814,67,0.19416355176376,1
623,815,67,0.14246929864892,1
624,810,67,0.115330791477091,1
624,811,67,0.162572964759467,1
624,812,67,0.167740701268171,1
624,813,67,0.132863755871004,1
625,810,67,0.12951407326229,1
625,811,67,0.140186411793901,1
625,812,67,0.11471466110698,1
625,846,67,0.114879878779291,1
626,809,67,0.143703926539482,1
626,810,67,0.159626451428242,1
626,811,67,0.124529372826226,1
626,847,67,0.117839923731123,1
627,808,67,0.115741003321265,1
627,809,67,0.171155745490779,1
627,810,67,0.161424720191053,1
628,809,67,0.152923400051328,1
628,810,67,0.124305647676829,1
640,817,67,0.128239710221228,1
640,818,67,0.141528739136546,1
641,817,67,0.143334992615433,1
641,818,67,0.17910561381598,1
641,819,67,0.120244901370149,1
620,819,68,0.129507984621861,1
620,820,68,0.113777587547348,1
621,814,68,0.124077953723129,1
621,815,68,0.134516168131458,1
621,816,68,0.126599204373684,1
622,812,68,0.144342185643377,1
622,813,68,0.185047490924275,1
622,814,68,0.20947692996476,1
622,815,68,0.186804034246,1
622,816,68,0.132054214008103,1
623,811,68,0.137622316899861,1
623,812,68,0.181174303007303,1
623,813,68,0.195782235076071,1
623,814,68,0.188894145559066,1
623,815,68,0.151915217766526,1
623,818,68,0.114944368905,1
624,811,68,0.151194673690328,1
624,812,68,0.160065445936265,1
624,813,68,0.133380548364862,1
625,810,68,0.122590688473782,1
625,811,68,0.145276833168332,1
625,812,68,0.122408064591501,1
626,809,68,0.123185785358772,1
626,810,68,0.134377153989042,1
626,811,68,0.125058743014433,1
627,809,68,0.139424895996129,1
627,810,68,0.128080498751275,1
628,809,68,0.136865170319882,1
628,810,68,0.115945779491066,1
640,817,68,0.138175099500397,1
640,818,68,0.164403301932122,1
641,817,68,0.148398974922621,1
641,818,68,0.196600774465641,1
641,819,68,0.146005915473372,1
641,820,68,0.122166179512622,1
621,814,69,0.115548899060752,1
621,815,69,0.122718443930994,1
621,825,69,0.116693257262935,1
622,812,69,0.115330673708417,1
622,813,69,0.147686992629,1
622,814,69,0.173937123587765,1
622,815,69,0.169402464361315,1
622,816,69,0.130137729050649,1
623,811,69,0.116914309063439,1
623,812,69,0.140845987027733,1
623,813,69,0.155382421734708,1
623,814,69,0.160044483112349,1
623,815,69,0.142683637635024,1
623,818,69,0.122406863351029,1
624,811,69,0.13383742015755,1
624,812,69,0.136753454956026,1
624,813,69,0.12200450667739,1
624,818,69,0.119838658330278,1
625,810,69,0.116306281178079,1
625,811,69,0.135381803213634,1
625,812,69,0.117275694015505,1
626,810,69,0.116961192772433,1
626,811,69,0.117881354750524,1
640,817,69,0.127655259624339,1
640,818,69,0.164948029155378,1
640,819,69,0.14314673939055,1
640,820,69,0.114227134128533,1
641,817,69,0.132309300955302,1
641,818,69,0.180593409024359,1
641,819,69,0.16330091648524,1
641,820,69,0.138509609641128,1
619,829,70,0.116709462232434,1
619,840,70,0.129897516286936,1
620,825,70,0.128948818959211,1
620,829,70,0.118203157651365,1
620,830,70,0.114482833472834,1
620,833,70,0.117152625751505,1
621,824,70,0.116828997436223,1
621,825,70,0.145092124780526,1
622,814,70,0.129550840642214,1
622,815,70,0.134488127410254,1
622,816,70,0.120522788332573,1
622,825,70,0.125002225827933,1
623,813,70,0.115511589944929,1
623,814,70,0.125115213093465,1
623,815,70,0.123016210245535,1
623,816,70,0.114393517710713,1
623,817,70,0.117512338388404,1
623,818,70,0.125426487474878,1
624,818,70,0.123729134688546,1
624,819,70,0.114784886567098,1
625,811,70,0.116134692220522,1
640,818,70,0.143775329686336,1
640,819,70,0.148968869311443,1
640,820,70,0.126876314062861,1
641,818,70,0.146487177158379,1
641,819,70,0.153404967934888,1
641,820,70,0.13467649840381,1
