x,y,z,signal,mito.p
75,1019,1,0.116381205608276,1
76,1018,1,0.141262169743664,1
86,1008,1,0.127809713239875,1
87,1008,1,0.144240987022081,1
87,1009,1,0.128501427544755,1
88,1008,1,0.141130963664313,1
88,1009,1,0.126357778592632,1
89,1008,1,0.123793577706786,1
90,1008,1,0.118941849880177,1
91,1007,1,0.163064401657881,1
91,1008,1,0.130253142350859,1
92,1007,1,0.181489828837836,1
92,1008,1,0.155396000462784,1
92,1009,1,0.121756132544591,1
93,1008,1,0.180630152850548,1
93,1009,1,0.136572232520962,1
94,1009,1,0.142931081395301,1
95,1008,1,0.182452964604955,1
95,1009,1,0.150947912988358,1
95,1010,1,0.122133369160134,1
96,1008,1,0.189580642711702,1
96,1010,1,0.159176657532842,1
96,1011,1,0.121334991767499,1
97,1011,1,0.166667981750189,1
98,1012,1,0.132701706176015,1
99,1012,1,0.151706449238687,1
100,1011,1,0.192910304645889,1
100,1012,1,0.156747725745589,1
101,1011,1,0.148600865759917,1
101,1012,1,0.133653606811665,1
75,1017,2,0.156203163398476,1
75,1018,2,0.229587320666574,1
75,1019,2,0.167450625248021,1
76,1017,2,0.133486104427085,1
76,1018,2,0.177556119599458,1
76,1019,2,0.12157122395004,1
86,1008,2,0.120663792765574,1
87,1008,2,0.132353652637811,1
87,1009,2,0.116673872539247,1
88,1008,2,0.12499557189787,1
91,1008,2,0.116694576272081,1
92,1008,2,0.140386960068317,1
93,1009,2,0.120182048229004,1
95,1009,2,0.134230661535847,1
96,1010,2,0.133445274027919,1
97,1011,2,0.134717175703701,1
100,1012,2,0.143559283054463,1
101,1011,2,0.144281793867512,1
101,1012,2,0.124620207804238,1
74,1018,3,0.152281925862641,1
74,1019,3,0.126847637390819,1
75,1017,3,0.175396842744338,1
75,1018,3,0.263040595898183,1
75,1019,3,0.18265893023836,1
76,1017,3,0.135066230275631,1
76,1018,3,0.173168553446439,1
86,1008,3,0.119350024326297,1
87,1008,3,0.124135919464316,1
92,1008,3,0.125754284801208,1
95,1009,3,0.117324956651707,1
96,1009,3,0.141266845160009,1
96,1010,3,0.114226992806124,1
99,1012,3,0.119736859088746,1
100,1012,3,0.126065217653468,1
101,1011,3,0.136155084101907,1
101,1012,3,0.113760251998582,1
74,1018,4,0.14457402505439,1
74,1019,4,0.11930038483034,1
75,1017,4,0.171686093158978,1
75,1018,4,0.243423491062959,1
75,1019,4,0.162226030023663,1
76,1017,4,0.128699738214371,1
76,1018,4,0.152146951185733,1
86,1008,4,0.119590036883264,1
87,1008,4,0.118086849309235,1
91,1007,4,0.131854395899464,1
92,1008,4,0.115237919101024,1
96,1008,4,0.164484150126606,1
96,1009,4,0.126759617084108,1
97,1007,4,0.177939880599524,1
97,1010,4,0.130180961930758,1
98,1011,4,0.142209312524896,1
100,1012,4,0.115446298992239,1
101,1011,4,0.133147260399162,1
75,1017,5,0.134195401594946,1
75,1018,5,0.174202197318492,1
75,1019,5,0.120528205691562,1
76,1018,5,0.118058867472368,1
86,1008,5,0.115060382825446,1
91,1007,5,0.121047483104435,1
96,1008,5,0.14766108352079,1
96,1009,5,0.11688656276392,1
97,1007,5,0.168016291741458,1
97,1008,5,0.180955017736904,1
97,1009,5,0.142159060631836,1
97,1010,5,0.122758815032333,1
98,1011,5,0.14054281513107,1
101,1011,5,0.133824112297424,1
83,1008,6,0.116521197230684,1
83,1009,6,0.122976769516719,1
84,1008,6,0.124809144087428,1
84,1009,6,0.119406824157615,1
85,1008,6,0.124426089699405,1
86,1008,6,0.116388895902668,1
92,1007,6,0.117903295054432,1
93,1006,6,0.143235560524242,1
94,1005,6,0.132626063356908,1
94,1008,6,0.131183785740908,1
95,1006,6,0.150692484512006,1
95,1008,6,0.12549803194414,1
96,1006,6,0.130999289336716,1
96,1007,6,0.142611021470831,1
96,1008,6,0.127203440107752,1
97,1007,6,0.146711455820542,1
97,1008,6,0.149366079494043,1
97,1009,6,0.123929812508503,1
98,1007,6,0.139683610218477,1
98,1008,6,0.152471627642211,1
98,1009,6,0.142905537369979,1
98,1010,6,0.156815065873201,1
98,1011,6,0.128143787636513,1
99,1008,6,0.123879819706524,1
99,1009,6,0.15877471304956,1
99,1011,6,0.161836557242924,1
101,1011,6,0.133475729006933,1
83,1008,7,0.129686404162491,1
83,1009,7,0.127419027441797,1
84,1008,7,0.165063183364506,1
84,1009,7,0.130702547609635,1
85,1008,7,0.163101216145275,1
86,1008,7,0.125447426745059,1
87,1007,7,0.120154561020566,1
93,1006,7,0.128262898873076,1
94,1005,7,0.121472651570167,1
94,1006,7,0.121782500950629,1
94,1007,7,0.125403640352183,1
95,1006,7,0.123876922597152,1
95,1007,7,0.129735855228571,1
96,1006,7,0.122323765774878,1
96,1007,7,0.127213803751036,1
96,1008,7,0.117331952110923,1
97,1006,7,0.114445771671226,1
97,1007,7,0.125799272434555,1
97,1008,7,0.122538505174473,1
98,1007,7,0.123678576596934,1
98,1008,7,0.125733887266926,1
98,1009,7,0.122997178827868,1
98,1010,7,0.136455382442933,1
99,1008,7,0.114511345268733,1
99,1009,7,0.142578375994486,1
99,1010,7,0.179482049604542,1
99,1011,7,0.145387135308104,1
100,1009,7,0.172230914597173,1
100,1011,7,0.165539074797994,1
101,1009,7,0.152092259413674,1
101,1010,7,0.192216022983923,1
101,1011,7,0.151189621414227,1
102,1010,7,0.128237401955224,1
102,1011,7,0.118968182955613,1
81,1009,8,0.113840593787768,1
82,1009,8,0.114241878766478,1
83,1009,8,0.11884795291665,1
84,1009,8,0.123875332720057,1
86,1008,8,0.124165714938758,1
93,1006,8,0.118972540396539,1
94,1005,8,0.115861292244565,1
96,1007,8,0.115955354084236,1
99,1009,8,0.125793760860627,1
99,1010,8,0.151242028474016,1
99,1011,8,0.120426430003765,1
100,1009,8,0.15740443920065,1
100,1010,8,0.196368876170291,1
100,1011,8,0.148308057506538,1
101,1009,8,0.146685040307035,1
101,1010,8,0.185793873447479,1
101,1011,8,0.148283243646992,1
102,1010,8,0.129667773158315,1
102,1011,8,0.120359148760489,1
81,1009,9,0.149568665166514,1
82,1009,9,0.128803233324804,1
83,1008,9,0.1257988955748,1
86,1008,9,0.122332056689506,1
93,1006,9,0.114176976450411,1
96,1007,9,0.115326351598093,1
99,1010,9,0.122925599028003,1
100,1009,9,0.139534997929156,1
100,1010,9,0.165866707248181,1
100,1011,9,0.127036868095694,1
101,1009,9,0.138465634818374,1
101,1010,9,0.172725095505684,1
101,1011,9,0.14493928459582,1
102,1010,9,0.138315668189306,1
102,1011,9,0.135489008037288,1
81,1009,10,0.184040403888137,1
82,1008,10,0.156902991964973,1
82,1009,10,0.151279219821165,1
83,1008,10,0.120148472380137,1
84,1008,10,0.140769943795136,1
85,1008,10,0.152919666784373,1
86,1007,10,0.153546631872462,1
86,1008,10,0.113837461141048,1
87,1006,10,0.138320190506375,1
100,1009,10,0.117248995857181,1
100,1010,10,0.127334893501317,1
101,1009,10,0.121826770195066,1
101,1010,10,0.143170257794685,1
101,1011,10,0.124627827437425,1
102,1010,10,0.131010936658543,1
102,1011,10,0.13448263939006,1
103,1011,10,0.116905276206168,1
78,1015,11,0.122358401541809,1
79,1014,11,0.116270255740799,1
79,1015,11,0.128737141545133,1
80,1015,11,0.11902749125968,1
81,1008,11,0.193146619266503,1
81,1009,11,0.194662608295362,1
82,1008,11,0.174819352276063,1
82,1009,11,0.167941131773913,1
83,1008,11,0.120105039293282,1
84,1008,11,0.115335690653916,1
85,1008,11,0.127086001186355,1
86,1007,11,0.146101296322188,1
87,1006,11,0.142119902547836,1
88,1006,11,0.114697360888816,1
91,1006,11,0.11534672557864,1
92,1006,11,0.114729382191191,1
97,1005,11,0.12156339233324,1
101,1010,11,0.118821878932296,1
102,1010,11,0.123956828642246,1
102,1011,11,0.130224607001225,1
103,1011,11,0.121009043409345,1
77,1014,12,0.116044846499369,1
77,1015,12,0.141982925803474,1
77,1016,12,0.125620735125251,1
78,1014,12,0.172832088345725,1
78,1015,12,0.198205431528916,1
78,1016,12,0.160506371850536,1
78,1017,12,0.116974159103405,1
79,1013,12,0.125732050075617,1
79,1014,12,0.190992359356881,1
79,1015,12,0.203238417121191,1
79,1016,12,0.152534739874438,1
80,1014,12,0.156697014554701,1
80,1015,12,0.163971255775847,1
80,1016,12,0.114637981923545,1
81,1008,12,0.164040857061994,1
81,1009,12,0.170566301502125,1
81,1014,12,0.122968537486428,1
81,1015,12,0.115921872450308,1
82,1007,12,0.153490314892706,1
82,1008,12,0.16517173075104,1
82,1009,12,0.159581828877783,1
83,1008,12,0.114077968326445,1
86,1007,12,0.133251509229107,1
87,1005,12,0.144239126277036,1
87,1006,12,0.131533099403921,1
88,1005,12,0.125707978158716,1
89,1005,12,0.117439875323487,1
90,1005,12,0.129079954377358,1
91,1005,12,0.15578660382279,1
92,1002,12,0.141040434884852,1
93,1005,12,0.140345211073496,1
94,1003,12,0.119889475512972,1
94,1004,12,0.118534664690917,1
97,1004,12,0.121891236767041,1
97,1005,12,0.129789239768352,1
98,1005,12,0.115163477522388,1
77,1014,13,0.136969089397541,1
77,1015,13,0.183883642006597,1
77,1016,13,0.163008049347524,1
77,1017,13,0.115818659984692,1
78,1013,13,0.131526763449277,1
78,1014,13,0.244723492344282,2
78,1015,13,0.299203657650046,2
78,1016,13,0.225397982745099,2
78,1017,13,0.143714007537949,1
79,1013,13,0.163494410416102,1
79,1014,13,0.281116674084523,2
79,1015,13,0.303061570970041,2
79,1016,13,0.206892096007284,1
79,1017,13,0.122807241510951,1
80,1013,13,0.131960493697586,1
80,1014,13,0.202285197476396,1
80,1015,13,0.206533278412305,1
80,1016,13,0.140419428891652,1
81,1009,13,0.131744694379928,1
81,1014,13,0.134212313176487,1
81,1015,13,0.12637591496838,1
82,1008,13,0.139069646791962,1
82,1009,13,0.13327651151853,1
83,1007,13,0.135199379538098,1
84,1007,13,0.14853126447377,1
85,1007,13,0.154196444083245,1
86,1004,13,0.135342963105053,1
86,1006,13,0.168769116211112,1
86,1007,13,0.130399976333207,1
87,1004,13,0.138735701940865,1
87,1005,13,0.126516636756564,1
87,1006,13,0.126648620109161,1
88,1004,13,0.137757809758934,1
89,1004,13,0.123155860338789,1
90,1003,13,0.138922589049134,1
90,1004,13,0.124950984678013,1
90,1005,13,0.123772815089615,1
91,1002,13,0.134920256004601,1
91,1003,13,0.139060201744333,1
91,1004,13,0.144362971814282,1
91,1005,13,0.143172236308402,1
92,1002,13,0.117015107271245,1
92,1003,13,0.139746239599142,1
92,1005,13,0.149347754688418,1
93,1003,13,0.127346505492543,1
93,1004,13,0.140739606584795,1
93,1005,13,0.131199554966314,1
97,1004,13,0.121723581283185,1
97,1005,13,0.134086359579982,1
97,1006,13,0.117621933916134,1
98,1005,13,0.124577080915935,1
98,1006,13,0.115274992679499,1
77,1014,14,0.156311463470795,2
77,1015,14,0.226513322746087,2
77,1016,14,0.205786295268865,2
77,1017,14,0.135453700988918,1
78,1013,14,0.150503300914601,2
78,1014,14,0.32385278237442,2
78,1015,14,0.423886671487959,2
78,1016,14,0.308496171293311,2
78,1017,14,0.176919615248801,2
78,1018,14,0.13329709748269,1
79,1013,14,0.20001438191043,2
79,1014,14,0.394663270155308,2
79,1015,14,0.43934423387615,2
79,1016,14,0.277746794148272,2
79,1017,14,0.152161495616933,1
79,1018,14,0.121879153701121,1
80,1013,14,0.163279423702293,1
80,1014,14,0.2637502699258,2
80,1015,14,0.266387958464025,2
80,1016,14,0.17609177213401,1
81,1013,14,0.117595930592985,1
81,1014,14,0.148216645462024,1
81,1015,14,0.140411585497984,1
83,1007,14,0.121090609992738,1
84,1006,14,0.19672585657396,1
84,1007,14,0.144591454818095,1
85,1006,14,0.214666901199055,1
85,1007,14,0.155077930828899,1
86,1004,14,0.116949463012534,1
86,1005,14,0.144571304598028,1
86,1006,14,0.161048731923451,1
86,1007,14,0.128583771401394,1
87,1006,14,0.119560677152915,1
89,1003,14,0.125126036034576,1
90,1002,14,0.136351640018285,1
90,1003,14,0.116495099692595,1
90,1005,14,0.122710965620215,1
91,1002,14,0.122216878926643,1
91,1003,14,0.120342084079673,1
91,1004,14,0.127042426777092,1
91,1005,14,0.140213145282828,1
92,1004,14,0.125736266194135,1
92,1005,14,0.13947134396103,1
93,1004,14,0.119422664044225,1
93,1005,14,0.127050988559668,1
97,1004,14,0.116174580470298,1
97,1005,14,0.131959021589165,1
97,1006,14,0.117950214094027,1
98,1005,14,0.127947349488809,1
98,1006,14,0.121718917643707,1
99,1005,14,0.117541639234417,1
99,1006,14,0.119700868982068,1
99,1007,14,0.115888708791799,1
100,1005,14,0.11420902130652,1
100,1006,14,0.114787194833102,1
73,1022,15,0.133755877127891,1
77,1014,15,0.172229100959598,2
77,1015,15,0.256949505880331,2
77,1016,15,0.241696036603634,2
77,1017,15,0.153321481722113,1
78,1013,15,0.161257312021412,2
78,1014,15,0.378120540100328,2
78,1015,15,0.521795401331144,2
78,1016,15,0.384532855952519,2
78,1017,15,0.208056498437728,2
78,1018,15,0.154919861715081,1
79,1013,15,0.226628359186541,2
79,1014,15,0.488750218107584,2
79,1015,15,0.556851366889177,2
79,1016,15,0.339076856590165,2
79,1017,15,0.186804575981899,2
79,1018,15,0.172268482804078,1
80,1013,15,0.193825626331493,2
80,1014,15,0.323067948379258,2
80,1015,15,0.322503224035211,2
80,1016,15,0.206879329883057,2
80,1017,15,0.133133811216628,1
80,1018,15,0.117864961351148,1
81,1013,15,0.135394121816901,1
81,1014,15,0.164768879448971,2
81,1015,15,0.159682038242221,2
81,1016,15,0.127955145775006,1
84,1006,15,0.165044623021533,1
84,1007,15,0.13128961267108,1
85,1005,15,0.166153874382091,1
85,1006,15,0.190938821717825,1
85,1007,15,0.147022247350393,1
86,1005,15,0.129154737485147,1
86,1006,15,0.151049406031339,1
86,1007,15,0.126346284370081,1
87,1006,15,0.117146760871556,1
90,1005,15,0.121098347394599,1
91,1004,15,0.116771526323466,1
91,1005,15,0.137095726052353,1
92,1005,15,0.13192749491522,1
93,1005,15,0.121033456855399,1
97,1005,15,0.127041578842641,1
97,1006,15,0.117293606630772,1
98,1005,15,0.123406813605542,1
98,1006,15,0.124191176526009,1
99,1005,15,0.118096953861437,1
99,1006,15,0.124904124522754,1
99,1007,15,0.125912035939607,1
100,1005,15,0.121433493486168,1
100,1006,15,0.120775567013767,1
100,1007,15,0.121980364099284,1
101,1005,15,0.114985175750431,1
76,1015,16,0.119101238003141,1
77,1014,16,0.171001209437171,2
77,1015,16,0.24671331185484,2
77,1016,16,0.236106711796879,2
77,1017,16,0.152755603245064,1
78,1013,16,0.155689479997603,2
78,1014,16,0.367595247534678,2
78,1015,16,0.519850616561403,2
78,1016,16,0.393033705017548,2
78,1017,16,0.21590495615802,2
78,1018,16,0.163209386672053,1
79,1013,16,0.219284398910574,2
79,1014,16,0.493387524510016,2
79,1015,16,0.574108764363539,2
79,1016,16,0.356854579618595,2
79,1017,16,0.223972463611364,2
79,1018,16,0.221833501852454,1
79,1019,16,0.136636616654865,1
80,1013,16,0.19484345387067,2
80,1014,16,0.334750365271318,2
80,1015,16,0.344012753687855,2
80,1016,16,0.232737915332426,2
80,1017,16,0.186890523559953,1
80,1018,16,0.175454938031066,1
81,1013,16,0.139955644077819,1
81,1014,16,0.17341020298797,2
81,1015,16,0.183350326567821,2
81,1016,16,0.153780379135989,1
81,1017,16,0.119090850806122,1
84,1006,16,0.124089424391946,1
85,1005,16,0.129981026053445,1
85,1006,16,0.150220420560413,1
85,1007,16,0.125668737636645,1
86,1006,16,0.130131310657933,1
86,1007,16,0.114180368188213,1
90,1005,16,0.113993163104525,1
91,1005,16,0.126254059721719,1
92,1005,16,0.119608785656115,1
97,1005,16,0.123194653339901,1
98,1005,16,0.122717195583053,1
98,1006,16,0.126155734656061,1
99,1004,16,0.114014797209881,1
99,1005,16,0.126764245392984,1
99,1006,16,0.138835934859038,1
99,1007,16,0.133943470848202,1
100,1004,16,0.118165483452653,1
100,1005,16,0.132290139992093,1
100,1006,16,0.13678758431766,1
100,1007,16,0.132228829620574,1
101,1005,16,0.119384942738044,1
101,1006,16,0.117750007348765,1
76,1015,17,0.129185251348498,1
77,1014,17,0.161628047806167,2
77,1015,17,0.211791649692275,2
77,1016,17,0.202458529410324,2
77,1017,17,0.140382944156545,1
78,1013,17,0.139635124855521,2
78,1014,17,0.305742056644282,2
78,1015,17,0.433955987302841,2
78,1016,17,0.346765478666535,2
78,1017,17,0.207414800488561,2
78,1018,17,0.157657842055815,1
79,1013,17,0.19063529651514,2
79,1014,17,0.417351546462851,2
79,1015,17,0.502315708984374,2
79,1016,17,0.34788633024145,2
79,1017,17,0.257285382137677,2
79,1018,17,0.24049771679517,1
79,1019,17,0.144392755511857,1
80,1013,17,0.175429193798999,1
80,1014,17,0.299888082074025,2
80,1015,17,0.326353058424191,2
80,1016,17,0.248904562904865,2
80,1017,17,0.239245388272953,1
80,1018,17,0.213054789378735,1
81,1013,17,0.13548277807445,1
81,1014,17,0.174646149887677,1
81,1015,17,0.200946426747697,2
81,1016,17,0.168633152277345,1
81,1017,17,0.142435817014992,1
82,1015,17,0.133240109221494,1
91,1005,17,0.114133154726933,1
96,1005,17,0.114106115039455,1
97,1005,17,0.116403381449531,1
98,1005,17,0.116041737406383,1
98,1006,17,0.12129054587005,1
99,1005,17,0.124515087486108,1
99,1006,17,0.143073746366601,1
99,1007,17,0.129819753631703,1
100,1005,17,0.130067538921133,1
100,1006,17,0.14372219246077,1
100,1007,17,0.13063526636636,1
101,1005,17,0.116110773402897,1
101,1006,17,0.119304353634643,1
74,1022,18,0.115141925855104,1
77,1014,18,0.147051854394957,1
77,1015,18,0.171485497777093,2
77,1016,18,0.161974299483664,1
77,1017,18,0.124145788479171,1
78,1013,18,0.123830757277068,1
78,1014,18,0.236755358097793,2
78,1015,18,0.334064480515785,2
78,1016,18,0.29747450732182,2
78,1017,18,0.200472549158529,1
78,1018,18,0.147182082994317,1
79,1013,18,0.160521328472094,2
79,1014,18,0.323091949634955,2
79,1015,18,0.422000347087835,2
79,1016,18,0.361551100110156,2
79,1017,18,0.287734213627475,2
79,1018,18,0.225212190885496,1
79,1019,18,0.136908073447705,1
80,1013,18,0.153753198126103,1
80,1014,18,0.253970570833241,2
80,1015,18,0.30457576991506,2
80,1016,18,0.27596007849235,2
80,1017,18,0.270307818106378,1
80,1018,18,0.211051073164684,1
81,1013,18,0.13219631368977,1
81,1014,18,0.17804774492775,1
81,1015,18,0.21368284971549,2
81,1016,18,0.179349995590741,1
81,1017,18,0.151836253870821,1
82,1014,18,0.133988258274804,1
82,1015,18,0.15887021166705,1
82,1016,18,0.116404735789278,1
99,1005,18,0.131325096372461,1
99,1006,18,0.141533226123014,1
99,1007,18,0.114519730398299,1
100,1005,18,0.133367052074858,1
100,1006,18,0.144202217574704,1
100,1007,18,0.119870208557957,1
101,1005,18,0.116061122130072,1
101,1006,18,0.120339964243546,1
75,1021,19,0.118944900088826,1
77,1015,19,0.138675675247889,1
77,1016,19,0.129174451961122,1
78,1014,19,0.17338424677229,1
78,1015,19,0.24082238147478,2
78,1016,19,0.251613148184648,2
78,1017,19,0.191240003323903,1
78,1018,19,0.135957644920477,1
79,1013,19,0.132528032712934,1
79,1014,19,0.235804328950329,2
79,1015,19,0.3446747785101,2
79,1016,19,0.379265981774308,2
79,1017,19,0.304778685339816,2
79,1018,19,0.198382579167871,1
79,1019,19,0.127989757988202,1
80,1013,19,0.137977424781619,1
80,1014,19,0.215936353286424,1
80,1015,19,0.282771700809532,2
80,1016,19,0.303883855403434,2
80,1017,19,0.272109466830123,2
80,1018,19,0.184435223366662,1
81,1013,19,0.13610656340835,1
81,1014,19,0.186026231040657,1
81,1015,19,0.213990720582233,1
81,1016,19,0.18647949911193,2
81,1017,19,0.151578576012801,1
82,1013,19,0.130644040132549,1
82,1014,19,0.164250473524283,1
82,1015,19,0.174168279940471,1
82,1016,19,0.122935314943582,1
83,1013,19,0.128174913896967,1
83,1014,19,0.149131401857994,1
83,1015,19,0.137464648199534,1
98,1005,19,0.11506962766633,1
99,1004,19,0.116859746836922,1
99,1005,19,0.142762801737474,1
99,1006,19,0.138667231233986,1
100,1005,19,0.135844775423619,1
100,1006,19,0.136909109812034,1
101,1006,19,0.116901943352703,1
74,1021,20,0.184813025271838,1
74,1022,20,0.166830879379629,1
75,1021,20,0.139598416359934,1
75,1022,20,0.133232678018185,1
78,1014,20,0.135268709956296,1
78,1015,20,0.17704228309931,1
78,1016,20,0.211417710599595,2
78,1017,20,0.175280263534259,1
78,1018,20,0.127332173044955,1
79,1014,20,0.175009866659481,1
79,1015,20,0.27860893150084,2
79,1016,20,0.370996006417168,2
79,1017,20,0.293652230802481,2
79,1018,20,0.17359453451602,1
79,1019,20,0.122259546517119,1
80,1013,20,0.130345378776088,1
80,1014,20,0.194382424843801,1
80,1015,20,0.271369761790717,2
80,1016,20,0.329374861268502,2
80,1017,20,0.261189955406185,2
80,1018,20,0.158440638652922,1
81,1013,20,0.145938104271065,1
81,1014,20,0.197914896210939,1
81,1015,20,0.213542610778867,1
81,1016,20,0.197078455982969,2
81,1017,20,0.150096209940279,1
82,1013,20,0.154797111426501,1
82,1014,20,0.201334262543871,1
82,1015,20,0.178907350253834,1
82,1016,20,0.122987156713738,1
83,1013,20,0.170325770762994,1
83,1014,20,0.223247173457617,1
83,1015,20,0.174967069523465,1
84,1013,20,0.127614770754326,1
84,1014,20,0.150372271488261,1
84,1015,20,0.114905917433042,1
86,1011,20,0.119222469075831,1
87,1010,20,0.125623502689083,1
87,1011,20,0.127864675879883,1
91,1006,20,0.124697110748153,1
92,1006,20,0.118331584390017,1
98,1005,20,0.126310671123159,1
98,1006,20,0.115673521871244,1
99,1004,20,0.12702220589582,1
99,1005,20,0.164189646004326,1
99,1006,20,0.147732957742339,1
100,1004,20,0.119865957108837,1
100,1005,20,0.150544437512319,1
100,1006,20,0.142121209780114,1
101,1005,20,0.118145545216199,1
101,1006,20,0.119942754060947,1
102,1006,20,0.115735220879387,1
102,1007,20,0.116143666193456,1
103,1007,20,0.114126347697594,1
74,1022,21,0.174368663338744,1
75,1021,21,0.15034636238005,1
75,1022,21,0.141721950422592,1
78,1015,21,0.146818295561308,1
78,1016,21,0.178035838514841,2
78,1017,21,0.159194899900396,1
78,1018,21,0.120690856006786,1
79,1014,21,0.145203651714505,1
79,1015,21,0.233785137932555,2
79,1016,21,0.338119797686609,2
79,1017,21,0.267414453777586,2
79,1018,21,0.153692935895779,1
79,1019,21,0.118294145728653,1
79,1020,21,0.133775179413508,1
79,1021,21,0.133850268719849,1
80,1013,21,0.136102629934649,1
80,1014,21,0.194421323836719,1
80,1015,21,0.283700824983691,2
80,1016,21,0.358595836566476,2
80,1017,21,0.255716138114578,2
80,1018,21,0.139357379215506,1
81,1013,21,0.164688784973999,1
81,1014,21,0.218435027682233,1
81,1015,21,0.227663145414729,1
81,1016,21,0.217764099548258,2
81,1017,21,0.150456982495241,1
82,1013,21,0.182177597892148,1
82,1014,21,0.236974054524823,1
82,1015,21,0.181568062567764,1
82,1016,21,0.123641491241591,1
83,1012,21,0.11959690279694,1
83,1013,21,0.214197074852262,1
83,1014,21,0.293279210305456,1
83,1015,21,0.200151252662985,1
84,1013,21,0.153910819718961,1
84,1014,21,0.197596850130789,1
84,1015,21,0.140338510035964,1
86,1010,21,0.115977824347175,1
86,1011,21,0.132852414747728,1
87,1010,21,0.157252388066057,1
87,1011,21,0.175985415244806,1
88,1010,21,0.138479755282349,1
88,1011,21,0.148303511635733,1
91,1006,21,0.124719828325307,1
92,1006,21,0.128041175791132,1
98,1004,21,0.114211494448667,1
98,1005,21,0.131716323906438,1
98,1006,21,0.120208086882756,1
99,1004,21,0.130898502905777,1
99,1005,21,0.170765990065223,1
99,1006,21,0.150124686405576,1
100,1004,21,0.125532337958784,1
100,1005,21,0.158078841510499,1
100,1006,21,0.144744295002802,1
101,1005,21,0.124394692571001,1
101,1006,21,0.124045767544612,1
102,1006,21,0.123265173221702,1
102,1007,21,0.126069316003312,1
103,1006,21,0.120505064147183,1
103,1007,21,0.133150157508535,1
103,1008,21,0.124757832276305,1
104,1007,21,0.119399522499846,1
104,1008,21,0.122746001800636,1
105,1008,21,0.116395337849118,1
105,1009,21,0.123690883423334,1
106,1009,21,0.129333227686982,1
106,1010,21,0.131003034380539,1
107,1010,21,0.119900345561553,1
114,1016,21,0.116531784634448,1
114,1017,21,0.128684640270404,1
115,1017,21,0.118622567228954,1
75,1022,22,0.139557209101012,1
78,1015,22,0.128091969420092,1
78,1016,22,0.147827679086582,1
78,1017,22,0.140090654085329,1
79,1014,22,0.123910510222886,1
79,1015,22,0.189205219733733,1
79,1016,22,0.272757901147425,2
79,1017,22,0.221216912184517,1
79,1018,22,0.133357112398799,1
79,1020,22,0.138982851279458,1
79,1021,22,0.150868054050734,1
80,1012,22,0.114782566524226,1
80,1013,22,0.135189192547824,1
80,1014,22,0.180912126385949,1
80,1015,22,0.267658823775479,1
80,1016,22,0.339422601862366,2
80,1017,22,0.233032737430125,1
80,1018,22,0.122618010806077,1
80,1020,22,0.135049754438183,1
80,1021,22,0.13804418784273,1
81,1012,22,0.119986045825393,1
81,1013,22,0.17371661352316,1
81,1014,22,0.215895628879065,1
81,1015,22,0.221590992599605,1
81,1016,22,0.21526891110519,1
81,1017,22,0.142069309125621,1
82,1012,22,0.121305172739322,1
82,1013,22,0.196420600171773,1
82,1014,22,0.239060515009005,1
82,1015,22,0.171907722025983,1
82,1016,22,0.119605064166026,1
83,1012,22,0.126176768141181,1
83,1013,22,0.225410984406674,1
83,1014,22,0.298467650546993,1
83,1015,22,0.190921427284722,1
84,1013,22,0.158173468639804,1
84,1014,22,0.206602973913391,1
84,1015,22,0.146053140711519,1
86,1010,22,0.120281927841155,1
86,1011,22,0.139294290537014,1
87,1010,22,0.181117844705139,1
87,1011,22,0.222154657025589,1
87,1012,22,0.122195480358635,1
88,1010,22,0.173976458324775,1
88,1011,22,0.202901904913008,1
90,1007,22,0.118936479628657,1
90,1008,22,0.118895766998165,1
91,1006,22,0.11493926952143,1
91,1007,22,0.129941137803669,1
92,1006,22,0.127301223437511,1
92,1007,22,0.116053467166282,1
99,1005,22,0.134401449666423,1
99,1006,22,0.118911065148877,1
100,1005,22,0.132232951524153,1
100,1006,22,0.122442252837471,1
101,1006,22,0.115323513373057,1
102,1006,22,0.124296461720282,1
102,1007,22,0.132467805813212,1
102,1008,22,0.120777580858087,1
103,1006,22,0.12891400653927,1
103,1007,22,0.154883600740454,1
103,1008,22,0.154994291516849,1
103,1009,22,0.115908270168498,1
104,1007,22,0.137587963777748,1
104,1008,22,0.149819382895919,1
104,1009,22,0.127603217647438,1
105,1008,22,0.131405532376587,1
105,1009,22,0.14281732863339,1
105,1010,22,0.115961866691891,1
106,1008,22,0.12214403900197,1
106,1010,22,0.156171330525979,1
107,1010,22,0.149835269889998,1
113,1017,22,0.116197404039258,1
114,1016,22,0.126698883779089,1
114,1017,22,0.145111285743735,1
114,1018,22,0.114017505889376,1
115,1016,22,0.120615813807915,1
115,1017,22,0.136618268295505,1
116,1017,22,0.128083077885229,1
75,1022,23,0.137554293713942,1
76,1021,23,0.115039078472376,1
76,1022,23,0.115740873775724,1
78,1016,23,0.140492940097765,1
78,1017,23,0.137004314007839,1
79,1015,23,0.15976174408057,1
79,1016,23,0.214275461681465,1
79,1017,23,0.182497174965056,1
79,1018,23,0.120932635093859,1
79,1020,23,0.125220192089186,1
79,1021,23,0.144405780727166,1
79,1022,23,0.115333947677545,1
80,1013,23,0.138780077177109,1
80,1014,23,0.167638383844474,1
80,1015,23,0.237404852333158,1
80,1016,23,0.288769329607949,1
80,1017,23,0.201788425657064,1
80,1018,23,0.115176161208544,1
80,1020,23,0.151751154227217,1
80,1021,23,0.168268281372538,1
80,1022,23,0.120790535412192,1
81,1012,23,0.13924785434898,1
81,1013,23,0.186315871316714,1
81,1014,23,0.202961425200687,1
81,1015,23,0.209894749665254,1
81,1016,23,0.20733528308009,1
81,1017,23,0.140579770940872,1
81,1020,23,0.140890056065426,1
81,1021,23,0.141466828144791,1
82,1012,23,0.158655519374925,1
82,1013,23,0.219429254379205,1
82,1014,23,0.221521556189601,1
82,1015,23,0.164729332728348,1
82,1016,23,0.124880441242476,1
83,1012,23,0.155774932947228,1
83,1013,23,0.226650664573336,1
83,1014,23,0.256367987723417,1
83,1015,23,0.171078430356506,1
84,1012,23,0.120924803477059,1
84,1013,23,0.157828135557962,1
84,1014,23,0.19227488376703,1
84,1015,23,0.144365609832573,1
86,1010,23,0.129734842417977,1
86,1011,23,0.141296357989634,1
87,1010,23,0.178881429368756,1
87,1011,23,0.225508355546075,1
87,1012,23,0.133087316144257,1
88,1010,23,0.171838203177908,1
88,1011,23,0.209142867344989,1
88,1012,23,0.116246172047031,1
90,1007,23,0.113836754529006,1
90,1008,23,0.128284662523973,1
91,1007,23,0.140320232337808,1
91,1008,23,0.134513895196056,1
92,1006,23,0.121169656326514,1
92,1007,23,0.137056061563056,1
100,1005,23,0.116575465035517,1
101,1005,23,0.114558676498686,1
101,1006,23,0.120522305481011,1
102,1005,23,0.113835199982514,1
102,1006,23,0.130732849489374,1
102,1007,23,0.141603298483856,1
102,1008,23,0.132560042238441,1
103,1006,23,0.132095056184137,1
103,1007,23,0.167120967176646,1
103,1008,23,0.17913443181043,1
103,1009,23,0.140787609096189,1
104,1006,23,0.116883100364913,1
104,1007,23,0.149099462993691,1
104,1008,23,0.170668925124373,1
104,1009,23,0.148161199970454,1
105,1007,23,0.120698828945995,1
105,1008,23,0.143891543813527,1
105,1010,23,0.119076188606248,1
108,1010,23,0.123107139438487,1
113,1013,23,0.122661243686186,1
113,1014,23,0.126167134663673,1
113,1015,23,0.121314205596593,1
113,1016,23,0.117460190419697,1
113,1017,23,0.114839154371931,1
114,1014,23,0.128356842944074,1
114,1015,23,0.129103249021013,1
114,1016,23,0.13628543046994,1
114,1017,23,0.148764823307419,1
114,1018,23,0.117149057360693,1
115,1016,23,0.132668507186904,1
115,1017,23,0.149423444614994,1
115,1018,23,0.126468716683242,1
116,1017,23,0.134361266994962,1
116,1018,23,0.120917419381219,1
116,1020,23,0.114067416253283,1
117,1018,23,0.118763336124608,1
117,1023,23,0.115381785312795,1
75,1022,24,0.124365650816071,1
76,1021,24,0.116717246741765,1
76,1022,24,0.120136424644819,1
78,1017,24,0.141484811421263,1
79,1015,24,0.143465079892384,1
79,1016,24,0.171778671113361,1
79,1017,24,0.150552504666466,1
79,1021,24,0.12137714117581,1
80,1014,24,0.151674651696792,1
80,1015,24,0.200568766164928,1
80,1016,24,0.223122809738207,1
80,1017,24,0.165101893927546,1
80,1020,24,0.142943965288202,1
80,1021,24,0.167180746555408,1
80,1022,24,0.129251920194671,1
81,1012,24,0.153951673671861,1
81,1013,24,0.178600209552867,1
81,1014,24,0.178360361872043,1
81,1015,24,0.196665029054003,1
81,1016,24,0.196641110236378,1
81,1017,24,0.140951319329476,1
81,1019,24,0.119377923725093,1
81,1020,24,0.177088000898434,1
81,1021,24,0.175235429000187,1
82,1011,24,0.129428443659655,1
82,1012,24,0.195335903579678,1
82,1013,24,0.21735202695904,1
82,1014,24,0.189574459856334,1
82,1015,24,0.164661333096163,1
82,1016,24,0.14184891682969,1
82,1020,24,0.148758711113255,1
82,1021,24,0.12570697712499,1
83,1011,24,0.132112120864953,1
83,1012,24,0.179386974954277,1
83,1013,24,0.199975824446666,1
83,1014,24,0.192743709080097,1
83,1015,24,0.149204194675198,1
84,1009,24,0.147396504418492,1
84,1010,24,0.116731908941638,1
84,1012,24,0.122258251061708,1
84,1013,24,0.142600233860321,1
84,1014,24,0.161487255356779,1
84,1015,24,0.132446831212429,1
85,1009,24,0.130569339462832,1
85,1010,24,0.118574941577316,1
86,1010,24,0.134593188844047,1
86,1011,24,0.131115962761734,1
87,1010,24,0.162226607090164,1
87,1011,24,0.19039511908203,1
87,1012,24,0.12498702189216,1
88,1010,24,0.146334996478246,1
88,1011,24,0.171668156989976,1
90,1008,24,0.116979505801191,1
91,1007,24,0.129985006634616,1
91,1008,24,0.140301554226162,1
92,1007,24,0.138534717922357,1
92,1008,24,0.122169971663915,1
94,1004,24,0.122939601723304,1
95,1003,24,0.117382109789045,1
95,1004,24,0.124102791136409,1
100,1005,24,0.119140914269305,1
100,1006,24,0.115390417756576,1
101,1005,24,0.125821954681107,1
101,1006,24,0.131754080543221,1
101,1007,24,0.121025648792334,1
102,1005,24,0.124020235296157,1
102,1006,24,0.140435704522355,1
102,1007,24,0.144306690165129,1
102,1008,24,0.130435460034588,1
103,1006,24,0.133962549373339,1
103,1007,24,0.16242312767594,1
103,1008,24,0.171910218721865,1
103,1009,24,0.142828045582695,1
104,1006,24,0.119594253001782,1
104,1007,24,0.15030429540981,1
104,1008,24,0.167472895304214,1
104,1009,24,0.150469901718744,1
105,1007,24,0.125083556873978,1
105,1010,24,0.114442156172944,1
108,1010,24,0.125055292392294,1
112,1014,24,0.119798546320021,1
113,1015,24,0.130715525717475,1
113,1016,24,0.12103564735273,1
114,1016,24,0.142635493801222,1
114,1017,24,0.140582126314345,1
115,1017,24,0.150633929927451,1
115,1018,24,0.13094570459019,1
116,1017,24,0.13461192584003,1
116,1018,24,0.128147403134795,1
116,1019,24,0.119734444830935,1
116,1020,24,0.118151963608915,1
117,1018,24,0.121201218331061,1
117,1023,24,0.114406319165542,1
118,1019,24,0.116434813908537,1
76,1021,25,0.114908025492301,1
76,1022,25,0.116652238433891,1
78,1018,25,0.116031821284059,1
79,1016,25,0.146806459809603,1
79,1017,25,0.128133365108892,1
80,1014,25,0.135187732216271,1
80,1015,25,0.162591536879307,1
80,1016,25,0.163036961556913,1
80,1017,25,0.128895375535094,1
80,1020,25,0.141420757039646,1
80,1021,25,0.157993306122803,1
80,1022,25,0.135046668898933,1
80,1023,25,0.126579772542526,1
80,1024,25,0.128934156759338,1
81,1013,25,0.156273612619074,1
81,1014,25,0.150544661272799,1
81,1015,25,0.172747047586458,1
81,1016,25,0.172010640069915,1
81,1017,25,0.133464858958352,1
81,1018,25,0.117254589869181,1
81,1019,25,0.145886109401633,1
81,1020,25,0.20448196010035,1
81,1021,25,0.191221278104787,1
81,1022,25,0.131935079217805,1
82,1012,25,0.206217093077199,1
82,1013,25,0.184904095787198,1
82,1014,25,0.154264855905788,1
82,1015,25,0.159398203961776,1
82,1016,25,0.155224364397757,1
82,1017,25,0.124306424950076,1
82,1019,25,0.140243859352924,1
82,1020,25,0.179028863971341,1
82,1021,25,0.146074551056394,1
83,1011,25,0.162307137309229,1
83,1012,25,0.182579000639531,1
83,1013,25,0.161761503267186,1
83,1014,25,0.142799592671133,1
83,1015,25,0.133474775080676,1
83,1016,25,0.121646054165299,1
84,1010,25,0.137994819214722,1
84,1011,25,0.122311235187998,1
84,1012,25,0.117786221215923,1
84,1013,25,0.122900490746774,1
84,1014,25,0.130904556215604,1
84,1015,25,0.118166307833369,1
85,1009,25,0.149016494963081,1
85,1010,25,0.128049784681179,1
86,1009,25,0.116206955078694,1
86,1010,25,0.135150835290806,1
86,1011,25,0.119348352011131,1
87,1010,25,0.147119689150999,1
87,1011,25,0.148075464376013,1
87,1012,25,0.11474844893946,1
88,1010,25,0.122009488292286,1
88,1011,25,0.126262868818511,1
91,1008,25,0.124464647163169,1
92,1007,25,0.125452855880915,1
92,1008,25,0.119933886079818,1
93,1007,25,0.11481557708346,1
94,1004,25,0.127124064021689,1
95,1003,25,0.127339215611641,1
95,1004,25,0.129727846958761,1
98,1004,25,0.116147481898484,1
99,1004,25,0.122266200447182,1
99,1005,25,0.116865199526513,1
100,1004,25,0.119178694459822,1
100,1005,25,0.120617073932724,1
100,1006,25,0.114624850716429,1
101,1004,25,0.119121623760555,1
101,1005,25,0.132502418026408,1
101,1006,25,0.138436263311158,1
101,1007,25,0.128327436106255,1
102,1005,25,0.136433748337577,1
102,1006,25,0.151956483909784,1
102,1007,25,0.15011687834251,1
102,1008,25,0.130396066413241,1
103,1005,25,0.119093429940076,1
103,1006,25,0.137981617346402,1
103,1007,25,0.15619316483808,1
103,1008,25,0.157697600760051,1
103,1009,25,0.136119364863179,1
104,1006,25,0.122403589381901,1
104,1007,25,0.149736485526513,1
104,1009,25,0.149278188732873,1
105,1007,25,0.134262176432924,1
105,1010,25,0.114672111285178,1
112,1015,25,0.119959076799119,1
113,1016,25,0.121766401972936,1
114,1017,25,0.122226029552588,1
115,1018,25,0.117012587021628,1
116,1018,25,0.122297409145708,1
116,1019,25,0.120067824392398,1
117,1018,25,0.118950918068051,1
117,1019,25,0.114513347336186,1
80,1019,26,0.134189960682222,1
80,1020,26,0.155283178073395,1
80,1021,26,0.157473451643429,1
80,1022,26,0.143929948178015,1
80,1023,26,0.149076038804495,1
80,1024,26,0.157101526395069,1
81,1014,26,0.114068264187733,1
81,1015,26,0.128059005968328,1
81,1016,26,0.124949995421154,1
81,1018,26,0.134075301101523,1
81,1019,26,0.184482613480952,1
81,1020,26,0.221264372960011,1
81,1021,26,0.205540794691704,1
81,1022,26,0.163963647919527,1
81,1023,26,0.143872889255615,1
81,1024,26,0.138894348121185,1
82,1013,26,0.136135982023036,1
82,1014,26,0.119024723695849,1
82,1015,26,0.13504287674764,1
82,1016,26,0.140309409396697,1
82,1017,26,0.129767429009986,1
82,1018,26,0.134735630054867,1
82,1019,26,0.162795806643811,1
82,1020,26,0.185827355081407,1
82,1021,26,0.16211604585931,1
82,1022,26,0.122727735879348,1
83,1012,26,0.155056838459443,1
83,1013,26,0.12337831358651,1
83,1015,26,0.114694734647393,1
83,1016,26,0.125072616164193,1
83,1017,26,0.129409647779335,1
83,1018,26,0.122618894071129,1
83,1019,26,0.115695356183345,1
84,1011,26,0.12021683709521,1
85,1010,26,0.125353082260571,1
86,1009,26,0.115458099413342,1
86,1010,26,0.123463554552522,1
87,1009,26,0.116671752703121,1
87,1010,26,0.132988555334506,1
87,1011,26,0.11704551514279,1
101,1004,26,0.116110231666998,1
101,1005,26,0.12596187564231,1
101,1006,26,0.131785159696206,1
101,1007,26,0.127453345233308,1
102,1005,26,0.14733739632117,1
102,1006,26,0.157563650670603,1
102,1007,26,0.153166144841525,1
102,1008,26,0.131536008290161,1
103,1005,26,0.136760532853314,1
103,1006,26,0.147356357077633,1
103,1007,26,0.156060074459951,1
103,1009,26,0.129747007921969,1
104,1006,26,0.129643442150332,1
104,1010,26,0.118301188295339,1
105,1006,26,0.12068291839818,1
115,1018,26,0.11388180104669,1
116,1018,26,0.124617652224019,1
116,1019,26,0.126609297149018,1
116,1020,26,0.117454678845769,1
117,1018,26,0.126595023585768,1
117,1019,26,0.126034621352045,1
117,1020,26,0.122942357510268,1
117,1021,26,0.123698762147603,1
117,1022,26,0.12301986107442,1
117,1023,26,0.124625260080339,1
118,1020,26,0.119931259838395,1
118,1021,26,0.123868973211678,1
80,1019,27,0.151561723315597,1
80,1020,27,0.15924057059205,1
80,1021,27,0.157417264209214,1
80,1022,27,0.149582809184223,1
80,1023,27,0.157290898422352,1
80,1024,27,0.168634070872999,1
81,1018,27,0.153100936326906,1
81,1019,27,0.203919025840143,1
81,1020,27,0.210469272362952,1
81,1021,27,0.210447249620973,1
81,1022,27,0.18695497835506,1
81,1023,27,0.162223497997179,1
81,1024,27,0.156523458860293,1
82,1016,27,0.11968613612099,1
82,1017,27,0.136717676832961,1
82,1018,27,0.161234924196544,1
82,1019,27,0.172595820832581,1
82,1020,27,0.168513864387771,1
82,1021,27,0.163310797276962,1
82,1022,27,0.138667843631089,1
83,1016,27,0.128334725987156,1
83,1017,27,0.157476148546056,1
83,1018,27,0.157748677033827,1
83,1019,27,0.139502964849914,1
83,1020,27,0.12351207524608,1
84,1016,27,0.116928264651271,1
84,1017,27,0.13602717554542,1
84,1018,27,0.128050997698517,1
85,1010,27,0.115480828767363,1
86,1009,27,0.114022169528854,1
101,1004,27,0.115850221989239,1
101,1005,27,0.122198754327763,1
101,1006,27,0.124147295918194,1
101,1007,27,0.123592016621776,1
102,1004,27,0.146351484092561,1
102,1005,27,0.159890995199937,1
102,1006,27,0.158221895118423,1
102,1007,27,0.153110463812607,1
102,1008,27,0.134259750398247,1
103,1005,27,0.160219263600963,1
103,1006,27,0.159031825617946,1
103,1009,27,0.125523446423921,1
104,1005,27,0.126166757803918,1
107,1011,27,0.115700196475834,1
115,1018,27,0.116398517603308,1
116,1022,27,0.117315959125037,1
116,1023,27,0.117427968910578,1
116,1024,27,0.114454780974763,1
78,1018,28,0.114425315252607,1
80,1019,28,0.143148965218483,1
80,1020,28,0.141679047294769,1
80,1021,28,0.143940594466116,1
80,1022,28,0.138266523321778,1
80,1023,28,0.14751591007674,1
80,1024,28,0.162067065867925,1
81,1018,28,0.157462546264246,1
81,1019,28,0.189035785942905,1
81,1020,28,0.17986539841425,1
81,1021,28,0.195531493792931,1
81,1022,28,0.17679718293564,1
81,1023,28,0.156874833475095,1
81,1024,28,0.157136550798622,1
82,1017,28,0.137690740499271,1
82,1018,28,0.175930122852512,1
82,1019,28,0.164403243047785,1
82,1020,28,0.143583967368467,1
82,1021,28,0.149738110734209,1
82,1022,28,0.132408945030105,1
83,1011,28,0.120825760022491,1
83,1016,28,0.12077398891354,1
83,1017,28,0.166282677980499,1
83,1018,28,0.179575746361325,1
83,1019,28,0.151668233304076,1
83,1020,28,0.124900037949777,1
84,1010,28,0.123290316833534,1
84,1016,28,0.11995791088925,1
84,1017,28,0.148649080254923,1
84,1018,28,0.144127151822098,1
84,1019,28,0.125522445390195,1
85,1017,28,0.119036853869238,1
86,1009,28,0.115253370351011,1
102,1005,28,0.154602569354443,1
102,1006,28,0.143221063200512,1
102,1007,28,0.14006268402533,1
102,1008,28,0.127531084334807,1
103,1005,28,0.167895390421054,1
103,1006,28,0.159548347243855,1
103,1009,28,0.120094027922293,1
110,1016,28,0.118768164640229,1
113,1017,28,0.117229811340238,1
114,1018,28,0.118678142266065,1
116,1024,28,0.127019085025968,1
80,1019,29,0.117114892668457,1
80,1020,29,0.116108465136892,1
80,1021,29,0.123127560526503,1
80,1022,29,0.122677801961706,1
80,1023,29,0.131128304918736,1
80,1024,29,0.14258471194913,1
81,1018,29,0.146107714714904,1
81,1019,29,0.154025455745924,1
81,1020,29,0.147651073183527,1
81,1021,29,0.163970089865977,1
81,1022,29,0.150001158843749,1
81,1023,29,0.139945292211402,1
81,1024,29,0.142708910792397,1
82,1017,29,0.141500286224985,1
82,1018,29,0.175998805543004,1
82,1019,29,0.150399546713086,1
82,1020,29,0.128906339798614,1
82,1021,29,0.1309302180096,1
82,1022,29,0.116624927878464,1
83,1016,29,0.114458007836422,1
83,1017,29,0.163078686997999,1
83,1018,29,0.18382634754685,1
83,1019,29,0.153909229841866,1
83,1020,29,0.121811366052549,1
84,1016,29,0.126659301727864,1
84,1017,29,0.156713113532393,1
84,1018,29,0.155027396291022,1
84,1019,29,0.134301699599813,1
85,1016,29,0.126350688918477,1
85,1017,29,0.13827837085035,1
85,1018,29,0.116610713199551,1
102,1005,29,0.140329983583989,1
102,1006,29,0.126152484240667,1
102,1007,29,0.126230988838545,1
102,1008,29,0.11992994082925,1
103,1006,29,0.155585419597536,1
103,1009,29,0.118481138828727,1
111,1017,29,0.113904495070109,1
112,1017,29,0.118476486966117,1
112,1018,29,0.123574881279755,1
113,1017,29,0.128939326804112,1
113,1018,29,0.131845092174243,1
115,1023,29,0.120849042889278,1
115,1024,29,0.115783553143067,1
81,1021,30,0.11895459245067,1
81,1022,30,0.117424058990611,1
81,1023,30,0.119191837443806,1
81,1024,30,0.120569153859402,1
82,1017,30,0.128325575361211,1
82,1018,30,0.146968674380735,1
82,1019,30,0.12500688946741,1
83,1017,30,0.138794939583728,1
83,1018,30,0.156910340730211,1
83,1019,30,0.132564705877919,1
84,1016,30,0.116710015745201,1
84,1017,30,0.143343872373429,1
84,1018,30,0.143202020005977,1
84,1019,30,0.12093813489092,1
85,1016,30,0.124556494951775,1
85,1017,30,0.139805606787546,1
85,1018,30,0.117927366971333,1
103,1008,30,0.131091172455923,1
104,1009,30,0.116383608089219,1
109,1013,30,0.120844862101362,1
109,1014,30,0.115112460132949,1
110,1014,30,0.119645553036039,1
111,1015,30,0.114132118362605,1
111,1017,30,0.118368587307288,1
111,1018,30,0.118369494126075,1
112,1018,30,0.1354159207984,1
115,1024,30,0.117514540662602,1
83,1018,31,0.115730804554124,1
84,1017,31,0.119237767226542,1
84,1018,31,0.118398900963894,1
85,1017,31,0.127838743217938,1
85,1018,31,0.118128433427913,1
92,1024,31,0.115549111044365,1
109,1013,31,0.129539075551713,1
109,1014,31,0.123780870466895,1
110,1014,31,0.129558307176126,1
111,1018,31,0.128720029756846,1
111,1019,31,0.11845320409933,1
114,1023,31,0.114223271316036,1
115,1023,31,0.122197882839578,1
85,1018,32,0.114242373394907,1
91,1024,32,0.123447785327116,1
92,1024,32,0.117636560785406,1
106,1022,32,0.116533280296604,1
108,1013,32,0.116558682999517,1
109,1013,32,0.132917081526448,1
109,1014,32,0.130057811228687,1
109,1015,32,0.11592146025995,1
110,1014,32,0.138058308306705,1
110,1015,32,0.115634222464836,1
111,1019,32,0.139768015026906,1
111,1020,32,0.1292110191343,1
112,1021,32,0.120578104278602,1
91,1024,33,0.130297658909511,1
92,1023,33,0.117413224272632,1
92,1024,33,0.115294035874034,1
104,1021,33,0.120130830632819,1
105,1021,33,0.144819266540469,1
105,1022,33,0.142782115799958,1
105,1024,33,0.120598148506863,1
106,1021,33,0.139887844652379,1
106,1022,33,0.148858060766374,1
107,1021,33,0.119838505231002,1
107,1022,33,0.128825208959313,1
108,1014,33,0.12446477670871,1
108,1020,33,0.117644557278349,1
108,1021,33,0.11667967853486,1
108,1022,33,0.119482419869252,1
109,1014,33,0.137092616959367,1
109,1015,33,0.118790128497871,1
109,1019,33,0.113877266952753,1
109,1020,33,0.121894710942914,1
109,1021,33,0.12374916713994,1
109,1022,33,0.128726106620408,1
109,1023,33,0.123900240794541,1
110,1018,33,0.127142117959365,1
110,1019,33,0.141123673783412,1
110,1020,33,0.137749342191296,1
110,1021,33,0.125158410642972,1
110,1022,33,0.118032239975248,1
110,1023,33,0.117425648867706,1
111,1019,33,0.17212222588823,1
111,1020,33,0.157370486492027,1
111,1021,33,0.124060571066894,1
112,1020,33,0.153583081276967,1
112,1021,33,0.123795414898095,1
113,1021,33,0.128750967587423,1
104,1021,34,0.182410049700265,1
104,1022,34,0.169245219628213,1
105,1020,34,0.121650470490562,1
105,1021,34,0.208060219927816,1
105,1022,34,0.202177297817567,1
105,1023,34,0.138359537020253,1
106,1021,34,0.170029193912057,1
106,1022,34,0.182397342460374,1
106,1023,34,0.13649857999244,1
107,1021,34,0.129912979313791,1
107,1022,34,0.144539177303847,1
107,1023,34,0.117849486547426,1
108,1020,34,0.12323318724993,1
108,1021,34,0.12431097082088,1
108,1022,34,0.127001985014549,1
109,1019,34,0.124269940214968,1
109,1020,34,0.132894387503029,1
109,1021,34,0.130835096251866,1
109,1022,34,0.132326412743588,1
110,1018,34,0.13471386640397,1
110,1019,34,0.159296016083621,1
110,1020,34,0.152482132607903,1
110,1021,34,0.129818999912192,1
110,1022,34,0.122635687883997,1
111,1020,34,0.170595684786209,1
111,1021,34,0.128566494736965,1
103,1021,35,0.128208737060049,1
104,1020,35,0.132712352464116,1
104,1021,35,0.245589798707899,1
104,1022,35,0.225581183693881,1
105,1020,35,0.144578111627367,1
105,1021,35,0.272901366945706,1
105,1022,35,0.260611758325868,1
105,1023,35,0.161956763728153,1
106,1021,35,0.188312344757334,1
106,1022,35,0.201026933413027,1
107,1021,35,0.132744044014205,1
107,1022,35,0.14759596922111,1
108,1022,35,0.129781313936613,1
103,1021,36,0.124754252108625,1
103,1022,36,0.115524320738555,1
104,1020,36,0.134007949197044,1
104,1021,36,0.246033645285277,1
104,1022,36,0.22351168189871,1
104,1023,36,0.130135809421268,1
105,1020,36,0.145925844552134,1
105,1021,36,0.275809334590035,1
105,1022,36,0.260641483139106,1
105,1023,36,0.16255102445556,1
106,1021,36,0.176944853075571,1
106,1022,36,0.186913688658066,1
104,1021,37,0.213223834532941,1
104,1022,37,0.197162566369714,1
105,1020,37,0.141958111943929,1
105,1021,37,0.246506886923607,1
105,1022,37,0.236518077774055,1
105,1023,37,0.159368467371671,1
106,1021,37,0.160968178150651,1
106,1022,37,0.17057858477479,1
105,1021,38,0.188436296286386,1
105,1022,38,0.185008109079795,1
