x,y,z,signal,mito.p
757,970,32,0.186574561985327,1
757,974,32,0.235724929310531,1
757,977,32,0.196128592745374,1
758,964,32,0.17594709331839,1
758,965,32,0.182565469018925,1
758,973,32,0.181774770143813,1
758,974,32,0.183396939408865,1
758,975,32,0.178494500391369,1
758,976,32,0.169788981148344,1
758,977,32,0.151713903995731,1
759,964,32,0.205854977959357,1
759,965,32,0.212010393226775,1
759,969,32,0.249191494501428,1
759,975,32,0.157726984044135,1
759,976,32,0.155735751309493,1
760,964,32,0.221124557990614,1
760,975,32,0.142989270896968,1
761,964,32,0.204104111087704,1
761,965,32,0.232464880439358,1
761,966,32,0.23434826062264,1
761,974,32,0.162995318553899,1
761,975,32,0.160926382048361,1
762,964,32,0.202396512426762,1
762,965,32,0.231733796066865,1
757,964,33,0.219800060825165,1
757,969,33,0.178463562560792,1
757,970,33,0.14935566874329,1
757,971,33,0.174946189137621,1
757,974,33,0.257978144583753,1
758,963,33,0.288330382207396,2
758,964,33,0.205586559598298,1
758,965,33,0.155647566126639,1
758,966,33,0.179358215844164,1
758,967,33,0.197698390281239,1
758,968,33,0.209457898547093,1
758,969,33,0.188100349367837,1
758,970,33,0.134773810658875,1
758,971,33,0.12160769690828,1
758,972,33,0.142251355941401,1
758,973,33,0.178222289879017,1
758,974,33,0.187940878806802,1
758,975,33,0.173962620505618,1
758,976,33,0.173873304743496,1
758,977,33,0.170389177416905,1
758,978,33,0.177152184825591,1
759,963,33,0.328574222717332,2
759,964,33,0.221570218205567,1
759,965,33,0.171088817553524,1
759,966,33,0.188012552821606,1
759,967,33,0.186872222308062,1
759,968,33,0.192698792107954,1
759,969,33,0.173506808630993,1
759,970,33,0.131611203588308,1
759,971,33,0.125120018055351,1
759,972,33,0.131269568442819,1
759,973,33,0.127567392416903,1
759,974,33,0.136000748255045,1
759,975,33,0.149226641384402,1
759,976,33,0.157118414422875,1
759,977,33,0.179723899352819,1
760,963,33,0.243930673633045,1
760,964,33,0.199705050712133,1
760,965,33,0.187091519355329,1
760,966,33,0.191997774077852,1
760,967,33,0.163368127067311,1
760,968,33,0.140570714529866,1
760,969,33,0.12589752683901,1
760,970,33,0.121584743793779,1
760,971,33,0.140456325817117,1
760,972,33,0.15612160859195,1
760,973,33,0.141560077380614,1
760,974,33,0.131118294581473,1
760,975,33,0.139363408971599,1
760,976,33,0.172616771879629,1
761,963,33,0.193006050577594,1
761,964,33,0.203047631869824,1
761,965,33,0.206908324530518,1
761,966,33,0.183903745119195,1
761,967,33,0.139419890827497,1
761,970,33,0.119635495591306,1
761,971,33,0.150170298212893,1
761,973,33,0.154261899912079,1
761,974,33,0.145195643444694,1
761,975,33,0.155564609872896,1
762,964,33,0.253594370582026,1
762,965,33,0.252087897262001,1
762,968,33,0.127998920391015,1
762,969,33,0.123937632348435,1
762,970,33,0.141876298046321,1
762,973,33,0.171623428447711,1
762,974,33,0.191633927760507,1
763,970,33,0.178480544803537,1
756,969,34,0.184567948661903,1
756,970,34,0.157972496398163,1
756,971,34,0.230013219298084,1
757,963,34,0.27585008255113,2
757,964,34,0.235395789421321,1
757,967,34,0.179871074864321,1
757,968,34,0.160692022387731,1
757,969,34,0.127193665307836,1
757,971,34,0.142306601226226,1
757,972,34,0.211021065706629,1
757,973,34,0.254929938002802,1
757,974,34,0.235707546654296,1
758,962,34,0.252590039332853,2
758,963,34,0.400647190680108,2
758,964,34,0.255540427253442,2
758,965,34,0.143767874929292,1
758,966,34,0.143768875963018,1
758,967,34,0.150533437918197,1
758,968,34,0.137677621069023,1
758,969,34,0.115284060867373,1
758,973,34,0.146479616409529,1
758,974,34,0.165920233110371,1
758,975,34,0.155956626456987,1
758,976,34,0.161201171694667,1
759,962,34,0.267157670961486,2
759,963,34,0.397785459017067,2
759,964,34,0.244563939345176,2
759,965,34,0.150408261594938,1
759,966,34,0.146547792694724,1
759,967,34,0.135633710406643,1
759,968,34,0.12196351140208,1
759,975,34,0.129368982256312,1
759,976,34,0.150759553771669,1
759,977,34,0.185459539959759,1
760,962,34,0.175271654644212,1
760,963,34,0.241077232884632,2
760,964,34,0.181186197643345,1
760,965,34,0.150538678624175,1
760,966,34,0.138557553268184,1
760,967,34,0.113879481003819,1
760,975,34,0.122619553575702,1
760,976,34,0.156447474512033,1
761,962,34,0.127334646187103,1
761,963,34,0.186246870650803,1
761,964,34,0.199588648155064,1
761,965,34,0.174598453574835,1
761,966,34,0.13624860420568,1
761,974,34,0.113949506257191,1
761,975,34,0.134005358286223,1
761,976,34,0.166083366277157,1
762,962,34,0.179528568230647,1
762,966,34,0.170970377598401,1
762,967,34,0.121452642672508,1
762,971,34,0.116214280290197,1
762,972,34,0.120427030624001,1
762,973,34,0.12110805153331,1
762,974,34,0.147100481080321,1
762,975,34,0.19801320949973,1
763,969,34,0.119533708126641,1
763,970,34,0.120826419527064,1
763,971,34,0.144539247965052,1
763,972,34,0.147460782560589,1
763,973,34,0.14647683706883,1
763,974,34,0.192586864760485,1
764,970,34,0.150766290139804,1
764,971,34,0.173628298794765,1
764,972,34,0.184679605141422,1
764,973,34,0.171453923995678,1
765,971,34,0.187704846831005,1
767,978,34,0.183152392757961,1
770,973,34,0.217781929725454,1
755,970,35,0.191840882650771,1
755,971,35,0.224859732798896,1
756,963,35,0.184318078866949,1
756,968,35,0.186762037936964,1
756,969,35,0.14381563012647,1
756,970,35,0.126556548560075,1
756,971,35,0.183557163689412,1
756,972,35,0.249706779556263,1
756,973,35,0.224425284161677,1
757,962,35,0.17653100217938,1
757,963,35,0.295897066599033,2
757,964,35,0.245696826878542,2
757,966,35,0.147164594346275,1
757,967,35,0.143166783618811,1
757,968,35,0.123556686019671,1
757,971,35,0.11695247789058,1
757,972,35,0.168214696626012,1
757,973,35,0.194101558333933,1
757,974,35,0.189871672658109,1
758,962,35,0.263399931675326,2
758,963,35,0.468036969565183,2
758,964,35,0.309957751194928,2
758,965,35,0.1539965199828,2
758,966,35,0.124118501477479,1
758,967,35,0.119949678858959,1
758,973,35,0.115143739492679,1
758,974,35,0.137473681056805,1
758,975,35,0.139759865434687,1
758,976,35,0.146380113657134,1
759,961,35,0.115762578542284,1
759,962,35,0.242724486877178,2
759,963,35,0.40216951566361,2
759,964,35,0.263072628977425,2
759,965,35,0.150614356773885,1
759,966,35,0.125301240490415,1
759,975,35,0.117045385597249,1
759,976,35,0.146862694351287,1
759,977,35,0.186324456653026,1
759,979,35,0.221456524327993,1
759,980,35,0.244669342308123,1
760,962,35,0.154166495509528,1
760,963,35,0.215327065276255,2
760,964,35,0.170324204439634,1
760,965,35,0.134791676166673,1
760,976,35,0.144667886687316,1
760,980,35,0.198398407277614,1
760,981,35,0.154684771888674,1
761,962,35,0.115625036508289,1
761,963,35,0.167749592803034,1
761,965,35,0.147374281469768,1
761,975,35,0.121888057012851,1
761,976,35,0.150953754314573,1
762,962,35,0.158251066418894,1
762,966,35,0.144587132707771,1
762,974,35,0.118618998838141,1
762,975,35,0.170493473354319,1
762,976,35,0.218363612758512,1
763,968,35,0.116644665908174,1
763,974,35,0.141016975365055,1
763,975,35,0.22152299296742,1
763,979,35,0.219021539230912,1
763,980,35,0.190243185716111,1
764,969,35,0.141199646354805,1
764,971,35,0.118949528397702,1
764,972,35,0.127156438630085,1
764,973,35,0.123871787882979,1
764,974,35,0.144402353658762,1
764,980,35,0.22232636375182,1
764,981,35,0.184742693819915,1
765,970,35,0.155898248525442,1
765,971,35,0.138891580557353,1
765,972,35,0.137218464564066,1
765,973,35,0.12914868417532,1
765,974,35,0.156732133173193,1
765,981,35,0.196556858527225,1
766,971,35,0.153200109327015,1
766,972,35,0.150242784831546,1
766,973,35,0.165221452685069,1
766,978,35,0.208728086076276,1
767,972,35,0.168727555646169,1
767,978,35,0.157327748240348,1
768,972,35,0.16729261501854,1
769,972,35,0.187364424702855,1
769,973,35,0.191704930493871,1
770,973,35,0.193277731130915,1
755,970,36,0.158566144728467,1
755,971,36,0.169683625292867,1
755,972,36,0.170963299701113,1
756,963,36,0.158408122722118,1
756,968,36,0.148107344355979,1
756,971,36,0.131465865268115,1
756,972,36,0.168511297030684,1
756,973,36,0.156753461079997,1
756,974,36,0.125537625772233,1
757,962,36,0.158521204202589,1
757,963,36,0.274406756793933,2
757,964,36,0.243655754441198,2
757,965,36,0.173500072262858,1
757,966,36,0.136754809295773,1
757,967,36,0.124875306528304,1
757,972,36,0.121148269535373,1
757,973,36,0.13650730665116,1
757,974,36,0.136577956078503,1
757,975,36,0.121722639133795,1
758,962,36,0.232015993362746,2
758,963,36,0.445941446546024,2
758,964,36,0.337792377220034,2
758,965,36,0.170900740981652,2
758,966,36,0.114447326217719,1
758,975,36,0.117586085131865,1
758,976,36,0.124880865209702,1
758,977,36,0.132852532516402,1
758,978,36,0.125120465576311,1
759,962,36,0.194135381497015,2
759,963,36,0.348687887388275,2
759,964,36,0.270613734013138,2
759,965,36,0.156554738220024,1
759,976,36,0.130080882111862,1
759,977,36,0.166450003712069,1
759,978,36,0.173933778957433,1
759,979,36,0.169927347563055,1
759,980,36,0.175125539050773,1
759,981,36,0.148278214924626,1
760,962,36,0.129048427703413,1
760,963,36,0.181819534016681,2
760,964,36,0.164598656608029,1
760,965,36,0.127387547875321,1
760,976,36,0.124386754962395,1
760,977,36,0.180043134896573,1
760,979,36,0.206105024407322,1
760,980,36,0.159696453127879,1
760,981,36,0.12976101061727,1
761,963,36,0.146766536229224,1
761,964,36,0.158443123571937,1
761,965,36,0.126631355221599,1
761,976,36,0.131636582737487,1
761,977,36,0.166386679496229,1
761,980,36,0.154781931044463,1
761,981,36,0.15355326224879,1
762,962,36,0.145112204339389,1
762,966,36,0.124882054673306,1
762,975,36,0.136557994288314,1
762,976,36,0.174917465358109,1
762,977,36,0.16561660191588,1
762,978,36,0.175076676828062,1
762,979,36,0.181324670049862,1
762,980,36,0.15868507931202,1
763,967,36,0.123383259870805,1
763,975,36,0.156158352418139,1
763,976,36,0.202218092886131,1
763,977,36,0.172458690988944,1
763,978,36,0.17266460951488,1
763,979,36,0.196042185869493,1
763,980,36,0.167927117301744,1
763,981,36,0.177198585683023,1
764,968,36,0.145888123245953,1
764,975,36,0.142069980407061,1
764,976,36,0.17897547943156,1
764,977,36,0.167293851589613,1
764,978,36,0.196125130346368,1
764,979,36,0.235518080412074,1
764,980,36,0.181958183076208,1
764,981,36,0.158966287351041,1
765,969,36,0.169780278043359,1
765,970,36,0.114872553567788,1
765,975,36,0.14970499418317,1
765,976,36,0.1734185292332,1
765,977,36,0.164665184131792,1
765,978,36,0.189959940279035,1
765,980,36,0.1943259076573,1
765,981,36,0.186196783633885,1
766,964,36,0.171619812949429,1
766,970,36,0.157104482388778,1
766,974,36,0.158184126704772,1
766,977,36,0.153458081606719,1
766,978,36,0.148371157961897,1
766,979,36,0.181849847673287,1
766,980,36,0.218976622258769,1
767,971,36,0.12141714719426,1
767,973,36,0.151385282288684,1
767,977,36,0.138509103235831,1
767,978,36,0.132799371737101,1
768,972,36,0.126042240985232,1
768,973,36,0.175431207643319,1
769,972,36,0.159689681429143,1
769,973,36,0.155692353553241,1
769,974,36,0.191541290921788,1
770,973,36,0.16516394624171,1
755,963,37,0.133648801849778,1
755,969,37,0.163761709974762,1
755,970,37,0.128332170406937,1
755,971,37,0.126664412888302,1
755,972,37,0.126080515804179,1
756,963,37,0.148917086425625,1
756,964,37,0.230258602106571,1
756,967,37,0.164728555455101,1
756,968,37,0.122836318596484,1
757,962,37,0.145839991189019,1
757,963,37,0.247969620958226,2
757,964,37,0.265102112977279,2
757,965,37,0.208624614519577,1
757,966,37,0.146745997372534,1
757,967,37,0.114703284653102,1
758,962,37,0.191397189172668,2
758,963,37,0.377388018950016,2
758,964,37,0.366104555216926,2
758,965,37,0.220220683420093,2
758,966,37,0.122073683996311,1
759,962,37,0.156600432465413,1
759,963,37,0.298913145885803,2
759,964,37,0.305981456804146,2
759,965,37,0.191470712155649,1
759,977,37,0.13764612972568,1
759,978,37,0.135677284815906,1
759,979,37,0.125078481044143,1
759,980,37,0.117705585005052,1
760,962,37,0.116007984904506,1
760,963,37,0.174494722927055,1
760,964,37,0.190910816327223,1
760,965,37,0.141988190063188,1
760,977,37,0.140821561804812,1
760,978,37,0.151425947811707,1
760,979,37,0.140339051771863,1
760,980,37,0.119955543738909,1
761,963,37,0.140442311344948,1
761,964,37,0.148027438310884,1
761,965,37,0.120430810998426,1
761,976,37,0.120547213555495,1
761,977,37,0.131262349223122,1
761,978,37,0.140226900663914,1
761,979,37,0.143052241806786,1
761,980,37,0.128543082324637,1
761,981,37,0.12839874503817,1
762,962,37,0.141348706165086,1
762,966,37,0.114341829039833,1
762,976,37,0.138164994948195,1
762,977,37,0.128936300149199,1
762,978,37,0.134182623693851,1
762,979,37,0.157755731377381,1
762,980,37,0.154661618567428,1
762,981,37,0.161225620471323,1
763,975,37,0.113869800418842,1
763,976,37,0.133121622158901,1
763,977,37,0.123810088874836,1
763,978,37,0.142862504696615,1
763,979,37,0.182763485266856,1
763,980,37,0.169283835976314,1
763,981,37,0.156890626254236,1
763,982,37,0.18690351344466,1
764,967,37,0.138804832152318,1
764,976,37,0.117037082905755,1
764,977,37,0.118428354909182,1
764,978,37,0.144169124577399,1
764,979,37,0.180667968371668,1
764,980,37,0.156750563970625,1
764,981,37,0.15252134957624,1
765,968,37,0.169156162957173,1
765,969,37,0.12007529092631,1
765,976,37,0.115771069663656,1
765,977,37,0.118314496155465,1
765,978,37,0.128639923505007,1
765,979,37,0.151091896968804,1
765,980,37,0.157665438135268,1
766,964,37,0.152765012962091,1
766,965,37,0.209762825196994,1
766,969,37,0.18139328207915,1
766,970,37,0.115477319260888,1
766,975,37,0.120469674660741,1
766,976,37,0.118637229428828,1
766,979,37,0.140494565305462,1
766,980,37,0.21028562389321,1
767,970,37,0.155072631238584,1
767,974,37,0.140689366468602,1
767,975,37,0.1494330427619,1
767,976,37,0.124953893564253,1
767,978,37,0.119171746108075,1
767,979,37,0.173022084546979,1
767,980,37,0.268146503853203,1
767,981,37,0.285683013084194,1
768,971,37,0.12568768661624,1
768,973,37,0.123432004324843,1
768,974,37,0.166798092580875,1
768,975,37,0.181424632100085,1
768,976,37,0.16508451127131,1
769,972,37,0.142327022314243,1
769,973,37,0.128269470365068,1
769,974,37,0.15004089399425,1
770,973,37,0.144460884689583,1
754,964,38,0.182332416590572,1
754,970,38,0.184337758012321,1
755,963,38,0.121056445300502,1
755,964,38,0.216359943651929,1
755,969,38,0.138104096767033,1
756,963,38,0.152485182816552,1
756,964,38,0.22419784929906,1
756,965,38,0.254640815908908,1
756,967,38,0.174578903975004,1
756,968,38,0.114003738731422,1
757,962,38,0.139159598504922,1
757,963,38,0.229693171150481,1
757,964,38,0.292259734004847,2
757,965,38,0.253843451326867,1
757,966,38,0.165650012888604,1
758,962,38,0.156894512620468,1
758,963,38,0.301814353608263,2
758,964,38,0.377782190700835,2
758,965,38,0.268804807185359,2
758,966,38,0.134977915547236,1
759,962,38,0.132583996386669,1
759,963,38,0.262752957689578,2
759,964,38,0.343268644100053,2
759,965,38,0.230488345235193,2
760,963,38,0.17655516831122,1
760,964,38,0.220548174547872,2
760,965,38,0.155197171611004,1
761,963,38,0.13631255259549,1
761,964,38,0.143288968617758,1
761,965,38,0.114145602875741,1
762,962,38,0.138294964456472,1
762,979,38,0.141910804267711,1
762,980,38,0.155092911004192,1
762,981,38,0.140415942938911,1
763,978,38,0.115329130938792,1
763,979,38,0.164833569781425,1
763,980,38,0.177233610086576,1
763,981,38,0.148042677577259,1
763,982,38,0.153892188714784,1
764,979,38,0.136603888740448,1
764,980,38,0.141022298509105,1
764,981,38,0.143685860824938,1
765,966,38,0.182381679226774,1
765,967,38,0.152446696013992,1
765,968,38,0.115043836326793,1
765,980,38,0.139136562952349,1
766,964,38,0.151475445985257,1
766,965,38,0.181145791211404,1
766,966,38,0.204099400340757,1
766,967,38,0.21633971099379,1
766,968,38,0.175509500257584,1
766,969,38,0.119701398941099,1
766,979,38,0.116679395890043,1
766,980,38,0.200033483989302,1
767,979,38,0.1464623397451,1
767,980,38,0.242272820459867,1
768,975,38,0.124730663043286,1
768,976,38,0.136216359142825,1
769,972,38,0.123044851586975,1
769,974,38,0.121059695715896,1
769,975,38,0.162311588965094,1
770,973,38,0.131082469350938,1
770,974,38,0.18259896242972,1
753,965,39,0.177933709521023,1
753,969,39,0.217631444914221,1
754,964,39,0.139200876425048,1
754,965,39,0.20826744568603,1
754,969,39,0.184156182271236,1
754,970,39,0.155537829276501,1
755,964,39,0.161452266283827,1
755,969,39,0.120380665097171,1
756,963,39,0.155756042851969,1
756,964,39,0.215348640497274,2
756,965,39,0.261060456972603,1
756,968,39,0.114492478727209,1
757,962,39,0.128777312439726,1
757,963,39,0.218291137916727,2
757,964,39,0.312397070179201,2
757,965,39,0.302525393752494,2
757,966,39,0.193494178176278,1
758,962,39,0.128531482110279,1
758,963,39,0.245676971080159,2
758,964,39,0.382626204679317,2
758,965,39,0.320102815820723,2
758,966,39,0.155206392898153,2
759,962,39,0.118224591549975,1
759,963,39,0.23851171298964,2
759,964,39,0.37162917791436,2
759,965,39,0.272539487365211,2
759,966,39,0.118249758715541,1
760,963,39,0.182456273904685,1
760,964,39,0.24417624487141,2
760,965,39,0.167660218156575,1
761,963,39,0.13403110251829,1
761,964,39,0.144067643311286,1
762,962,39,0.132371247277659,1
762,979,39,0.122323459576327,1
762,980,39,0.143727598042892,1
762,981,39,0.120918467522415,1
763,979,39,0.142293729110193,1
763,980,39,0.175173117594941,1
763,981,39,0.138914427680048,1
764,980,39,0.134295186992158,1
764,981,39,0.136591805674528,1
765,966,39,0.147942691973302,1
765,967,39,0.115234963107314,1
765,980,39,0.132829579401901,1
766,963,39,0.119866133761848,1
766,964,39,0.16711302956804,1
766,965,39,0.1842148781782,1
766,966,39,0.177340355612403,1
766,967,39,0.165028759581188,1
766,968,39,0.125291654120377,1
766,980,39,0.180822775293225,1
767,969,39,0.136694370412439,1
767,979,39,0.121346438882581,1
767,980,39,0.198177944320479,1
768,970,39,0.127170182234304,1
768,976,39,0.117192101810924,1
768,977,39,0.145975201403275,1
768,978,39,0.162899808159541,1
768,979,39,0.156906795893133,1
769,971,39,0.146843156528323,1
769,974,39,0.116203339580412,1
769,975,39,0.147133574077626,1
770,972,39,0.14083799053479,1
770,973,39,0.133822004238165,1
770,974,39,0.186445781940654,1
752,966,40,0.202200144940262,1
753,965,40,0.166489397333416,1
753,966,40,0.226534850859636,1
753,968,40,0.218128852684391,1
753,969,40,0.187252509132254,1
754,964,40,0.114092689410655,1
754,965,40,0.184351101203049,1
754,966,40,0.261789515723908,1
754,968,40,0.219877458397509,1
754,969,40,0.150246506321634,1
754,970,40,0.126522442752177,1
755,964,40,0.128245893076596,1
755,965,40,0.21061262039256,1
755,968,40,0.189477418469218,1
756,963,40,0.151649932052186,1
756,964,40,0.204331333966709,2
756,965,40,0.271212305074002,2
756,966,40,0.281676240160663,1
756,967,40,0.215568514611041,1
757,962,40,0.117990067013202,1
757,963,40,0.207190239181581,2
757,964,40,0.325732700158696,2
757,965,40,0.352070156588997,2
757,966,40,0.225667555239161,2
757,967,40,0.115643043338495,1
758,963,40,0.215503223658351,2
758,964,40,0.382755938650247,2
758,965,40,0.359528258263498,2
758,966,40,0.172754419905431,2
759,963,40,0.213038113334542,2
759,964,40,0.358940145060857,2
759,965,40,0.283267012297311,2
759,966,40,0.122508509493286,1
760,963,40,0.169602494453567,1
760,964,40,0.230045676344551,2
760,965,40,0.160753250321179,1
761,963,40,0.12398285551913,1
761,964,40,0.134754531926993,1
762,962,40,0.119816729803238,1
762,963,40,0.150592239816967,1
762,965,40,0.139514576841139,1
762,980,40,0.124846653409997,1
763,962,40,0.125928711983801,1
763,979,40,0.1203649194255,1
763,980,40,0.157498877900077,1
763,981,40,0.12514025071349,1
764,966,40,0.123358740432944,1
764,980,40,0.124099269853066,1
764,981,40,0.123130092552987,1
765,963,40,0.13455755204339,1
765,965,40,0.174433565654811,1
765,966,40,0.125176476357515,1
765,980,40,0.118747390246191,1
765,981,40,0.172395767186595,1
766,963,40,0.117800647878449,1
766,964,40,0.177893043998,1
766,965,40,0.197271726153351,1
766,966,40,0.166415297283934,1
766,967,40,0.127418956780593,1
766,980,40,0.14578445148251,1
767,964,40,0.255827665048556,1
768,977,40,0.13674748408427,1
768,978,40,0.141568745154997,1
769,974,40,0.117213441494596,1
769,975,40,0.143630933515532,1
770,972,40,0.128716131613747,1
770,973,40,0.139813320635672,1
770,974,40,0.190685607292538,1
771,972,40,0.143158245389969,1
752,966,41,0.152852409094832,1
752,967,41,0.174646503193698,1
753,965,41,0.157637432744666,1
753,966,41,0.195229381814331,1
753,967,41,0.19232970508463,1
753,968,41,0.16977548485834,1
754,965,41,0.177659885577841,1
754,966,41,0.256779306593124,1
754,967,41,0.246837369375698,1
754,968,41,0.169993686656941,1
754,969,41,0.122416543936006,1
755,965,41,0.192444882847492,1
755,966,41,0.305250607969001,1
755,967,41,0.286249009329917,1
755,968,41,0.16164790360455,1
756,963,41,0.13263795799295,1
756,964,41,0.184712651031258,2
756,965,41,0.271246717080452,2
756,966,41,0.292339651826809,1
756,967,41,0.209173722737494,1
757,963,41,0.182605557475447,2
757,964,41,0.319227182178151,2
757,965,41,0.388594202879435,2
757,966,41,0.251747710671199,2
757,967,41,0.117126222014866,1
758,963,41,0.196160036981248,2
758,964,41,0.364854817605531,2
758,965,41,0.37425440652691,2
758,966,41,0.181476061679883,2
759,963,41,0.186774886499263,1
759,964,41,0.306068746945081,2
759,965,41,0.256425317513766,2
759,966,41,0.117109746177417,1
760,963,41,0.1448001997922,1
760,964,41,0.189441487246877,1
760,965,41,0.141247625312464,1
761,963,41,0.116610006587509,1
761,964,41,0.12911489634284,1
762,963,41,0.144896416798599,1
762,965,41,0.12700211456009,1
763,980,41,0.128293165422213,1
765,963,41,0.133991343814054,1
765,965,41,0.175112643381005,1
765,966,41,0.12174812427478,1
766,963,41,0.128909166246782,1
766,964,41,0.197561236883867,1
766,965,41,0.227041020619128,1
766,966,41,0.174904145721115,1
766,967,41,0.114851060784841,1
767,963,41,0.147400555660867,1
767,964,41,0.248369492712851,1
767,968,41,0.130609133497669,1
768,977,41,0.124828882117138,1
768,978,41,0.119038797052354,1
769,975,41,0.137340967538431,1
770,972,41,0.124211974473781,1
770,973,41,0.141575987928428,1
770,974,41,0.176852051360709,1
771,972,41,0.153871638081226,1
771,973,41,0.142341189885687,1
771,974,41,0.160235727661544,1
772,971,41,0.148841714474467,1
772,972,41,0.122429015638549,1
752,966,42,0.122576874208359,1
752,967,42,0.119730746894581,1
753,965,42,0.160639226691318,1
753,966,42,0.16894110558216,1
753,967,42,0.141604853030348,1
753,968,42,0.131864830203953,1
754,965,42,0.170777825816928,1
754,966,42,0.241071485773356,1
754,967,42,0.200911072591857,1
754,968,42,0.133603307811134,1
755,965,42,0.170504732039524,1
755,966,42,0.268967987459615,1
755,967,42,0.23143551157016,1
755,968,42,0.133321192953326,1
756,964,42,0.163033499157907,1
756,965,42,0.250851538171936,2
756,966,42,0.264358191819355,1
756,967,42,0.182088376344965,1
757,963,42,0.15405174171389,1
757,964,42,0.293975411596804,2
757,965,42,0.386507012229476,2
757,966,42,0.251802402443257,2
757,967,42,0.11528076334451,1
758,963,42,0.176891645188801,2
758,964,42,0.327994635966666,2
758,965,42,0.355461705961205,2
758,966,42,0.179655805505695,2
759,963,42,0.158322763987432,1
759,964,42,0.239257141586587,2
759,965,42,0.212949009556033,2
760,963,42,0.119681460704645,1
760,964,42,0.14803479885299,1
760,965,42,0.120827185023443,1
761,963,42,0.114218796106436,1
761,964,42,0.132023052417047,1
762,963,42,0.144293182098257,1
762,964,42,0.164856122482436,1
762,965,42,0.124122081645159,1
763,963,42,0.166080681151397,1
763,965,42,0.141165104802814,1
764,963,42,0.15770843547803,1
764,965,42,0.154990805564108,1
765,963,42,0.140015341018509,1
765,964,42,0.195110141032226,1
765,965,42,0.182741603847286,1
765,966,42,0.127531190326613,1
766,963,42,0.138065598187606,1
766,964,42,0.2116426958738,1
766,965,42,0.253172311209279,1
766,966,42,0.193133087645897,1
767,963,42,0.137735469041536,1
767,964,42,0.223903333399912,1
767,965,42,0.307260471707819,1
768,964,42,0.194113511854312,1
768,969,42,0.117023551285148,1
768,977,42,0.123408226829626,1
769,970,42,0.113801577026177,1
769,975,42,0.135452299541701,1
770,971,42,0.117184847260625,1
770,973,42,0.12733890941309,1
770,974,42,0.148633405244456,1
771,971,42,0.154417413445678,1
771,972,42,0.150564093103956,1
771,973,42,0.132282826557458,1
772,971,42,0.13585045187369,1
752,968,43,0.11523113562542,1
753,966,43,0.140927164974504,1
754,965,43,0.159976259719684,1
754,966,43,0.199110295356296,1
754,967,43,0.15538849859827,1
755,965,43,0.15749076363846,1
755,966,43,0.213076670798306,1
755,967,43,0.169598337219386,1
756,964,43,0.149957019144852,1
756,965,43,0.227295989797653,1
756,966,43,0.218532163284288,1
756,967,43,0.147935248993125,1
757,963,43,0.128625167090194,1
757,964,43,0.250413603581977,1
757,965,43,0.336445456899115,2
757,966,43,0.227357582813989,1
757,967,43,0.115834476317568,1
758,963,43,0.152408904046607,1
758,964,43,0.26886642375543,2
758,965,43,0.300171763255194,2
758,966,43,0.17119257175504,1
759,963,43,0.128174466376007,1
759,964,43,0.178817504532681,1
759,965,43,0.171733035752308,1
760,964,43,0.120241827607766,1
761,964,43,0.137817918889982,1
762,963,43,0.12888585982626,1
762,964,43,0.156026051090123,1
762,965,43,0.119090014648539,1
763,963,43,0.130063770323576,1
763,964,43,0.138450371998265,1
764,963,43,0.130358827958622,1
764,964,43,0.139811589436169,1
764,965,43,0.123548359774442,1
765,963,43,0.136529352946874,1
765,964,43,0.175225289117383,1
765,965,43,0.185186257752476,1
765,966,43,0.138811038561421,1
766,963,43,0.142031846910523,1
766,964,43,0.215115270093503,1
766,965,43,0.263195767902628,1
766,966,43,0.206507369304095,1
766,967,43,0.115007363368553,1
767,963,43,0.135263904994409,1
767,964,43,0.216463014795137,1
768,977,43,0.121990056461129,1
769,975,43,0.126961013292974,1
770,970,43,0.131692734841099,1
770,974,43,0.116107793855452,1
771,971,43,0.124749788675892,1
754,965,44,0.14133924934059,1
754,966,44,0.141544861667974,1
755,965,44,0.14977202811223,1
755,966,44,0.155418105642834,1
755,967,44,0.119917869540197,1
756,964,44,0.140376678863105,1
756,965,44,0.202858471826153,1
756,966,44,0.174546211391189,1
756,967,44,0.130587935136406,1
757,964,44,0.196906537273126,1
757,965,44,0.25633633150393,1
757,966,44,0.190820158002221,1
757,967,44,0.134007690105962,1
758,963,44,0.125695471125571,1
758,964,44,0.201811743854454,1
758,965,44,0.226966685032299,1
758,966,44,0.161054691018339,1
759,964,44,0.135031983145324,1
759,965,44,0.140544357900695,1
761,964,44,0.134441973867037,1
762,964,44,0.136512252935455,1
764,965,44,0.117236029526208,1
765,963,44,0.128491440761227,1
765,964,44,0.16428136424739,1
765,965,44,0.198625842140232,1
765,966,44,0.158117669842213,1
766,963,44,0.147213845205609,1
766,964,44,0.235974952204761,1
766,967,44,0.114306510214595,1
769,969,44,0.132735482231628,1
769,975,44,0.124020977238801,1
770,969,44,0.177747729231542,1
754,965,45,0.12408032087347,1
755,965,45,0.141051328487168,1
756,964,45,0.128244479852512,1
756,965,45,0.17400087177083,1
756,966,45,0.140662326781124,1
756,967,45,0.130202183845756,1
756,968,45,0.144382898273869,1
756,969,45,0.118954545343201,1
757,964,45,0.144681759837076,1
757,965,45,0.182536415487127,1
757,966,45,0.164788523263741,1
757,967,45,0.168555366068377,1
757,968,45,0.149952685257661,1
758,964,45,0.138929666946422,1
758,965,45,0.161426286514413,1
758,966,45,0.154322009043127,1
758,967,45,0.146853520171607,1
759,965,45,0.116275802645329,1
761,964,45,0.121941947957929,1
762,964,45,0.115403596071162,1
764,965,45,0.144309928803655,1
764,966,45,0.12468799545281,1
765,963,45,0.125809930499524,1
765,964,45,0.184909795791004,1
765,966,45,0.180033666295209,1
766,963,45,0.155853213784625,1
768,968,45,0.138284035523554,1
770,968,45,0.224775198444926,1
770,969,45,0.133993369435242,1
755,965,46,0.123130116106722,1
756,965,46,0.140156416112714,1
756,966,46,0.117086581079304,1
756,967,46,0.127979264799377,1
756,968,46,0.153763290901437,1
756,969,46,0.123747353502365,1
757,965,46,0.134283398347922,1
757,966,46,0.149282734603677,1
757,967,46,0.183398411517286,1
757,968,46,0.163112545491683,1
758,965,46,0.118839061381786,1
758,966,46,0.145271097833923,1
758,967,46,0.158948810479867,1
763,965,46,0.119011062529701,1
764,964,46,0.145090746887044,1
764,965,46,0.191492946881241,1
764,966,46,0.146077648372512,1
765,963,46,0.130475572044845,1
765,964,46,0.237801285242511,1
765,966,46,0.194587601427093,1
766,963,46,0.15770977804091,1
766,967,46,0.119073668356631,1
769,968,46,0.136580758972937,1
770,967,46,0.171793898602868,1
756,967,47,0.139018511633849,1
756,968,47,0.147864481797109,1
757,966,47,0.152180951001825,1
757,967,47,0.185349485134202,1
757,968,47,0.148997628421557,1
758,966,47,0.143309778342397,1
758,967,47,0.151862575169389,1
763,965,47,0.138257690671251,1
763,966,47,0.115801053567976,1
764,964,47,0.211706408726263,1
764,966,47,0.154480031049475,1
765,963,47,0.14036944786654,1
768,967,47,0.189928731580508,1
769,967,47,0.147515073919157,1
756,966,48,0.118466429521384,1
756,967,48,0.153435740889321,1
756,968,48,0.133035851233858,1
757,966,48,0.157086840641461,1
757,967,48,0.170765613205467,1
757,968,48,0.123032179677687,1
758,966,48,0.144450886129187,1
758,967,48,0.133277571436593,1
763,964,48,0.12567090458024,1
763,965,48,0.141932862340292,1
763,966,48,0.119003077813626,1
763,978,48,0.145407485734916,1
763,979,48,0.1424560967806,1
764,964,48,0.26515209400239,1
764,966,48,0.139604563884701,1
764,977,48,0.131928448841477,1
764,978,48,0.148055749900038,1
765,977,48,0.126583788454298,1
768,967,48,0.132356090449356,1
755,967,49,0.116248704073515,1
756,966,49,0.126147702832516,1
756,967,49,0.156080330671824,1
757,966,49,0.147107441208936,1
757,967,49,0.140550328772451,1
758,966,49,0.134332343008705,1
763,964,49,0.131923090366824,1
763,965,49,0.129652286577725,1
763,977,49,0.121226079298076,1
763,978,49,0.198821573675894,1
763,979,49,0.187324877982233,1
764,964,49,0.260442854494071,1
764,965,49,0.215550990632397,1
764,966,49,0.11551736060994,1
764,977,49,0.162397995840976,1
764,978,49,0.196017195356937,1
765,966,49,0.183656466235062,1
765,976,49,0.122355751746651,1
765,977,49,0.143357568870178,1
766,967,49,0.171152495075385,1
767,967,49,0.165116815218501,1
755,967,50,0.114632906093709,1
756,966,50,0.128765559126092,1
756,967,50,0.140034537312319,1
757,966,50,0.122846505586757,1
763,977,50,0.127694570807614,1
763,978,50,0.214826642628039,1
763,979,50,0.189592572678346,1
764,965,50,0.158097154539257,1
764,977,50,0.163146038902479,1
764,978,50,0.206769522371714,1
765,966,50,0.150074882033475,1
766,967,50,0.145199023405629,1
756,966,51,0.128457476275736,1
756,967,51,0.117792568947434,1
763,977,51,0.120755605223578,1
763,978,51,0.1921496250057,1
