x,y,z,signal,mito.p
843,800,42,0.169336054606225,1
854,805,42,0.213841860978697,1
855,805,42,0.291627740194392,2
855,806,42,0.212195242936989,1
857,816,42,0.295573344068812,3
857,817,42,0.29695740862941,3
858,816,42,0.24440886155567,3
858,817,42,0.259381428991896,3
842,800,43,0.133085054985723,1
843,799,43,0.181779822419914,1
843,800,43,0.221349873017105,1
843,801,43,0.142314468173628,1
844,799,43,0.165954091604055,1
844,800,43,0.177064529601769,1
853,805,43,0.116243239607056,1
854,804,43,0.16107679619839,1
854,805,43,0.284257258413111,2
854,806,43,0.223173874235116,1
855,804,43,0.227829222798357,2
855,805,43,0.39675017816045,2
855,806,43,0.275630632404588,2
855,807,43,0.128303776379712,1
856,805,43,0.231788158086638,2
856,806,43,0.160436287712827,1
856,813,43,0.239253632080111,1
856,816,43,0.238729702804628,3
856,817,43,0.195277031019703,3
857,815,43,0.249051067134927,3
857,816,43,0.385203878301433,3
857,817,43,0.398667405060548,3
857,818,43,0.253541987075972,3
858,815,43,0.174192964254475,3
858,816,43,0.31458978156078,3
858,817,43,0.389502576213291,3
858,818,43,0.277192221463897,3
859,816,43,0.156930114090522,3
859,817,43,0.19850117222227,3
842,799,44,0.123236531880263,1
842,800,44,0.135114692084852,1
843,799,44,0.207094328373733,1
843,800,44,0.245433708107798,1
843,801,44,0.135867846306793,1
844,798,44,0.129376531228295,1
844,799,44,0.185680709528937,1
844,800,44,0.200458511132626,1
845,796,44,0.153819808087938,1
845,797,44,0.18121056398193,1
845,798,44,0.132042802223623,1
846,812,44,0.143502648099289,1
853,805,44,0.135120721840945,1
853,806,44,0.145647380523209,1
854,804,44,0.181966921511796,1
854,805,44,0.331517968484726,2
854,806,44,0.277455764201866,1
854,807,44,0.159079910567411,1
855,804,44,0.248808110361118,2
855,805,44,0.440074964942621,2
855,806,44,0.318370791936859,2
855,807,44,0.143871899998756,1
855,811,44,0.161190961150658,1
855,812,44,0.25239569746754,1
855,813,44,0.274995270410065,1
855,814,44,0.19737443221367,1
856,805,44,0.22879381889703,2
856,806,44,0.162413270437952,1
856,812,44,0.284110848397988,1
856,813,44,0.319267906585511,1
856,814,44,0.258725928554174,1
856,815,44,0.26467531930385,1
856,816,44,0.262969746264095,3
856,817,44,0.195812230757258,3
857,813,44,0.201536612678994,1
857,815,44,0.285476517491757,3
857,816,44,0.430130531029313,3
857,817,44,0.441387143504803,3
857,818,44,0.269674599501716,3
858,815,44,0.17991927758246,3
858,816,44,0.355148229305594,3
858,817,44,0.485118985930695,3
858,818,44,0.352229850910512,3
858,819,44,0.14528435858658,3
859,816,44,0.175813390543157,3
859,817,44,0.26458004444684,3
859,818,44,0.223714479554793,3
840,806,45,0.120566445179907,1
840,807,45,0.115552549889637,1
842,800,45,0.1180767565339,1
843,799,45,0.184511431475402,1
843,800,45,0.208151113790165,1
843,813,45,0.126703194112546,1
843,814,45,0.118278305842042,1
844,796,45,0.127476769422504,1
844,797,45,0.155131327145547,1
844,798,45,0.128516254620772,1
844,799,45,0.168125321979554,1
844,800,45,0.179060955934919,1
845,795,45,0.123668625144008,1
845,796,45,0.229978995721511,1
845,797,45,0.280119620939383,1
845,798,45,0.160288299597476,1
846,796,45,0.184620461713498,1
846,797,45,0.211086450874258,1
846,798,45,0.1229585507029,1
852,810,45,0.129153076946848,1
852,811,45,0.137528655473681,1
853,805,45,0.153636465816747,2
853,806,45,0.170776447923446,1
853,807,45,0.139275482879827,1
853,809,45,0.115638909658049,1
853,810,45,0.130467151584676,1
853,811,45,0.12933207355398,1
853,819,45,0.165794656373622,1
853,820,45,0.119701917123264,1
854,804,45,0.194800856941399,2
854,805,45,0.343110692754909,2
854,806,45,0.316193885111289,2
854,807,45,0.18328249181178,1
854,808,45,0.12391778832692,1
854,809,45,0.135192890484178,1
854,810,45,0.133748551916388,1
854,811,45,0.132967521849386,1
854,812,45,0.142873657390013,1
854,813,45,0.133716083093054,1
854,819,45,0.155592815470244,1
855,804,45,0.236821685414811,2
855,805,45,0.400425738466113,2
855,806,45,0.317925838333948,2
855,807,45,0.156780818742894,1
855,809,45,0.128338117724958,1
855,810,45,0.132997694183584,1
855,811,45,0.160417798031059,1
855,812,45,0.233149257755868,1
855,813,45,0.251104481729274,1
855,814,45,0.187253262851766,1
855,815,45,0.143824121247843,1
856,805,45,0.193214336253871,2
856,806,45,0.150727332262549,1
856,811,45,0.158382932002817,1
856,812,45,0.27317880638717,1
856,813,45,0.328769247640952,1
856,814,45,0.280240993334481,1
856,815,45,0.27855885626079,1
856,816,45,0.251937812864258,3
856,817,45,0.173141019130532,3
857,813,45,0.21057547615288,1
857,815,45,0.291456480989121,3
857,816,45,0.403797361378734,3
857,817,45,0.397295682656952,3
857,818,45,0.236410719851125,3
858,815,45,0.17442846627124,3
858,816,45,0.336654142988882,3
858,817,45,0.474876079090803,3
858,818,45,0.351588859573387,3
858,819,45,0.146692436179743,3
859,816,45,0.172750851514618,3
859,817,45,0.283850650290352,3
859,818,45,0.256515504764073,3
839,806,46,0.13547047124805,1
839,807,46,0.131119236730862,1
843,799,46,0.142585701205989,1
843,800,46,0.150039516100768,1
844,796,46,0.133565504066882,1
844,797,46,0.160652251906628,1
844,798,46,0.119160440315401,1
844,799,46,0.134554890471365,1
844,800,46,0.136006577804392,1
845,795,46,0.144997061907129,1
845,796,46,0.274635039591002,1
845,797,46,0.330410872290897,1
845,798,46,0.166701581152791,1
845,827,46,0.115345006156004,1
846,795,46,0.179061627216359,1
846,796,46,0.256669734619129,1
846,797,46,0.285607970885323,1
846,798,46,0.141206512268481,1
847,794,46,0.187624481488083,1
847,795,46,0.174337749061902,1
847,796,46,0.150315365665137,1
847,797,46,0.130988383957532,1
853,805,46,0.161659550926378,1
853,806,46,0.173412122617351,1
853,807,46,0.126910690738709,1
853,819,46,0.121421645957595,1
854,804,46,0.193431183712724,1
854,805,46,0.316552891136145,2
854,806,46,0.31016695546686,1
854,807,46,0.187308932103816,1
854,808,46,0.117423599692784,1
854,809,46,0.120447227951537,1
854,810,46,0.117731023038567,1
854,819,46,0.114569417001726,1
855,804,46,0.200902192833861,1
855,805,46,0.312769784477674,2
855,806,46,0.276591930980397,1
855,807,46,0.159512733996933,1
855,809,46,0.122001951097171,1
855,810,46,0.128698807841849,1
855,811,46,0.140257108328714,1
855,812,46,0.182928679385432,1
855,813,46,0.195582452298034,1
855,814,46,0.154109589686404,1
855,815,46,0.120374800217222,1
856,805,46,0.144421090654745,1
856,811,46,0.131305758756242,1
856,812,46,0.21094444540753,1
856,813,46,0.265092055532546,1
856,814,46,0.244010615008741,1
856,815,46,0.236954033850297,1
856,816,46,0.201576206507087,1
856,817,46,0.13624922837965,1
857,812,46,0.137449420710026,1
857,813,46,0.17775252241656,1
857,814,46,0.189620295424131,1
857,815,46,0.245267159649475,1
857,816,46,0.313536953171784,3
857,817,46,0.303255771512945,3
857,818,46,0.183078598907031,1
858,815,46,0.146725376077772,1
858,816,46,0.263235667929272,3
858,817,46,0.374823629634291,3
858,818,46,0.287952132781259,3
858,819,46,0.133558025756103,1
859,817,46,0.240853401743429,3
844,796,47,0.122359614559148,1
844,797,47,0.142705519054595,1
845,795,47,0.152660823016483,1
845,796,47,0.278983435883154,1
845,797,47,0.317488987215787,1
845,798,47,0.152760431760685,1
845,828,47,0.120614706782383,1
846,794,47,0.200995654053296,1
846,795,47,0.222697664826209,1
846,796,47,0.326078257001018,4
846,797,47,0.341099368684537,1
846,798,47,0.149393083850919,1
847,793,47,0.175476207053533,1
847,794,47,0.28008683414063,5
847,795,47,0.221901831236925,1
847,796,47,0.190117891624179,1
847,797,47,0.164470912927684,1
848,794,47,0.201082378904597,1
848,795,47,0.147055575885046,1
853,804,47,0.125978716562647,1
853,805,47,0.166425260513728,1
853,806,47,0.161406042079407,1
854,804,47,0.179169291337841,1
854,805,47,0.272197133830813,1
854,806,47,0.271569238370202,1
854,807,47,0.179586427980028,1
855,804,47,0.154972586750289,1
855,805,47,0.22407348557965,1
855,806,47,0.220448283158854,1
855,807,47,0.15681421793875,1
855,810,47,0.116463231489497,1
855,811,47,0.120443023609887,1
855,812,47,0.133189398030606,1
855,813,47,0.136206855210859,1
855,814,47,0.116643558882641,1
856,812,47,0.145347093959051,1
856,813,47,0.179068775774852,1
856,814,47,0.181828566873952,1
856,815,47,0.173344535175524,1
856,816,47,0.143615117182657,1
857,813,47,0.131430004706978,1
857,814,47,0.149970845187143,1
857,815,47,0.180558443505142,1
857,816,47,0.213777135315641,1
857,817,47,0.206962945641372,1
857,818,47,0.133852624093323,1
858,815,47,0.115872126962544,1
858,816,47,0.185415082285443,1
858,817,47,0.257007801373805,3
858,818,47,0.210651342732467,1
858,819,47,0.118640632943497,1
859,817,47,0.178705977598702,1
859,818,47,0.181754125295317,1
859,819,47,0.124702104139917,1
844,797,48,0.113822174767204,1
845,795,48,0.146107078764066,1
845,796,48,0.247197977054517,4
845,797,48,0.253767372763667,1
845,798,48,0.125718000272846,1
846,793,48,0.165243663856926,1
846,794,48,0.256135441700361,5
846,795,48,0.244328802411299,4
846,796,48,0.348988409489781,4
846,797,48,0.330215399846317,4
846,798,48,0.137369208466381,1
847,793,48,0.262028633238955,5
847,794,48,0.39570170721238,5
847,795,48,0.267618711765222,5
847,796,48,0.224805676977675,4
847,797,48,0.182965376104152,1
848,793,48,0.186037854808749,1
848,794,48,0.257219502341618,5
848,795,48,0.165714455906843,1
849,794,48,0.124275911086724,1
853,804,48,0.140138150191426,1
853,805,48,0.161193999582439,1
853,806,48,0.131968549074866,1
854,804,48,0.161052241429926,1
854,805,48,0.221255139895994,1
854,806,48,0.208808710510279,1
854,807,48,0.148217646495751,1
855,805,48,0.151684214513095,1
855,806,48,0.159868030308569,1
855,807,48,0.13526224445611,1
856,813,48,0.114708654904622,1
856,814,48,0.119867664754606,1
857,815,48,0.120507195760177,1
857,816,48,0.132727179540133,1
857,817,48,0.128602579058582,1
858,816,48,0.121494650758411,1
858,817,48,0.157776976846113,1
858,818,48,0.140516069865276,1
859,817,48,0.117490362753895,1
859,818,48,0.125946683483405,1
845,795,49,0.13833184960507,1
845,796,49,0.205906183778675,1
845,797,49,0.187104544570638,1
845,831,49,0.12317259526732,1
846,793,49,0.178173639639918,1
846,794,49,0.26067914556095,5
846,795,49,0.245457897793373,1
846,796,49,0.328453062305847,4
846,797,49,0.270497990960642,1
847,792,49,0.124598679690689,1
847,793,49,0.309391896271613,5
847,794,49,0.429621299284306,5
847,795,49,0.291743459693153,5
847,796,49,0.255102422002279,1
847,797,49,0.184306985057888,1
848,793,49,0.226224012222316,1
848,794,49,0.281929395701613,5
848,795,49,0.179292241833166,1
848,796,49,0.127228901695002,1
849,794,49,0.141821099868966,1
850,793,49,0.17049069401362,1
850,794,49,0.139711486063538,1
851,792,49,0.233081399446092,1
851,793,49,0.231842025477981,1
853,804,49,0.149468879769302,1
853,805,49,0.147447192055646,1
854,804,49,0.153427179106744,1
854,805,49,0.181842710891661,1
854,806,49,0.150854969951087,1
845,795,50,0.132158486391783,1
845,796,50,0.161762728061392,1
845,797,50,0.129589150791764,1
846,793,50,0.165385633993051,1
846,794,50,0.225118046607753,5
846,795,50,0.243608152343295,1
846,796,50,0.278020653422056,1
846,797,50,0.190868678695779,1
847,792,50,0.131608648008089,1
847,793,50,0.300329290633113,5
847,794,50,0.370291537764928,5
847,795,50,0.296875535847465,5
847,796,50,0.264274293416222,1
847,797,50,0.162679934045774,1
848,792,50,0.138543173713128,1
848,793,50,0.250195731535662,1
848,794,50,0.264408149290731,5
848,795,50,0.18469237126565,1
848,796,50,0.139605458926621,1
849,793,50,0.17785383880653,1
849,794,50,0.152981259800709,1
850,792,50,0.207459529030826,1
850,793,50,0.243502089875776,6
850,794,50,0.16903257651101,1
851,791,50,0.149392648106826,1
851,792,50,0.288665339869086,1
851,793,50,0.325098350974767,6
851,794,50,0.203850131166038,1
852,792,50,0.193039237789838,1
852,793,50,0.200870748597987,1
853,804,50,0.128861999892972,1
853,805,50,0.11553722818519,1
854,804,50,0.137389994637286,1
854,805,50,0.141274299917053,1
845,795,51,0.126555382650206,1
845,796,51,0.127000253815046,1
846,793,51,0.145030178458169,1
846,794,51,0.186090874265642,1
846,795,51,0.245635328077145,1
846,796,51,0.22828209045614,1
846,797,51,0.129750858957598,1
847,792,51,0.135534278315452,1
847,793,51,0.255751492270418,1
847,794,51,0.276932729968302,5
847,795,51,0.290631181677682,1
847,796,51,0.24638900048125,1
847,797,51,0.129652946082298,1
848,792,51,0.157594058542148,1
848,793,51,0.251061331287236,1
848,794,51,0.224806736895738,1
848,795,51,0.186239227463881,1
848,796,51,0.140807665101317,1
849,792,51,0.160030951491743,1
849,793,51,0.20661738879905,6
849,794,51,0.160354273608474,1
850,791,51,0.12437044400109,1
850,792,51,0.261135192972922,6
850,793,51,0.325322017239826,6
850,794,51,0.203669426913138,6
851,791,51,0.144783158665118,1
851,792,51,0.339330106346054,6
851,793,51,0.415944305027271,6
851,794,51,0.241557634858321,6
852,792,51,0.193478079198585,1
852,793,51,0.226770553083146,6
854,804,51,0.12128880289368,1
861,824,51,0.117898949390373,1
846,793,52,0.121041029381117,1
846,794,52,0.155341379351929,1
846,795,52,0.226563892614566,1
846,796,52,0.17302619467369,1
847,792,52,0.128678339646362,1
847,793,52,0.200506725627632,1
847,794,52,0.205891980876629,1
847,795,52,0.262114133296049,1
847,796,52,0.198016177270307,1
848,792,52,0.158648017510412,1
848,793,52,0.222308250929807,1
848,794,52,0.183861018644383,1
848,795,52,0.172486555057138,1
848,796,52,0.122887736399414,1
849,792,52,0.170251670713512,1
849,793,52,0.221067628613755,6
849,794,52,0.162706702865302,1
850,791,52,0.124374271482985,1
850,792,52,0.280437714127002,6
850,793,52,0.367567619003832,6
850,794,52,0.224403096543555,6
851,791,52,0.135627857303561,6
851,792,52,0.340234522652475,6
851,793,52,0.445480499957226,6
851,794,52,0.260486687994416,6
852,792,52,0.176172090369462,6
852,793,52,0.228671575013746,6
852,794,52,0.162677873093985,1
854,796,52,0.180336661538862,1
854,797,52,0.133308874350058,1
846,794,53,0.139649162881424,1
846,795,53,0.190999449031037,1
846,796,53,0.125669573794228,1
847,793,53,0.152606814302732,1
847,794,53,0.172344372937399,1
847,795,53,0.221069348036391,1
847,796,53,0.146222315411265,1
848,792,53,0.143066739130517,1
848,793,53,0.18353229094553,1
848,794,53,0.158442899811457,1
848,795,53,0.150331299766686,1
849,792,53,0.182463881761005,1
849,793,53,0.236866037097321,6
849,794,53,0.169894454772495,1
850,791,53,0.123007942884643,1
850,792,53,0.274700542527304,6
850,793,53,0.371235383023297,6
850,794,53,0.233799647033153,6
851,791,53,0.123892173640394,1
851,792,53,0.294808719178054,6
851,793,53,0.406736207969302,6
851,794,53,0.259833095409208,6
852,792,53,0.154592405917904,1
852,793,53,0.218322228846579,6
852,794,53,0.17610430272089,1
854,795,53,0.151716612675226,1
854,796,53,0.217884011611803,1
854,797,53,0.139808244805836,1
855,796,53,0.232788697184518,1
855,797,53,0.138500270585305,1
846,794,54,0.124271459430859,1
846,795,54,0.14037817452526,1
847,793,54,0.121909019836767,1
847,794,54,0.155977707049576,1
847,795,54,0.169888531008209,1
848,792,54,0.124682954953577,1
848,793,54,0.155049077503847,1
848,794,54,0.144805805581067,1
848,795,54,0.122579206028098,1
849,792,54,0.191485668777207,1
849,793,54,0.247935350274184,6
849,794,54,0.173452599710496,1
850,791,54,0.118044558578515,1
850,792,54,0.254436581475006,6
850,793,54,0.3489115300996,6
850,794,54,0.230708407778838,6
851,792,54,0.233126575509317,6
851,793,54,0.336946162192148,6
851,794,54,0.244405399156663,6
852,792,54,0.138799438347063,1
852,793,54,0.208881467996881,6
852,794,54,0.187159672086789,1
854,795,54,0.15072500044281,1
854,796,54,0.200821262201306,1
854,797,54,0.117789942706011,1
855,796,54,0.227206250068306,1
855,797,54,0.121202454902135,1
847,794,55,0.142766699880573,1
847,795,55,0.127304544514109,1
848,793,55,0.14111352212374,1
848,794,55,0.136632459420684,1
849,792,55,0.190264666722191,1
849,793,55,0.243759744180061,1
849,794,55,0.169621820292918,1
850,792,55,0.229083718264169,1
850,793,55,0.307446758195852,6
850,794,55,0.213711302627052,1
851,792,55,0.184674988609414,1
851,793,55,0.265067253449868,6
851,794,55,0.21905529173279,1
852,792,55,0.130362066597149,1
852,793,55,0.191775756574224,1
852,794,55,0.189046785537027,1
852,795,55,0.11844353529122,1
853,794,55,0.124356865273014,1
853,795,55,0.117207070209349,1
854,795,55,0.152112574509884,1
854,796,55,0.171498417000596,1
855,795,55,0.17321629686675,1
855,796,55,0.192109218573759,1
847,794,56,0.123689894166475,1
848,793,56,0.134493344562498,1
848,794,56,0.126791932808167,1
849,792,56,0.172161101327413,1
849,793,56,0.21554493732257,1
849,794,56,0.153007722421686,1
850,792,56,0.192829091368517,1
850,793,56,0.245965363008275,1
850,794,56,0.176545016651548,1
851,792,56,0.148580821531656,1
851,793,56,0.195651005442985,1
851,794,56,0.172997211803097,1
852,792,56,0.116418514724099,1
852,793,56,0.154634826194165,1
852,794,56,0.163132165752719,1
852,795,56,0.11634534504714,1
853,794,56,0.132659698090112,1
853,795,56,0.13211038966545,1
854,795,56,0.149673314409949,1
854,796,56,0.140143426228007,1
855,795,56,0.153245214729036,1
855,796,56,0.144093269774679,1
848,792,57,0.11617645299221,1
848,793,57,0.132637322042113,1
848,794,57,0.118370106523179,1
849,792,57,0.152700004654218,1
849,793,57,0.182123518517193,1
849,794,57,0.137586079478969,1
850,791,57,0.118751347273627,1
850,792,57,0.163839955481557,1
850,793,57,0.190600719632547,1
850,794,57,0.144911184990279,1
851,792,57,0.136946713349541,1
851,793,57,0.152142817505286,1
851,794,57,0.13904414987411,1
852,793,57,0.128172228771207,1
852,794,57,0.14384991258738,1
852,795,57,0.115086315487391,1
853,794,57,0.143554536976914,1
853,795,57,0.149468891546169,1
854,794,57,0.122521252063778,1
854,795,57,0.145784816565398,1
854,796,57,0.114014078820972,1
855,795,57,0.124815197397256,1
840,836,58,0.114378949725778,1
848,792,58,0.137523167453487,1
848,793,58,0.130754354049188,1
849,792,58,0.133656091730679,1
849,793,58,0.144010490173947,1
849,794,58,0.118285631053545,1
850,792,58,0.127487733686024,1
850,793,58,0.134947919866049,1
850,794,58,0.114177683062453,1
851,792,58,0.117408124889062,1
851,793,58,0.114709243747991,1
852,794,58,0.120937604931888,1
853,794,58,0.138522893947519,1
853,795,58,0.140717466074143,1
854,794,58,0.116828067063701,1
854,795,58,0.122087851567755,1
834,812,59,0.124786591386418,1
840,835,59,0.113939366374387,1
840,836,59,0.149253398427063,1
841,836,59,0.137274357576596,1
847,792,59,0.14261872354209,1
848,791,59,0.124595134853611,1
848,792,59,0.158409300408855,1
848,793,59,0.125966939695279,1
849,792,59,0.117093776745266,1
853,794,59,0.127028765610944,1
853,795,59,0.119643986712679,1
834,811,60,0.119426950823947,1
834,812,60,0.148646194922418,1
840,835,60,0.120501919723596,1
840,836,60,0.160011237015768,1
841,836,60,0.147320131433608,1
847,791,60,0.125764931089309,1
847,792,60,0.157850370283553,1
848,792,60,0.156418927385532,1
834,811,61,0.11379776132115,1
834,812,61,0.137697217776324,1
840,836,61,0.137211516212318,1
841,836,61,0.136064355115702,1
847,792,61,0.148196801440509,1
850,795,61,0.120883113366575,1
841,836,62,0.117031771538571,1
845,795,62,0.122809432008282,1
845,796,62,0.127878831674459,1
846,796,62,0.119939609637359,1
850,795,62,0.122392660448983,1
842,839,63,0.121696235397156,1
842,840,63,0.152298613683702,1
843,840,63,0.12026288464662,1
845,795,63,0.155616993378951,1
845,796,63,0.140009782337111,1
846,795,63,0.126170879707497,1
846,796,63,0.122403047646002,1
864,818,63,0.13540880757051,1
864,819,63,0.152988007945711,1
842,839,64,0.15244415221064,1
842,840,64,0.19544441563561,1
842,841,64,0.115979355339933,1
843,840,64,0.14786998159417,1
845,795,64,0.161130722474069,1
845,796,64,0.127388513578445,1
846,795,64,0.130712993690991,1
863,818,64,0.131571951289369,1
863,819,64,0.126913187434591,1
864,818,64,0.179715537776987,1
842,839,65,0.163317333438352,1
842,840,65,0.196114590050073,1
843,839,65,0.121054513894254,1
843,840,65,0.151267855144155,1
845,795,65,0.141810783333151,1
846,795,65,0.131023490799157,1
863,818,65,0.133989176870459,1
864,817,65,0.137493772392536,1
842,839,66,0.148597179600431,1
842,840,66,0.160183662130908,1
843,839,66,0.11718867474252,1
843,840,66,0.130684081481602,1
846,795,66,0.119146543611907,1
864,817,66,0.13748506928755,1
840,835,67,0.113974049248787,1
842,839,67,0.123871446353825,1
842,840,67,0.124202258558202,1
840,835,68,0.130019819054557,1
840,835,69,0.124269504470876,1
