x,y,z,signal,mito.p
540,765,40,0.131553249623988,1
545,768,40,0.139994743277481,1
547,768,40,0.128000616259916,1
548,768,40,0.149221330017219,1
565,731,40,0.127368551788256,1
575,759,40,0.156742720576957,1
579,746,40,0.153722213188056,1
579,747,40,0.145807958109777,1
579,748,40,0.116351622117447,1
537,759,41,0.122108767284202,1
538,759,41,0.134323074614086,1
538,760,41,0.150984338839129,1
538,761,41,0.146188892661674,1
539,755,41,0.130616529370377,1
539,756,41,0.116486632124958,1
539,758,41,0.116034612401625,1
539,759,41,0.129567375363999,1
539,763,41,0.132476450033861,1
540,743,41,0.114945876344023,1
540,755,41,0.149276127781084,1
540,756,41,0.144822234311046,1
540,757,41,0.113805451615541,1
540,763,41,0.115147837842523,1
540,764,41,0.18784194134404,1
541,743,41,0.125800932972854,1
541,754,41,0.122131096224732,1
541,755,41,0.159472021366441,1
541,756,41,0.144993081325958,1
541,764,41,0.12424496147928,1
541,765,41,0.121884523952641,1
542,755,41,0.115678998114571,1
542,765,41,0.118044275933698,1
543,764,41,0.114126324143859,1
543,765,41,0.130368614535405,1
544,739,41,0.115292222236459,1
544,740,41,0.116908573729031,1
544,765,41,0.137599622876442,1
544,766,41,0.177052269882838,1
544,767,41,0.189131025469313,1
545,739,41,0.12636042838779,1
545,765,41,0.132914773260444,1
545,766,41,0.179737254320414,1
545,767,41,0.192361938370617,1
546,738,41,0.119671674127862,1
546,739,41,0.119187421118542,1
546,766,41,0.151868699140421,1
546,767,41,0.165205177054366,1
546,768,41,0.13671038695206,1
547,737,41,0.119966437341224,1
547,766,41,0.113790624539524,1
547,767,41,0.140874487046765,1
547,768,41,0.130268358063499,1
548,736,41,0.123467334926948,1
548,767,41,0.139132370387566,1
548,768,41,0.143090092658508,1
554,733,41,0.145149960976172,1
555,730,41,0.116358217163173,1
555,734,41,0.125323757860823,1
558,730,41,0.136585104636995,1
560,766,41,0.120035332015329,1
562,734,41,0.126734720786491,1
564,731,41,0.14553482900177,1
565,731,41,0.145077309481377,1
566,731,41,0.140392177220561,1
566,732,41,0.115266984409689,1
566,733,41,0.120171602147648,1
566,734,41,0.137364497719433,1
566,735,41,0.115460395902479,1
567,732,41,0.115354356988695,1
567,733,41,0.125287037588369,1
567,734,41,0.137932048511649,1
567,735,41,0.115795824638865,1
568,733,41,0.121494238568054,1
568,734,41,0.12464682352449,1
569,733,41,0.116221228641944,1
569,734,41,0.115893325323807,1
572,735,41,0.122727300135255,1
578,746,41,0.166696034248261,1
578,747,41,0.150091287209719,1
579,746,41,0.15661789755972,1
579,747,41,0.137212846998331,1
538,758,42,0.147558836758298,1
538,759,42,0.194542154495918,1
538,760,42,0.169945354393261,1
538,761,42,0.133393078951742,1
538,764,42,0.15504561510484,1
539,755,42,0.129630970447789,1
539,756,42,0.125381582279602,1
539,757,42,0.120629439643461,1
539,758,42,0.159343641735258,1
539,759,42,0.183156008256244,1
539,760,42,0.128041564427755,1
539,763,42,0.163310149549257,1
539,764,42,0.2753768409128,1
539,765,42,0.224094848817056,1
540,743,42,0.115196982710051,1
540,754,42,0.129550428451856,1
540,755,42,0.172582854501609,1
540,756,42,0.160190740028197,1
540,757,42,0.122702026977882,1
540,763,42,0.173989200895268,1
540,764,42,0.263396657706198,1
541,743,42,0.124868063754872,1
541,754,42,0.163694063648598,1
541,755,42,0.209592366818704,1
541,756,42,0.162489019248866,1
541,763,42,0.137427668835997,1
541,764,42,0.162233979409137,1
542,754,42,0.124726199610553,1
542,755,42,0.150589978658432,1
542,763,42,0.135511160324808,1
542,764,42,0.125767887083019,1
543,762,42,0.120638920021692,1
543,763,42,0.150529787089312,1
543,764,42,0.137213353403628,1
543,765,42,0.156767887742523,1
543,766,42,0.202861957778894,1
544,739,42,0.116559366057825,1
544,740,42,0.119349847673287,1
544,763,42,0.130713912286646,1
544,764,42,0.14325297851108,1
544,765,42,0.205265074672876,1
544,766,42,0.251233320658284,1
544,767,42,0.209465341527269,1
545,739,42,0.139836945031613,1
545,740,42,0.114945240393185,1
545,764,42,0.116726503359516,1
545,765,42,0.208616653357236,1
545,766,42,0.288186304012011,2
545,767,42,0.256061341650879,1
546,738,42,0.114281213503488,1
546,739,42,0.129310050812001,1
546,765,42,0.141752311186667,1
546,766,42,0.21673562572098,1
546,767,42,0.229853336546691,1
547,766,42,0.132900264159846,1
547,767,42,0.162209401086939,1
547,768,42,0.129383020282215,1
548,767,42,0.125792465405217,1
554,732,42,0.145351993135876,1
554,733,42,0.171463663464992,1
554,734,42,0.119149864688505,1
555,731,42,0.123508294871655,1
555,732,42,0.175335544149686,1
555,733,42,0.195666268263095,1
555,734,42,0.134270055157194,1
556,732,42,0.140720398514117,1
556,733,42,0.145893163745187,1
556,734,42,0.114543154587495,1
557,733,42,0.1155882926821,1
558,731,42,0.123758282435283,1
558,732,42,0.131651091838084,1
558,733,42,0.131161079940622,1
559,732,42,0.156709733571458,1
559,733,42,0.134990928985678,1
560,733,42,0.125080859971351,1
560,766,42,0.118794945236625,1
561,732,42,0.141166317820153,1
561,733,42,0.136536183529947,1
561,734,42,0.137689892564821,1
562,731,42,0.139014095308586,1
562,732,42,0.126340466597601,1
562,733,42,0.147007844241602,1
562,734,42,0.158949893951665,1
563,731,42,0.128037418970442,1
563,732,42,0.115318378658884,1
563,733,42,0.12907775210316,1
563,734,42,0.140816862834732,1
564,731,42,0.14027959036852,1
564,734,42,0.122173940468218,1
565,732,42,0.117467409639394,1
565,734,42,0.134395973423096,1
565,735,42,0.116441573830406,1
566,732,42,0.129181894941298,1
566,733,42,0.138270880762704,1
566,734,42,0.18445321842,1
566,735,42,0.160685427342004,1
567,732,42,0.135973743898169,1
567,733,42,0.150025277868119,1
567,735,42,0.169222831803346,1
568,732,42,0.136694111321357,1
568,733,42,0.140220317395055,1
568,734,42,0.157310236038571,1
568,735,42,0.133217085445789,1
569,733,42,0.141247307337045,1
569,734,42,0.134597652276779,1
569,735,42,0.113997025917022,1
570,734,42,0.131863016566378,1
570,735,42,0.118097330721193,1
570,736,42,0.11684606211704,1
571,735,42,0.127889218871478,1
571,736,42,0.155562902227128,1
571,738,42,0.130196236527735,1
572,739,42,0.119475459740638,1
577,746,42,0.11541783430381,1
578,746,42,0.1494649462956,1
578,747,42,0.124963951008985,1
579,747,42,0.127840662847319,1
538,758,43,0.171063108652059,1
538,759,43,0.225794933836617,1
538,764,43,0.131221448162752,1
539,755,43,0.117900433275661,1
539,756,43,0.125293479534819,1
539,757,43,0.125846886309326,1
539,758,43,0.179369027008408,1
539,759,43,0.201756792991313,1
539,760,43,0.128215296775173,1
539,763,43,0.187947838935416,1
539,764,43,0.261025244139171,1
539,765,43,0.184884051558937,1
540,754,43,0.138706365764251,1
540,755,43,0.176910146647437,1
540,756,43,0.156086643072734,1
540,757,43,0.118888865753887,1
540,758,43,0.113893118616231,1
540,762,43,0.141795767827257,1
540,763,43,0.256536868001479,1
540,764,43,0.312241898174755,1
540,765,43,0.198014834707427,1
541,743,43,0.120108266154941,1
541,754,43,0.197406983475077,1
541,755,43,0.254490024899124,1
541,756,43,0.174483440688116,1
541,762,43,0.132254385422763,1
541,763,43,0.198794816633233,1
541,764,43,0.207087615559333,1
542,754,43,0.152400624908847,1
542,755,43,0.201884312911178,1
542,756,43,0.141932803455955,1
542,762,43,0.128290515627055,1
542,763,43,0.158690367125468,1
542,764,43,0.144244520082291,1
543,749,43,0.121190159852603,1
543,750,43,0.11686660097373,1
543,762,43,0.160785460053431,1
543,763,43,0.181469501964758,1
543,764,43,0.153810139279829,1
543,765,43,0.186508564420595,1
543,766,43,0.21235571453175,1
544,762,43,0.160569236768548,1
544,763,43,0.169313348805939,1
544,764,43,0.168794083169933,1
544,765,43,0.272912272324889,1
544,766,43,0.310709657068928,2
544,767,43,0.203173385259583,1
545,739,43,0.137311808014827,1
545,764,43,0.13544008693024,1
545,765,43,0.272234042533146,2
545,766,43,0.360619714777462,2
545,767,43,0.268322308929277,2
545,768,43,0.138377249428775,1
546,739,43,0.118136806780611,1
546,765,43,0.158756129152853,1
546,766,43,0.244689127445302,2
546,767,43,0.250719943455962,1
547,766,43,0.133146801101335,1
547,767,43,0.163315896660533,1
554,732,43,0.138947179148199,1
554,733,43,0.168240252428202,1
555,732,43,0.165162898100514,1
555,733,43,0.196092378878217,1
555,734,43,0.131488005778767,1
556,732,43,0.125344544031729,1
556,733,43,0.141477038688799,1
556,734,43,0.117164932577905,1
558,732,43,0.123484517376438,1
559,732,43,0.157186873352887,1
559,733,43,0.124747103550132,1
560,733,43,0.133284166482319,1
560,734,43,0.127350191652029,1
561,732,43,0.138570107408799,1
561,733,43,0.150820840589454,1
561,734,43,0.170326359606362,1
561,735,43,0.118989145779529,1
561,765,43,0.116678312418245,1
562,731,43,0.126692618485649,1
562,732,43,0.121719341610932,1
562,733,43,0.158295582977546,1
562,734,43,0.194371590125822,1
562,735,43,0.137052257634896,1
562,764,43,0.12618111380524,1
562,765,43,0.123420627870965,1
563,731,43,0.12034836114998,1
563,733,43,0.139470684456457,1
563,734,43,0.179453549585511,1
563,735,43,0.13724601065684,1
564,733,43,0.120544657975276,1
564,734,43,0.16139613773395,1
564,735,43,0.144037188332271,1
565,732,43,0.123190778750537,1
565,733,43,0.121773927391185,1
565,734,43,0.16466206326194,1
565,735,43,0.162067254297803,1
566,732,43,0.147505381557313,1
566,733,43,0.156380016615747,1
566,736,43,0.115432508280551,1
567,732,43,0.169539794411697,1
567,736,43,0.115889391850106,1
568,735,43,0.162278743282004,1
569,734,43,0.155880795208002,1
569,735,43,0.13216946243217,1
570,735,43,0.15016906164182,1
570,736,43,0.126134701170941,1
571,736,43,0.159762050279121,1
571,737,43,0.154670262788076,1
571,738,43,0.127205948580501,1
572,738,43,0.170024365396436,1
572,739,43,0.123564258545389,1
574,737,43,0.164255219601833,1
576,748,43,0.119609362722616,1
577,746,43,0.116629897716494,1
577,747,43,0.121903237394889,1
577,748,43,0.119673169790018,1
578,747,43,0.121203361720923,1
539,757,44,0.118545958706723,1
539,758,44,0.166443349782005,1
539,759,44,0.179193221932333,1
539,763,44,0.184755836803898,1
539,764,44,0.196934448448789,1
540,754,44,0.13324612720072,1
540,755,44,0.163616041902283,1
540,756,44,0.141192544903782,1
540,762,44,0.184659019177262,1
540,763,44,0.298168942083062,1
540,764,44,0.28413751122571,1
540,765,44,0.164979273184506,1
541,754,44,0.193094530182133,1
541,755,44,0.258016207419087,1
541,756,44,0.179066031764755,1
541,762,44,0.162320657152968,1
541,763,44,0.241297224767072,1
541,764,44,0.220678073394945,1
541,765,44,0.153495378945675,1
542,750,44,0.115887754865542,1
542,754,44,0.156398294313902,1
542,755,44,0.222986386506612,1
542,756,44,0.161091423067661,1
542,762,44,0.133977988846459,1
542,763,44,0.164227202434363,1
542,764,44,0.156202821869322,1
543,749,44,0.162811257893799,1
543,750,44,0.15676145757294,1
543,762,44,0.174590798611046,1
543,763,44,0.17671349651612,1
543,764,44,0.15779359400597,1
543,765,44,0.197618896426503,1
543,766,44,0.197721496495016,1
544,749,44,0.134839902438546,1
544,750,44,0.117902918194676,1
544,761,44,0.115382821677124,1
544,762,44,0.188001953640974,1
544,763,44,0.172429472581003,1
544,764,44,0.170699768740011,1
544,765,44,0.287912421184493,1
544,766,44,0.305339028689203,2
544,767,44,0.175898973038322,1
545,764,44,0.138315079345937,1
545,765,44,0.280072160163889,2
545,766,44,0.344993107235067,2
545,767,44,0.231405362789697,2
546,765,44,0.155655633280787,1
546,766,44,0.225196621866835,2
546,767,44,0.222608184187944,1
547,766,44,0.120921611946002,1
554,733,44,0.133876248489263,1
555,732,44,0.138140557948406,1
555,733,44,0.167147017607265,1
555,734,44,0.116208862931208,1
556,733,44,0.131568512444098,1
559,731,44,0.157883380842787,1
559,732,44,0.151944589273742,1
559,733,44,0.120708262216757,1
560,732,44,0.1620755923199,1
560,733,44,0.154989568993035,1
560,734,44,0.14516267999293,1
561,731,44,0.16074935217808,1
561,732,44,0.140304416004932,1
561,733,44,0.177947264695364,1
561,734,44,0.19490068944608,1
561,735,44,0.132778090937767,1
562,731,44,0.120999233278827,1
562,732,44,0.117976971136688,1
562,733,44,0.16568162200062,1
562,734,44,0.210294809849757,1
562,735,44,0.160430069526856,1
562,764,44,0.118188071484266,1
562,765,44,0.119630407984603,1
563,733,44,0.139933362244758,1
563,734,44,0.200520269025105,1
563,735,44,0.184298187737963,1
564,733,44,0.124651322287825,1
564,734,44,0.195778018957553,1
564,736,44,0.1293782977584,1
565,732,44,0.124495149249653,1
565,733,44,0.126425189381449,1
565,736,44,0.158721587600862,1
566,732,44,0.158413940494598,1
568,736,44,0.133585819163092,1
569,735,44,0.154295923281906,1
569,736,44,0.129720615962196,1
570,736,44,0.141070984078806,1
570,737,44,0.122512808049875,1
571,737,44,0.143690712894294,1
571,738,44,0.144495485125911,1
571,739,44,0.132483598592353,1
572,738,44,0.155716590346285,1
572,739,44,0.160466860460515,1
572,740,44,0.122921288694546,1
573,738,44,0.150040411142688,1
575,748,44,0.117598380181398,1
575,749,44,0.121181421417015,1
575,754,44,0.130686919706637,1
576,746,44,0.114496706622594,1
576,747,44,0.147630310566356,1
576,748,44,0.174565878759694,1
576,749,44,0.161247030816199,1
576,750,44,0.129212444135252,1
576,753,44,0.117250397304398,1
576,754,44,0.136975590228328,1
577,746,44,0.134143571601658,1
577,747,44,0.147541006581102,1
577,748,44,0.150305944171242,1
577,749,44,0.129541030511696,1
578,747,44,0.12689520415812,1
539,748,45,0.124105935559997,1
539,762,45,0.146683803735962,1
539,763,45,0.172643010740126,1
539,764,45,0.137886625134209,1
540,748,45,0.159504231098693,1
540,749,45,0.154450270905635,1
540,750,45,0.136812068424918,1
540,751,45,0.120342908460388,1
540,753,45,0.122179522703351,1
540,754,45,0.145595279661972,1
540,755,45,0.162660184239197,1
540,756,45,0.139010079396813,1
540,761,45,0.118414210891473,1
540,762,45,0.224873770824799,1
540,763,45,0.303769195822736,1
540,764,45,0.228899669380936,1
540,765,45,0.136127561562868,1
541,748,45,0.118669509822284,1
541,749,45,0.127742596872742,1
541,750,45,0.135528295666829,1
541,751,45,0.13764120699512,1
541,752,45,0.129763118676529,1
541,753,45,0.141914349104789,1
541,754,45,0.190728863726382,1
541,755,45,0.248321254664111,1
541,756,45,0.192917123452096,1
541,757,45,0.116994014901788,1
541,762,45,0.187046979242942,1
541,763,45,0.270252867243237,1
541,764,45,0.229488913162845,1
541,765,45,0.166773384713136,1
542,749,45,0.119325893525059,1
542,750,45,0.129364601261651,1
542,751,45,0.117147090623842,1
542,753,45,0.119795354788964,1
542,754,45,0.155002017141843,1
542,755,45,0.213214601468924,1
542,756,45,0.169952714935367,1
542,762,45,0.136696101611942,1
542,763,45,0.176621684058116,1
542,764,45,0.183152227881818,1
543,749,45,0.173775851166023,1
543,750,45,0.166412141083479,1
543,762,45,0.161028228397362,1
543,763,45,0.158399690485083,1
543,764,45,0.165609476911122,1
544,749,45,0.142156304844871,1
544,750,45,0.12629003805153,1
544,761,45,0.116538273688368,1
544,762,45,0.17461906309273,1
544,763,45,0.151013675015743,1
544,764,45,0.162628056945017,1
544,765,45,0.260122241056835,1
544,766,45,0.253443956431997,1
545,764,45,0.131537256638102,1
545,765,45,0.240215213300737,1
545,766,45,0.267090613478691,2
545,767,45,0.173618076473889,1
546,765,45,0.139588712221223,1
546,766,45,0.177478992895063,1
551,765,45,0.117043371752929,1
555,733,45,0.124029515467643,1
556,733,45,0.115351459879322,1
559,731,45,0.129043151666832,1
559,732,45,0.133879911095015,1
559,733,45,0.119182663264126,1
560,731,45,0.152300945503441,1
560,732,45,0.153515093421649,1
560,733,45,0.176599578878066,1
560,734,45,0.157092905728155,1
561,731,45,0.132229783546831,1
561,732,45,0.138578433654028,1
561,733,45,0.200657987712111,1
561,734,45,0.200604120320768,1
561,735,45,0.137856582345553,1
562,731,45,0.117842950386036,1
562,733,45,0.163395190308524,1
562,734,45,0.204383976563846,1
562,735,45,0.179825851693627,1
562,736,45,0.11417572810247,1
563,733,45,0.133249624930328,1
563,734,45,0.208209998127007,1
563,736,45,0.157682502816085,1
564,733,45,0.127741760715159,1
565,732,45,0.126704312914946,1
567,737,45,0.133008505347828,1
568,737,45,0.133151052550455,1
569,736,45,0.16978515366645,1
569,737,45,0.139781770407992,1
570,737,45,0.140789375626294,1
570,738,45,0.138031351057299,1
571,737,45,0.137885553439279,1
571,738,45,0.163547100120708,1
571,739,45,0.178614200471301,1
571,740,45,0.13164497964392,1
572,738,45,0.154155201493721,1
572,739,45,0.215938355353877,1
572,740,45,0.201538190779222,1
572,741,45,0.133430034761544,1
573,738,45,0.138970544453058,1
573,742,45,0.116711982482051,1
575,746,45,0.121778355493315,1
575,747,45,0.132186444674915,1
575,748,45,0.14503836338099,1
575,749,45,0.152879825642065,1
575,750,45,0.142605780764852,1
575,753,45,0.125620841117058,1
575,754,45,0.155487706928981,1
575,755,45,0.123222858937248,1
576,745,45,0.14241828125948,1
576,748,45,0.215877563164522,1
576,749,45,0.195031577550012,1
576,750,45,0.153699000982473,1
576,753,45,0.13017410779395,1
576,754,45,0.154630139000952,1
577,747,45,0.187187288840768,1
577,748,45,0.173527512363826,1
577,749,45,0.142469899269156,1
577,750,45,0.115748693615657,1
578,747,45,0.140099592727662,1
578,748,45,0.120868345174895,1
539,748,46,0.1607737420704,1
539,749,46,0.13729411916004,1
539,754,46,0.119962633413064,1
539,762,46,0.150566036287072,1
539,763,46,0.145137713034109,1
540,747,46,0.123563999454307,1
540,748,46,0.192222676913986,1
540,749,46,0.185500064160373,1
540,750,46,0.157447660303892,1
540,751,46,0.135418229064404,1
540,752,46,0.12661452607813,1
540,753,46,0.157045433175793,1
540,754,46,0.183981154468407,1
540,755,46,0.18683978881533,1
540,756,46,0.164035840116495,1
540,757,46,0.145910958591781,1
540,758,46,0.125608063215963,1
540,761,46,0.127922500298661,1
540,762,46,0.217662017661909,1
540,763,46,0.253176056253102,1
540,764,46,0.171095412599251,1
541,748,46,0.121506404072045,1
541,749,46,0.135515011360437,1
541,750,46,0.146956426438672,1
541,751,46,0.154013243134463,1
541,752,46,0.159674018195543,1
541,753,46,0.183353624090685,1
541,754,46,0.208733432774061,1
541,755,46,0.242111736468003,1
541,756,46,0.22059485805012,1
541,757,46,0.172144896357914,1
541,758,46,0.128778655002606,1
541,762,46,0.190230502029955,1
541,763,46,0.260334106900792,1
541,764,46,0.218246432928197,1
541,765,46,0.168316672520555,1
542,750,46,0.126362618885121,1
542,751,46,0.125626623558935,1
542,752,46,0.13923823264834,1
542,753,46,0.152486054304737,1
542,754,46,0.158388938205175,1
542,755,46,0.185488899690108,1
542,756,46,0.170117225995635,1
542,757,46,0.1301727181236,1
542,762,46,0.141370717130198,1
542,763,46,0.191168070218017,1
542,764,46,0.206303276192601,1
543,749,46,0.14834026723879,1
543,750,46,0.143666652754261,1
543,762,46,0.13258161745946,1
544,749,46,0.126613254176454,1
544,750,46,0.117149657980929,1
544,762,46,0.131554415533858,1
544,763,46,0.124365109080172,1
544,764,46,0.153263822179478,1
545,764,46,0.120656761975755,1
545,766,46,0.176981302480076,1
560,732,46,0.133607005747488,1
560,733,46,0.173465460049663,1
560,734,46,0.155892984265728,1
561,732,46,0.131520757246919,1
561,733,46,0.194220422256282,1
561,734,46,0.183333520978087,1
561,735,46,0.129801028412588,1
562,733,46,0.148335638929914,1
562,734,46,0.183627306711458,1
562,736,46,0.136264232108677,1
563,733,46,0.123856265971788,1
565,732,46,0.123385850781626,1
568,738,46,0.115353037979549,1
569,738,46,0.130406394725923,1
570,737,46,0.161927180237324,1
570,738,46,0.160260835942773,1
570,739,46,0.126082588532836,1
571,737,46,0.139701734817357,1
571,738,46,0.164272590481201,1
571,739,46,0.194227617922244,1
571,740,46,0.157917710411165,1
572,738,46,0.146021873128656,1
572,739,46,0.231825372987522,1
572,741,46,0.171089983463394,1
573,738,46,0.135479209683638,1
573,742,46,0.129873809452924,1
574,749,46,0.122743599319693,1
574,750,46,0.135547656836782,1
574,751,46,0.143263624799181,1
574,752,46,0.140186246917758,1
574,753,46,0.129929113622086,1
574,754,46,0.125039370067612,1
575,744,46,0.114217159121872,1
575,745,46,0.125078551705347,1
575,748,46,0.171441982252167,1
575,749,46,0.175302604251656,1
575,750,46,0.170309777777108,1
575,751,46,0.143749844545351,1
575,752,46,0.124585030301409,1
575,753,46,0.140012844322627,1
575,754,46,0.162258816822417,1
576,749,46,0.204510059705891,1
576,750,46,0.163683087608211,1
576,751,46,0.117947352315257,1
576,753,46,0.125636186375239,1
577,748,46,0.184204891394671,1
577,749,46,0.149238053168882,1
577,750,46,0.120021270435691,1
539,763,47,0.117788423490121,1
540,748,47,0.187307047805037,1
540,749,47,0.186205204094054,1
540,750,47,0.156547024371897,1
540,751,47,0.134087549043586,1
540,752,47,0.135007404823127,1
540,753,47,0.182012827740797,1
540,754,47,0.219105578956453,1
540,755,47,0.211419853989456,1
540,762,47,0.185940872305971,1
540,763,47,0.18760221143189,1
540,764,47,0.131730621023423,1
541,749,47,0.122956030453283,1
541,750,47,0.135026294918385,1
541,751,47,0.146345831196224,1
541,752,47,0.171679286129639,1
541,753,47,0.211897712159795,1
541,754,47,0.220709446969614,1
541,755,47,0.221603311202872,1
541,756,47,0.230585975465676,1
541,757,47,0.241677099400906,1
541,758,47,0.19439258828034,1
541,762,47,0.191750577631791,1
541,763,47,0.230810630987595,1
541,764,47,0.196705741684495,1
542,751,47,0.121418324880997,1
542,752,47,0.152038604005944,1
542,753,47,0.173739366430916,1
542,754,47,0.154697443797962,1
542,755,47,0.147966610790927,1
542,756,47,0.151325444025586,1
542,757,47,0.153025976566107,1
542,758,47,0.128583418095373,1
542,763,47,0.202965382228123,1
543,750,47,0.119845147384198,1
546,745,47,0.113809832610202,1
546,746,47,0.119504631041109,1
560,733,47,0.150802739544309,1
560,734,47,0.144927507728451,1
561,732,47,0.122379858994154,1
561,733,47,0.160098574264172,1
561,734,47,0.150748860376098,1
561,735,47,0.116407821328529,1
562,733,47,0.129284695216557,1
562,734,47,0.158827261431758,1
562,736,47,0.148446871442208,1
563,733,47,0.120362481613955,1
563,737,47,0.127640950730486,1
565,732,47,0.12682986609796,1
570,738,47,0.174845332045478,1
570,739,47,0.14186435630281,1
570,751,47,0.114209492381215,1
570,752,47,0.121760996390814,1
571,737,47,0.146417705417774,1
571,738,47,0.155733525481561,1
571,739,47,0.186908023984862,1
571,741,47,0.115844286448085,1
572,738,47,0.138925533265976,1
573,738,47,0.143067139544007,1
573,742,47,0.13464235726531,1
573,751,47,0.118000030242995,1
573,752,47,0.140877101511321,1
573,753,47,0.152682268691961,1
573,754,47,0.140442370229285,1
574,742,47,0.14690577413212,1
574,746,47,0.118760898313063,1
574,747,47,0.126286999619749,1
574,748,47,0.129917913821218,1
574,749,47,0.143625822355095,1
574,750,47,0.162363065652361,1
574,751,47,0.180715546915836,1
574,752,47,0.188056680743635,1
574,753,47,0.180489254409353,1
574,754,47,0.158164694873614,1
575,744,47,0.11982012154104,1
575,745,47,0.137938066490874,1
575,749,47,0.185295123114429,1
575,750,47,0.183982873891043,1
575,751,47,0.162012079674182,1
575,752,47,0.141019271854191,1
575,753,47,0.142534436502334,1
576,750,47,0.15982609288387,1
576,751,47,0.118579781869805,1
540,763,48,0.133359114466252,1
541,751,48,0.123922251759652,1
541,752,48,0.168104476924312,1
541,753,48,0.215315052871539,1
541,754,48,0.206949072491612,1
541,755,48,0.178046355257401,1
541,763,48,0.19576246171576,1
542,752,48,0.148106673074539,1
542,753,48,0.176287750983887,1
542,754,48,0.141818591396216,1
542,756,48,0.114889441595594,1
542,757,48,0.143401814560881,1
546,745,48,0.117335697154747,1
546,746,48,0.1424393147446,1
546,747,48,0.12837395473236,1
548,760,48,0.113947480636004,1
548,761,48,0.118017589552242,1
560,734,48,0.115096325824654,1
560,739,48,0.115915406950123,1
562,734,48,0.132017564396853,1
563,733,48,0.120275403456633,1
564,733,48,0.146897577432432,1
564,738,48,0.116616731178776,1
565,733,48,0.165486549969531,1
566,761,48,0.115768113669947,1
567,760,48,0.114121507405106,1
568,751,48,0.115311288984729,1
568,752,48,0.118277081047836,1
569,750,48,0.120816844933893,1
569,751,48,0.17546552543483,1
569,752,48,0.166986192706482,1
570,738,48,0.172844666040075,1
570,739,48,0.144659195359198,1
570,750,48,0.125471969736654,1
570,751,48,0.161381852393832,1
570,752,48,0.151587703085012,1
571,737,48,0.150373684712345,1
571,738,48,0.141941494784073,1
571,739,48,0.166267474044726,1
571,740,48,0.170132901006102,1
571,741,48,0.126623123191309,1
571,748,48,0.122548692164747,1
572,737,48,0.135301991383479,1
572,738,48,0.132630986087468,1
572,739,48,0.185122285808931,1
572,741,48,0.188344012753688,1
572,742,48,0.117565240076623,1
572,748,48,0.150248873471975,1
572,749,48,0.120387059936152,1
572,753,48,0.118049033788115,1
572,754,48,0.116571708214827,1
573,738,48,0.1498599188734,1
573,739,48,0.170685601168567,1
573,741,48,0.201125976867594,1
573,742,48,0.129996701063913,1
573,747,48,0.11714061334679,1
573,748,48,0.141566260235982,1
573,749,48,0.128379254322676,1
573,750,48,0.124365686146673,1
573,751,48,0.144779696266111,1
573,752,48,0.170007724682844,1
573,753,48,0.190243798113214,1
573,754,48,0.17894746226409,1
574,739,48,0.145175964299322,1
574,740,48,0.167480020308972,1
574,741,48,0.17139229564874,1
574,742,48,0.133490026123918,1
574,746,48,0.131301648629531,1
574,748,48,0.153590748017623,1
574,749,48,0.1589594449911,1
574,750,48,0.175364044168717,1
574,751,48,0.194635780591496,1
574,752,48,0.212240466107683,1
574,753,48,0.219851808380381,1
575,743,48,0.144827286587147,1
575,744,48,0.120817704645211,1
575,749,48,0.185108153568089,1
575,750,48,0.184096037809586,1
575,751,48,0.165187158447293,1
575,752,48,0.144931040788662,1
576,750,48,0.14786008902558,1
541,753,49,0.19342332854219,1
542,752,49,0.125211642083477,1
542,753,49,0.154903527200041,1
542,754,49,0.119857901731558,1
545,754,49,0.117166098487775,1
545,755,49,0.122223980377666,1
546,746,49,0.13983834647883,1
546,747,49,0.128185136217843,1
547,761,49,0.122624570521201,1
548,760,49,0.143389719718094,1
548,761,49,0.154115925641048,1
551,745,49,0.114670603846155,1
551,746,49,0.128616381547137,1
560,739,49,0.145897156103225,1
562,734,49,0.119342875767805,1
563,733,49,0.127197127706842,1
564,733,49,0.160863163824328,1
565,733,49,0.165348171777953,1
568,751,49,0.149302625732662,1
568,752,49,0.147474219966256,1
569,739,49,0.115749200020953,1
569,749,49,0.130576299591446,1
569,750,49,0.168443179629826,1
569,751,49,0.232717941765369,1
569,752,49,0.20558453397711,1
569,753,49,0.120839244535628,1
570,738,49,0.162740808673201,1
570,739,49,0.137582087120931,1
570,740,49,0.118186328507895,1
570,748,49,0.176187105875357,1
570,749,49,0.17918164527171,1
570,750,49,0.176852063137576,1
570,751,49,0.195572277084628,1
570,752,49,0.163886309231519,1
571,737,49,0.157694044146106,1
571,738,49,0.137953823939413,1
571,739,49,0.147445731724092,1
571,740,49,0.154168850883001,1
571,741,49,0.126778354080091,1
571,747,49,0.127229938059331,1
571,748,49,0.202498547205641,1
571,749,49,0.165748432169201,1
571,750,49,0.13232600055323,1
571,751,49,0.138303090494956,1
571,752,49,0.128032307810004,1
572,738,49,0.135708328638289,1
572,739,49,0.158675987570412,1
572,740,49,0.192781925014707,1
572,741,49,0.16783960340033,1
572,742,49,0.123033828439118,1
572,747,49,0.132570688526542,1
572,748,49,0.184503576304867,1
572,749,49,0.140304557327341,1
572,750,49,0.126182962773416,1
572,751,49,0.158613287528542,1
572,752,49,0.155169484195821,1
572,753,49,0.131495130783525,1
572,754,49,0.121183399930733,1
573,739,49,0.159552704684781,1
573,740,49,0.199489204287006,1
573,741,49,0.182106124084089,1
573,742,49,0.126692983568538,1
573,746,49,0.115996773326771,1
573,747,49,0.138208463365652,1
573,748,49,0.16354735921179,1
573,749,49,0.141238321587243,1
573,750,49,0.147924002084788,1
573,751,49,0.186504077434128,1
573,752,49,0.194222330108796,1
573,753,49,0.19686901617369,1
574,740,49,0.169624458311209,1
574,741,49,0.166925848038087,1
574,742,49,0.131171266930896,1
574,745,49,0.127031721604654,1
574,748,49,0.177247177037784,1
574,749,49,0.166612913118375,1
574,750,49,0.171625748490582,1
574,751,49,0.187643972203578,1
574,752,49,0.199767562324124,1
575,742,49,0.165339774871519,1
575,743,49,0.145875109807511,1
575,744,49,0.132156825853484,1
575,749,49,0.176525985233881,1
575,750,49,0.170444834892088,1
542,753,50,0.116476044721193,1
545,754,50,0.117124620360904,1
545,755,50,0.12199215274352,1
547,760,50,0.128036677027798,1
547,761,50,0.143506911325276,1
548,760,50,0.148137387144635,1
548,761,50,0.163866924507831,1
550,746,50,0.116583708842675,1
551,744,50,0.115493500676652,1
551,745,50,0.131374782975888,1
551,746,50,0.165343154832454,1
551,747,50,0.13345632072951,1
552,746,50,0.136837000053137,1
560,739,50,0.141597398273304,1
562,735,50,0.125015027282762,1
563,734,50,0.146434675883651,1
565,734,50,0.145347847678563,1
568,749,50,0.117412305676978,1
568,750,50,0.146385248371306,1
568,751,50,0.182654808334781,1
568,752,50,0.160494948289189,1
569,748,50,0.159323326639048,1
569,749,50,0.197453584539253,1
569,750,50,0.217605041177581,1
569,751,50,0.255452194963119,1
569,752,50,0.207069502737321,1
569,753,50,0.121501775763169,1
570,738,50,0.140812493616938,1
570,739,50,0.121119804846944,1
570,747,50,0.130700745748928,1
570,748,50,0.245836076558306,1
570,749,50,0.266147592601037,1
570,750,50,0.219908172467606,1
570,751,50,0.199888392983324,1
570,752,50,0.155403184351878,1
571,737,50,0.156421259205271,1
571,738,50,0.133154868255482,1
571,739,50,0.12968251779626,1
571,740,50,0.131521004561134,1
571,741,50,0.117412364561315,1
571,747,50,0.138650060561363,1
571,748,50,0.237898161753483,1
571,749,50,0.204299041796385,1
571,750,50,0.152964501318444,1
571,751,50,0.153502786595249,1
571,752,50,0.135816581603139,1
572,738,50,0.137219736465741,1
572,739,50,0.137524616008173,1
572,740,50,0.151164324703119,1
572,741,50,0.140523371523045,1
572,742,50,0.116844354471271,1
572,747,50,0.132950692705917,1
572,748,50,0.178631288705852,1
572,749,50,0.138608853302441,1
572,750,50,0.140282122395004,1
572,751,50,0.197025683840291,1
572,752,50,0.181187599090562,1
572,753,50,0.132086341302284,1
573,739,50,0.144829088447854,1
573,740,50,0.167135005202549,1
573,741,50,0.154515962271816,1
573,742,50,0.118458197491094,1
573,746,50,0.127516987424567,1
573,747,50,0.155766559594529,1
573,748,50,0.170740846453392,1
573,749,50,0.140725321244677,1
573,750,50,0.152792146864508,1
573,751,50,0.206903095601406,1
573,752,50,0.195656187264628,1
574,741,50,0.149901526545813,1
574,742,50,0.122992409196584,1
574,744,50,0.119556154835846,1
574,745,50,0.147157222027302,1
574,749,50,0.165016181886839,1
574,750,50,0.15049238375855,1
575,742,50,0.144755789225353,1
547,760,51,0.139726207147748,1
548,760,51,0.132535204825162,1
548,761,51,0.145857091200438,1
550,746,51,0.129174699275336,1
550,753,51,0.115788487650494,1
551,745,51,0.130973427335975,1
551,746,51,0.175031842293991,1
551,747,51,0.141262617264624,1
551,753,51,0.113965864325966,1
552,745,51,0.115604945172558,1
552,746,51,0.146527984003811,1
552,747,51,0.125545480942767,1
563,735,51,0.140711518756122,1
567,750,51,0.147599254967106,1
567,751,51,0.153601688727409,1
567,752,51,0.11487907795231,1
568,738,51,0.155460796787044,1
568,748,51,0.116314583869573,1
568,749,51,0.155842755926402,1
568,750,51,0.205241780029222,1
568,751,51,0.225750935460129,1
568,752,51,0.163377183478318,1
569,738,51,0.126351654621601,1
569,747,51,0.114448998532885,1
569,748,51,0.193064039872516,1
569,749,51,0.252175729138834,1
569,750,51,0.247050530675065,1
569,751,51,0.241821766439659,1
569,752,51,0.179108263611138,1
569,753,51,0.115136143413226,1
570,737,51,0.154082373345915,1
570,738,51,0.118107176182313,1
570,747,51,0.134063465349818,1
570,748,51,0.265615231088518,1
570,749,51,0.313172176481916,1
570,750,51,0.230540964278594,1
570,751,51,0.177672533933395,1
570,752,51,0.136622319537879,1
571,738,51,0.129143655452953,1
571,739,51,0.116251353868673,1
571,740,51,0.114279187882301,1
571,747,51,0.12843705518772,1
571,748,51,0.218820908518425,1
571,749,51,0.21315501052004,1
571,750,51,0.157015390387137,1
571,751,51,0.151862798929869,1
571,752,51,0.134448863334448,1
572,739,51,0.120622232200631,1
572,740,51,0.121148528626455,1
572,741,51,0.118638713314116,1
572,747,51,0.117654673607418,1
572,748,51,0.149472047746624,1
572,749,51,0.132637592910062,1
572,750,51,0.144483307845052,1
572,751,51,0.206916262139124,1
572,752,51,0.187199984303791,1
573,741,51,0.128169355215569,1
573,746,51,0.132714024779283,1
573,749,51,0.134736042245225,1
573,750,51,0.149280332122734,1
573,751,51,0.20739346080489,1
574,742,51,0.11430272984017,1
574,743,51,0.117547162585213,1
574,744,51,0.13839579799488,1
550,746,52,0.116709650662312,1
550,750,52,0.122658323023079,1
550,753,52,0.14675666721437,1
550,754,52,0.117273786162991,1
551,746,52,0.146536840208072,1
551,747,52,0.122433643947425,1
551,750,52,0.113804415251213,1
551,752,52,0.120285331355825,1
551,753,52,0.139214313830715,1
551,756,52,0.117516083432228,1
552,746,52,0.128090779956488,1
552,747,52,0.116506323047198,1
552,751,52,0.12668335009103,1
552,752,52,0.136397228271868,1
553,751,52,0.143684624253865,1
553,752,52,0.138469909821229,1
560,741,52,0.114342311891395,1
563,736,52,0.13841414635424,1
563,737,52,0.168367536810719,1
563,738,52,0.114391668742536,1
564,738,52,0.161079775745834,1
566,738,52,0.156745417479585,1
566,750,52,0.124874364378914,1
566,751,52,0.120433555008523,1
567,738,52,0.14797751617011,1
567,749,52,0.12900149688695,1
567,750,52,0.198253858007535,1
567,751,52,0.207847930116634,1
567,752,52,0.126271124402536,1
568,737,52,0.15216464004052,1
568,738,52,0.122330455035544,1
568,748,52,0.131157652872218,1
568,749,52,0.192752836152307,1
568,750,52,0.277107569341253,1
568,751,52,0.282156665688088,1
568,752,52,0.163040482840256,1
569,747,52,0.12045258642619,1
569,748,52,0.200032000104013,1
569,749,52,0.2716906107653,1
569,750,52,0.259176747037034,1
569,751,52,0.218127203922959,1
569,752,52,0.142427196348078,1
570,747,52,0.12500845579077,1
570,748,52,0.232377213438668,1
570,749,52,0.298349669889697,1
570,750,52,0.215688167583504,1
570,751,52,0.145341747261266,1
571,748,52,0.16706022209476,1
571,749,52,0.192576524670935,1
571,750,52,0.151816598279183,1
571,751,52,0.136802116971992,1
571,752,52,0.121407384171212,1
572,748,52,0.115640475981409,1
572,749,52,0.120620559885465,1
572,750,52,0.134715550496004,1
572,751,52,0.180120956436143,1
563,737,53,0.147760103421623,1
564,737,53,0.207770179238268,1
564,738,53,0.145020332997049,1
565,738,53,0.138132655670401,1
566,738,53,0.121059189310599,1
567,750,53,0.219541723462572,1
567,751,53,0.229011643835875,1
568,749,53,0.215587593136178,1
568,750,53,0.308005452783806,1
568,751,53,0.299672659616123,1
568,752,53,0.158233601324587,1
569,748,53,0.183117073932724,1
569,749,53,0.245782279828167,1
569,750,53,0.241137836644109,1
569,751,53,0.190089061852861,1
569,752,53,0.118173633044872,1
570,748,53,0.178342037066418,1
570,749,53,0.237212606750237,1
570,750,53,0.187492462804884,1
570,751,53,0.125375163886886,1
571,748,53,0.124769161622713,1
571,749,53,0.160839009469355,1
571,750,53,0.145889618908109,1
571,751,53,0.125405771965177,1
567,750,54,0.204797344608475,1
568,749,54,0.215703077097592,1
568,750,54,0.280830472653737,1
568,751,54,0.26219857343508,1
569,749,54,0.198172903821245,1
569,750,54,0.199980205441327,1
568,750,55,0.21407200452081,1
