x,y,z,signal,mito.p
551,925,33,0.149545394076594,1
545,921,34,0.225685597399969,1
546,921,34,0.232768205435298,1
550,924,34,0.163944875592942,1
550,925,34,0.15621872064027,1
550,926,34,0.130345920511987,1
551,923,34,0.163584821426889,1
551,924,34,0.144753539843686,1
551,925,34,0.119089166714088,1
552,922,34,0.118477499776711,1
552,923,34,0.125556362768216,1
573,936,34,0.123299255475866,1
573,939,34,0.128438986593968,1
574,939,34,0.136878478180009,1
575,938,34,0.123722139229329,1
576,939,34,0.180146382692791,1
544,921,35,0.202461685610778,1
545,920,35,0.218379158223438,1
545,921,35,0.253221491407409,1
545,922,35,0.21208908625453,1
546,920,35,0.207224274328276,1
546,921,35,0.264636102335513,1
546,922,35,0.195473104084519,1
547,921,35,0.201264755472663,1
549,924,35,0.15379075455614,1
549,925,35,0.150878759223171,1
549,926,35,0.119134436992252,1
550,923,35,0.144031193906781,1
550,924,35,0.160777663767233,1
550,925,35,0.14673227732205,1
551,922,35,0.120621172282568,1
551,923,35,0.133588610280659,1
551,924,35,0.130437615201317,1
564,917,35,0.115201210605437,1
569,941,35,0.115591495990024,1
570,941,35,0.167259522021235,1
571,941,35,0.139160517100577,1
573,939,35,0.114445335927133,1
576,938,35,0.13586902399353,1
576,939,35,0.16326310096412,1
577,938,35,0.120901449949067,1
577,939,35,0.157702017085314,1
544,920,36,0.201122349592445,1
544,921,36,0.216237346462625,1
545,919,36,0.196650755490752,1
545,920,36,0.232490671778895,1
545,921,36,0.271840789377982,1
545,922,36,0.213270800680006,1
546,920,36,0.215180231293907,1
546,921,36,0.26824062457721,1
546,922,36,0.194767257538797,1
547,921,36,0.188152226468594,1
548,924,36,0.113938506663069,1
549,923,36,0.11410748115607,1
549,924,36,0.13106823111829,1
549,925,36,0.118324106079238,1
550,923,36,0.117675848414947,1
550,924,36,0.145519566181661,1
550,925,36,0.121973239094527,1
565,917,36,0.177129302372294,1
566,917,36,0.13732723571108,1
567,944,36,0.125540252013656,1
568,944,36,0.115669517736339,1
570,941,36,0.121784173265795,1
576,939,36,0.127263148825309,1
577,939,36,0.124898118320396,1
543,921,37,0.184674234889902,1
544,918,37,0.225647840763186,1
544,919,37,0.215847202400446,1
544,920,37,0.222095466490196,1
544,921,37,0.232789121151744,1
544,922,37,0.193632933227612,1
545,919,37,0.231288206513116,1
545,920,37,0.256877078146016,1
545,921,37,0.270079888615331,1
545,922,37,0.20076051711942,1
546,920,37,0.220129577574131,1
546,921,37,0.240280292269815,1
546,925,37,0.143274742161977,1
546,926,37,0.125747642648013,1
547,924,37,0.122293593440681,1
547,925,37,0.114894540979165,1
549,924,37,0.119415656808141,1
550,924,37,0.136333338766395,1
565,916,37,0.150219266427411,1
565,917,37,0.145597611481711,1
567,944,37,0.123205358512339,1
568,944,37,0.116444930237606,1
543,918,38,0.202551684431207,1
543,919,38,0.165459215860369,1
543,920,38,0.183008997620884,1
543,921,38,0.219929158845256,1
544,917,38,0.23286866211395,1
544,918,38,0.240939043122931,1
544,919,38,0.236192965573484,1
544,920,38,0.249439821526757,1
544,921,38,0.245379440302965,1
544,922,38,0.194469644323531,1
545,918,38,0.219889824108246,1
545,919,38,0.280415102541655,2
545,920,38,0.292888689383522,1
545,921,38,0.25376888020269,1
545,922,38,0.18464533445738,1
545,925,38,0.168563256569513,1
545,926,38,0.140771262804281,1
546,919,38,0.233974274422491,1
546,920,38,0.235029929259655,1
546,921,38,0.207030544860066,1
546,923,38,0.160556470644321,1
546,924,38,0.15239792800622,1
546,925,38,0.143558034706522,1
546,926,38,0.120539782352185,1
547,920,38,0.150387816953187,1
547,922,38,0.135083448055724,1
547,923,38,0.139396266431556,1
547,924,38,0.12616696978753,1
550,924,38,0.118987190819546,1
542,921,39,0.210593259222606,1
543,918,39,0.194246684670513,1
543,919,39,0.178793679929995,1
543,920,39,0.211375502306947,1
543,921,39,0.263054398386739,1
543,922,39,0.235228345921077,1
544,917,39,0.234228584096443,1
544,918,39,0.254632548548016,1
544,919,39,0.269023503612389,2
544,920,39,0.275308252437246,1
544,921,39,0.249504335206201,1
544,922,39,0.197267380489292,1
544,925,39,0.143595049400661,1
544,926,39,0.120584864200471,1
544,929,39,0.113966288293191,1
545,917,39,0.204411322449875,1
545,918,39,0.258015759898127,2
545,919,39,0.330237069282274,2
545,920,39,0.314255271420049,2
545,921,39,0.226944992042606,1
545,922,39,0.17719456977125,1
545,923,39,0.171857352364249,1
545,924,39,0.168490075115687,1
545,925,39,0.160348491166596,1
545,926,39,0.127858493024514,1
546,918,39,0.210867024281451,1
546,919,39,0.270673419176961,2
546,920,39,0.247726758399356,1
546,921,39,0.181222906138932,1
546,922,39,0.171882601967886,1
546,923,39,0.185830417066923,1
546,924,39,0.163850672430862,1
546,925,39,0.14158904847434,1
546,926,39,0.117753375532833,1
547,919,39,0.16402758453247,1
547,920,39,0.147852810921546,1
547,921,39,0.126588652300522,1
547,922,39,0.144522489482786,1
547,923,39,0.165117745591023,1
547,924,39,0.139491376412423,1
547,925,39,0.115577446187253,1
548,923,39,0.116797541423482,1
585,936,39,0.120287969374115,1
585,937,39,0.121840466691816,1
542,920,40,0.167221035218675,1
542,921,40,0.241576030325151,1
542,922,40,0.229962201908644,1
543,918,40,0.183018136469962,1
543,919,40,0.207854101195135,2
543,920,40,0.241978681420475,1
543,921,40,0.291869943248689,1
543,922,40,0.245685709515747,1
543,923,40,0.165458462140857,1
543,928,40,0.173720181913973,1
543,929,40,0.157679052193946,1
543,930,40,0.126631237452926,1
543,931,40,0.125377307276747,1
544,917,40,0.212664009365719,1
544,918,40,0.269203972327942,2
544,919,40,0.309271583794578,2
544,920,40,0.286735794365721,2
544,921,40,0.243583020508331,1
544,922,40,0.195095196187536,1
544,923,40,0.161682421602807,1
544,924,40,0.145146251262951,1
544,925,40,0.130024953768729,1
544,928,40,0.133645728087395,1
544,929,40,0.12083860858479,1
545,917,40,0.217590673399392,1
545,918,40,0.298830707814225,2
545,919,40,0.364603357933482,2
545,920,40,0.305699966120308,2
545,921,40,0.201705304527179,1
545,922,40,0.174574911616966,1
545,923,40,0.183156161355519,1
545,924,40,0.167312282387045,1
545,925,40,0.142115344900164,1
546,917,40,0.184951050157395,1
546,918,40,0.23480678117676,1
546,919,40,0.28678054646172,2
546,920,40,0.239103924542125,1
546,921,40,0.162451392157624,1
546,922,40,0.175943866456731,1
546,923,40,0.207336342998153,1
546,924,40,0.171118801457844,1
546,925,40,0.13548662911008,1
547,918,40,0.151563407407631,1
547,919,40,0.164068179394288,1
547,920,40,0.140680569148678,1
547,921,40,0.115704895445914,1
547,922,40,0.148664107537685,1
547,923,40,0.18371831834248,1
547,924,40,0.148402955503792,1
547,925,40,0.115365815880644,1
548,923,40,0.118936208760708,1
561,947,40,0.12184008983206,1
585,936,40,0.123268294091555,1
585,937,40,0.123864227134129,1
586,935,40,0.133680505176734,1
586,936,40,0.140227619052823,1
586,937,40,0.135643685413304,1
541,921,41,0.164497893730825,1
542,919,41,0.138432800912151,1
542,920,41,0.185518895371295,1
542,921,41,0.249109315520931,1
542,922,41,0.237153769520864,1
542,928,41,0.227037982187347,1
542,929,41,0.199716780472032,1
542,930,41,0.153399232600479,1
542,931,41,0.140430216502161,1
543,918,41,0.183221028340984,1
543,919,41,0.240853660834511,2
543,920,41,0.262172004822297,1
543,921,41,0.281773305101513,1
543,922,41,0.235273592645506,1
543,923,41,0.169385988523867,1
543,925,41,0.118767363813248,1
543,926,41,0.130465962121072,1
543,927,41,0.178903510995072,1
543,928,41,0.221424750339833,1
543,929,41,0.176781955446132,1
543,930,41,0.130580515709964,1
543,931,41,0.140444054321319,1
543,932,41,0.178561004361398,1
543,933,41,0.186174195602273,1
544,917,41,0.193222156093803,1
544,918,41,0.287491822143299,2
544,919,41,0.334880193457187,2
544,920,41,0.27989270425893,2
544,921,41,0.230317321567269,1
544,922,41,0.199586316335325,1
544,923,41,0.17328141116643,1
544,924,41,0.14309191807295,1
544,925,41,0.117281582449189,1
544,927,41,0.128328178048899,1
544,928,41,0.154746718211032,1
544,929,41,0.122658546783559,1
544,932,41,0.119218924238753,1
544,933,41,0.126806265255754,1
545,917,41,0.223017830742485,2
545,918,41,0.325116699334127,2
545,919,41,0.360064906555739,2
545,920,41,0.272629132879619,2
545,921,41,0.191809344199959,1
545,922,41,0.185452921360298,1
545,923,41,0.193060106398815,1
545,924,41,0.161912847789736,1
545,925,41,0.124843932953635,1
546,917,41,0.189674221699811,1
546,918,41,0.252706795195943,2
546,919,41,0.276076952124113,2
546,920,41,0.216051130635796,1
546,921,41,0.157234275244045,1
546,922,41,0.177352580000731,1
546,923,41,0.210984957831278,1
546,924,41,0.173082111239955,1
546,925,41,0.13206349417959,1
547,918,41,0.163699481007587,1
547,919,41,0.163226086269982,1
547,920,41,0.134455646810052,1
547,922,41,0.144520899605692,1
547,923,41,0.183991541665426,1
547,924,41,0.153612711875265,1
547,925,41,0.118863203959892,1
548,923,41,0.119768079564139,1
559,948,41,0.120988457445185,1
560,948,41,0.122820714247221,1
561,947,41,0.150025619397273,1
561,948,41,0.133422862649317,1
562,947,41,0.11443644439227,1
585,935,41,0.117205327232979,1
585,936,41,0.115163277315643,1
586,934,41,0.127950175936977,1
586,935,41,0.135611722995266,1
586,936,41,0.128715059918817,1
586,937,41,0.125649447127895,1
587,935,41,0.137784472586656,1
587,936,41,0.120079059523868,1
540,928,42,0.201993343149274,1
540,929,42,0.2037605327591,1
541,921,42,0.195517750188713,1
541,927,42,0.200547614911135,1
541,928,42,0.227249047204322,1
541,929,42,0.232461253164209,1
542,919,42,0.150012664843168,1
542,920,42,0.201853810824694,1
542,921,42,0.249577610874967,1
542,922,42,0.238489572478987,1
542,926,42,0.168977625647869,1
542,927,42,0.217793918576435,1
542,928,42,0.255401648648374,1
542,929,42,0.226494432650828,1
542,930,42,0.166915849477691,1
542,931,42,0.146567624939373,1
542,932,42,0.187004394090538,1
542,933,42,0.185487745557106,1
543,918,42,0.192245288499333,1
543,919,42,0.262027055138728,2
543,920,42,0.26583020602546,1
543,921,42,0.248394318349264,1
543,922,42,0.213061455085666,1
543,924,42,0.130207589427878,1
543,925,42,0.121338324620964,1
543,926,42,0.150216192665028,1
543,927,42,0.212266681414445,1
543,928,42,0.249333052447195,1
543,929,42,0.186485458206818,1
543,930,42,0.128186101920967,1
543,931,42,0.141712941119055,1
543,932,42,0.195562278524232,1
543,933,42,0.195157625361456,1
543,934,42,0.115832733341197,1
544,917,42,0.196698593126003,1
544,918,42,0.312385387526771,2
544,919,42,0.345195504477659,2
544,920,42,0.262647060098202,2
544,921,42,0.209927772001355,1
544,922,42,0.202319845020194,1
544,923,42,0.180941391901359,1
544,924,42,0.134789544553679,1
544,927,42,0.142700549216565,1
544,928,42,0.161850453946419,1
544,929,42,0.11690065967416,1
544,932,42,0.128394175613631,1
544,933,42,0.137685146487271,1
545,916,42,0.173980827542569,1
545,917,42,0.239385109027412,2
545,918,42,0.34636869245116,2
545,919,42,0.338696652204045,2
545,920,42,0.235886390162151,2
545,921,42,0.186833982819717,1
545,922,42,0.196545493850214,1
545,923,42,0.194403422998319,1
545,924,42,0.14883521364368,1
546,917,42,0.205780336173977,1
546,918,42,0.264173742522631,2
546,919,42,0.249822287071412,2
546,920,42,0.18608788294133,1
546,921,42,0.153933949486472,1
546,922,42,0.171602053433437,1
546,923,42,0.197145784333714,1
546,924,42,0.165928641793672,1
546,925,42,0.12433938840184,1
547,918,42,0.176525396390513,1
547,919,42,0.156646974645252,1
547,920,42,0.123781482863998,1
547,922,42,0.131693712321091,1
547,923,42,0.16795372124513,1
547,924,42,0.15294205460924,1
547,925,42,0.117941628757716,1
560,948,42,0.117458588765735,1
560,949,42,0.116309001634441,1
561,947,42,0.141860740804528,1
561,948,42,0.136139762397461,1
579,948,42,0.134370829811265,1
585,935,42,0.114480336776952,1
586,934,42,0.126973932516477,1
586,935,42,0.129874669164242,1
587,934,42,0.124470877126007,1
587,935,42,0.117124337716087,1
538,928,43,0.228546080715069,1
539,927,43,0.204693802390572,1
539,928,43,0.236800086640058,1
539,929,43,0.229147925745061,1
540,927,43,0.221157062144551,1
540,928,43,0.238619047358835,1
540,929,43,0.236108313450841,1
540,930,43,0.185257967097882,1
541,926,43,0.211806559206364,1
541,927,43,0.233646806848446,1
541,928,43,0.257184430830595,1
541,929,43,0.26677534673924,1
541,930,43,0.204552103122396,1
541,931,43,0.141365076010728,1
541,932,43,0.146849162730681,1
542,919,43,0.160433484818393,1
542,920,43,0.212130658596341,1
542,921,43,0.244612153840182,1
542,925,43,0.164108585826229,1
542,926,43,0.209721441285062,1
542,927,43,0.253438939486498,1
542,928,43,0.272835157397361,1
542,929,43,0.250257465874407,1
542,930,43,0.186524368976603,1
542,931,43,0.15426466747591,1
542,932,43,0.193567159423359,1
542,933,43,0.184748346716251,1
543,918,43,0.199908507872789,1
543,919,43,0.252387123908096,2
543,920,43,0.246631721717712,1
543,921,43,0.212120318506791,1
543,924,43,0.125909986764685,1
543,925,43,0.1292512960207,1
543,926,43,0.175525363697929,1
543,927,43,0.232601609869505,1
543,928,43,0.247797207619954,1
543,929,43,0.191321934990185,1
543,930,43,0.135898466161951,1
543,931,43,0.142944306817355,1
543,932,43,0.200402523905156,1
543,933,43,0.19092268740953,1
544,917,43,0.21046190004398,1
544,918,43,0.31266285052197,2
544,919,43,0.316457898923952,2
544,920,43,0.241297625180563,2
544,921,43,0.195686795342918,1
544,923,43,0.174430998297724,1
544,924,43,0.127195702705891,1
544,926,43,0.123248685607387,1
544,927,43,0.161085405088436,1
544,928,43,0.163884212949127,1
544,929,43,0.116559707586978,1
544,932,43,0.13753635754494,1
544,933,43,0.144428934048412,1
545,916,43,0.175348510480658,1
545,917,43,0.259483039803551,2
545,918,43,0.334993840227292,2
545,919,43,0.293894952038943,2
545,920,43,0.215658866737491,1
545,921,43,0.190920461581597,1
545,922,43,0.198656673979002,1
545,923,43,0.180005955326291,1
545,924,43,0.13613180123512,1
545,927,43,0.121563957622874,1
546,917,43,0.237399835387659,1
546,918,43,0.25999611080732,2
546,919,43,0.215971259921304,1
546,920,43,0.169366509585239,1
546,921,43,0.15568036470226,1
546,922,43,0.161441419788981,1
546,923,43,0.168994042600981,1
546,924,43,0.1508932212163,1
546,925,43,0.116951665286732,1
547,918,43,0.187950924474667,1
547,919,43,0.149523595095095,1
547,920,43,0.121205104697293,1
547,922,43,0.121270466311187,1
547,923,43,0.144984896403137,1
547,924,43,0.145183348395162,1
561,948,43,0.120629451420328,1
579,948,43,0.130149706124762,1
580,948,43,0.133512119527101,1
586,934,43,0.117607695683486,1
586,935,43,0.116009162591242,1
537,928,44,0.219352422096493,1
538,927,44,0.232113458717086,1
538,928,44,0.285071228378143,1
538,929,44,0.235445723338962,1
539,926,44,0.185055004565656,1
539,927,44,0.253525852767677,1
539,928,44,0.293135603184766,3
539,929,44,0.247710624091061,1
539,930,44,0.189435280837774,1
540,926,44,0.219962181181357,1
540,927,44,0.258345064663481,3
540,928,44,0.26942066668752,3
540,929,44,0.254372892176278,1
540,930,44,0.197778096119588,1
541,925,44,0.203181770389149,1
541,926,44,0.257449528115057,3
541,927,44,0.283961305736145,3
541,928,44,0.276971051894719,1
541,929,44,0.283575683991035,1
541,930,44,0.220388409565153,1
541,931,44,0.160156398682951,1
541,932,44,0.151212939611616,1
541,933,44,0.145137489273629,1
542,925,44,0.179775376040086,1
542,926,44,0.25615522683754,1
542,927,44,0.296388656596723,3
542,928,44,0.277761326802605,1
542,929,44,0.264713287924245,1
542,930,44,0.207603465903802,1
542,931,44,0.166114527868214,1
542,932,44,0.18333677139348,1
542,933,44,0.18015247133322,1
542,934,44,0.135019970740609,1
543,918,44,0.196773105365842,1
543,919,44,0.222017856934238,1
543,920,44,0.21968368182183,1
543,923,44,0.147197345814426,1
543,924,44,0.123644659218913,1
543,925,44,0.135998463542776,1
543,926,44,0.196547931661759,1
543,927,44,0.244574514972073,1
543,928,44,0.230437210077079,1
543,929,44,0.192091953686197,1
543,930,44,0.149237652755391,1
543,931,44,0.144272914109516,1
543,932,44,0.186851436137157,1
543,933,44,0.182121351573597,1
543,934,44,0.122173222079309,1
544,917,44,0.22007731183675,1
544,918,44,0.286509325206227,1
544,919,44,0.269467491512176,2
544,920,44,0.230934099665085,1
544,921,44,0.19796089665488,1
544,922,44,0.187469933657609,1
544,923,44,0.157608320328531,1
544,924,44,0.119945074103818,1
544,926,44,0.144734202227467,1
544,927,44,0.186972219688887,1
544,928,44,0.165366461252976,1
544,929,44,0.118314943676425,1
544,932,44,0.136422265891893,1
544,933,44,0.141490994276631,1
545,916,44,0.186491735277126,1
545,917,44,0.277515849779179,1
545,918,44,0.29848135882061,2
545,919,44,0.251144899938082,1
545,920,44,0.221460622677837,1
545,921,44,0.204407412529909,1
545,922,44,0.189720822763987,1
545,923,44,0.159475931286407,1
545,924,44,0.124930210283975,1
545,926,44,0.125089433530795,1
545,927,44,0.154262912722672,1
545,928,44,0.120751659973009,1
546,916,44,0.239716651397566,1
546,917,44,0.286246795278852,4
546,918,44,0.245825147625388,1
546,919,44,0.187608182303646,1
546,920,44,0.165906607274825,1
546,921,44,0.157348828832937,1
546,922,44,0.145615889179866,1
546,923,44,0.137330686333219,1
546,924,44,0.127664845994376,1
547,916,44,0.252815754772835,1
547,917,44,0.250839996841915,1
547,918,44,0.192610948454253,1
547,919,44,0.143493002844914,1
547,920,44,0.122562989281732,1
547,921,44,0.117222203483918,1
547,923,44,0.119289915195249,1
547,924,44,0.123248143871488,1
580,948,44,0.124550771394234,1
537,927,45,0.213439351205782,1
537,928,45,0.240124696298144,1
538,926,45,0.179746298954553,1
538,927,45,0.26554970459848,1
538,928,45,0.316554963864802,3
538,929,45,0.229463663559207,1
539,926,45,0.199832217325977,1
539,927,45,0.290460487762045,3
539,928,45,0.328967428765027,3
539,929,45,0.256788963624366,3
539,930,45,0.190793377405826,1
540,925,45,0.182435593725587,1
540,926,45,0.248204804999572,3
540,927,45,0.293532200970263,3
540,928,45,0.288108741563523,3
540,929,45,0.263668138052773,3
540,930,45,0.206137269470177,1
541,925,45,0.223191139122678,3
541,926,45,0.316321122386336,3
541,927,45,0.332701896961267,3
541,928,45,0.27879724361006,3
541,929,45,0.275161960190797,1
541,930,45,0.227580825111824,1
541,931,45,0.180945560912408,1
541,932,45,0.152179255132924,1
541,933,45,0.142329024381696,1
541,934,45,0.125563464219239,1
542,924,45,0.163663396685971,1
542,925,45,0.203937562629381,1
542,926,45,0.297433311839765,3
542,927,45,0.31938470955607,3
542,928,45,0.263323711789718,3
542,929,45,0.254578210081978,1
542,930,45,0.21685327662599,1
542,931,45,0.178845062402323,1
542,932,45,0.167958702860026,1
542,933,45,0.175733119415174,1
542,934,45,0.162432725822845,1
543,923,45,0.143660469898892,1
543,924,45,0.134771113756248,1
543,925,45,0.154996741105262,1
543,926,45,0.21346231609715,1
543,927,45,0.244330239189118,3
543,928,45,0.207542131978548,1
543,929,45,0.185566733006546,1
543,930,45,0.160888542973506,1
543,931,45,0.147515168134096,1
543,932,45,0.165520420240082,1
543,933,45,0.175648455515663,1
543,934,45,0.149348779275879,1
544,917,45,0.224577182196994,1
544,918,45,0.244582099274658,1
544,919,45,0.226272509362138,1
544,920,45,0.232713961184199,1
544,922,45,0.176269402624527,1
544,923,45,0.144943147408317,1
544,924,45,0.125857615035498,1
544,925,45,0.131197011162963,1
544,926,45,0.177893986147389,1
544,927,45,0.215655404338485,1
544,928,45,0.165214669209465,1
544,929,45,0.120108701899034,1
544,932,45,0.127537620496196,1
544,933,45,0.13438803581449,1
545,916,45,0.207228419785589,1
545,917,45,0.279885167063814,4
545,918,45,0.247111063773338,1
545,919,45,0.214412120450408,1
545,921,45,0.207284830980284,1
545,922,45,0.170888504816456,1
545,923,45,0.142255183423296,1
545,924,45,0.125061651900673,1
545,925,45,0.123502418214838,1
545,926,45,0.155137144918027,1
545,927,45,0.182377192240307,1
545,928,45,0.126528802260556,1
546,915,45,0.1752468290078,1
546,916,45,0.288712164693743,4
546,917,45,0.324483174530913,4
546,918,45,0.225624710995675,4
546,920,45,0.163042178709157,1
546,921,45,0.151913910534248,1
546,922,45,0.131518025013689,1
546,923,45,0.118961693901693,1
546,924,45,0.114319653198578,1
547,915,45,0.178143903049813,1
547,916,45,0.298065470526364,1
547,917,45,0.293382328556133,4
547,918,45,0.192688310695996,1
547,919,45,0.14323910536132,1
547,920,45,0.131256672773051,1
547,921,45,0.126700273449439,1
548,916,45,0.193236099904768,1
548,917,45,0.181166706927851,1
548,918,45,0.141422688445894,1
548,919,45,0.123390655743512,1
548,920,45,0.115579389370369,1
548,921,45,0.117477384646055,1
536,928,46,0.221379150309383,1
537,927,46,0.228938862795538,1
537,928,46,0.246824509036532,1
537,929,46,0.188400412171515,1
538,926,46,0.191638638507454,1
538,927,46,0.283095399786019,3
538,928,46,0.310071397965033,3
538,929,46,0.212005847355971,1
539,926,46,0.220931770671794,3
539,927,46,0.309103881203253,3
539,928,46,0.335203138714162,3
539,929,46,0.257988249135955,3
539,930,46,0.187242616563665,1
540,925,46,0.202365515711849,1
540,926,46,0.289290903509959,3
540,927,46,0.320190129515392,3
540,928,46,0.30224665885562,3
540,929,46,0.272596982031704,3
540,930,46,0.214430327487359,1
540,931,46,0.170304866823415,1
540,932,46,0.144671820161017,1
540,933,46,0.135048011461813,1
541,924,46,0.181228111514309,1
541,925,46,0.251749924722264,3
541,926,46,0.373388406361845,3
541,927,46,0.355113840852879,3
541,928,46,0.27210934906145,3
541,929,46,0.256219599194575,1
541,930,46,0.228899598719732,1
541,931,46,0.195337045935812,1
541,932,46,0.14929010692265,1
541,933,46,0.136702437566586,1
541,934,46,0.134990457910983,1
542,924,46,0.176598836935422,1
542,925,46,0.229506083835468,3
542,926,46,0.322460191361847,3
542,927,46,0.308903109168357,3
542,928,46,0.2365261095976,3
542,929,46,0.226033957136725,1
542,930,46,0.21110152526449,1
542,931,46,0.183127225592395,1
542,932,46,0.149033359437152,1
542,933,46,0.160954658306912,1
542,934,46,0.181069594879531,1
542,935,46,0.136463791126234,1
543,920,46,0.213598998419827,1
543,923,46,0.148821199171512,1
543,924,46,0.157106508009966,1
543,925,46,0.178531267771293,1
543,926,46,0.229940579580156,3
543,927,46,0.238426778222179,3
543,928,46,0.189804485629772,1
543,929,46,0.175941923273615,1
543,930,46,0.165977586454454,1
543,931,46,0.146894621438722,1
543,932,46,0.138296978300792,1
543,933,46,0.159271143339739,1
543,934,46,0.175999947899139,1
543,935,46,0.130826393146881,1
544,919,46,0.212330441374377,1
544,920,46,0.251979644297151,1
544,921,46,0.22823465323438,1
544,922,46,0.170451441714682,1
544,923,46,0.138440974058105,1
544,924,46,0.136747354538729,1
544,925,46,0.154354418982124,1
544,926,46,0.214070732619134,1
544,927,46,0.235831816158766,1
544,928,46,0.161485076636316,1
544,929,46,0.119356195404798,1
544,933,46,0.115254783575095,1
544,934,46,0.117257074788195,1
545,916,46,0.214084558661424,1
545,917,46,0.255577241740836,1
545,918,46,0.199343618652598,1
545,920,46,0.221599401282906,1
545,921,46,0.198850285678538,1
545,922,46,0.151288888629274,1
545,923,46,0.125569541082801,1
545,924,46,0.122649419711348,1
545,925,46,0.135986250931315,1
545,926,46,0.178292727322747,1
545,927,46,0.190102193059977,1
545,928,46,0.120475563094426,1
546,915,46,0.168532189193396,1
546,916,46,0.291080162969233,1
546,917,46,0.309945644575273,4
546,918,46,0.193670960732344,1
546,919,46,0.145079947499667,1
546,920,46,0.150662194409135,1
546,921,46,0.140218315327602,1
546,922,46,0.118163281178456,1
547,915,46,0.155226766878701,1
547,916,46,0.287764645052755,1
547,917,46,0.282976712516681,1
547,918,46,0.17565701729824,1
547,919,46,0.136336612735523,1
547,920,46,0.132465568208412,1
547,921,46,0.128004903039638,1
548,916,46,0.188611724502705,1
548,917,46,0.173637378759506,1
548,918,46,0.133545978020785,1
548,919,46,0.127748414645222,1
548,920,46,0.132424620040573,1
548,921,46,0.134750739775701,1
549,920,46,0.114987448685834,1
549,921,46,0.118479631389704,1
536,928,47,0.261598871794949,1
537,927,47,0.24106350105728,1
537,928,47,0.247302249438196,1
537,929,47,0.185375323581208,1
538,926,47,0.21559680264646,1
538,927,47,0.286590232285048,3
538,928,47,0.277753412747733,3
538,929,47,0.19239181628313,1
539,925,47,0.193436895493398,1
539,926,47,0.255359628785603,3
539,927,47,0.314710400236366,3
539,928,47,0.317590126952746,3
539,929,47,0.249238366433554,3
540,925,47,0.234525855782555,3
540,926,47,0.325867615951268,3
540,927,47,0.336224569974754,3
540,928,47,0.31969783290566,3
540,929,47,0.278890469292148,3
540,930,47,0.222760765281569,1
540,931,47,0.175510124431554,1
540,932,47,0.145167002103254,1
540,933,47,0.143819445831498,1
540,934,47,0.145232858345578,1
541,924,47,0.186553057425513,1
541,925,47,0.281810590663601,3
541,926,47,0.392696910164548,3
541,927,47,0.342795708660275,3
541,928,47,0.274674821848972,3
541,929,47,0.240408919215212,1
541,930,47,0.220019039897012,1
541,931,47,0.195743948480257,1
541,932,47,0.14872517059499,1
541,933,47,0.132266350720009,1
541,934,47,0.140535442812097,1
541,935,47,0.139640071139816,1
542,920,47,0.196572015355528,1
542,924,47,0.200358902388424,1
542,925,47,0.257844877552612,3
542,926,47,0.324646566788782,3
542,927,47,0.278243636628809,3
542,928,47,0.221381929650082,1
542,929,47,0.201211029403729,1
542,930,47,0.198700860785368,1
542,931,47,0.185775148228363,1
542,932,47,0.147661672364158,1
542,933,47,0.145651102013298,1
542,934,47,0.180634957812435,1
542,935,47,0.177711067843424,1
542,936,47,0.135124820190789,1
543,919,47,0.212163563163768,1
543,920,47,0.25551023136551,1
543,921,47,0.236556258378063,1
543,922,47,0.182914087846763,1
543,923,47,0.172249592708819,1
543,924,47,0.192194954168201,1
543,925,47,0.209778347108186,1
543,926,47,0.250230473294399,3
543,927,47,0.235573172597623,1
543,928,47,0.189247498687586,1
543,929,47,0.173786297247379,1
543,930,47,0.17369540338503,1
543,931,47,0.158480362026556,1
543,932,47,0.132723116520891,1
543,933,47,0.142072842185832,1
543,934,47,0.180765763478295,1
543,935,47,0.167174281055222,1
543,936,47,0.116666983071837,1
544,919,47,0.221404541235429,1
544,920,47,0.281474973497338,1
544,921,47,0.256984106316659,1
544,922,47,0.180240750731014,1
544,923,47,0.148919583121507,1
544,924,47,0.155631796901233,1
544,925,47,0.179877175281618,1
544,926,47,0.242662257910004,1
544,927,47,0.240209018668502,1
544,928,47,0.161795279322798,1
544,929,47,0.122940390773418,1
544,930,47,0.114472681813163,1
544,934,47,0.115664665666983,1
545,920,47,0.205810838260461,1
545,921,47,0.192859828992349,1
545,922,47,0.144786267758103,1
545,923,47,0.118803836771488,1
545,924,47,0.121023352303197,1
545,925,47,0.142767288723942,1
545,926,47,0.185518506734672,1
545,927,47,0.177427068686836,1
546,916,47,0.261671063991917,1
546,917,47,0.267778264764329,1
546,919,47,0.133301007402656,1
546,920,47,0.140644378835255,1
546,921,47,0.136044087126961,1
546,922,47,0.113875936166741,1
547,916,47,0.241496654239088,1
547,917,47,0.239052671615338,1
547,918,47,0.154925491057683,1
547,919,47,0.127952825732135,1
547,920,47,0.1318852041845,1
547,921,47,0.128635483626009,1
548,918,47,0.123913101133707,1
548,919,47,0.128541139141521,1
548,920,47,0.147115661462359,1
548,921,47,0.145342112344154,1
549,920,47,0.140741973735136,1
549,921,47,0.135704583594466,1
537,927,48,0.243216383073419,1
537,928,48,0.245195721172019,1
538,926,48,0.238902493002656,3
538,927,48,0.27440440142046,3
538,928,48,0.242434234204018,3
539,925,48,0.247461825991038,3
539,926,48,0.309632874531705,3
539,927,48,0.325155115475482,3
539,928,48,0.300346296429593,3
539,929,48,0.23302699031885,3
540,924,48,0.189568088571087,1
540,925,48,0.284184642248918,3
540,926,48,0.367548446263756,3
540,927,48,0.362019960753825,3
540,928,48,0.347131621473017,3
540,929,48,0.27851678929055,3
540,930,48,0.227290595992398,1
540,931,48,0.187334711666485,1
540,932,48,0.157957904859493,1
540,933,48,0.158855101946217,1
540,934,48,0.177901382020096,1
541,924,48,0.203895048138181,3
541,925,48,0.318832704228781,3
541,926,48,0.390855738273915,3
541,927,48,0.332825813159717,3
541,928,48,0.300107956187792,3
541,929,48,0.240173758727601,3
541,930,48,0.209868510804758,1
541,931,48,0.192241237256958,1
541,932,48,0.155742464123893,1
541,933,48,0.138418715778779,1
541,934,48,0.162284619938821,1
541,935,48,0.207849343340719,1
541,936,48,0.17363722566023,1
542,920,48,0.209121998736012,1
542,921,48,0.204100389597616,1
542,924,48,0.226885401093722,1
542,925,48,0.292117516554507,3
542,926,48,0.31965630767132,3
542,927,48,0.257317697861735,3
542,928,48,0.227740001251174,3
542,929,48,0.196758513827173,1
542,930,48,0.193715182869312,1
542,931,48,0.193164932295261,1
542,932,48,0.155659437208947,1
542,933,48,0.138868650996587,1
542,934,48,0.187968201139096,1
542,935,48,0.25080695095208,1
542,936,48,0.191412499100247,1
543,919,48,0.227609513560733,1
543,920,48,0.284881008416409,1
543,921,48,0.257290799496666,1
543,922,48,0.197339996653485,1
543,923,48,0.200088199315095,1
543,924,48,0.226609398430078,1
543,925,48,0.249699171699943,1
543,926,48,0.274250878177446,3
543,927,48,0.23793777913531,1
543,928,48,0.201674354919735,1
543,929,48,0.181791681725354,1
543,930,48,0.190436538324564,1
543,931,48,0.186152208190896,1
543,932,48,0.141956757604182,1
543,933,48,0.128030352850021,1
543,934,48,0.170292665988822,1
543,935,48,0.200931729217221,1
543,936,48,0.145832018249811,1
544,919,48,0.219022952454996,1
544,920,48,0.291056656341966,1
544,921,48,0.277441584853554,1
544,922,48,0.198142707933312,1
544,923,48,0.165838042353007,1
544,924,48,0.173130372842431,1
544,925,48,0.205368687551983,1
544,926,48,0.260781863398137,1
544,927,48,0.233886348330719,1
544,928,48,0.164590094825452,1
544,929,48,0.128387733667181,1
544,930,48,0.124547944946066,1
544,931,48,0.116143524871048,1
545,920,48,0.191152689629234,1
545,921,48,0.195066048440799,1
545,922,48,0.150559617894356,1
545,923,48,0.120730190743797,1
545,924,48,0.121243615053588,1
545,925,48,0.146188939769143,1
545,926,48,0.183606767854767,1
545,927,48,0.161226491959509,1
546,919,48,0.123049197251034,1
546,920,48,0.134337312846735,1
546,921,48,0.137650239852392,1
546,922,48,0.114524818005002,1
547,918,48,0.134672506045773,1
547,919,48,0.120072252494529,1
547,920,48,0.131480763005336,1
547,921,48,0.129434449862013,1
548,919,48,0.127679837946536,1
548,920,48,0.156728623666717,1
548,921,48,0.147398588924016,1
549,919,48,0.12039821262955,1
549,920,48,0.160460453844667,1
549,921,48,0.142516194134781,1
538,925,49,0.203889230365701,1
538,926,49,0.24316621361843,3
538,927,49,0.248854440557345,3
538,928,49,0.220122016825281,1
539,924,49,0.213959888743463,1
539,925,49,0.295783608258806,3
539,926,49,0.34770522557506,3
539,927,49,0.321915911659551,3
539,928,49,0.278062131548928,3
539,929,49,0.215163932109469,1
540,924,49,0.212208762780728,3
540,925,49,0.31954715966455,3
540,926,49,0.379483005886173,3
540,927,49,0.362799495158671,3
540,928,49,0.344712016964719,3
540,929,49,0.257402043785828,3
540,930,49,0.219254886080949,1
540,931,49,0.201069518565431,1
540,932,49,0.185606609479455,1
540,933,49,0.181013595875195,1
540,934,49,0.200975986684791,1
540,935,49,0.21951819328157,1
541,924,49,0.217960679018371,3
541,925,49,0.328482080507042,3
541,926,49,0.353983497122864,3
541,927,49,0.311600600639079,3
541,928,49,0.312243594043656,3
541,929,49,0.237256039837091,3
541,930,49,0.197909808604236,1
541,931,49,0.193284479275917,1
541,932,49,0.178318153579395,1
541,933,49,0.16494967791681,1
541,934,49,0.209172639265696,1
541,935,49,0.29779658109061,5
541,936,49,0.238483495615425,1
542,920,49,0.234527528097721,1
542,921,49,0.219351456393369,1
542,924,49,0.245863752196621,3
542,925,49,0.31202273067303,3
542,926,49,0.300379483641837,3
542,927,49,0.24374412805393,3
542,928,49,0.24282185801658,3
542,929,49,0.201482297766691,1
542,930,49,0.189606186737024,1
542,931,49,0.200936204426821,1
542,932,49,0.173775874719758,1
542,933,49,0.149611120773377,1
542,934,49,0.204985162089265,1
542,935,49,0.310803283164506,1
542,936,49,0.243518012200458,1
542,937,49,0.142203047231456,1
543,919,49,0.230948208352192,1
543,920,49,0.28646568013576,1
543,921,49,0.258829988954241,1
543,922,49,0.214545293266609,1
543,923,49,0.222256291390978,1
543,924,49,0.253944331972744,1
543,925,49,0.291649291861676,3
543,926,49,0.290469155536428,3
543,927,49,0.239906965574238,1
543,928,49,0.217180767753769,1
543,929,49,0.186094996169221,1
543,930,49,0.195230194418179,1
543,931,49,0.20468284990392,1
543,932,49,0.154696654747849,1
543,933,49,0.12286837522946,1
543,934,49,0.153313014154476,1
543,935,49,0.20651893418785,1
543,936,49,0.163489075495184,1
544,919,49,0.209190869856383,1
544,920,49,0.278578311645682,1
544,921,49,0.280322842562692,1
544,922,49,0.220276293787806,1
544,923,49,0.183100280119856,1
544,924,49,0.186863366103801,1
544,925,49,0.227587043297794,1
544,926,49,0.259836534254479,1
544,927,49,0.219585038780753,1
544,928,49,0.16795971567062,1
544,929,49,0.132189141577542,1
544,930,49,0.133723490742629,1
544,931,49,0.131381743104503,1
545,920,49,0.19059887066437,1
545,921,49,0.205413133449431,1
545,922,49,0.165811909484316,1
545,923,49,0.128415786165252,1
545,924,49,0.121026166974498,1
545,925,49,0.143823155544719,1
545,926,49,0.167899371002225,1
545,927,49,0.142758809379436,1
546,919,49,0.126693961048529,1
546,920,49,0.142320415491649,1
546,921,49,0.147753496599029,1
546,922,49,0.119330674933211,1
547,918,49,0.118939270746224,1
547,919,49,0.122472248518659,1
547,920,49,0.137005279710964,1
547,921,49,0.128960419173569,1
548,919,49,0.132741300004108,1
548,920,49,0.159908966699541,1
548,921,49,0.137652100597436,1
549,919,49,0.127585316809038,1
549,920,49,0.159909214013756,1
549,921,49,0.130594612620204,1
538,925,50,0.205845721341606,3
538,926,50,0.236586218728649,3
538,927,50,0.231010578641775,3
538,932,50,0.239423006986603,1
538,933,50,0.239233281653299,1
539,924,50,0.233866209887519,3
539,925,50,0.331886725755764,3
539,926,50,0.368563824214521,3
539,927,50,0.314958939245308,3
539,928,50,0.260311189116893,3
539,931,50,0.223215352361987,1
539,932,50,0.238180853677793,1
539,933,50,0.232531678831071,1
539,935,50,0.222843462444229,1
540,924,50,0.233174389590832,3
540,925,50,0.347726683027405,3
540,926,50,0.379536307987882,3
540,927,50,0.343851952340808,3
540,928,50,0.314008593156151,3
540,929,50,0.230467476626216,3
540,930,50,0.208328379197794,1
540,931,50,0.21525374250002,1
540,932,50,0.215203714367439,1
540,933,50,0.203858422080665,1
540,934,50,0.223012389829761,1
540,935,50,0.246040664298229,5
540,936,50,0.177142598455553,1
541,924,50,0.219470049447769,3
541,925,50,0.314353773138718,3
541,926,50,0.311494114204334,3
541,927,50,0.284077778954418,3
541,928,50,0.295541617188121,3
541,929,50,0.223832389550885,1
541,930,50,0.192876858342563,1
541,931,50,0.210173296132251,1
541,932,50,0.209128876426556,1
541,933,50,0.193573342278728,1
541,934,50,0.254920304525294,5
541,935,50,0.349955902697826,5
541,936,50,0.27378580968507,5
541,937,50,0.155396695297959,1
542,920,50,0.247496426427366,1
542,921,50,0.219398210556822,1
542,924,50,0.24724334154762,3
542,925,50,0.312177172511699,3
542,926,50,0.280487200523684,3
542,927,50,0.239539574419815,3
542,928,50,0.25007826906053,1
542,929,50,0.203873849776918,1
542,930,50,0.192730024360215,1
542,931,50,0.219659327260113,1
542,932,50,0.19828073281887,1
542,933,50,0.160946061193733,1
542,934,50,0.210063488620908,1
542,935,50,0.318587980924867,5
542,936,50,0.273575333511462,1
542,937,50,0.168482797011653,1
543,919,50,0.211059976476414,1
543,920,50,0.252309938319364,1
543,921,50,0.237172400525041,1
543,922,50,0.225537161763658,1
543,923,50,0.232312110915856,1
543,924,50,0.2728084003547,3
543,925,50,0.330428796683031,3
543,926,50,0.304665486090672,3
543,927,50,0.252000112492637,3
543,928,50,0.234673631914293,1
543,929,50,0.188050450780797,1
543,930,50,0.191122446633832,1
543,931,50,0.212803376814156,1
543,932,50,0.166073532592904,1
543,933,50,0.120553078435444,1
543,934,50,0.133339753296298,1
543,935,50,0.18504187335854,1
543,936,50,0.169804691489414,1
543,937,50,0.120290442516262,1
544,920,50,0.238513149767459,1
544,921,50,0.253388016311998,1
544,922,50,0.22785136330901,1
544,923,50,0.195424288969277,1
544,924,50,0.206007606160451,1
544,925,50,0.253337163798701,3
544,926,50,0.257028575767842,3
544,927,50,0.218314927188811,1
544,928,50,0.183863597778336,1
544,929,50,0.144094541676355,1
544,930,50,0.14637820580462,1
544,931,50,0.152902708095362,1
545,921,50,0.20357038345857,1
545,922,50,0.171069691920918,1
545,923,50,0.135280321947521,1
545,924,50,0.128584607558978,1
545,925,50,0.146172829014583,1
545,926,50,0.154564164989955,1
545,927,50,0.137783518660399,1
546,920,50,0.152862348770891,1
546,921,50,0.151071935178615,1
546,922,50,0.11880543842545,1
547,919,50,0.128382540068671,1
547,920,50,0.142585171246957,1
547,921,50,0.125556480536889,1
548,919,50,0.138803489589438,1
548,920,50,0.157895652338584,1
548,921,50,0.125609676646792,1
549,919,50,0.129507607762105,1
549,920,50,0.148434128871716,1
549,921,50,0.116435767834794,1
537,932,51,0.180359214239872,1
537,933,51,0.195994171581232,1
538,925,51,0.204295579397379,3
538,926,51,0.232021010308245,3
538,927,51,0.231124672932839,3
538,929,51,0.260833186986128,6
538,930,51,0.272447274493717,6
538,931,51,0.251025082089476,1
538,932,51,0.27803728235878,1
538,933,51,0.262007246447814,1
538,934,51,0.222320381103197,1
539,924,51,0.241546635264199,3
539,925,51,0.359033158759332,3
539,926,51,0.379622467549549,3
539,927,51,0.313599959412204,3
539,928,51,0.25793049537838,3
539,930,51,0.264191407823684,6
539,931,51,0.28139114575541,6
539,932,51,0.303356557943883,6
539,933,51,0.259226633847207,1
539,934,51,0.220296149586189,1
539,935,51,0.201689005342741,1
540,924,51,0.254490425312615,3
540,925,51,0.38052544707815,3
540,926,51,0.379010824165906,3
540,927,51,0.316062902792418,3
540,928,51,0.270677894386561,3
540,930,51,0.204981935227606,1
540,931,51,0.233764716844538,1
540,932,51,0.251436259636775,1
540,933,51,0.230027210216517,1
540,934,51,0.248531636622779,1
540,935,51,0.259320801678684,5
540,936,51,0.185328628302092,1
541,924,51,0.219596862755591,3
541,925,51,0.30195859667979,3
541,926,51,0.285843202034138,3
541,927,51,0.258058910340165,3
541,928,51,0.256535737422211,1
541,929,51,0.199214826831058,1
541,930,51,0.188595731516819,1
541,931,51,0.224952534513759,1
541,932,51,0.233017615932425,1
541,933,51,0.220464912095578,1
541,934,51,0.285507231561854,5
541,935,51,0.352743275220303,5
541,936,51,0.278316794528901,5
541,937,51,0.154680685315697,1
542,924,51,0.235074186727226,3
542,925,51,0.302896859703027,3
542,926,51,0.278847059759028,3
542,927,51,0.248587647403983,3
542,928,51,0.24425406641098,1
542,929,51,0.194159394529579,1
542,930,51,0.195364521367383,1
542,931,51,0.23600418238957,1
542,932,51,0.220031900236178,1
542,933,51,0.179430655355347,1
542,934,51,0.216689177756079,1
542,935,51,0.305418758081286,5
542,936,51,0.296004353860759,1
542,937,51,0.190233104717643,1
543,920,51,0.211858707175071,1
543,921,51,0.21623866547177,1
543,923,51,0.227700454530551,1
543,924,51,0.279970667120908,3
543,925,51,0.357781795940241,3
543,926,51,0.328910546495638,3
543,927,51,0.277853610335303,3
543,928,51,0.243619882103194,1
543,929,51,0.181182735244339,1
543,930,51,0.179836910172085,1
543,931,51,0.210246359817404,1
543,932,51,0.17742020277316,1
543,933,51,0.129795399069985,1
543,934,51,0.132420922104219,1
543,935,51,0.174781784069158,1
543,936,51,0.183249222161464,1
543,937,51,0.136557735197231,1
544,921,51,0.219617872686976,1
544,922,51,0.220130778814603,1
544,923,51,0.208740616663156,1
544,924,51,0.242864560937657,1
544,925,51,0.296210637469583,3
544,926,51,0.27430375631193,3
544,927,51,0.235416493154154,1
544,928,51,0.202594599335898,1
544,929,51,0.157341527175169,1
544,930,51,0.159397191151182,1
544,931,51,0.178421330714409,1
544,932,51,0.138117781486915,1
545,921,51,0.197638563795008,1
545,922,51,0.171975179922269,1
545,923,51,0.152515543580627,1
545,924,51,0.159059878116018,1
545,925,51,0.170671739795674,1
545,926,51,0.158286137929917,1
545,927,51,0.145872354020547,1
545,928,51,0.137008082605397,1
545,929,51,0.122355068688343,1
545,930,51,0.12018511021452,1
545,931,51,0.121267427879406,1
546,920,51,0.171887477590977,1
546,921,51,0.153716948928343,1
546,922,51,0.120263273283244,1
547,919,51,0.143275248567273,1
547,920,51,0.148059271183381,1
547,921,51,0.120338009283563,1
548,918,51,0.124417551470563,1
548,919,51,0.146395034948089,1
548,920,51,0.149946796823977,1
549,919,51,0.127695242089054,1
549,920,51,0.131567393641698,1
537,929,52,0.253780727731263,6
537,930,52,0.238212768988361,6
537,931,52,0.171407110947889,1
537,932,52,0.179582529836929,1
537,933,52,0.200034708783508,1
538,925,52,0.185880398092034,3
538,926,52,0.213040115401994,3
538,927,52,0.223287026376791,3
538,928,52,0.257963918127972,6
538,929,52,0.334853695505608,6
538,930,52,0.341338250662237,6
538,931,52,0.278749264652402,6
538,932,52,0.28790370630264,6
538,933,52,0.253006351594324,1
538,934,52,0.204367347627121,1
539,924,52,0.223487162460849,3
539,925,52,0.34545174555786,3
539,926,52,0.361350398736465,3
539,927,52,0.296810386217184,3
539,928,52,0.259749244113545,3
539,929,52,0.283599496816854,6
539,930,52,0.308210652920833,6
539,931,52,0.325546295901989,6
539,932,52,0.350052614332655,6
539,933,52,0.271783483141367,6
539,934,52,0.228931867336321,1
539,935,52,0.199953330629993,1
540,924,52,0.252923819307807,3
540,925,52,0.376038861024297,3
540,926,52,0.357238764585886,3
540,927,52,0.276940714684378,3
540,930,52,0.200688372029921,6
540,931,52,0.243599767213729,6
540,932,52,0.275635013399249,6
540,933,52,0.251773337134592,1
540,934,52,0.278525221527586,1
540,935,52,0.273061838540467,5
540,936,52,0.183847333924501,1
541,924,52,0.209865543034181,1
541,925,52,0.28056450388109,3
541,926,52,0.265155815492478,3
541,927,52,0.23314683172119,1
541,928,52,0.206303464622479,1
541,929,52,0.167600980513713,1
541,930,52,0.174929548424029,1
541,931,52,0.223146457687882,1
541,932,52,0.238243553719662,1
541,933,52,0.239338519740102,1
541,934,52,0.293126676319301,5
541,935,52,0.324215698319243,5
541,936,52,0.253729569019415,5
541,937,52,0.143651331049814,1
542,924,52,0.213771270435691,1
542,925,52,0.284448750276521,3
542,926,52,0.28466535042116,3
542,927,52,0.261824705003605,3
542,928,52,0.221434713569627,1
542,929,52,0.174429844164722,1
542,930,52,0.189051460953372,1
542,931,52,0.239436126416851,1
542,932,52,0.22865598244135,1
542,933,52,0.202102184957492,1
542,934,52,0.230843629769961,1
542,935,52,0.295436284886379,5
542,936,52,0.294177903054335,1
542,937,52,0.189570231960948,1
543,923,52,0.213609809584071,1
543,924,52,0.270681333231832,3
543,925,52,0.361880663966592,3
543,926,52,0.353933586758957,3
543,927,52,0.307210184484156,3
543,928,52,0.236100611379582,3
543,929,52,0.167989864451083,1
543,930,52,0.165596227935332,1
543,931,52,0.200682672026115,1
543,932,52,0.178523483261962,1
543,933,52,0.141939999121917,1
543,934,52,0.148179218577528,1
543,935,52,0.187898022786448,1
543,936,52,0.199448055912421,1
543,937,52,0.148041393898716,1
544,923,52,0.21692572791404,1
544,924,52,0.272778699095197,3
544,925,52,0.332582550187356,3
544,926,52,0.309678356793481,3
544,927,52,0.267417986837796,3
544,928,52,0.212970749653195,1
544,929,52,0.163991700417598,1
544,930,52,0.167065969206036,1
544,931,52,0.194288916516896,1
544,932,52,0.151125048850446,1
545,922,52,0.174197180372993,1
545,923,52,0.175551767434569,1
545,924,52,0.193909359858482,1
545,925,52,0.200376638350681,3
545,926,52,0.180743469868367,3
545,927,52,0.169350599037425,1
545,928,52,0.16402020043663,1
545,929,52,0.157626598026687,1
545,930,52,0.159693921101395,1
545,931,52,0.162901763119524,1
545,932,52,0.117247947715985,1
546,921,52,0.154193452758934,1
546,922,52,0.126098110444027,1
546,923,52,0.115449902713654,1
546,924,52,0.114919967235813,1
546,929,52,0.117450168305567,1
547,920,52,0.15110565234989,1
547,921,52,0.119813679594589,1
548,919,52,0.149152235136369,1
548,920,52,0.140751972295532,1
549,919,52,0.122118765844597,1
549,920,52,0.118860872140153,1
537,929,53,0.264242189675776,6
537,930,53,0.258694437210831,6
537,931,53,0.186642361410767,1
537,932,53,0.176914822063782,1
538,926,53,0.188031572462405,3
538,928,53,0.263761811255821,6
538,929,53,0.365999670436144,6
538,930,53,0.359911430420195,6
538,931,53,0.283892693706857,6
538,932,53,0.265679509230614,6
538,933,53,0.223401356205203,1
538,934,53,0.193203324882881,1
539,925,53,0.295832317382242,3
539,926,53,0.32294563383477,3
539,927,53,0.269430158842618,3
539,928,53,0.252298067237056,1
539,929,53,0.299834426666295,6
539,930,53,0.31377795498561,6
539,931,53,0.329922014526436,6
539,932,53,0.345421690992336,6
539,933,53,0.270654175775681,6
539,934,53,0.258969521278821,1
539,935,53,0.226205569648017,1
540,924,53,0.23746234699965,3
540,925,53,0.33525608750985,3
540,926,53,0.330349444150703,3
540,927,53,0.248814870282988,3
540,929,53,0.182567106003489,1
540,930,53,0.196945895563871,6
540,931,53,0.245181471162503,6
540,932,53,0.285920576052748,6
540,933,53,0.265507449198363,1
540,934,53,0.290050794100034,1
540,935,53,0.270200436629713,1
541,924,53,0.206037825602118,1
541,925,53,0.263070226496482,3
541,926,53,0.269622734177826,3
541,927,53,0.233055490337881,1
541,929,53,0.146250155925724,1
541,930,53,0.163607020821878,1
541,931,53,0.211468186253136,1
541,932,53,0.24298197630532,1
541,933,53,0.251727901980285,1
541,934,53,0.270901018915722,1
541,935,53,0.268641674018572,5
541,936,53,0.205967965224889,1
542,924,53,0.2028346354466,1
542,925,53,0.267981863247393,3
542,926,53,0.302303470463805,3
542,927,53,0.283219951935307,3
542,928,53,0.200938960213785,1
542,929,53,0.158645567921999,1
542,930,53,0.178517323960329,1
542,931,53,0.225298114909816,1
542,932,53,0.235260614537667,1
542,933,53,0.229544523530558,1
542,934,53,0.24213832863452,1
542,935,53,0.275172465156489,1
542,936,53,0.25475295523999,1
543,924,53,0.251211392131244,3
543,925,53,0.338368360249285,3
543,926,53,0.369256610214331,3
543,927,53,0.330385316488707,3
543,928,53,0.224705809142392,3
543,929,53,0.163229819536937,1
543,930,53,0.165570507257,1
543,931,53,0.195800748311574,1
543,932,53,0.187123564211438,1
543,933,53,0.166761902267452,1
543,934,53,0.179087018142405,1
543,935,53,0.218053480733233,1
543,936,53,0.212338967826352,1
543,937,53,0.152664768267052,1
544,923,53,0.217611070933674,1
544,924,53,0.274492680818253,3
544,925,53,0.335812591600474,3
544,926,53,0.344294903876266,3
544,927,53,0.303269762431379,3
544,928,53,0.218259952771935,1
544,929,53,0.170360100331373,1
544,930,53,0.178978765177556,1
544,931,53,0.200541797138655,1
544,932,53,0.160576349996439,1
544,933,53,0.118309184788282,1
544,935,53,0.132462718206509,1
544,936,53,0.134056658320479,1
545,922,53,0.183438052452848,1
545,923,53,0.196043952399598,1
545,924,53,0.216311729156923,1
545,925,53,0.220791413966498,3
545,926,53,0.212970655438256,3
545,927,53,0.200631489760532,1
545,928,53,0.186051763289111,1
545,929,53,0.191064528000115,1
545,930,53,0.200924922187882,1
545,931,53,0.192095757614357,1
545,932,53,0.137974680771522,1
546,921,53,0.156974171351347,1
546,922,53,0.139850912396312,1
546,923,53,0.139640895520532,1
546,924,53,0.143813192314925,1
546,925,53,0.131024621378425,1
546,926,53,0.117412023032161,1
546,927,53,0.116831929876198,1
546,928,53,0.137818743270698,1
546,929,53,0.165877070891466,1
546,930,53,0.154136122968585,1
546,931,53,0.117743647840386,1
547,920,53,0.152084875317834,1
547,921,53,0.124021601412772,1
548,919,53,0.150211894108438,1
548,920,53,0.135609520721068,1
549,919,53,0.117479045184354,1
553,920,53,0.12610346891868,1
553,921,53,0.138645938657784,1
554,920,53,0.136826542194914,1
554,921,53,0.126663918259873,1
555,920,53,0.114392940644212,1
557,916,53,0.125574028069268,1
557,917,53,0.114912041404074,1
561,915,53,0.120114920085004,1
562,914,53,0.120237387728768,1
562,915,53,0.125876870213646,1
537,929,54,0.24924679867059,6
537,930,54,0.262799523423153,6
537,931,54,0.221389631721341,1
538,928,54,0.241130864738627,6
538,929,54,0.341239230761404,6
538,930,54,0.337376112066032,6
538,931,54,0.286579868641764,6
538,932,54,0.230483422504633,1
538,933,54,0.190846644176933,1
538,934,54,0.185739440766503,1
539,926,54,0.263080566586031,3
539,929,54,0.274208057487695,6
539,930,54,0.281261647321827,6
539,931,54,0.300368342725307,6
539,932,54,0.296486616579493,6
539,933,54,0.25242026401287,1
539,934,54,0.273011198010783,1
539,935,54,0.246841679709155,1
540,925,54,0.269004637070865,3
540,926,54,0.285681199446619,3
540,930,54,0.183061675548623,1
540,931,54,0.23534441872586,1
540,932,54,0.281287108909078,1
540,933,54,0.266685960315914,1
540,934,54,0.269685716864512,1
540,935,54,0.241367791756344,1
541,925,54,0.237038685972941,1
541,926,54,0.266297417907697,3
541,932,54,0.252184491128156,1
541,933,54,0.263359089499293,1
541,934,54,0.23727040761528,1
541,935,54,0.206186355453368,1
542,925,54,0.244718451845049,3
542,926,54,0.30316857558695,3
542,927,54,0.283356375166902,3
542,928,54,0.180181795732968,1
542,929,54,0.14098405902076,1
542,930,54,0.152328197174532,1
542,931,54,0.18934597685252,1
542,932,54,0.230984057136461,1
542,933,54,0.248703484671418,1
542,934,54,0.234421347861528,1
542,935,54,0.231002805909312,1
543,924,54,0.229826626611499,3
543,925,54,0.299270785794045,3
543,926,54,0.360266762062433,3
543,927,54,0.324023028769097,3
543,928,54,0.204039503193321,3
543,929,54,0.155983666144465,1
543,930,54,0.162050295608792,1
543,931,54,0.178552607454964,1
543,932,54,0.185744469488869,1
543,933,54,0.189453652750869,1
543,934,54,0.19985073056148,1
543,935,54,0.231828317204364,1
543,936,54,0.204127382177624,1
543,937,54,0.142801347424371,1
544,924,54,0.254185380894039,3
544,925,54,0.306842981759611,3
544,926,54,0.35345563437368,3
544,927,54,0.314959339658799,3
544,928,54,0.210783220093258,3
544,929,54,0.178388908998544,1
544,930,54,0.199141998683252,1
544,931,54,0.194042120484325,1
544,932,54,0.155257151196511,1
544,933,54,0.129113530226225,1
544,934,54,0.125017512201777,1
544,935,54,0.154120294858842,1
544,936,54,0.153456621275165,1
544,937,54,0.117180572257771,1
545,923,54,0.206971707630694,1
545,924,54,0.220805169347584,1
545,925,54,0.223399165707873,3
545,926,54,0.236396399180405,3
545,927,54,0.224316536568398,3
545,928,54,0.197848144926695,1
545,929,54,0.227504605226216,1
545,930,54,0.25325138109679,1
545,931,54,0.207766787500466,1
545,932,54,0.142091508520611,1
546,922,54,0.147892169212292,1
546,923,54,0.160755181727427,1
546,924,54,0.16665321355851,1
546,925,54,0.147116474066207,1
546,926,54,0.135352172615335,1
546,927,54,0.137361447510785,1
546,928,54,0.165159117726089,1
546,929,54,0.219984486568153,1
546,930,54,0.212343207498605,1
546,931,54,0.142878309252623,1
547,921,54,0.125732521150312,1
547,923,54,0.116416689309657,1
547,924,54,0.11888505004886,1
547,929,54,0.126564745259764,1
548,920,54,0.127874097373777,1
548,941,54,0.12101103369993,1
549,942,54,0.123032945174066,1
549,944,54,0.113973036438193,1
549,945,54,0.197421139269653,1
550,943,54,0.120049888223396,1
550,944,54,0.13357173402972,1
550,945,54,0.158843160202705,1
550,946,54,0.156465669772117,1
551,944,54,0.124935674750434,1
552,920,54,0.11539729544712,1
552,921,54,0.130769228232675,1
553,920,54,0.151227012968121,1
553,921,54,0.151403359780095,1
554,919,54,0.126630872370037,1
554,920,54,0.165442987337135,1
554,921,54,0.134589314254683,1
555,919,54,0.116521114792612,1
555,920,54,0.137239851355207,1
556,916,54,0.118466429521384,1
556,917,54,0.117117483579278,1
557,916,54,0.17926550834424,1
557,917,54,0.162521511625935,1
558,916,54,0.148256097967708,1
558,917,54,0.124167198824047,1
560,915,54,0.128891135862841,1
560,916,54,0.114840061190719,1
561,915,54,0.151062113271229,1
561,916,54,0.121018771101791,1
562,915,54,0.159724305419206,1
563,915,54,0.145252337284205,1
583,951,54,0.120618169181389,1
537,930,55,0.237316007645731,1
537,931,55,0.234803248116549,1
538,929,55,0.268349160186877,6
538,930,55,0.272848418150018,6
538,931,55,0.253844440583726,1
538,932,55,0.180764479799752,1
539,930,55,0.218703398935823,1
539,931,55,0.231472679363574,1
539,932,55,0.218532398821635,1
539,933,55,0.2124841059398,1
539,934,55,0.2478779969301,1
540,932,55,0.248355596009357,1
540,933,55,0.24572923681754,1
540,934,55,0.232140757495646,1
541,926,55,0.257236225493281,1
542,925,55,0.231947875961887,1
542,926,55,0.291180007250782,3
542,927,55,0.266553823864041,1
542,929,55,0.125260563190525,1
542,930,55,0.123733880766096,1
542,931,55,0.147154595785879,1
542,932,55,0.209407846860777,1
542,933,55,0.240426820053612,1
542,934,55,0.206660492133618,1
543,925,55,0.267895797900665,3
543,926,55,0.337368080242487,3
543,927,55,0.299704551372957,3
543,928,55,0.185116456259584,1
543,929,55,0.146359692569117,1
543,930,55,0.150101827506014,1
543,931,55,0.147670587452756,1
543,932,55,0.169535495855108,1
543,933,55,0.193595624111789,1
543,934,55,0.195690422618067,1
543,935,55,0.21503405681613,1
544,925,55,0.274086119802963,3
544,926,55,0.335696495241957,3
544,927,55,0.296026093957921,3
544,928,55,0.197674648116625,1
544,929,55,0.195058946989776,1
544,930,55,0.222213871114717,1
544,931,55,0.176561457158395,1
544,932,55,0.142479909606419,1
544,933,55,0.138641722539266,1
544,934,55,0.138058708720196,1
544,935,55,0.169809472897565,1
544,936,55,0.169374765169265,1
544,937,55,0.127329146390042,1
545,923,55,0.21060899311741,1
545,924,55,0.219704338447195,1
545,925,55,0.225893788861307,1
545,926,55,0.248098271457358,3
545,927,55,0.229323683713666,1
545,928,55,0.203195949737461,1
545,929,55,0.270592417883201,1
545,930,55,0.305784476920543,1
545,931,55,0.205597606299889,1
545,932,55,0.13095371286,1
546,922,55,0.154228229848273,1
546,923,55,0.18075656574488,1
546,924,55,0.189472907929016,1
546,925,55,0.171387078496495,1
546,926,55,0.160861149980008,1
546,927,55,0.158574494527431,1
546,928,55,0.183168032437827,1
546,929,55,0.254995605815247,1
546,930,55,0.254491438123208,1
546,931,55,0.157405098705223,1
547,921,55,0.131278083117927,1
547,922,55,0.128834406692728,1
547,923,55,0.142035815714826,1
547,924,55,0.140971139797257,1
547,925,55,0.126540885326475,1
547,926,55,0.116983568820433,1
547,927,55,0.117866857426794,1
547,928,55,0.130225831795431,1
547,929,55,0.145610365829071,1
547,930,55,0.125637952905344,1
548,920,55,0.128881667261477,1
548,921,55,0.114509190102005,1
548,940,55,0.129378132882257,1
548,941,55,0.126245297732397,1
549,940,55,0.122344622606988,1
549,941,55,0.151674651696792,1
549,942,55,0.146341579747104,1
549,944,55,0.130172812338539,1
549,945,55,0.243242551272712,1
550,942,55,0.141294650343866,1
550,943,55,0.138887811959795,1
550,944,55,0.147103672611378,1
550,945,55,0.197514894910773,1
550,946,55,0.185096388477588,1
551,944,55,0.125476539161193,1
551,945,55,0.114879537250137,1
552,919,55,0.124478284775582,1
552,920,55,0.14258225058385,1
552,921,55,0.144677767479038,1
552,922,55,0.116387565116655,1
553,919,55,0.149541378164821,1
553,920,55,0.168121576935731,1
553,921,55,0.14404511416401,1
554,918,55,0.118362498666859,1
554,919,55,0.169229532840878,1
554,920,55,0.177880442749915,1
554,921,55,0.12376321694271,1
555,918,55,0.117091103396373,1
555,919,55,0.146011497708504,1
555,920,55,0.146002123322079,1
556,916,55,0.142525274099522,1
556,917,55,0.144782499160545,1
557,915,55,0.123020956323085,1
557,916,55,0.204006787055772,1
557,917,55,0.184334790241744,1
558,915,55,0.120488529425398,1
558,916,55,0.167641504714327,1
558,917,55,0.138193718727706,1
559,916,55,0.128318556348259,1
560,915,55,0.151577527871605,1
560,916,55,0.139792287150552,1
561,915,55,0.171580348666877,1
561,916,55,0.136486426265316,1
562,914,55,0.169387861045778,1
562,915,55,0.179453031403347,1
563,915,55,0.167829863931017,1
564,915,55,0.123128773543842,1
583,951,55,0.123964024308208,1
538,930,56,0.201165617803156,1
538,931,56,0.206213253818437,1
542,926,56,0.26847507845278,1
543,925,56,0.249186642432072,1
543,926,56,0.303990624482996,3
543,927,56,0.266197974039639,1
543,928,56,0.172449481478662,1
543,929,56,0.13659228852609,1
543,930,56,0.130357332296467,1
543,931,56,0.123182511389644,1
543,932,56,0.150474588911957,1
543,933,56,0.180129117805229,1
543,934,56,0.173433850937646,1
543,935,56,0.176043698961412,1
544,926,56,0.295490505583743,3
544,927,56,0.253955661319152,1
544,928,56,0.186797780729427,1
544,929,56,0.213073373275443,1
544,930,56,0.223555303415442,1
544,931,56,0.15429800778743,1
544,932,56,0.127605313929829,1
544,933,56,0.13901573229315,1
544,934,56,0.143458378854851,1
544,935,56,0.165777674130877,1
544,936,56,0.161578231657199,1
544,937,56,0.130026366992814,1
545,924,56,0.213618948433149,1
545,925,56,0.22761248133131,1
545,926,56,0.246893050404615,1
545,927,56,0.213875071744676,1
545,928,56,0.20300146654974,1
545,929,56,0.302882868784593,1
545,930,56,0.322195282507263,1
545,931,56,0.189694595680358,1
545,932,56,0.11418691612647,1
545,935,56,0.115639062757325,1
545,936,56,0.120394538246931,1
545,937,56,0.114860859138491,1
546,923,56,0.185511593713527,1
546,924,56,0.193772818858213,1
546,925,56,0.190736648235712,1
546,926,56,0.186663477333958,1
546,927,56,0.169622738888573,1
546,928,56,0.180033807617617,1
546,929,56,0.251206704938031,1
546,930,56,0.254925627669345,1
546,931,56,0.15969591139198,1
547,922,56,0.139466067924449,1
547,923,56,0.153981846006059,1
547,924,56,0.146805823858765,1
547,925,56,0.1342958936042,1
547,926,56,0.128428611173816,1
547,927,56,0.129092484964238,1
547,928,56,0.13480130964418,1
547,929,56,0.145385015471977,1
547,930,56,0.135871402920738,1
548,923,56,0.114542624628463,1
548,940,56,0.125355979369943,1
548,941,56,0.115903794958898,1
549,940,56,0.153814331844612,1
549,941,56,0.171378069192959,1
549,942,56,0.145595185447033,1
549,944,56,0.136794179363386,1
549,945,56,0.236373905363732,1
550,940,56,0.117454749506973,1
550,941,56,0.153799575429799,1
550,942,56,0.159427799229473,1
550,943,56,0.139358180042487,1
550,944,56,0.152477586737099,1
550,945,56,0.214761422336553,1
550,946,56,0.186160534436125,1
551,919,56,0.120651756807124,1
551,920,56,0.12476429777649,1
551,921,56,0.12148561790114,1
551,922,56,0.114459303291832,1
551,944,56,0.121261645437529,1
551,945,56,0.128997940273005,1
552,918,56,0.117234474979716,1
552,919,56,0.145930519968479,1
552,920,56,0.154338002029013,1
552,921,56,0.140091266482433,1
553,918,56,0.123543154399065,1
553,919,56,0.177898449580122,1
553,920,56,0.167313954702211,1
553,921,56,0.12471842687809,1
554,917,56,0.115941457380742,1
554,918,56,0.138283917754881,1
554,919,56,0.206291004696803,1
554,920,56,0.175720588828294,1
555,917,56,0.146603980128939,1
555,918,56,0.137777747995389,1
555,919,56,0.172662901869111,1
555,920,56,0.14557063067857,1
556,916,56,0.16867855210105,1
556,917,56,0.174432635282289,1
556,918,56,0.118284418036206,1
557,916,56,0.19461508863553,1
557,917,56,0.181014856000003,1
558,916,56,0.173152148270195,1
558,917,56,0.143270113853101,1
559,916,56,0.165709945366641,1
559,917,56,0.119694603688628,1
560,916,56,0.16272528676201,1
561,916,56,0.136668614403505,1
562,915,56,0.177088483749996,1
562,916,56,0.113903352713974,1
593,929,56,0.119641348694388,1
543,926,57,0.267247504905772,1
543,930,57,0.121768380486654,1
543,931,57,0.119350495400992,1
544,927,57,0.209224198391035,1
544,928,57,0.184817476927704,1
544,929,57,0.224560788797618,1
544,930,57,0.204540232040089,1
544,931,57,0.14042762559134,1
544,932,57,0.118734247262208,1
544,933,57,0.124380678098833,1
544,934,57,0.127110661946624,1
544,935,57,0.136448846281544,1
545,925,57,0.233990361623316,1
545,926,57,0.231198584552443,1
545,927,57,0.186581345460932,1
545,928,57,0.194596598953762,1
545,929,57,0.295751975593055,1
545,930,57,0.284647190491678,1
545,931,57,0.166281476740027,1
545,937,57,0.116172813940193,1
546,924,57,0.189281946024638,1
546,925,57,0.199477851386863,1
546,926,57,0.198234567498786,1
546,927,57,0.167750228753872,1
546,928,57,0.163880432574702,1
546,929,57,0.217515890291603,1
546,930,57,0.221291671738571,1
546,931,57,0.154598282574721,1
547,923,57,0.155316035533353,1
547,924,57,0.142498010651564,1
547,925,57,0.133319237993342,1
547,926,57,0.131656132337318,1
547,927,57,0.130765589180658,1
547,928,57,0.129657892366593,1
547,929,57,0.136699399134805,1
547,930,57,0.14337147735054,1
547,931,57,0.128514370321993,1
548,922,57,0.119939444761216,1
548,923,57,0.125514707988334,1
549,940,57,0.154565283792355,1
549,941,57,0.158590087099827,1
549,942,57,0.122501514034069,1
549,944,57,0.1277251082247,1
550,940,57,0.146150452966583,1
550,941,57,0.177394187673143,1
550,942,57,0.15120679208685,1
550,943,57,0.124367452676778,1
550,944,57,0.147713596572385,1
550,945,57,0.198734000890143,1
551,919,57,0.139450145599767,1
551,920,57,0.141096975625088,1
551,921,57,0.127892787262291,1
551,944,57,0.122914552326412,1
551,945,57,0.162591642871114,1
551,946,57,0.145101675819962,1
552,919,57,0.162778765516729,1
552,920,57,0.159216168922863,1
552,921,57,0.130924518005794,1
552,945,57,0.121420491824593,1
552,946,57,0.124208865380796,1
553,918,57,0.136152481414219,1
553,919,57,0.188866870334241,1
553,920,57,0.160268867766318,1
554,918,57,0.147347147567351,1
554,919,57,0.215913270626382,1
554,920,57,0.167114619445134,1
554,928,57,0.12218829646954,1
555,917,57,0.178004229402824,1
555,918,57,0.149877065992289,1
555,919,57,0.181287031181753,1
555,920,57,0.13940511085895,1
556,917,57,0.193640764844412,1
556,918,57,0.13288628501828,1
557,917,57,0.165669644926507,1
558,917,57,0.149468290925933,1
559,917,57,0.150603486725304,1
559,920,57,0.119783884120147,1
560,916,57,0.176442946542067,1
560,917,57,0.117808762140066,1
560,920,57,0.127488039884575,1
586,923,57,0.13610360741464,1
587,923,57,0.143697449262429,1
587,924,57,0.139654156273189,1
588,924,57,0.135116870805315,1
592,929,57,0.117112042666554,1
593,928,57,0.116181575929515,1
593,929,57,0.146663500416618,1
593,930,57,0.120423485786923,1
594,929,57,0.120109361403607,1
594,930,57,0.132420309707116,1
544,929,58,0.209935638948757,1
544,930,58,0.173382786440737,1
544,931,58,0.128660061948207,1
545,927,58,0.164512508823229,1
545,928,58,0.181278469399176,1
545,929,58,0.247293299018996,1
545,930,58,0.219743155002041,1
545,931,58,0.141651171449708,1
546,925,58,0.199900546710448,1
546,926,58,0.192873619704037,1
546,927,58,0.155194227394162,1
546,928,58,0.148553840728515,1
546,929,58,0.180279084434298,1
546,930,58,0.182607053137602,1
546,931,58,0.145715627469609,1
547,924,58,0.132918365204991,1
547,925,58,0.123763688017405,1
547,926,58,0.125471204240275,1
547,927,58,0.124852341636936,1
547,928,58,0.122038282733002,1
547,929,58,0.129494806307276,1
547,930,58,0.148622664741416,1
547,931,58,0.1423514710909,1
548,923,58,0.128938113786774,1
548,930,58,0.12742590513234,1
548,931,58,0.115178398813344,1
549,922,58,0.114215828335859,1
549,923,58,0.119413348542137,1
549,940,58,0.134177135673658,1
549,941,58,0.132857349255156,1
550,940,58,0.152184542946372,1
550,941,58,0.172584927230265,1
550,942,58,0.129618428084041,1
550,944,58,0.125121831692926,1
550,945,58,0.154376135525552,1
551,920,58,0.152280041563862,1
551,921,58,0.127082527010481,1
551,941,58,0.132206347580768,1
551,942,58,0.115511271969511,1
551,945,58,0.171595587933252,1
551,946,58,0.174254934130568,1
552,920,58,0.158361686534085,1
552,921,58,0.119839706471473,1
552,945,58,0.129873350155097,1
552,946,58,0.14783659417518,1
553,919,58,0.181319841534241,1
553,920,58,0.151439208564364,1
553,930,58,0.114066014806066,1
554,918,58,0.149358506968325,1
554,919,58,0.196030762308145,1
554,920,58,0.152841115079026,1
554,928,58,0.127646085444659,1
554,929,58,0.126753905303434,1
555,918,58,0.157705632583596,1
555,919,58,0.171976593146353,1
555,920,58,0.132742666120722,1
556,918,58,0.150533485025666,1
556,919,58,0.125525801797395,1
557,918,58,0.129448911855141,1
558,927,58,0.116888187971616,1
559,920,58,0.125920008878816,1
559,921,58,0.114279329204709,1
560,917,58,0.119812030833158,1
560,920,58,0.147255264448144,1
560,921,58,0.142190504867709,1
560,924,58,0.13000414404409,1
561,920,58,0.114061398274058,1
561,921,58,0.114455534694274,1
562,917,58,0.116435367421303,1
562,918,58,0.115642525156331,1
586,922,58,0.117340984968195,1
586,923,58,0.143578338025865,1
587,923,58,0.156948380011811,1
587,924,58,0.151915406196403,1
588,924,58,0.13915392205485,1
592,928,58,0.136482928535708,1
592,929,58,0.132508848195991,1
593,928,58,0.150058641733374,1
593,929,58,0.160788262947865,1
593,930,58,0.120612398516379,1
594,929,58,0.141310454899874,1
594,930,58,0.139691465389012,1
594,931,58,0.125522586712603,1
594,932,58,0.117570139253448,1
595,932,58,0.134612137823642,1
545,929,59,0.179992376598215,1
545,930,59,0.159672357657244,1
545,931,59,0.127268990151524,1
546,927,59,0.136979288164682,1
546,928,59,0.137718981427221,1
546,929,59,0.151327092787017,1
546,930,59,0.152697449073999,1
546,931,59,0.140637077177486,1
546,932,59,0.114431674760986,1
547,927,59,0.115312242910985,1
547,928,59,0.119571099680536,1
547,929,59,0.132451600843714,1
547,930,59,0.155886236120726,1
547,931,59,0.150402066962703,1
547,932,59,0.113822304312745,1
548,929,59,0.124081816535626,1
548,930,59,0.157692854682501,1
548,931,59,0.139079598244889,1
549,923,59,0.121654191980651,1
549,930,59,0.118102017914405,1
550,937,59,0.117614443828488,1
550,940,59,0.13186663206466,1
550,941,59,0.144826862619921,1
551,921,59,0.12537796678132,1
551,941,59,0.137316483431172,1
551,945,59,0.154410029349838,1
552,921,59,0.119197031042315,1
552,930,59,0.118069207561917,1
552,931,59,0.132094125811615,1
552,945,59,0.119646883822051,1
552,946,59,0.149764549801451,1
553,920,59,0.146882255727986,1
553,930,59,0.132435230998072,1
553,931,59,0.120169635410798,1
554,919,59,0.166384512552633,1
554,920,59,0.140809879152382,1
554,929,59,0.125631946702986,1
555,919,59,0.162938035871019,1
555,920,59,0.131724237961309,1
556,919,59,0.151424876116777,1
556,920,59,0.119296663340251,1
556,921,59,0.116443870319543,1
557,918,59,0.158838991191657,1
557,919,59,0.13300433633678,1
558,927,59,0.135994270977993,1
559,920,59,0.116581977643172,1
559,921,59,0.117848403075628,1
560,920,59,0.143186863177674,1
560,921,59,0.155097291998853,1
560,924,59,0.145863544923756,1
560,925,59,0.127901455036674,1
561,920,59,0.119524321963349,1
561,921,59,0.13098029324965,1
562,917,59,0.12869508635176,1
562,918,59,0.11928158895002,1
570,923,59,0.120458156884455,1
570,924,59,0.116002979735874,1
573,916,59,0.138221276597348,1
574,916,59,0.125160012296934,1
586,923,59,0.131599367836603,1
587,923,59,0.142958391950728,1
587,924,59,0.140682064810833,1
588,924,59,0.126230329333972,1
589,925,59,0.122017896975587,1
592,927,59,0.131895756257662,1
592,928,59,0.162088452659066,1
592,929,59,0.139648903790342,1
593,928,59,0.185524430498959,1
593,929,59,0.165278982682164,1
593,930,59,0.115108526659248,1
594,929,59,0.163007896248248,1
594,930,59,0.138072770299833,1
594,931,59,0.133132939728442,1
594,932,59,0.152982119512027,1
594,933,59,0.126638503780092,1
546,929,60,0.126266837622814,1
546,930,60,0.128722184923575,1
546,931,60,0.129722194062424,1
546,932,60,0.123718488400445,1
547,928,60,0.114980806532638,1
547,929,60,0.137593734442758,1
547,930,60,0.161831245875741,1
547,931,60,0.148585991576431,1
547,932,60,0.119591662090961,1
548,929,60,0.133156104826556,1
548,930,60,0.173127228418843,1
548,931,60,0.146544824924148,1
549,930,60,0.130068563508594,1
549,937,60,0.138039559533855,1
550,937,60,0.134601668188552,1
550,938,60,0.119393045222794,1
551,941,60,0.124636895625299,1
552,930,60,0.122152176817321,1
552,931,60,0.136469597121847,1
553,921,60,0.117868494411358,1
553,929,60,0.117251080362705,1
553,930,60,0.136671240644928,1
553,931,60,0.122670547411407,1
554,920,60,0.124862469742872,1
554,929,60,0.116633842967062,1
554,930,60,0.115510624241805,1
554,943,60,0.116468436864874,1
555,920,60,0.120874162947375,1
555,921,60,0.116135752138585,1
556,920,60,0.122848166125056,1
556,921,60,0.119178517806812,1
557,919,60,0.144009006288659,1
558,926,60,0.115085031808848,1
558,927,60,0.130595366339716,1
558,947,60,0.119893314771734,1
558,948,60,0.11892818871403,1
559,948,60,0.121280358879777,1
560,920,60,0.126195516914031,1
560,921,60,0.141946287969091,1
560,924,60,0.13981529914939,1
560,925,60,0.127642823252398,1
561,920,60,0.122756966064156,1
561,921,60,0.131827238443313,1
562,918,60,0.114289021566553,1
562,920,60,0.114326295351774,1
562,951,60,0.122557666137681,1
567,924,60,0.116743874238885,1
568,921,60,0.122670724064417,1
569,923,60,0.118198505788754,1
569,924,60,0.119875508148273,1
570,923,60,0.135239715308835,1
570,924,60,0.155778254023826,1
587,924,60,0.114922511039164,1
588,925,60,0.114735553269692,1
589,924,60,0.117434705278712,1
589,925,60,0.125264637986634,1
590,924,60,0.118442546034361,1
590,925,60,0.115861256913963,1
591,927,60,0.114376005508936,1
591,928,60,0.115103403721942,1
592,927,60,0.152709449701847,1
592,928,60,0.173826562356911,1
592,929,60,0.132715944408664,1
593,928,60,0.199089403193585,1
593,929,60,0.156761068936317,1
547,930,61,0.164973196320944,1
547,931,61,0.144188839053374,1
547,932,61,0.117967926502549,1
548,929,61,0.131525903737959,1
548,930,61,0.162089818775681,1
548,931,61,0.13426255329268,1
549,930,61,0.123000676557477,1
549,937,61,0.133984795875798,1
549,938,61,0.113957078782909,1
550,937,61,0.115827787056902,1
557,947,61,0.115519398007995,1
558,946,61,0.127204240934733,1
558,947,61,0.161275507281496,1
558,948,61,0.12270803318024,1
559,947,61,0.12359302943237,1
559,948,61,0.115158578345563,1
559,949,61,0.116520667271652,1
560,923,61,0.122120202622416,1
560,924,61,0.120283388172709,1
561,920,61,0.12849921349369,1
561,921,61,0.11825209053528,1
561,923,61,0.117324956651707,1
562,920,61,0.140438413201849,1
562,921,61,0.12044430728843,1
567,919,61,0.118738015859766,1
567,920,61,0.118691909424019,1
567,924,61,0.124630524340053,1
567,925,61,0.114610023640412,1
568,920,61,0.122221801657203,1
568,921,61,0.126496121453608,1
568,924,61,0.120958591309539,1
569,921,61,0.114536795079116,1
569,923,61,0.114941660225505,1
569,924,61,0.133773012469912,1
570,923,61,0.135659525299914,1
570,924,61,0.17069780200316,1
571,924,61,0.130720636877913,1
588,925,61,0.115748834938065,1
589,923,61,0.14552682073196,1
589,924,61,0.148492129943505,1
589,925,61,0.12162586861463,1
590,924,61,0.148412518320095,1
591,927,61,0.126731435040495,1
591,928,61,0.121308529146522,1
592,927,61,0.163600661313499,1
592,928,61,0.171327110687856,1
592,929,61,0.12002879585394,1
593,928,61,0.193343799356851,1
548,930,62,0.133173970334354,1
558,946,62,0.134026073795924,1
558,947,62,0.163085282043726,1
559,923,62,0.116499657340267,1
559,947,62,0.12156853882428,1
560,923,62,0.125066774837979,1
561,923,62,0.115117006003753,1
567,920,62,0.12264771206558,1
567,924,62,0.121985369267916,1
567,925,62,0.119567731496469,1
568,920,62,0.126536139248926,1
568,921,62,0.119978119993654,1
568,924,62,0.129756888713691,1
568,925,62,0.131135441700361,1
569,921,62,0.115653713180331,1
569,924,62,0.133613789223092,1
570,923,62,0.126806218148285,1
570,924,62,0.155048735974693,1
571,924,62,0.129935920651425,1
574,919,62,0.14197412848355,1
574,920,62,0.120896150358752,1
575,919,62,0.139615174842199,1
575,920,62,0.134492367082506,1
583,942,62,0.114626417039789,1
587,926,62,0.141260002800068,1
587,927,62,0.128620574111921,1
588,924,62,0.11918653785349,1
588,925,62,0.116561521224553,1
588,926,62,0.125369722974162,1
589,923,62,0.176127055628645,1
589,924,62,0.175491458096775,1
589,925,62,0.118705558813299,1
590,924,62,0.158566674687498,1
591,927,62,0.127465039662605,1
591,928,62,0.120873998071232,1
592,928,62,0.156925721318994,1
558,946,63,0.123254585817938,1
560,923,63,0.119280635023763,1
568,924,63,0.119483032266355,1
568,925,63,0.119481960571425,1
569,924,63,0.114604759380699,1
570,924,63,0.118046666637774,1
574,919,63,0.158299045376553,1
574,920,63,0.142450808967152,1
575,919,63,0.16175911256311,1
575,920,63,0.161683410859666,1
575,921,63,0.119156153535679,1
576,920,63,0.118366255487549,1
576,922,63,0.114193770263278,1
577,921,63,0.129824158180099,1
577,922,63,0.13125229177839,1
578,921,63,0.142727789110788,1
578,922,63,0.13676807004843,1
583,942,63,0.145110649792897,1
586,926,63,0.133362918394412,1
586,927,63,0.130660987044692,1
586,931,63,0.117137798675489,1
587,925,63,0.118195714671188,1
587,926,63,0.181489817060969,1
587,927,63,0.164708770317923,1
587,931,63,0.125526555516907,1
587,932,63,0.120541254460606,1
588,923,63,0.130018994673841,1
588,924,63,0.13882652514201,1
588,925,63,0.125288038622095,1
588,926,63,0.141734481009472,1
588,927,63,0.116797859398901,1
589,924,63,0.186900946087574,1
589,925,63,0.121258536344543,1
591,932,63,0.123225614724212,1
573,925,64,0.120684414060336,1
574,920,64,0.148835036990669,1
574,921,64,0.115731369843758,1
574,925,64,0.128811241594614,1
575,919,64,0.16587440931944,1
575,920,64,0.169535448747639,1
575,921,64,0.130726654857138,1
576,920,64,0.141501240151241,1
576,921,64,0.141828860824562,1
576,922,64,0.130837015881247,1
577,920,64,0.118540117380508,1
577,921,64,0.172468454011992,1
577,922,64,0.165510339241615,1
578,920,64,0.115266878417882,1
578,921,64,0.199702836661068,1
578,922,64,0.184211933961358,1
579,921,64,0.154354254105981,1
579,922,64,0.133794835005146,1
583,941,64,0.118327026742345,1
583,942,64,0.150043225813989,1
586,926,64,0.15893470179276,1
586,927,64,0.152806008237401,1
586,931,64,0.146771435406049,1
586,932,64,0.128658236533765,1
587,925,64,0.124069603924165,1
587,926,64,0.197172329392762,1
587,927,64,0.174413097459325,1
587,931,64,0.139607896738166,1
587,932,64,0.138138285013004,1
588,924,64,0.149576461452711,1
588,925,64,0.130322213677974,1
588,926,64,0.1444365536816,1
588,927,64,0.116504474079021,1
589,925,64,0.118458421251574,1
591,932,64,0.142928054740387,1
591,933,64,0.118893223194814,1
573,925,65,0.12996767108585,1
574,925,65,0.135347344099714,1
575,920,65,0.152937273201088,1
576,922,65,0.138024390928684,1
577,921,65,0.204597773814051,1
577,922,65,0.187728306350803,1
577,927,65,0.11612727279408,1
577,928,65,0.140145958254491,1
578,921,65,0.230719430926694,1
578,922,65,0.213773743577839,1
578,928,65,0.123325258799016,1
579,929,65,0.116433271138912,1
581,930,65,0.128833735411288,1
581,931,65,0.124884127401963,1
583,941,65,0.117180466265964,1
583,942,65,0.128311160475552,1
585,931,65,0.122068749488884,1
586,926,65,0.163714531844084,1
586,927,65,0.150592911098407,1
586,931,65,0.142958709926147,1
586,932,65,0.124974255767933,1
587,925,65,0.121828736931917,1
587,926,65,0.181055886605914,1
587,927,65,0.156521609892116,1
587,931,65,0.121499750141982,1
587,932,65,0.125240424747325,1
588,925,65,0.123129020858057,1
588,926,65,0.129921199567214,1
587,926,66,0.141557627792201,1
587,927,66,0.120424910787874,1
