x,y,z,signal,mito.p
965,297,25,0.125378343641076,1
965,298,25,0.164132634189395,1
966,297,25,0.132672440660605,1
966,298,25,0.1693932666279,1
966,300,25,0.158188036624739,1
966,301,25,0.129644902481885,1
967,297,25,0.118684619543118,1
967,298,25,0.131490714458262,1
967,299,25,0.132894681924713,1
967,300,25,0.118177731394717,1
969,290,25,0.152121489598482,1
969,291,25,0.127207491350126,1
969,292,25,0.116506994328638,1
970,291,25,0.121140261265563,1
972,290,25,0.131091137125321,1
973,290,25,0.134629367380602,1
975,290,25,0.118983068915967,1
976,289,25,0.128528537893437,1
977,287,25,0.141877134203904,1
977,288,25,0.124429081023717,1
978,286,25,0.139116118310598,1
978,287,25,0.119707664234539,1
979,285,25,0.14590250280101,1
979,286,25,0.118642941209501,1
980,284,25,0.140567040147247,1
981,284,25,0.121017652299391,1
982,283,25,0.141217641408144,1
964,297,26,0.123278316205686,1
965,297,26,0.139117884840703,1
966,296,26,0.117545714030526,1
966,297,26,0.144227985360506,1
967,296,26,0.115954258835571,1
967,297,26,0.128397567351433,1
967,298,26,0.144944289764451,1
967,300,26,0.136257813715962,1
967,301,26,0.121305337615465,1
968,294,26,0.117658689519191,1
968,295,26,0.117769980915822,1
969,289,26,0.158181382694675,1
969,290,26,0.130298907257452,1
969,291,26,0.115191235598776,1
969,292,26,0.114244540338503,1
969,293,26,0.11382143282456,1
969,294,26,0.116012848750729,1
970,290,26,0.147097006904448,1
970,291,26,0.117896935546053,1
970,308,26,0.120059156618015,1
971,290,26,0.134700464328905,1
971,291,26,0.114634802169355,1
972,290,26,0.128224706492201,1
973,290,26,0.135980291836426,1
973,308,26,0.126987605459492,1
974,290,26,0.149224780639358,1
974,307,26,0.124654325389004,1
975,290,26,0.13035682589117,1
976,289,26,0.1388408929202,1
977,287,26,0.167426082256425,1
977,288,26,0.147216235909685,1
978,287,26,0.137618548302303,1
978,288,26,0.115461055407052,1
979,286,26,0.128102592154458,1
980,285,26,0.114832453334399,1
981,284,26,0.128425843609985,1
982,284,26,0.121477020787961,1
983,283,26,0.141540704433793,1
963,298,27,0.139048731075516,1
964,297,27,0.132924995581319,1
965,296,27,0.121392568872063,1
966,296,27,0.132796580619535,1
966,297,27,0.162560787478608,1
967,294,27,0.120840269123089,1
967,295,27,0.133848619958417,1
967,296,27,0.135209142561146,1
967,297,27,0.147665841375206,1
967,298,27,0.165351634176959,1
968,293,27,0.131981786273788,1
968,294,27,0.160593073148102,1
968,295,27,0.157342116018537,1
968,296,27,0.129382655199327,1
968,297,27,0.116472994512545,1
968,298,27,0.115252369317285,1
969,288,27,0.12651701361632,1
969,289,27,0.127679154888229,1
969,292,27,0.117941487435307,1
969,293,27,0.137278385265236,1
969,294,27,0.154645743350215,1
969,295,27,0.140149703298314,1
969,309,27,0.12133350788221,1
970,287,27,0.124367464453646,1
970,288,27,0.150456735181026,1
970,289,27,0.155796614160053,1
970,290,27,0.126054830456449,1
970,291,27,0.117976594276932,1
970,292,27,0.127605243268625,1
970,293,27,0.126610180414071,1
970,294,27,0.121105036655264,1
970,309,27,0.118496896277266,1
971,286,27,0.127664374919682,1
971,289,27,0.14365690150808,1
971,290,27,0.122157841490526,1
971,291,27,0.124415019444079,1
971,292,27,0.133219028628905,1
972,285,27,0.126751809021043,1
972,289,27,0.143743284830227,1
972,290,27,0.119600494741487,1
973,284,27,0.139440594560331,1
973,290,27,0.12665815937173,1
973,309,27,0.129893170622878,1
974,290,27,0.144028850310174,1
974,308,27,0.14929816229993,1
975,290,27,0.132116136776726,1
975,307,27,0.133354709917856,1
976,289,27,0.149611203211448,1
976,306,27,0.14377320985021,1
977,288,27,0.165693139776907,1
977,289,27,0.122278000868285,1
977,304,27,0.114537843220312,1
978,287,27,0.143279594231332,1
978,288,27,0.124710807244903,1
979,286,27,0.120303185086755,1
981,284,27,0.126040839538015,1
982,284,27,0.124231889156501,1
983,283,27,0.1528076687757,1
983,284,27,0.11377001502163,1
984,282,27,0.134770501359145,1
984,285,27,0.127782496899386,1
984,286,27,0.131394697658608,1
985,285,27,0.117984261017589,1
985,286,27,0.119545779415694,1
964,297,28,0.131009099467233,1
964,306,28,0.157561224635925,1
965,296,28,0.12098709132857,1
965,306,28,0.147217142728472,1
965,307,28,0.137538972009495,1
966,295,28,0.114440436750308,1
966,296,28,0.142933684082989,1
966,305,28,0.124750507064801,1
966,306,28,0.126346955651521,1
966,307,28,0.118046007133201,1
967,294,28,0.126148162130343,1
967,295,28,0.149574494715861,1
967,296,28,0.149419923331651,1
967,297,28,0.157682055295125,1
967,302,28,0.115887307344582,1
968,293,28,0.142062372550741,1
968,294,28,0.183200171508875,1
968,295,28,0.180616126601513,1
968,296,28,0.139795231367394,1
968,297,28,0.119272874068167,1
968,298,28,0.11797973870052,1
968,299,28,0.115312890638691,1
969,292,28,0.125686249838421,1
969,293,28,0.162901268491095,1
969,295,28,0.164637037418782,1
969,296,28,0.121113339346759,1
970,288,28,0.118426670817149,1
970,289,28,0.124579483396878,1
970,290,28,0.118039671178557,1
970,291,28,0.125576041913588,1
970,292,28,0.147882370858641,1
970,293,28,0.15791733355141,1
970,294,28,0.154077733260172,1
970,295,28,0.130822836532935,1
971,288,28,0.125097229816993,1
971,289,28,0.125741801321798,1
971,290,28,0.122780873104914,1
971,291,28,0.13674860288667,1
971,292,28,0.155697405829342,1
971,293,28,0.136859670522821,1
971,294,28,0.11383150204616,1
972,286,28,0.135436035687865,1
972,288,28,0.157115552644105,1
972,289,28,0.137425301685656,1
972,290,28,0.125750622195457,1
972,291,28,0.124761624427597,1
972,292,28,0.125233146643291,1
973,285,28,0.124141796121133,1
973,289,28,0.149829734762335,1
973,290,28,0.129226081747665,1
974,282,28,0.131022795963983,1
974,283,28,0.123226804187816,1
974,284,28,0.140521510778001,1
974,289,28,0.164572523739338,1
974,290,28,0.139097322430278,1
974,308,28,0.127247320715566,1
975,283,28,0.142441481688196,1
975,289,28,0.167945830743993,1
975,290,28,0.129045766131388,1
975,307,28,0.133398649410007,1
975,308,28,0.167542343491086,1
976,289,28,0.15566045001954,1
976,306,28,0.128129466965793,1
977,289,28,0.128831639128896,1
978,288,28,0.122781591493823,1
981,284,28,0.116040135752421,1
984,284,28,0.119542246355484,1
984,285,28,0.161016274876984,1
984,286,28,0.155846230102276,1
985,285,28,0.153827710365942,1
985,286,28,0.146776994087447,1
964,297,29,0.126402424696826,1
965,296,29,0.11860365357996,1
966,295,29,0.120523659820758,1
966,296,29,0.149552307097739,1
966,305,29,0.143587641751086,1
966,306,29,0.158977487151909,1
966,307,29,0.139530063421728,1
967,294,29,0.125345333081842,1
967,295,29,0.156536955150297,1
967,296,29,0.156403652788555,1
967,297,29,0.158460058707213,1
967,302,29,0.119362802227392,1
968,293,29,0.146522731520965,1
968,295,29,0.187708215015073,1
968,296,29,0.146041104753068,1
968,297,29,0.120787214335594,1
968,298,29,0.118937457108649,1
968,300,29,0.120310887158014,1
968,309,29,0.117526835712135,1
969,292,29,0.13914322865928,1
969,296,29,0.134223265663139,1
969,309,29,0.116216753432344,1
970,290,29,0.118345975721941,1
970,291,29,0.131793639040711,1
970,295,29,0.166549070720371,1
970,296,29,0.115922732161626,1
971,289,29,0.118348766839507,1
971,290,29,0.126307479592102,1
971,291,29,0.131998297441838,1
971,292,29,0.145812833732867,1
971,293,29,0.14958980464344,1
971,294,29,0.137534284816283,1
972,287,29,0.122670453196468,1
972,288,29,0.137027161130534,1
972,289,29,0.142562241686191,1
972,290,29,0.143628189505436,1
972,291,29,0.131459564644073,1
972,292,29,0.116672153116611,1
973,286,29,0.122806346469031,1
973,287,29,0.142969438652319,1
973,288,29,0.147939677095255,1
973,289,29,0.153836342809723,1
973,290,29,0.148125233417511,1
973,291,29,0.11975125042067,1
974,285,29,0.126900998376865,1
974,287,29,0.138181329463235,1
974,288,29,0.143348959980132,1
974,289,29,0.157530663665104,1
974,290,29,0.141839895749286,1
974,308,29,0.130446624504853,1
974,309,29,0.141750038251265,1
975,288,29,0.159549254062642,1
975,289,29,0.158205395727239,1
975,290,29,0.124780914936347,1
975,307,29,0.146941316717838,1
975,308,29,0.173167705511988,1
976,289,29,0.15442993225569,1
976,306,29,0.113805687152889,1
977,289,29,0.127388843330732,1
978,288,29,0.123970642907669,1
983,283,29,0.127352017066471,1
984,282,29,0.119920554665957,1
984,284,29,0.130839265262914,1
984,285,29,0.168862648091752,1
984,286,29,0.147656761410465,1
985,284,29,0.13485550678781,1
985,285,29,0.178781855955157,1
985,286,29,0.153256402753036,1
964,297,30,0.117357166383959,1
966,295,30,0.122740831755861,1
966,296,30,0.15025919000779,1
966,303,30,0.135719893522045,1
966,304,30,0.132851837681227,1
966,307,30,0.159697348169799,1
966,308,30,0.127039329460974,1
967,294,30,0.118963366216859,1
967,295,30,0.151734595951697,1
967,296,30,0.154635897889095,1
967,297,30,0.155833617077324,1
967,302,30,0.132182640746755,1
967,303,30,0.115796448812835,1
967,306,30,0.121564758449855,1
967,307,30,0.116492791426591,1
967,308,30,0.115775356443379,1
967,309,30,0.117378129207875,1
968,296,30,0.148593069473719,1
968,297,30,0.123396179094308,1
968,298,30,0.12581388752696,1
968,309,30,0.124556047430815,1
968,310,30,0.126428604672986,1
969,291,30,0.126445292494047,1
969,309,30,0.119585361466919,1
969,310,30,0.127006554439088,1
970,290,30,0.13819746377153,1
970,296,30,0.121577501020348,1
971,289,30,0.132113887395059,1
971,295,30,0.115292139798388,1
972,288,30,0.120842059206929,1
973,288,30,0.134646797144308,1
973,291,30,0.15755878682438,1
973,309,30,0.123123556391598,1
974,288,30,0.142327505165805,1
974,289,30,0.1643509066492,1
974,290,30,0.155511637523474,1
974,291,30,0.123404470008935,1
974,308,30,0.137837185844997,1
974,309,30,0.153120368158064,1
975,289,30,0.15802213589412,1
975,290,30,0.120704022544504,1
975,307,30,0.141515808136176,1
975,308,30,0.179360630101974,1
977,289,30,0.120691126874736,1
978,288,30,0.121327560564189,1
980,284,30,0.114468347925971,1
983,283,30,0.125081083731831,1
984,282,30,0.131388161497219,1
984,283,30,0.127995752413693,1
984,284,30,0.145659322266721,1
984,285,30,0.1534275559665,1
984,286,30,0.117590371911587,1
985,281,30,0.125727692634691,1
985,283,30,0.120572851795756,1
985,284,30,0.161195883881218,1
985,285,30,0.179883864542283,1
985,286,30,0.133996125222206,1
986,284,30,0.11603172706912,1
986,285,30,0.118472930352172,1
965,297,31,0.156045435813812,1
965,303,31,0.148025895541259,1
966,295,31,0.122002233741987,1
966,296,31,0.14531183401815,1
966,303,31,0.143280489273252,1
966,304,31,0.143150814186659,1
966,308,31,0.134972533518849,1
967,294,31,0.117027790957401,1
967,295,31,0.144890905224671,1
967,296,31,0.152020997589228,1
967,297,31,0.153993929071979,1
967,302,31,0.146651829541056,1
967,303,31,0.137180130860782,1
967,304,31,0.119801231445781,1
967,305,31,0.11994873670957,1
967,307,31,0.123184513457097,1
967,308,31,0.12221134379898,1
967,309,31,0.121183765013622,1
968,296,31,0.156530101013489,1
968,297,31,0.13272696755652,1
968,298,31,0.133646929327867,1
968,301,31,0.118668708995303,1
968,302,31,0.115421932653654,1
968,308,31,0.116635338629218,1
968,309,31,0.129335053101424,1
968,310,31,0.120207851345408,1
969,309,31,0.122457680533724,1
969,310,31,0.118598754403135,1
970,289,31,0.11628465884959,1
970,296,31,0.119334467084504,1
972,309,31,0.114243621742848,1
973,292,31,0.114317827784136,1
973,309,31,0.14313846025279,1
973,310,31,0.160673933119453,1
974,291,31,0.135916261008545,1
974,308,31,0.139406783174116,1
974,309,31,0.168133130042619,1
975,290,31,0.122360179848781,1
975,307,31,0.119225507507612,1
983,283,31,0.119255679841809,1
984,282,31,0.148042712907861,1
984,283,31,0.14468635281535,1
984,284,31,0.137529491631264,1
984,285,31,0.116110007906518,1
985,282,31,0.132850683548225,1
985,283,31,0.148594930218763,1
985,284,31,0.167105704356536,1
985,285,31,0.149236569283593,1
986,282,31,0.117977642418128,1
986,283,31,0.123974117083543,1
986,284,31,0.130464254475304,1
986,285,31,0.114402833212801,1
943,299,32,0.116841681122379,1
944,300,32,0.137497011031062,1
944,301,32,0.131936457111287,1
959,303,32,0.145449540928288,1
960,303,32,0.140316216426035,1
961,301,32,0.118803318589323,1
961,302,32,0.129648576864504,1
961,303,32,0.145255399269721,1
962,299,32,0.132974776399685,1
962,300,32,0.154119446924391,1
962,301,32,0.149708232821696,1
962,302,32,0.147590445870314,1
962,303,32,0.169253027691278,1
963,298,32,0.117116035024592,1
963,299,32,0.16442832777528,1
963,301,32,0.176528328830487,1
964,298,32,0.144026129853812,1
964,302,32,0.155814338345442,1
964,303,32,0.143678300076088,1
964,304,32,0.158416872934573,1
965,297,32,0.143655664937006,1
965,302,32,0.15356377899135,1
965,303,32,0.13524322481531,1
966,296,32,0.133046144215938,1
966,302,32,0.156339657291275,1
966,303,32,0.143752824092795,1
966,304,32,0.14907543818426,1
966,308,32,0.138938452489479,1
967,295,32,0.134826394371675,1
967,296,32,0.151617310129576,1
967,297,32,0.162168888663192,1
967,302,32,0.165154336317937,1
967,303,32,0.158015069773699,1
967,304,32,0.131984848259304,1
967,305,32,0.121866776213517,1
967,307,32,0.122497262584949,1
967,308,32,0.122005437049912,1
967,309,32,0.119389559270053,1
968,296,32,0.169997985213531,1
968,297,32,0.154129739906471,1
968,298,32,0.154695865697735,1
968,301,32,0.132460692585322,1
968,302,32,0.147882276643702,1
968,303,32,0.144106671849745,1
968,308,32,0.115261319736485,1
968,309,32,0.128754194449082,1
968,310,32,0.117459660460666,1
969,297,32,0.121037272560427,1
969,309,32,0.127340770158134,1
969,310,32,0.121982542819748,1
970,296,32,0.115392584700172,1
970,309,32,0.116320436972655,1
970,310,32,0.131187836983283,1
971,309,32,0.114946842047147,1
971,310,32,0.14744838151925,1
972,309,32,0.132249368477264,1
972,310,32,0.168711056254986,1
973,292,32,0.115150864497437,1
973,309,32,0.164554198933713,1
973,310,32,0.187360408791083,1
974,291,32,0.123524016989592,1
974,308,32,0.130895688234476,1
974,309,32,0.185852333817096,1
975,308,32,0.140905577976617,1
983,283,32,0.115102673556165,1
984,283,32,0.154985776841742,1
984,284,32,0.11680377138632,1
985,283,32,0.181476509200843,1
985,284,32,0.161345355881857,1
986,283,32,0.169832155144117,1
986,284,32,0.158625064395911,1
987,282,32,0.119852178174016,1
987,283,32,0.123109695018705,1
987,284,32,0.113822916709849,1
943,300,33,0.124485268457931,1
943,308,33,0.153128988824978,1
944,300,33,0.123775500215375,1
944,301,33,0.127499428115321,1
944,308,33,0.163985011156933,1
944,309,33,0.162500772562499,1
945,301,33,0.117260843385753,1
945,308,33,0.156858440075719,1
945,309,33,0.160512366276026,1
956,304,33,0.143203162362112,1
957,304,33,0.142374789288289,1
958,303,33,0.118037987086524,1
958,304,33,0.140695396224694,1
959,303,33,0.118165554113858,1
959,304,33,0.13468298745773,1
959,305,33,0.147029549008162,1
960,303,33,0.119975434867894,1
960,304,33,0.128524086237572,1
960,305,33,0.140675351996433,1
961,301,33,0.113970421973637,1
961,302,33,0.124796978583437,1
961,303,33,0.13189903022679,1
961,304,33,0.140408452851264,1
961,305,33,0.148039662699213,1
962,299,33,0.130888951866341,1
962,300,33,0.157350854454124,1
962,301,33,0.14791866716387,1
962,302,33,0.139536387599505,1
962,303,33,0.153833669460831,1
962,304,33,0.174110490852295,1
962,305,33,0.170056681120494,1
963,298,33,0.116283964014416,1
963,299,33,0.171336885487771,1
963,301,33,0.177370940136958,1
963,302,33,0.144083365429223,1
963,303,33,0.14660634727928,1
963,304,33,0.167898511290907,1
963,305,33,0.167490913911288,1
964,298,33,0.139512457005013,1
964,302,33,0.13637734891975,1
964,303,33,0.127085047260098,1
964,304,33,0.147968035791878,1
965,297,33,0.129612716303368,1
965,298,33,0.163831476137052,1
965,302,33,0.136229254812593,1
965,303,33,0.131670205693823,1
966,296,33,0.127456018582201,1
966,297,33,0.161101975140823,1
966,301,33,0.170646666845047,1
966,302,33,0.153915247821091,1
966,303,33,0.155125627141741,1
966,304,33,0.180192065161313,1
966,307,33,0.16823999333712,1
966,308,33,0.143513588809074,1
967,296,33,0.166988972047181,1
967,301,33,0.176702614690672,1
967,302,33,0.192056446431082,1
967,303,33,0.186454308392629,1
967,304,33,0.156447109429144,1
967,305,33,0.135337251324379,1
967,306,33,0.121734156910082,1
967,307,33,0.119934710460534,1
967,308,33,0.118198352689478,1
968,300,33,0.143193964628697,1
968,301,33,0.148970188320589,1
968,302,33,0.188738408264987,1
968,303,33,0.189775691189057,1
968,304,33,0.13295309518686,1
968,309,33,0.118818157442208,1
969,297,33,0.138405949654551,1
969,298,33,0.117024893848028,1
969,303,33,0.115609208398546,1
969,309,33,0.125007348765238,1
969,310,33,0.124133811405058,1
970,296,33,0.117581492153591,1
970,309,33,0.119890217455616,1
970,310,33,0.145537219705846,1
970,311,33,0.128994430766529,1
971,309,33,0.120509515803049,1
971,310,33,0.168024818193432,1
971,311,33,0.149230739734246,1
972,309,33,0.143408810020098,1
972,310,33,0.19903746720849,1
972,311,33,0.172880585485548,1
973,309,33,0.180844962911347,1
973,310,33,0.219257217900688,1
974,308,33,0.11795266368244,1
976,283,33,0.122582856856982,1
976,284,33,0.144618942026533,1
977,284,33,0.141014290239295,1
978,284,33,0.120089576266428,1
978,285,33,0.133366898975582,1
985,284,33,0.143197827441194,1
986,284,33,0.185212908803331,1
987,283,33,0.161757134049392,1
987,284,33,0.14218257903597,1
940,307,34,0.135417063154535,1
941,308,34,0.122887960159894,1
943,301,34,0.117046881259405,1
943,309,34,0.142082310787196,1
944,309,34,0.163010498935936,1
944,310,34,0.152211111559155,1
945,308,34,0.165098007561314,1
945,309,34,0.158867102574065,1
945,310,34,0.167839438524187,1
946,310,34,0.162498004998668,1
947,311,34,0.166163625628272,1
955,304,34,0.127422796039355,1
957,304,34,0.115540996782748,1
957,305,34,0.143300451063442,1
958,304,34,0.121099737064948,1
958,305,34,0.141261039164396,1
959,304,34,0.117399951743108,1
959,305,34,0.134862608238833,1
960,305,34,0.12160505888999,1
961,302,34,0.115451657466892,1
961,303,34,0.117145724507228,1
961,304,34,0.119627663974506,1
961,305,34,0.127591864747295,1
961,306,34,0.157677792069137,1
962,299,34,0.11931291541722,1
962,300,34,0.148921620519561,1
962,301,34,0.138477435239477,1
962,302,34,0.128975128480912,1
962,303,34,0.133659389253543,1
962,304,34,0.149366468130666,1
962,305,34,0.150803669916831,1
962,306,34,0.165110856123613,1
963,299,34,0.165741177618902,1
963,301,34,0.168727025687138,1
963,302,34,0.131037469940724,1
963,303,34,0.127442616507136,1
963,304,34,0.150636756375619,1
963,305,34,0.155088600670735,1
963,306,34,0.160722889557103,1
964,286,34,0.124929762763015,1
964,287,34,0.130287142166951,1
964,298,34,0.134359559349193,1
964,302,34,0.122877961599498,1
964,303,34,0.113944995716989,1
964,304,34,0.137809039131986,1
964,305,34,0.153797443816805,1
964,306,34,0.157130874348551,1
965,297,34,0.118011665787955,1
965,302,34,0.123859987461876,1
965,303,34,0.126711237712959,1
965,304,34,0.175336816051361,1
965,307,34,0.174884584344417,1
966,296,34,0.123380139000952,1
966,301,34,0.162700260918852,1
966,302,34,0.152701394324567,1
966,303,34,0.158911006735614,1
966,304,34,0.197842704013971,1
966,305,34,0.209204719452408,1
966,306,34,0.170903049247656,1
966,307,34,0.153675211710389,1
966,308,34,0.14201489999838,1
967,300,34,0.161355943285622,1
967,301,34,0.17329170414851,1
967,302,34,0.21106433391734,1
967,303,34,0.203792047656177,1
967,304,34,0.16584872397171,1
967,305,34,0.136591263938629,1
968,299,34,0.15776204377829,1
968,300,34,0.132146167788515,1
968,301,34,0.147077551519555,1
968,302,34,0.207328099190995,1
968,303,34,0.213108421232731,1
968,304,34,0.140375218531551,1
969,298,34,0.125538179284999,1
969,303,34,0.120256112947884,1
969,309,34,0.113989488721907,1
969,310,34,0.117862688415746,1
970,310,34,0.142852729896699,1
970,311,34,0.126997780672898,1
971,310,34,0.159460998218584,1
971,311,34,0.143854482011919,1
972,309,34,0.129750164122424,1
972,310,34,0.19133551371826,1
972,311,34,0.161194411772797,1
973,309,34,0.164042140740537,1
977,285,34,0.129861738163871,1
978,285,34,0.126215266720608,1
978,286,34,0.127524665942091,1
981,283,34,0.131043735234164,1
985,284,34,0.125786624079002,1
987,284,34,0.157133936334067,1
988,282,34,0.119810134757511,1
988,283,34,0.115666809056844,1
935,297,35,0.121809835059791,1
936,297,35,0.114848634750163,1
937,298,35,0.122392389581034,1
940,308,35,0.113763054893015,1
941,309,35,0.116323946479131,1
942,309,35,0.129474856293954,1
943,302,35,0.114011287703405,1
943,310,35,0.12418078932899,1
944,302,35,0.11680936539832,1
944,310,35,0.148773290875057,1
944,311,35,0.136711482200725,1
945,309,35,0.162829570922556,1
945,310,35,0.160918939068184,1
945,311,35,0.156987526318943,1
946,311,35,0.162450932859796,1
947,312,35,0.159870821426135,1
948,312,35,0.171551754432907,1
953,303,35,0.115594852397224,1
953,313,35,0.16655878663595,1
957,305,35,0.118412903659195,1
958,305,35,0.119967603251094,1
959,305,35,0.116082155615192,1
960,306,35,0.136005364787054,1
961,306,35,0.134209863588074,1
961,307,35,0.159204556931638,1
962,300,35,0.136048456344754,1
962,301,35,0.127796063850595,1
962,304,35,0.124011555744907,1
962,305,35,0.131142790465599,1
962,306,35,0.140872732293527,1
962,307,35,0.151626413648051,1
963,299,35,0.152497583857891,1
963,301,35,0.157727761317381,1
963,302,35,0.118615501108533,1
963,304,35,0.129376625443234,1
963,305,35,0.139843163217583,1
963,306,35,0.140453216724131,1
964,287,35,0.129460146986611,1
964,288,35,0.115219193881908,1
964,298,35,0.132838412052427,1
964,302,35,0.115934685682005,1
964,304,35,0.123662560057313,1
964,305,35,0.134162014175957,1
964,306,35,0.132541234581254,1
964,307,35,0.147242192125365,1
965,297,35,0.116032551449836,1
965,302,35,0.122191005149035,1
965,303,35,0.122166485711174,1
965,304,35,0.161702465831068,1
965,305,35,0.170541440535111,1
965,306,35,0.142290278488054,1
965,307,35,0.146580603047213,1
965,308,35,0.174369570157531,1
966,302,35,0.156525366712807,1
966,303,35,0.16060623968582,1
966,304,35,0.192036037119932,1
966,305,35,0.192519913269496,1
966,306,35,0.145345303875211,1
966,307,35,0.136023418724729,1
966,308,35,0.142723113694443,1
967,301,35,0.174732698085967,1
967,302,35,0.220429016203839,1
967,303,35,0.213120881158407,1
967,304,35,0.163810737073616,1
967,305,35,0.131946314349274,1
968,300,35,0.129003875814158,1
968,301,35,0.138616025414668,1
968,302,35,0.198682700855886,1
968,303,35,0.208359163929095,1
968,304,35,0.134142853212748,1
970,310,35,0.142383775038091,1
970,311,35,0.137960195224659,1
971,294,35,0.120395692379933,1
971,310,35,0.154774134758265,1
971,311,35,0.162065052023605,1
972,310,35,0.175437908680851,1
972,311,35,0.167258014582211,1
973,309,35,0.137374272519349,1
977,286,35,0.128546733153521,1
980,283,35,0.120825512708276,1
981,279,35,0.123749367346685,1
981,282,35,0.139869190094467,1
981,283,35,0.125808317068694,1
982,282,35,0.139997887701069,1
987,284,35,0.150369421486357,1
988,282,35,0.117614620481499,1
988,283,35,0.118324247401646,1
933,297,36,0.118695948889526,1
933,298,36,0.123686997057102,1
934,297,36,0.114647014780816,1
939,300,36,0.11948104197577,1
940,301,36,0.118958090180278,1
941,309,36,0.125998937443919,1
942,310,36,0.11600783180523,1
943,310,36,0.132296770368422,1
944,310,36,0.149560621566101,1
944,311,36,0.137109952508134,1
945,309,36,0.172555485061845,1
945,310,36,0.165493062577186,1
945,311,36,0.152019878786828,1
945,312,36,0.133455037050967,1
946,312,36,0.144323319101853,1
948,313,36,0.140471906612645,1
949,313,36,0.145101876026707,1
950,313,36,0.152467034663937,1
952,303,36,0.114324093077576,1
953,313,36,0.154842958771166,1
958,306,36,0.134829491687793,1
959,306,36,0.12991625328292,1
960,306,36,0.11852717460327,1
960,307,36,0.149775938032197,1
961,306,36,0.114986506536444,1
961,307,36,0.13168105218867,1
962,300,36,0.120851245163476,1
962,301,36,0.116406985170945,1
962,305,36,0.116330282433775,1
962,306,36,0.120029902879472,1
962,307,36,0.123444358258712,1
963,288,36,0.124691964257113,1
963,289,36,0.116219320789431,1
963,299,36,0.138267041503942,1
963,300,36,0.168841720598438,1
963,301,36,0.142325267561005,1
963,305,36,0.126027531677889,1
963,306,36,0.122689720151483,1
963,307,36,0.122121238986745,1
964,287,36,0.119481053752638,1
964,288,36,0.14113147006961,1
964,289,36,0.11465384536389,1
964,298,36,0.130096969312687,1
964,301,36,0.145413056193181,1
964,305,36,0.119870373434101,1
964,306,36,0.115389982012484,1
964,307,36,0.121552863813813,1
965,302,36,0.123233010596919,1
965,303,36,0.116409269883215,1
965,304,36,0.137507198021336,1
965,305,36,0.141639335698003,1
965,306,36,0.117807608007064,1
965,307,36,0.122500359901067,1
965,308,36,0.155543458619103,1
966,302,36,0.158957407593046,1
966,303,36,0.157648526553727,1
966,304,36,0.166953064378575,1
966,305,36,0.162912974697259,1
966,306,36,0.124057473750776,1
966,307,36,0.121758947215892,1
966,308,36,0.143977326515438,1
967,301,36,0.172811502381565,1
967,302,36,0.212170676391658,1
967,303,36,0.207951966962966,1
967,304,36,0.153792344433235,1
967,305,36,0.121831999124178,1
967,308,36,0.117246675814309,1
968,300,36,0.132913242267686,1
968,301,36,0.127333444946631,1
968,302,36,0.170499750424627,1
968,303,36,0.179596768069577,1
968,304,36,0.119203732079848,1
969,299,36,0.114230078345375,1
970,310,36,0.142533824105231,1
970,311,36,0.146160086444091,1
971,310,36,0.157507840096144,1
971,311,36,0.184579902182282,1
972,310,36,0.164506255306656,1
973,309,36,0.11944479277801,1
974,290,36,0.119328578650819,1
980,283,36,0.118876240952068,1
981,282,36,0.123937196604343,1
981,283,36,0.119712057006068,1
982,282,36,0.124944413186021,1
987,284,36,0.130112820976165,1
988,283,36,0.123647992072378,1
936,298,37,0.123554683952219,1
937,299,37,0.124581297034453,1
938,300,37,0.12529455122975,1
939,300,37,0.118370518713536,1
939,301,37,0.128662264222405,1
940,309,37,0.117708705874904,1
941,309,37,0.138718437053303,1
941,310,37,0.115963656775731,1
942,310,37,0.122552578530978,1
942,311,37,0.118811220867328,1
943,310,37,0.137548475941462,1
943,311,37,0.123672841262525,1
944,310,37,0.150056651442789,1
944,311,37,0.137527677993689,1
945,309,37,0.175594623454922,1
945,311,37,0.151476352804044,1
945,312,37,0.133985420049768,1
946,312,37,0.144199037820515,1
947,313,37,0.127738451415429,1
948,313,37,0.139668853803664,1
949,309,37,0.150230478005146,1
949,313,37,0.149710211335414,1
951,303,37,0.11671789446947,1
953,313,37,0.148965642449784,1
954,305,37,0.127645967675985,1
957,306,37,0.126417134004169,1
958,306,37,0.115971688599276,1
958,307,37,0.15102541655251,1
959,307,37,0.136481939278849,1
960,307,37,0.122219681821077,1
960,308,37,0.137683803924391,1
961,308,37,0.121838535285567,1
962,308,37,0.11790097501156,1
963,288,37,0.146478921574354,1
963,289,37,0.17008216626148,1
963,299,37,0.121913813021786,1
963,300,37,0.145076284893916,1
963,301,37,0.127007155059323,1
964,288,37,0.141727638649531,1
964,289,37,0.143213043153834,1
964,298,37,0.121057481664831,1
964,301,37,0.136369281765603,1
964,302,37,0.115153113879104,1
964,308,37,0.129978505803829,1
965,302,37,0.130298824819381,1
965,303,37,0.115293341038859,1
965,308,37,0.130355094691667,1
965,309,37,0.151246715667228,1
965,310,37,0.124103627293992,1
966,302,37,0.158082939860343,1
966,303,37,0.150209632949904,1
966,304,37,0.134442562710405,1
966,305,37,0.123709078683418,1
966,308,37,0.131701402615482,1
966,309,37,0.136445525204946,1
967,292,37,0.137029457619671,1
967,301,37,0.162695821039854,1
967,302,37,0.181850471847257,1
967,303,37,0.181317827689921,1
967,304,37,0.135819243175164,1
967,308,37,0.114200647953821,1
968,292,37,0.15074536264649,1
968,293,37,0.137992534502453,1
968,302,37,0.129948992974204,1
968,303,37,0.135825532022339,1
970,309,37,0.117375974041146,1
970,310,37,0.160331803345535,1
971,309,37,0.137186101732537,1
972,309,37,0.133453529611944,1
973,289,37,0.159427469477186,1
973,309,37,0.115077400398793,1
973,310,37,0.151837596433701,1
974,289,37,0.146579472467945,1
974,290,37,0.117435694535571,1
976,289,37,0.114420887150477,1
977,287,37,0.113891834937688,1
977,288,37,0.115300960672046,1
980,283,37,0.115597843721535,1
988,283,37,0.129161509183884,1
989,283,37,0.119480252925657,1
935,298,38,0.122100299716564,1
936,298,38,0.11445322642827,1
938,300,38,0.113964851515372,1
938,301,38,0.126616551699317,1
939,301,38,0.115136355396839,1
942,310,38,0.127430474556879,1
943,310,38,0.141527302358728,1
944,303,38,0.118789045026073,1
944,310,38,0.154361296672668,1
944,311,38,0.137180437059333,1
945,303,38,0.143935377313872,1
945,309,38,0.177610705379711,1
945,312,38,0.137048312384328,1
946,308,38,0.163600861520245,1
949,309,38,0.137730098790016,1
950,303,38,0.129522375953785,1
950,309,38,0.144251609756447,1
953,305,38,0.127544592401678,1
953,313,38,0.148299107087338,1
954,306,38,0.139256533900231,1
954,313,38,0.147377920521785,1
955,306,38,0.121642450443884,1
956,306,38,0.114980099920596,1
957,307,38,0.155124661438617,1
958,307,38,0.122869658908004,1
958,308,38,0.142543257375993,1
958,309,38,0.151024792378539,1
959,308,38,0.121766602179681,1
959,309,38,0.139061226331794,1
960,309,38,0.124144292817015,1
961,309,38,0.117527542324177,1
962,289,38,0.11950162793993,1
963,288,38,0.152073451756487,1
963,289,38,0.216755834825384,1
963,290,38,0.129183296388515,1
963,300,38,0.12147013132055,1
964,288,38,0.130983190359023,1
964,289,38,0.169112894746462,1
964,300,38,0.153536456659055,1
964,301,38,0.127030826562734,1
964,302,38,0.118280672992383,1
964,309,38,0.147157280911639,1
965,301,38,0.138001426037316,1
965,302,38,0.132802551491291,1
965,303,38,0.118792613416886,1
965,309,38,0.132465108910585,1
965,310,38,0.117900833689152,1
966,291,38,0.125038121719671,1
966,302,38,0.155449632316779,1
966,303,38,0.145530259577231,1
966,304,38,0.115009742295762,1
966,309,38,0.12255087088521,1
967,291,38,0.133678797530966,1
967,292,38,0.14384919419847,1
967,302,38,0.151086244072467,1
967,303,38,0.152948166803404,1
967,304,38,0.119319828438365,1
968,292,38,0.139130815841074,1
968,293,38,0.125577408030203,1
968,294,38,0.126443655509482,1
970,309,38,0.128070264653532,1
971,295,38,0.135483614232033,1
973,289,38,0.137331557821404,1
973,290,38,0.157890376302003,1
973,309,38,0.129390510369861,1
974,289,38,0.128693190276114,1
974,290,38,0.114141469195295,1
976,287,38,0.119910085030867,1
976,288,38,0.132298536898527,1
988,283,38,0.125030867169372,1
935,298,39,0.123469325217533,1
936,299,39,0.138874692529547,1
938,301,39,0.116357416336192,1
943,310,39,0.145785829375992,1
944,310,39,0.166963369137523,1
944,311,39,0.13964416948966,1
945,303,39,0.123466757860447,1
945,304,39,0.146505183988586,1
945,309,39,0.186848374151642,1
946,303,39,0.119379442940983,1
946,308,39,0.15701913543096,1
947,303,39,0.119969699533485,1
947,308,39,0.139955290771797,1
948,308,39,0.138778098663391,1
949,303,39,0.142843355510274,1
949,309,39,0.129833756327004,1
950,303,39,0.118824352074443,1
950,309,39,0.1340105636616,1
951,304,39,0.126347462056818,1
951,309,39,0.150151843861727,1
952,305,39,0.136115054529722,1
953,306,39,0.147522752436681,1
953,313,39,0.150813574262288,1
954,306,39,0.121181185879668,1
954,307,39,0.152941430435269,1
954,311,39,0.172262288171842,1
954,312,39,0.146678951666606,1
954,313,39,0.142546825766806,1
955,307,39,0.138787178628133,1
955,313,39,0.17010471896249,1
956,307,39,0.137611305528872,1
957,307,39,0.120323712166578,1
957,308,39,0.145891915397246,1
957,309,39,0.141219184177769,1
958,308,39,0.116030054753954,1
958,309,39,0.12212143919349,1
959,310,39,0.130957281250813,1
960,310,39,0.118773593776086,1
962,289,39,0.120434921125137,1
963,288,39,0.130988207304522,1
963,289,39,0.210346557404974,1
963,290,39,0.137308746029311,1
963,309,39,0.114748142740909,1
964,289,39,0.162287552378795,1
964,290,39,0.124478437874858,1
964,299,39,0.126800471037009,1
964,300,39,0.130973603988985,1
964,301,39,0.118260016367019,1
964,302,39,0.115630018123186,1
964,303,39,0.113930427732054,1
964,309,39,0.122258769243872,1
964,310,39,0.140163199588318,1
965,300,39,0.15155522248481,1
965,301,39,0.131779530353604,1
965,302,39,0.125334510140731,1
965,303,39,0.115093805575037,1
965,309,39,0.117915684318903,1
965,310,39,0.114095244990874,1
966,291,39,0.137163513700925,1
966,301,39,0.149309468092603,1
966,302,39,0.139125198275339,1
966,303,39,0.128537971164199,1
967,291,39,0.126157230318217,1
967,292,39,0.125018171706349,1
967,301,39,0.132509990552126,1
967,302,39,0.119923498882799,1
967,303,39,0.119842474035305,1
968,292,39,0.116932822298942,1
968,294,39,0.116685990935769,1
969,310,39,0.114799513436369,1
970,309,39,0.137830272823852,1
972,294,39,0.11726828636593,1
973,289,39,0.11536413178861,1
973,290,39,0.141532802155789,1
973,309,39,0.137209631913539,1
974,289,39,0.117071671565215,1
974,290,39,0.115976823313449,1
976,288,39,0.117892872526811,1
980,284,39,0.116218932152808,1
984,283,39,0.151437394926789,1
985,278,39,0.116755321353967,1
935,298,40,0.119744996904097,1
936,299,40,0.133423098186664,1
942,310,40,0.153138987385373,1
943,310,40,0.161011293262087,1
943,311,40,0.13257763687829,1
944,304,40,0.117575003099671,1
944,311,40,0.153108862158645,1
944,312,40,0.144424046648454,1
945,304,40,0.124072583471609,1
945,312,40,0.159543412736428,1
946,304,40,0.135440722881078,1
946,308,40,0.150184642437348,1
946,313,40,0.147533186741169,1
947,308,40,0.126925070293766,1
947,309,40,0.128716190498084,1
948,303,40,0.113780425772383,1
948,308,40,0.130571883266183,1
948,309,40,0.126233921278519,1
949,303,40,0.120046343386319,1
949,308,40,0.138125424673837,1
949,309,40,0.125219850560032,1
950,304,40,0.143789626803321,1
950,308,40,0.147730543484528,1
950,309,40,0.129717071125119,1
951,304,40,0.116363351877346,1
951,305,40,0.147728093896116,1
951,308,40,0.156156032375268,1
951,309,40,0.137275299725985,1
952,305,40,0.117579584301078,1
952,306,40,0.151554350996624,1
952,308,40,0.154872577592597,1
952,309,40,0.13963907010609,1
952,310,40,0.149274820548806,1
953,306,40,0.123472045673895,1
953,307,40,0.148645193888691,1
953,308,40,0.154337201202032,1
953,309,40,0.145899228831882,1
953,310,40,0.145022099527154,1
953,311,40,0.141358422080665,1
953,314,40,0.125091082292227,1
954,307,40,0.128967190872306,1
954,308,40,0.150320064635217,1
954,309,40,0.151115815786429,1
954,310,40,0.153033490207488,1
954,311,40,0.145490241781914,1
954,312,40,0.130335698191111,1
954,313,40,0.134280171486263,1
954,314,40,0.124149097778902,1
955,308,40,0.131874816987481,1
955,309,40,0.137949348729813,1
955,310,40,0.150114122555546,1
955,311,40,0.160023249420484,1
955,312,40,0.154445713257964,1
955,313,40,0.147288475214122,1
955,314,40,0.130304960567279,1
956,308,40,0.117006651480475,1
956,309,40,0.121536505745039,1
956,310,40,0.136356868947397,1
956,313,40,0.167234967252772,1
956,314,40,0.133772882924371,1
957,310,40,0.126246263435521,1
957,314,40,0.136797217795167,1
958,313,40,0.161633158966605,1
958,314,40,0.135967231290515,1
959,311,40,0.128776688265755,1
959,313,40,0.146398167594809,1
959,314,40,0.126940992618448,1
960,311,40,0.129714857074053,1
960,314,40,0.125117745119949,1
963,289,40,0.167716982657291,1
963,290,40,0.121562155762167,1
963,310,40,0.123804954160664,1
964,289,40,0.132016386710116,1
964,290,40,0.115050643356132,1
964,310,40,0.119138111374871,1
964,311,40,0.136954698065617,1
965,300,40,0.130218294600316,1
965,301,40,0.129428184568573,1
965,302,40,0.116117992622593,1
966,291,40,0.124503004420188,1
966,301,40,0.133458935194066,1
966,302,40,0.118178826643382,1
969,292,40,0.116711841159643,1
969,310,40,0.120452127128363,1
970,291,40,0.127684183610595,1
970,309,40,0.128571111268973,1
972,290,40,0.115655479710436,1
973,290,40,0.120989164057227,1
973,291,40,0.132682144799317,1
973,309,40,0.128065895435738,1
979,287,40,0.11761895436869,1
980,285,40,0.115685251631143,1
984,283,40,0.144578441379653,1
939,308,41,0.138173215201618,1
940,309,41,0.154563599700321,1
941,310,41,0.156713054648056,1
942,310,41,0.173035109762288,1
942,311,41,0.149671465441772,1
943,311,41,0.159950762801832,1
944,312,41,0.165346322809776,1
945,305,41,0.152187216295265,1
945,313,41,0.172419933318435,1
946,305,41,0.15575818624183,1
946,307,41,0.176825694731538,1
946,308,41,0.137249696816326,1
946,309,41,0.136365430729974,1
947,304,41,0.123380492306973,1
947,307,41,0.152274153130178,1
947,308,41,0.118887629182814,1
947,309,41,0.114836740114121,1
948,304,41,0.138803654465581,1
948,307,41,0.163186433557552,1
948,308,41,0.129023578513266,1
948,309,41,0.11953877217961,1
949,304,41,0.150012770834974,1
949,307,41,0.175824684558963,1
949,308,41,0.143650659768374,1
949,309,41,0.128694992136821,1
950,304,41,0.138584687170601,1
950,305,41,0.156431469749279,1
950,307,41,0.166824013465953,1
950,308,41,0.148045857331449,1
950,309,41,0.135441971229019,1
951,305,41,0.128335043962575,1
951,306,41,0.139110512521731,1
951,307,41,0.144995519137504,1
951,308,41,0.135554923163949,1
951,309,41,0.1271561442084,1
951,310,41,0.13657125504097,1
952,306,41,0.121409445123001,1
952,307,41,0.129485749896269,1
952,308,41,0.122688730894624,1
952,309,41,0.11701803971122,1
952,310,41,0.124663899982175,1
952,311,41,0.147502861307696,1
952,314,41,0.142334335748879,1
953,307,41,0.119216721964555,1
953,308,41,0.120913839213539,1
953,309,41,0.117206999548145,1
953,310,41,0.122193784489734,1
953,311,41,0.123384449334409,1
953,312,41,0.127057395175517,1
953,313,41,0.144443101619856,1
953,314,41,0.124858654037845,1
954,308,41,0.116531042691804,1
954,309,41,0.115994147085348,1
954,310,41,0.119624861080073,1
954,311,41,0.118922677140102,1
954,312,41,0.117406864764253,1
954,313,41,0.128690493373486,1
954,314,41,0.122898512233056,1
955,311,41,0.118344197414968,1
955,312,41,0.123928199077673,1
955,313,41,0.134246925389682,1
955,314,41,0.127828980194889,1
955,315,41,0.117757226568462,1
956,311,41,0.118609282922562,1
956,312,41,0.135474016085128,1
956,313,41,0.146785002357258,1
956,314,41,0.133707438872405,1
956,315,41,0.126614278763915,1
957,311,41,0.119015349309423,1
957,312,41,0.149193477725893,1
957,313,41,0.163789892018374,1
957,314,41,0.13924382666034,1
957,315,41,0.131617268675003,1
958,312,41,0.144806700622987,1
958,313,41,0.163305297479901,1
958,314,41,0.138634644641978,1
958,315,41,0.134381805851652,1
959,312,41,0.128033037975781,1
959,313,41,0.143427676561622,1
959,314,41,0.127801516540186,1
959,315,41,0.125513424309791,1
960,312,41,0.134301252078853,1
960,313,41,0.148806054120076,1
960,314,41,0.124712503113804,1
961,311,41,0.118039152996393,1
961,314,41,0.144852854166203,1
963,311,41,0.164848856155269,1
964,311,41,0.127354878845241,1
964,312,41,0.128510224864679,1
964,313,41,0.129568823918686,1
965,301,41,0.124817835415546,1
965,310,41,0.116520832147795,1
966,300,41,0.12844103576889,1
966,301,41,0.121451629861915,1
966,310,41,0.119005892484927,1
967,295,41,0.12076543890783,1
967,310,41,0.115926406544245,1
969,310,41,0.130485358621628,1
969,311,41,0.144742316489084,1
970,309,41,0.119685994798582,1
972,291,41,0.166223134139085,1
973,291,41,0.13205427289244,1
973,292,41,0.126915601692402,1
974,290,41,0.119263217036925,1
978,287,41,0.13358404085612,1
978,288,41,0.117467468523731,1
979,285,41,0.117290179562368,1
979,286,41,0.128241052784108,1
979,287,41,0.134215422269472,1
980,285,41,0.127815943202712,1
980,286,41,0.119663936726001,1
984,283,41,0.136595633156423,1
940,309,42,0.158830511847152,1
941,310,42,0.162134135127588,1
942,311,42,0.15647787060671,1
945,306,42,0.182114414998717,1
945,307,42,0.190857679101657,1
945,308,42,0.172123509566773,1
946,306,42,0.162282029028,1
946,307,42,0.15321418268352,1
946,308,42,0.125699051293251,1
946,309,42,0.126668805659831,1
947,305,42,0.133249189186235,1
947,306,42,0.153412528683738,1
947,307,42,0.139032655651558,1
948,304,42,0.120785436028622,1
948,305,42,0.143658491385174,1
948,306,42,0.16222648932149,1
948,307,42,0.157048094747819,1
948,308,42,0.127220740325916,1
949,304,42,0.137315541281783,1
949,305,42,0.146440576094203,1
949,306,42,0.158104538635097,1
949,307,42,0.171085249162712,1
949,308,42,0.153065911923353,1
949,309,42,0.134737007948349,1
949,314,42,0.119267362494239,1
950,304,42,0.127549279594891,1
950,305,42,0.129295211959117,1
950,306,42,0.13180330784882,1
950,307,42,0.152256864688882,1
950,308,42,0.158061670837876,1
950,309,42,0.148505272927488,1
951,307,42,0.115694060727935,1
951,308,42,0.125166360028445,1
951,309,42,0.124479980644483,1
951,310,42,0.129529583396614,1
952,311,42,0.128047358646501,1
952,314,42,0.128450257056039,1
953,312,42,0.124155410179811,1
953,313,42,0.138747938106061,1
953,314,42,0.121214985489015,1
954,313,42,0.127303366827372,1
954,314,42,0.121041312025934,1
955,313,42,0.128529574257765,1
955,314,42,0.127199647956459,1
955,315,42,0.117060165565797,1
956,313,42,0.139902871935141,1
956,314,42,0.140880752340205,1
956,315,42,0.130026531868957,1
957,312,42,0.119781128333183,1
957,313,42,0.162123806814906,1
957,314,42,0.154494940563564,1
957,315,42,0.137232007961539,1
958,312,42,0.125454163113193,1
958,313,42,0.173668187044541,1
958,314,42,0.157129190256517,1
958,315,42,0.137176798007316,1
959,313,42,0.14792403741539,1
959,314,42,0.139447295597864,1
959,315,42,0.127500087619893,1
960,313,42,0.127176235544131,1
960,314,42,0.126636654811915,1
961,312,42,0.129513354873381,1
961,313,42,0.160899860543047,1
961,314,42,0.146226555083518,1
962,311,42,0.116171377162374,1
962,314,42,0.173665183943362,1
963,311,42,0.129862209238566,1
963,312,42,0.190813704278903,1
963,313,42,0.219948826213762,1
964,312,42,0.129536696624505,1
964,313,42,0.136678012343664,1
965,301,42,0.118849177710856,1
966,300,42,0.115318272667078,1
966,301,42,0.119341933618415,1
966,310,42,0.127455959697864,1
967,295,42,0.123949856736764,1
967,310,42,0.128572571600527,1
969,293,42,0.120211619942966,1
969,310,42,0.127763724572801,1
970,292,42,0.126015660595582,1
972,291,42,0.134502648287719,1
972,292,42,0.163307923721324,1
973,291,42,0.125199358810812,1
973,292,42,0.123090958022722,1
974,290,42,0.120098773999842,1
975,290,42,0.121481166245275,1
977,287,42,0.117096014350066,1
977,288,42,0.117710260421397,1
978,286,42,0.124698394426696,1
978,287,42,0.161017994299619,1
978,288,42,0.13244566530256,1
979,285,42,0.128123178118618,1
979,286,42,0.147664204390642,1
979,287,42,0.154561597632869,1
980,285,42,0.140071952419948,1
980,286,42,0.134002873367208,1
981,285,42,0.114865899637725,1
984,282,42,0.127333904244458,1
984,283,42,0.126680017237565,1
985,283,42,0.131878997775397,1
941,309,43,0.179998323916236,1
945,307,43,0.15574878830167,1
945,308,43,0.153138233665862,1
946,307,43,0.134671375466505,1
946,308,43,0.119746739880468,1
946,309,43,0.126180336531993,1
947,306,43,0.133858371204598,1
947,307,43,0.13440347528761,1
948,305,43,0.125901071676088,1
948,306,43,0.14097739331383,1
948,307,43,0.155582805132981,1
948,308,43,0.132831569692486,1
948,310,43,0.130572083472928,1
948,313,43,0.14609958867642,1
949,304,43,0.132223694906401,1
949,305,43,0.128899721199153,1
949,306,43,0.13569525631551,1
949,307,43,0.170092259036814,1
949,308,43,0.170100420405901,1
949,309,43,0.144929733556384,1
949,310,43,0.153716948928343,1
950,304,43,0.118836470470965,1
950,305,43,0.114018353823826,1
950,306,43,0.114266221551328,1
950,307,43,0.148607849442266,1
950,308,43,0.174465492742246,1
950,309,43,0.164497563978539,1
950,310,43,0.160441210443387,1
950,314,43,0.124786544278949,1
951,308,43,0.122344175086028,1
951,309,43,0.124150522779853,1
951,310,43,0.124905302209491,1
951,311,43,0.156732733793429,1
951,314,43,0.125718648000552,1
952,311,43,0.117720364973599,1
952,312,43,0.149598872831313,1
952,313,43,0.152964501318444,1
953,312,43,0.131314120332074,1
953,313,43,0.142877119789019,1
953,314,43,0.115178363482742,1
954,312,43,0.118313342022463,1
954,313,43,0.139185272075785,1
954,314,43,0.120947827252764,1
955,313,43,0.130219130757899,1
955,314,43,0.126530109492833,1
956,313,43,0.135091303226259,1
956,314,43,0.146002735719182,1
956,315,43,0.131911207507649,1
957,313,43,0.159906411119322,1
957,314,43,0.171612499514793,1
957,315,43,0.14364459468168,1
958,312,43,0.118007791198591,1
958,313,43,0.182096549490919,1
958,314,43,0.185239312539971,1
958,315,43,0.143158657580327,1
959,313,43,0.157447495427749,1
959,314,43,0.161850571715093,1
959,315,43,0.129317387800371,1
960,313,43,0.124830071580742,1
960,314,43,0.136092725589192,1
961,313,43,0.145857032316101,1
961,314,43,0.150165328374864,1
962,312,43,0.154048043777537,1
962,313,43,0.207181642068402,1
962,314,43,0.181647273777684,1
963,312,43,0.18027643463914,1
963,313,43,0.219589019361924,1
963,314,43,0.172570111931116,1
964,312,43,0.149953427200305,1
964,313,43,0.151319755798647,1
966,296,43,0.15337989498426,1
966,299,43,0.134432175513387,1
966,300,43,0.116340704961396,1
966,301,43,0.124504240991262,1
966,310,43,0.1204063151143,1
966,311,43,0.116121313699191,1
967,295,43,0.131654189154202,1
967,300,43,0.143174992095367,1
967,310,43,0.127374416668206,1
967,311,43,0.12550747699177,1
968,294,43,0.120490743476463,1
968,300,43,0.128059865679646,1
968,311,43,0.124582486498057,1
969,293,43,0.117081163720314,1
969,299,43,0.119781316763061,1
969,310,43,0.118972116429314,1
971,292,43,0.125858722061031,1
972,292,43,0.129722888897599,1
972,293,43,0.144672326566314,1
973,291,43,0.117732742461203,1
973,292,43,0.116304997499536,1
974,290,43,0.118472930352172,1
975,290,43,0.127774135323555,1
977,287,43,0.126061931907472,1
977,288,43,0.127781224997711,1
978,286,43,0.144435776408353,1
978,287,43,0.179932585442586,1
978,288,43,0.140440768575323,1
979,285,43,0.144125985912229,1
979,286,43,0.171327252010264,1
979,287,43,0.166642402394265,1
980,285,43,0.14806227428456,1
980,286,43,0.146917115255396,1
981,285,43,0.117206222274899,1
983,284,43,0.115238413729453,1
984,282,43,0.116655665502296,1
984,283,43,0.119661781559272,1
985,282,43,0.165542737403745,1
985,283,43,0.115923568319209,1
987,282,43,0.118432783011313,1
945,308,44,0.135273279380834,1
946,308,44,0.115103297730136,1
946,309,44,0.124059994000393,1
947,307,44,0.126486464422366,1
947,310,44,0.121466044747574,1
947,313,44,0.156628237649269,1
948,306,44,0.118008297603888,1
948,307,44,0.142950937193684,1
948,308,44,0.136149266329427,1
948,310,44,0.115724857236103,1
948,311,44,0.159743878572772,1
948,312,44,0.188439888230934,1
948,313,44,0.133568566052398,1
949,307,44,0.151656479990443,1
949,308,44,0.174593672166684,1
949,309,44,0.151428950912886,1
949,310,44,0.143695824054732,1
949,311,44,0.178514850818181,1
949,313,44,0.139668370952102,1
950,307,44,0.127760450603673,1
950,308,44,0.167519614137065,1
950,309,44,0.163153364113982,1
950,310,44,0.152142923497093,1
950,311,44,0.179894369507976,1
950,313,44,0.155841024726899,1
951,310,44,0.115232160212881,1
951,311,44,0.141117455597441,1
951,312,44,0.173728307952457,1
951,313,44,0.149285655266785,1
952,312,44,0.137912216267001,1
952,313,44,0.133180306288998,1
953,312,44,0.131635157736535,1
953,313,44,0.144678874504571,1
954,312,44,0.119133318189852,1
954,313,44,0.143540899364501,1
955,313,44,0.125304691112554,1
955,314,44,0.116921092539044,1
956,313,44,0.123126217963623,1
956,314,44,0.137377275620528,1
956,315,44,0.128747999816846,1
957,313,44,0.147032693431749,1
957,314,44,0.171091538009887,1
957,315,44,0.142789511672666,1
958,313,44,0.173639639918041,1
958,314,44,0.194032145477664,1
958,315,44,0.143011576283763,1
959,313,44,0.157814839474703,1
959,314,44,0.171425023563156,1
959,315,44,0.126624136001902,1
960,313,44,0.128377829321724,1
960,314,44,0.139371723439961,1
961,313,44,0.141181050681231,1
961,314,44,0.14532011315591,1
962,312,44,0.130001506025799,1
962,313,44,0.191772070414738,1
962,314,44,0.173078754832755,1
963,312,44,0.168164892253912,1
963,313,44,0.209488212203699,1
963,314,44,0.162508592402432,1
964,312,44,0.176365760953335,1
964,313,44,0.167664610928104,1
965,311,44,0.117061048830849,1
965,312,44,0.146364485754136,1
965,313,44,0.11711819019132,1
966,299,44,0.125217730723906,1
966,300,44,0.114958194947291,1
966,301,44,0.119606029869151,1
966,311,44,0.118944699882081,1
966,312,44,0.114062375754049,1
967,300,44,0.145978722686618,1
967,311,44,0.124729473579682,1
968,299,44,0.164838610280659,1
968,300,44,0.116045176251655,1
968,311,44,0.135210920868119,1
968,312,44,0.14197797951918,1
969,298,44,0.127682782163378,1
971,296,44,0.116369699608857,1
972,293,44,0.124655043777914,1
972,295,44,0.114750627659923,1
975,290,44,0.117008735985999,1
977,287,44,0.122324460610053,1
977,288,44,0.126342068251563,1
978,285,44,0.11871682927537,1
978,286,44,0.155993111192094,1
978,287,44,0.170925743271075,1
978,288,44,0.130857955151428,1
979,285,44,0.153878409779963,1
979,286,44,0.181383318849357,1
979,287,44,0.156243805367764,1
980,285,44,0.140333940611425,1
980,286,44,0.143594637210303,1
985,280,44,0.128076129533482,1
985,281,44,0.149676694370884,1
985,282,44,0.143235737177253,1
986,282,44,0.140232471122179,1
946,308,45,0.115253700103297,1
946,309,45,0.126295066773896,1
947,307,45,0.118956464972582,1
947,308,45,0.117759475950129,1
947,310,45,0.117209684673905,1
947,313,45,0.140256978783173,1
948,307,45,0.127064013774978,1
948,308,45,0.138524271841001,1
948,309,45,0.118078534840873,1
948,311,45,0.133567506134335,1
948,312,45,0.149624110658084,1
948,313,45,0.119674064831938,1
949,307,45,0.127145439035963,1
949,308,45,0.163936090049885,1
949,309,45,0.151561699761862,1
949,310,45,0.131655013534918,1
949,311,45,0.146929398528061,1
949,312,45,0.154788620305128,1
949,313,45,0.118907520311799,1
950,308,45,0.139847767972724,1
950,309,45,0.144017297203286,1
950,310,45,0.131669287098169,1
950,311,45,0.149914551761122,1
950,312,45,0.167802812466671,1
950,313,45,0.127637865191236,1
951,311,45,0.126580114071679,1
951,312,45,0.157180325414631,1
951,313,45,0.130405629229544,1
952,312,45,0.14219264825757,1
952,313,45,0.136758354132851,1
953,312,45,0.135975121791652,1
953,313,45,0.153691487341092,1
954,312,45,0.116606143775012,1
954,313,45,0.144068302815858,1
955,313,45,0.118295205646716,1
956,314,45,0.121610582240785,1
957,313,45,0.129667773158315,1
957,314,45,0.151720451933988,1
957,315,45,0.133955977881347,1
958,313,45,0.153111547284405,1
958,314,45,0.175574814764009,1
958,315,45,0.136688364210081,1
959,313,45,0.147344356449785,1
959,314,45,0.1589342542718,1
959,315,45,0.117852772293422,1
960,313,45,0.128720006203112,1
960,314,45,0.130539473327185,1
961,313,45,0.134861065469207,1
961,314,45,0.129451891402585,1
962,313,45,0.172655364673996,1
962,314,45,0.150499744300656,1
963,312,45,0.156049593047993,1
963,313,45,0.198466642447146,1
963,314,45,0.145892457133145,1
964,311,45,0.116570883834111,1
964,312,45,0.202905909047913,1
964,313,45,0.190273122512961,1
964,314,45,0.117324014502317,1
965,311,45,0.134319423785202,1
965,312,45,0.199085092860128,1
965,313,45,0.149455854553992,1
966,296,45,0.129420517827916,1
966,297,45,0.157474346685349,1
966,298,45,0.143919266559312,1
966,299,45,0.118841181217913,1
966,311,45,0.129195414785037,1
966,312,45,0.159400194252361,1
966,313,45,0.115624388780584,1
967,299,45,0.163436833311538,1
967,300,45,0.137229593703729,1
967,311,45,0.129272470828228,1
967,312,45,0.14716273360123,1
968,298,45,0.159870244359634,1
968,299,45,0.127017612917546,1
968,311,45,0.148745721228548,1
968,312,45,0.174820953930025,1
970,293,45,0.122650679836156,1
971,293,45,0.1318818477773,1
971,295,45,0.151247799139026,1
972,294,45,0.129146423016785,1
977,287,45,0.114879819894954,1
977,288,45,0.119233445116218,1
978,285,45,0.139164273921267,1
978,286,45,0.166089207603372,1
978,287,45,0.150175644910679,1
979,285,45,0.164487753848021,1
979,286,45,0.182867804758005,1
979,287,45,0.134802322454774,1
980,285,45,0.128454225860343,1
980,286,45,0.129033800834141,1
985,279,45,0.129307071264557,1
985,280,45,0.128745573782168,1
985,281,45,0.133277076808164,1
985,282,45,0.122916130426639,1
986,280,45,0.167750240530739,1
986,281,45,0.149675469576677,1
986,282,45,0.115190046135171,1
945,308,46,0.116431316178928,1
946,309,46,0.124016042731374,1
947,308,46,0.119338188574592,1
947,310,46,0.115426984929755,1
947,311,46,0.139680477571757,1
947,312,46,0.1457703074648,1
947,313,46,0.123225343856263,1
948,308,46,0.138211537128035,1
948,309,46,0.128125191962938,1
948,311,46,0.11842747164413,1
948,312,46,0.120863504882407,1
949,308,46,0.144819502077816,1
949,309,46,0.146098328551611,1
949,310,46,0.12248844171129,1
949,311,46,0.124571416242731,1
949,312,46,0.124290396633587,1
950,309,46,0.118560844667076,1
950,311,46,0.12368857515733,1
950,312,46,0.135410397447604,1
951,312,46,0.143055374453506,1
951,313,46,0.121053524637395,1
952,312,46,0.148718222243243,1
952,313,46,0.141811113085438,1
953,312,46,0.139625668031025,1
953,313,46,0.153736557412511,1
954,313,46,0.134701218048417,1
957,313,46,0.116311074363098,1
957,314,46,0.128328095610827,1
957,315,46,0.123919813948107,1
958,313,46,0.130871204127217,1
958,314,46,0.143714655265654,1
958,315,46,0.126014777330529,1
959,313,46,0.131131602441599,1
959,314,46,0.135065629655396,1
960,313,46,0.120291478880591,1
960,314,46,0.115676748732903,1
961,313,46,0.119493278140966,1
962,313,46,0.144388233194787,1
962,314,46,0.123875968670895,1
963,312,46,0.137824101745351,1
963,313,46,0.179093825171744,1
963,314,46,0.12745159048007,1
964,312,46,0.209224999218016,1
964,313,46,0.202491669515098,1
964,314,46,0.115725457856339,1
965,311,46,0.143580057448501,1
965,312,46,0.240392196063549,1
965,313,46,0.180794981886236,1
966,296,46,0.127438047082597,1
966,297,46,0.130459944141847,1
966,298,46,0.121741576336524,1
966,311,46,0.146164267232007,1
966,312,46,0.213401076386834,1
966,313,46,0.1442586641,1
967,297,46,0.169550381815462,1
967,298,46,0.154764018429196,1
967,299,46,0.135622369283367,1
967,311,46,0.145759519854291,1
967,312,46,0.190700316599881,1
967,313,46,0.129998879784376,1
968,298,46,0.114090487136458,1
968,311,46,0.159685053120267,1
968,312,46,0.191574996316196,1
969,294,46,0.141504996971932,1
969,311,46,0.177887155564315,1
969,312,46,0.181300445033686,1
970,294,46,0.13772104237901,1
970,295,46,0.134771926360096,1
971,294,46,0.130062427760696,1
978,285,46,0.144188909714578,1
978,286,46,0.158257602580283,1
978,287,46,0.125068034962787,1
979,285,46,0.158574906717789,1
979,286,46,0.162665401391442,1
985,279,46,0.146540043515996,1
985,280,46,0.136365171638891,1
985,281,46,0.124806435407934,1
945,309,47,0.141542765385582,1
946,309,47,0.120633326009692,1
946,310,47,0.14631134852857,1
946,311,47,0.174292667213616,1
947,308,47,0.114166365492912,1
947,309,47,0.11613353808752,1
947,310,47,0.114647862715267,1
947,311,47,0.123639630496547,1
947,312,47,0.118166920230472,1
948,308,47,0.129462973434779,1
948,309,47,0.133638991719261,1
948,310,47,0.115595818100348,1
949,308,47,0.121197002212544,1
949,309,47,0.134571413416283,1
949,310,47,0.117491246018948,1
951,312,47,0.124939890868952,1
952,312,47,0.141140938670974,1
952,313,47,0.131967347834394,1
953,312,47,0.130207283229326,1
953,313,47,0.136943192066198,1
954,313,47,0.115741486172827,1
958,314,47,0.115151865531163,1
962,313,47,0.116253273498054,1
963,312,47,0.121785080084582,1
963,313,47,0.158516952753469,1
964,312,47,0.20139790473513,1
964,313,47,0.205683412555535,1
965,311,47,0.149407604728384,1
965,312,47,0.268008243430298,1
965,313,47,0.211792002998296,1
966,295,47,0.12839543573844,1
966,311,47,0.175528272584169,1
966,312,47,0.274887794718461,1
966,313,47,0.179642521199303,1
967,311,47,0.182451186297982,1
967,312,47,0.238824695016821,1
967,313,47,0.145612261904717,1
968,311,47,0.17572673635306,1
968,312,47,0.192173037418028,1
969,294,47,0.119370563182988,1
969,310,47,0.120319731585408,1
969,311,47,0.165311027538273,1
969,312,47,0.147462961281052,1
970,310,47,0.126596189495637,1
970,311,47,0.138360679376388,1
978,285,47,0.142308626847414,1
978,286,47,0.143571330789781,1
979,285,47,0.149524219269065,1
979,286,47,0.139671668474965,1
981,273,47,0.119753723562817,1
984,276,47,0.11706811495127,1
984,277,47,0.115092415904688,1
984,278,47,0.114172948761771,1
984,280,47,0.117016284957982,1
984,281,47,0.119344995603931,1
985,279,47,0.159990839481486,1
985,280,47,0.148087841863617,1
985,281,47,0.125634537613807,1
986,280,47,0.187984759414616,1
986,281,47,0.147132608374502,1
944,309,48,0.14329723597865,1
944,310,48,0.164610351037325,1
945,309,48,0.122674575100047,1
945,310,48,0.150575245797354,1
946,310,48,0.123254833132153,1
948,308,48,0.115438962003869,1
948,309,48,0.130100172620611,1
949,309,48,0.119546050283643,1
952,312,48,0.126108014789484,1
953,312,48,0.115483737653603,1
963,313,48,0.128832687270092,1
964,312,48,0.172305320845206,1
964,313,48,0.182008434969269,1
965,311,48,0.138589386140681,1
965,312,48,0.256220588451434,1
965,313,48,0.212565083679824,1
966,295,48,0.127781119005904,1
966,296,48,0.137764027944905,1
966,311,48,0.184207635404768,1
966,312,48,0.294782951392252,1
966,313,48,0.194291318997839,1
967,295,48,0.153441417339393,1
967,311,48,0.195871268193376,1
967,312,48,0.249097632868502,1
968,311,48,0.174565089709581,1
968,312,48,0.173775745174217,1
969,310,48,0.121600654341594,1
969,311,48,0.147918031213032,1
970,310,48,0.117732919114214,1
978,285,48,0.124718191340743,1
978,286,48,0.11499963774356,1
979,285,48,0.122292203770331,1
981,272,48,0.132449622329996,1
981,273,48,0.125256135088394,1
983,276,48,0.113934997156593,1
983,277,48,0.126535703504833,1
983,280,48,0.125925732436357,1
983,281,48,0.120154243045147,1
984,278,48,0.141875556103677,1
984,279,48,0.137936759258596,1
984,280,48,0.149749993593384,1
984,281,48,0.137727178126909,1
985,279,48,0.16729171997662,1
985,280,48,0.156641427740722,1
985,281,48,0.128254831718929,1
986,280,48,0.195147155726365,1
964,312,49,0.142471018071556,1
964,313,49,0.149916447836768,1
965,311,49,0.121095556277033,1
965,312,49,0.219478151932518,1
965,313,49,0.188625279677046,1
966,296,49,0.121848616284035,1
966,311,49,0.169778876596142,1
966,312,49,0.266725177284251,1
966,313,49,0.183046495166585,1
967,295,49,0.124202423434346,1
967,296,49,0.138350056642021,1
967,311,49,0.183594767226919,1
967,312,49,0.223081661363622,1
968,311,49,0.162835965761537,1
968,312,49,0.15078340192809,1
969,310,49,0.116513236068343,1
969,311,49,0.133657304748018,1
977,274,49,0.11399815649629,1
978,285,49,0.114214050028886,1
981,273,49,0.126415002391175,1
981,274,49,0.115682731381526,1
982,273,49,0.140577592220409,1
982,274,49,0.121664320086587,1
983,274,49,0.139880696093886,1
983,275,49,0.121656358924246,1
983,276,49,0.132958524322717,1
983,277,49,0.15291672256753,1
983,278,49,0.122877832053957,1
983,279,49,0.123606985020202,1
983,280,49,0.141364027869533,1
983,281,49,0.124610350566251,1
984,278,49,0.156850655566388,1
984,279,49,0.149774030179683,1
984,280,49,0.157570846336565,1
984,281,49,0.132995091495896,1
985,279,49,0.16106958875556,1
985,280,49,0.148397149508179,1
985,281,49,0.121189253033815,1
986,280,49,0.181283698328288,1
948,310,50,0.115045956162919,1
953,292,50,0.13810706453761,1
954,291,50,0.118506117564416,1
957,284,50,0.162463534107881,1
959,284,50,0.148348405054142,1
964,312,50,0.113987627976862,1
965,312,50,0.169104792261713,1
965,313,50,0.147098314136725,1
966,311,50,0.137281388366415,1
966,312,50,0.203991853987949,1
967,311,50,0.147224962568405,1
967,312,50,0.1732031421059,1
968,311,50,0.132964577632544,1
975,275,50,0.137921979290049,1
976,274,50,0.137914701186015,1
976,275,50,0.136184408501655,1
977,273,50,0.116483440593901,1
977,274,50,0.135888078964932,1
977,275,50,0.12244995490873,1
978,273,50,0.117208718970781,1
978,274,50,0.124501167228879,1
979,274,50,0.11739130752246,1
980,273,50,0.115701892344735,1
980,274,50,0.122005448826779,1
981,273,50,0.126329113697458,1
981,274,50,0.126828158452192,1
982,274,50,0.131790117757368,1
982,275,50,0.117956114304579,1
983,275,50,0.1415492191089,1
983,278,50,0.132888345970069,1
983,279,50,0.13230026809803,1
983,280,50,0.139214478706859,1
983,281,50,0.11779769188474,1
984,279,50,0.154264620368441,1
984,280,50,0.149872637890158,1
984,281,50,0.118645367244179,1
985,280,50,0.137219477374659,1
986,280,50,0.15437945660215,1
986,281,50,0.136213520917789,1
987,280,50,0.148974086463687,1
953,291,51,0.132403621886055,1
961,282,51,0.126617705832319,1
965,312,51,0.123636026775132,1
975,275,51,0.164935486791631,1
976,274,51,0.150865262933167,1
976,275,51,0.160620218827386,1
977,273,51,0.116139155653254,1
977,274,51,0.145368869386815,1
977,275,51,0.144075156952667,1
978,273,51,0.118738369165787,1
978,274,51,0.136288904645814,1
978,275,51,0.128154516362685,1
979,273,51,0.117639446117911,1
979,274,51,0.133710394866115,1
979,275,51,0.125367603138036,1
980,273,51,0.117516424961381,1
980,274,51,0.131209082452015,1
980,275,51,0.122781744593099,1
981,274,51,0.131727653252846,1
981,275,51,0.124973843577575,1
982,274,51,0.140385876596519,1
982,275,51,0.143013413475073,1
982,276,51,0.128890888548626,1
982,277,51,0.11805330879097,1
983,278,51,0.140607682116535,1
983,279,51,0.131278671961295,1
983,280,51,0.120873220797985,1
984,279,51,0.151844462347377,1
984,280,51,0.132796286197851,1
985,280,51,0.134204387344748,1
986,280,51,0.137058475820866,1
986,281,51,0.118625723429409,1
952,291,52,0.122774513596535,1
957,284,52,0.137262804469707,1
961,282,52,0.159783378185925,1
972,277,52,0.142517972441753,1
973,277,52,0.128089107641321,1
974,276,52,0.133737363892388,1
975,275,52,0.175300743506612,1
976,275,52,0.168658307666043,1
977,274,52,0.151510223074595,1
977,275,52,0.157491588019176,1
978,274,52,0.150128502110603,1
978,275,52,0.142299582213275,1
979,274,52,0.148929087053473,1
979,275,52,0.135569184950332,1
980,274,52,0.135648890788681,1
980,275,52,0.127725755952406,1
981,274,52,0.132805213063316,1
981,275,52,0.134697319905318,1
982,274,52,0.146921967324752,1
982,277,52,0.125763670964501,1
982,278,52,0.115827374866545,1
983,278,52,0.143944480832348,1
983,279,52,0.121719671363219,1
984,279,52,0.14101444333857,1
984,280,52,0.114366324923959,1
985,280,52,0.12915669244513,1
986,280,52,0.126828182005926,1
952,290,53,0.126498688810695,1
957,284,53,0.118555521523026,1
958,284,53,0.139736935873921,1
959,284,53,0.137794459370184,1
960,282,53,0.256835388035532,1
960,283,53,0.224406794479909,1
960,284,53,0.130594895265021,1
961,282,53,0.16061116241638,1
961,283,53,0.125985264500904,1
971,278,53,0.119732136564931,1
972,277,53,0.196468685121238,1
972,278,53,0.138689089099821,1
973,277,53,0.168460668277868,1
973,278,53,0.118684148468423,1
974,277,53,0.114293685206031,1
974,279,53,0.122429168737825,1
974,280,53,0.121510160892736,1
975,276,53,0.117183928664971,1
976,275,53,0.15926697432869,1
976,276,53,0.119421297927611,1
977,274,53,0.151113684173435,1
977,275,53,0.158338568543441,1
977,276,53,0.119653502421512,1
978,274,53,0.158937222042376,1
978,275,53,0.147586712603359,1
979,274,53,0.154160607075843,1
979,275,53,0.137644504517983,1
979,278,53,0.118349803203836,1
980,274,53,0.136908886051554,1
980,275,53,0.12943826556704,1
981,274,53,0.139345531686934,1
981,275,53,0.144464594402804,1
981,276,53,0.12428877142589,1
982,274,53,0.15398040922824,1
982,277,53,0.135428286509137,1
982,278,53,0.119788006023726,1
983,278,53,0.142212350956677,1
984,279,53,0.133496397409165,1
985,280,53,0.127323057749612,1
986,279,53,0.148490469405206,1
986,280,53,0.124465106460997,1
987,279,53,0.161524552695734,1
987,280,53,0.125133384799814,1
957,283,54,0.158549657114151,1
958,283,54,0.164549205541949,1
958,284,54,0.114173408059598,1
959,283,54,0.179272162274303,1
959,284,54,0.137476966802801,1
959,285,54,0.123777655382104,1
960,283,54,0.203194842711928,1
960,284,54,0.148189476229006,1
960,285,54,0.140765927883363,1
960,286,54,0.11769722342922,1
961,282,54,0.128786062652181,1
961,283,54,0.119166387633422,1
970,282,54,0.130150330298733,1
970,283,54,0.133193814355869,1
971,282,54,0.120897646020907,1
971,283,54,0.124647848111951,1
972,278,54,0.157547292601828,1
972,279,54,0.116250388165548,1
973,278,54,0.130425673457805,1
973,279,54,0.131557618841782,1
973,280,54,0.121472910661249,1
974,277,54,0.129520621200547,1
974,279,54,0.144679934422634,1
974,280,54,0.158736485338083,1
974,281,54,0.114640301966417,1
975,276,54,0.127189343197512,1
976,275,54,0.148496687591177,1
976,276,54,0.131657439569596,1
977,274,54,0.149520745093192,1
977,275,54,0.152224301650608,1
977,276,54,0.130541074981148,1
978,274,54,0.161754472477367,1
978,275,54,0.146850564177897,1
978,276,54,0.117056879819801,1
979,274,54,0.149597176962412,1
979,275,54,0.134573521475542,1
979,276,54,0.117283926045795,1
980,274,54,0.134696448417132,1
980,275,54,0.128179389106567,1
980,276,54,0.123480937208758,1
981,274,54,0.143612797139785,1
981,275,54,0.146532647643289,1
981,276,54,0.139445929481249,1
981,277,54,0.123674384032151,1
982,277,54,0.147561839859477,1
982,278,54,0.122782333436467,1
983,278,54,0.138968836807289,1
984,279,54,0.132415339869086,1
985,279,54,0.150147957495496,1
985,280,54,0.124297710068223,1
986,279,54,0.139440147039371,1
986,280,54,0.12013100728583,1
987,279,54,0.155702893849536,1
987,280,54,0.125504049923366,1
959,284,55,0.133580943540002,1
959,285,55,0.137742982682917,1
960,284,55,0.143465645182018,1
960,285,55,0.163005646866581,1
960,286,55,0.139836886147276,1
968,280,55,0.132883364355172,1
968,281,55,0.151261872495531,1
969,280,55,0.118310174045141,1
970,279,55,0.122242682043047,1
970,282,55,0.154832442028606,1
970,283,55,0.165228047730795,1
971,282,55,0.146889321848407,1
971,283,55,0.14932053834793,1
972,278,55,0.161886243846351,1
972,279,55,0.117990184781875,1
973,278,55,0.137782446965469,1
973,279,55,0.13598331849134,1
973,280,55,0.127833773379908,1
974,278,55,0.120360856406258,1
974,279,55,0.152881745271446,1
974,280,55,0.170511868821149,1
974,281,55,0.120555363147714,1
976,275,55,0.14473038652244,1
976,276,55,0.140583198009276,1
976,277,55,0.117734073247216,1
977,273,55,0.126169513590882,1
977,274,55,0.148670985228228,1
977,275,55,0.14552006081009,1
977,276,55,0.136124181601933,1
977,277,55,0.120184910007775,1
978,273,55,0.140361639803475,1
978,274,55,0.157477361563395,1
978,275,55,0.142296991302454,1
978,276,55,0.125233806147864,1
979,274,55,0.146028397513178,1
979,275,55,0.131926081691136,1
979,276,55,0.123119034074529,1
980,274,55,0.139773773915049,1
980,275,55,0.130795102010283,1
980,276,55,0.135818878092276,1
980,277,55,0.124486092838647,1
981,274,55,0.149871295327278,1
981,275,55,0.146150170321767,1
982,278,55,0.119451423154339,1
983,278,55,0.133267290231381,1
984,279,55,0.135834176242987,1
985,279,55,0.141280141243268,1
985,280,55,0.119864908967642,1
986,278,55,0.141799866177101,1
986,279,55,0.127497096295582,1
986,280,55,0.114166824790739,1
987,280,55,0.12074803269786,1
959,284,56,0.12022444495153,1
959,285,56,0.133600434255497,1
960,284,56,0.123479794852623,1
960,285,56,0.15485444121685,1
960,286,56,0.138797153634794,1
967,281,56,0.114696406962559,1
968,281,56,0.167237723039736,1
968,282,56,0.114462695029634,1
969,281,56,0.118413268742084,1
970,282,56,0.153636913337707,1
970,283,56,0.170983108392026,1
971,282,56,0.143494592722009,1
971,283,56,0.14813880036872,1
972,278,56,0.161312934165992,1
972,279,56,0.115552655881443,1
973,278,56,0.14405634929548,1
973,279,56,0.130719400306839,1
973,280,56,0.120471770943133,1
974,278,56,0.126212628702317,1
974,279,56,0.141183983121205,1
974,280,56,0.150255138765415,1
975,277,56,0.123509872971882,1
976,276,56,0.142375119040575,1
976,277,56,0.117125044328129,1
977,275,56,0.14028759863833,1
977,276,56,0.140998226592204,1
977,277,56,0.126323248817508,1
978,273,56,0.147992190146851,1
978,274,56,0.148965230259426,1
978,275,56,0.140664105088097,1
978,276,56,0.140424116084864,1
978,277,56,0.12626649609366,1
979,274,56,0.141861388532233,1
979,275,56,0.131571091578051,1
979,276,56,0.126912763467366,1
980,274,56,0.141948772888106,1
980,275,56,0.132467876474417,1
981,274,56,0.14784760554617,1
983,278,56,0.126382451129769,1
983,279,56,0.114221186810512,1
984,279,56,0.132890560021134,1
985,278,56,0.143980753583842,1
985,279,56,0.126555547526349,1
986,279,56,0.114680355092336,1
960,285,57,0.119530705025463,1
968,280,57,0.114465250609853,1
968,281,57,0.137386072940452,1
970,279,57,0.122331726937219,1
970,282,57,0.121934010349323,1
970,283,57,0.139447696011354,1
971,283,57,0.118472188409527,1
972,278,57,0.147314749405221,1
973,277,57,0.160510799952666,1
973,278,57,0.135820927267198,1
974,278,57,0.119804717398522,1
977,276,57,0.140613594103954,1
977,277,57,0.12227399673338,1
978,274,57,0.144326275095562,1
978,275,57,0.14073202228221,1
978,276,57,0.150368938634795,1
978,277,57,0.130763987526696,1
979,270,57,0.130577783476735,1
979,271,57,0.132332666260161,1
979,272,57,0.139272668208526,1
979,273,57,0.14616734099439,1
979,274,57,0.1414177421616,1
979,275,57,0.134445059406288,1
979,277,57,0.115654290246832,1
980,271,57,0.128689951637588,1
980,272,57,0.138276521882173,1
980,273,57,0.148943819914551,1
980,274,57,0.14324783202004,1
983,278,57,0.121209933212914,1
984,278,57,0.129493675728008,1
984,279,57,0.119400770847787,1
985,278,57,0.120572580927806,1
946,276,58,0.115992486547049,1
946,277,58,0.121830986313584,1
946,278,58,0.123406754721205,1
946,279,58,0.117994035817505,1
946,280,58,0.119179000658374,1
947,275,58,0.11567457001244,1
947,276,58,0.124151830012131,1
970,278,58,0.135952204007753,1
971,278,58,0.126903871932503,1
972,277,58,0.143261116326431,1
972,278,58,0.125535258621892,1
973,277,58,0.146454131268544,1
973,278,58,0.120615460501894,1
977,276,58,0.136995457803578,1
977,277,58,0.115556400925266,1
978,274,58,0.139204421262126,1
978,275,58,0.143588395470598,1
978,277,58,0.13354134971191,1
979,273,58,0.140067324111073,1
979,274,58,0.138479684621145,1
980,270,58,0.135810905153067,1
980,271,58,0.141843475916966,1
980,272,58,0.146266584655703,1
980,273,58,0.146978378519446,1
980,274,58,0.139307669058344,1
981,271,58,0.134788272652004,1
981,272,58,0.146713516772332,1
981,273,58,0.156361256066029,1
981,274,58,0.146317802251888,1
983,278,58,0.117435247014611,1
945,276,59,0.118329747198707,1
946,275,59,0.120703410147401,1
946,277,59,0.118371060449435,1
946,278,59,0.121165687522211,1
946,279,59,0.116669409106515,1
946,280,59,0.119565152362515,1
947,276,59,0.122055818488514,1
947,277,59,0.145962682593262,1
947,278,59,0.14941397601363,1
947,279,59,0.136327155911026,1
947,280,59,0.134640708503878,1
947,281,59,0.122230245671106,1
948,275,59,0.117880412601135,1
948,279,59,0.139922233105094,1
948,280,59,0.129584204507469,1
948,281,59,0.119597303210431,1
949,280,59,0.124207652363457,1
972,276,59,0.132680766905834,1
972,277,59,0.120214941019564,1
973,277,59,0.13496259384279,1
974,268,59,0.11675655792504,1
977,276,59,0.132934982364848,1
978,275,59,0.14762214919727,1
978,277,59,0.130763504675134,1
979,274,59,0.138456813944715,1
980,271,59,0.157396077624819,1
980,272,59,0.156572038438188,1
980,273,59,0.147638601480983,1
980,274,59,0.136609317876305,1
981,270,59,0.141121141756928,1
981,271,59,0.151956754777734,1
981,272,59,0.160048169271835,1
981,273,59,0.162227631677625,1
981,274,59,0.150977720239668,1
982,271,59,0.132629961500007,1
982,272,59,0.143894358484828,1
982,273,59,0.161885278143227,1
982,274,59,0.163269907993459,1
982,278,59,0.115528148220449,1
983,277,59,0.132808227941362,1
984,277,59,0.124860526559757,1
945,275,60,0.120352200408742,1
946,274,60,0.115516630444163,1
946,278,60,0.115837090782123,1
946,279,60,0.113991431905022,1
946,280,60,0.118619670119581,1
946,281,60,0.126100088957745,1
946,282,60,0.130188263588526,1
946,283,60,0.116414133729438,1
947,276,60,0.121902636774653,1
947,277,60,0.138570637367831,1
947,278,60,0.140153047928647,1
947,279,60,0.134659857690219,1
947,280,60,0.136326343307178,1
947,281,60,0.135503234493069,1
947,282,60,0.127858999429811,1
948,275,60,0.120589669162358,1
948,276,60,0.152335121972544,1
948,279,60,0.145808005217246,1
948,280,60,0.133027230566944,1
948,281,60,0.118381059009831,1
949,272,60,0.115626296633097,1
949,273,60,0.114000594307835,1
949,274,60,0.116356250426323,1
949,275,60,0.141525382729346,1
949,280,60,0.121497382991641,1
950,271,60,0.128404256612099,1
950,272,60,0.133771587468961,1
950,273,60,0.129647599384513,1
950,274,60,0.132000911906394,1
950,280,60,0.113907898584779,1
951,270,60,0.123515360992076,1
951,271,60,0.132883682330591,1
951,272,60,0.130375645325224,1
951,273,60,0.128377640891846,1
951,274,60,0.139195046875701,1
951,279,60,0.136704039220548,1
952,269,60,0.117295962004246,1
952,270,60,0.126345248005752,1
952,271,60,0.119318426991148,1
952,274,60,0.127079147049546,1
952,275,60,0.148783901832556,1
952,278,60,0.127074024112241,1
965,272,60,0.114759330764908,1
966,273,60,0.123649428850197,1
972,275,60,0.125845331762833,1
972,276,60,0.118224544442506,1
973,269,60,0.114713860279999,1
973,274,60,0.124519397819565,1
973,277,60,0.115942199323386,1
974,267,60,0.118120813794725,1
974,268,60,0.12224446035002,1
975,266,60,0.118124876813967,1
975,267,60,0.130901835759242,1
976,266,60,0.113947245098656,1
976,267,60,0.126136691461526,1
977,275,60,0.127155202059011,1
977,276,60,0.119703106586868,1
978,275,60,0.138869722691517,1
978,277,60,0.124340471873637,1
979,274,60,0.127666600747614,1
979,278,60,0.113806805955289,1
980,271,60,0.154032533643213,1
980,272,60,0.150009072898621,1
980,273,60,0.138554361737128,1
980,274,60,0.128502016388123,1
980,275,60,0.123161348358983,1
980,277,60,0.124390676659229,1
981,271,60,0.152347676113159,1
981,272,60,0.155554222675878,1
981,273,60,0.15477796224016,1
981,274,60,0.148540568198991,1
981,275,60,0.131357694741337,1
982,275,60,0.147826053878886,1
982,276,60,0.129380606024405,1
982,277,60,0.119218064527435,1
983,276,60,0.138000448557324,1
983,277,60,0.123798877297102,1
945,282,61,0.114673230087578,1
946,280,61,0.113775726802304,1
946,281,61,0.132500722157507,1
946,282,61,0.146973632441897,1
946,283,61,0.121323297338202,1
947,276,61,0.125727092014455,1
947,277,61,0.131685433183331,1
947,278,61,0.130709225093433,1
947,279,61,0.127045630085016,1
947,280,61,0.129655407447578,1
947,281,61,0.134871864856584,1
947,282,61,0.126334413287774,1
948,275,61,0.130378848633148,1
948,276,61,0.15811164008612,1
948,278,61,0.153927790184838,1
948,279,61,0.14204617935811,1
948,280,61,0.127677152820776,1
949,273,61,0.113915153135077,1
949,274,61,0.118696867485181,1
949,275,61,0.139855788019402,1
949,279,61,0.145542778387244,1
949,280,61,0.113791684457588,1
950,271,61,0.122372156922895,1
950,272,61,0.124865508174653,1
950,273,61,0.127847199008708,1
950,274,61,0.132612413967628,1
950,275,61,0.149712543155153,1
950,279,61,0.133003594394136,1
951,270,61,0.123288609187765,1
951,271,61,0.128497611839728,1
951,272,61,0.121314288034665,1
951,273,61,0.123482892168741,1
951,274,61,0.138759220345,1
951,275,61,0.158407204126464,1
951,278,61,0.149624805493259,1
951,279,61,0.11599346402704,1
952,269,61,0.115179128979121,1
952,270,61,0.125074453355503,1
952,271,61,0.118342395554261,1
952,274,61,0.125223360066508,1
952,275,61,0.14408937163158,1
952,276,61,0.141281931327108,1
952,277,61,0.133660955576903,1
960,270,61,0.123698726817001,1
966,272,61,0.119051998920674,1
966,273,61,0.13710312192506,1
967,273,61,0.118335635632391,1
967,274,61,0.115319721221764,1
972,275,61,0.12086322223759,1
973,268,61,0.120060204759211,1
973,274,61,0.115436394646783,1
973,275,61,0.133192836875878,1
973,276,61,0.126272396304212,1
974,274,61,0.114855677316849,1
975,267,61,0.117802897260117,1
975,277,61,0.114626028403166,1
976,267,61,0.11378495986632,1
976,275,61,0.122258592590862,1
976,276,61,0.122354574059914,1
977,275,61,0.121119486871525,1
977,276,61,0.116948909499768,1
978,274,61,0.121319705393655,1
978,275,61,0.125451937285261,1
978,276,61,0.129166667451791,1
978,277,61,0.117946162851653,1
979,273,61,0.119276371797776,1
979,274,61,0.1166490233491,1
979,275,61,0.120670976654669,1
979,277,61,0.133639780769374,1
980,271,61,0.141761296936469,1
980,272,61,0.137792575071405,1
980,273,61,0.127513018620264,1
980,274,61,0.11884459650945,1
981,274,61,0.136108706798211,1
981,275,61,0.118776467331724,1
982,274,61,0.148664437289971,1
982,275,61,0.134481956331753,1
982,276,61,0.114862613891729,1
983,274,61,0.145052990250261,1
983,275,61,0.132353805737087,1
983,276,61,0.117194904705358,1
983,287,61,0.118714791877316,1
984,275,61,0.119328437328411,1
945,282,62,0.116895560290589,1
946,281,62,0.13306743679214,1
946,282,62,0.14975390351335,1
946,283,62,0.115114568192208,1
947,276,62,0.127341582761983,1
947,277,62,0.12549449888393,1
947,278,62,0.123453661983933,1
947,279,62,0.120464422177895,1
947,280,62,0.121163709008493,1
947,281,62,0.128380632216158,1
947,282,62,0.1178115650345,1
948,275,62,0.139796114632447,1
948,276,62,0.160760587309549,1
948,277,62,0.153559833740782,1
948,278,62,0.14430296867504,1
948,279,62,0.134751599487019,1
948,280,62,0.116666794641959,1
949,274,62,0.118436610493208,1
949,275,62,0.137769515965098,1
949,276,62,0.159993218408695,1
949,278,62,0.155148062074078,1
949,279,62,0.135676083575434,1
950,272,62,0.115664253476625,1
950,273,62,0.123843758938642,1
950,274,62,0.132159416764305,1
950,275,62,0.141515737474972,1
950,276,62,0.154548325103344,1
950,278,62,0.146515783169217,1
950,279,62,0.115768784951387,1
951,270,62,0.122908746330799,1
951,271,62,0.122615879193083,1
951,272,62,0.114608151118501,1
951,273,62,0.119535451103012,1
951,274,62,0.137215967868183,1
951,275,62,0.150772590763846,1
951,276,62,0.149239042425741,1
951,277,62,0.149628526983347,1
951,278,62,0.126878316130314,1
952,270,62,0.120106311194958,1
952,271,62,0.114043367890117,1
952,274,62,0.121250798942682,1
952,275,62,0.134397351316578,1
952,276,62,0.12173899720257,1
960,270,62,0.12059954995408,1
960,271,62,0.127903515988464,1
961,271,62,0.117855893163274,1
966,272,62,0.118340629024156,1
966,273,62,0.137002359047856,1
967,273,62,0.126458070395141,1
967,274,62,0.121887291516472,1
973,268,62,0.113953239524147,1
973,269,62,0.118649312494748,1
973,275,62,0.114292154213273,1
974,276,62,0.117863442135257,1
975,276,62,0.114461470235428,1
978,276,62,0.117988759780924,1
979,271,62,0.119681978886809,1
979,272,62,0.114909697807468,1
979,277,62,0.114784910120833,1
980,272,62,0.122403283183349,1
980,273,62,0.114210752506023,1
981,273,62,0.119868583350261,1
981,274,62,0.117591667366998,1
982,273,62,0.125686226284687,1
982,274,62,0.133527241024802,1
982,275,62,0.115894326357534,1
983,273,62,0.124037076216494,1
983,274,62,0.13258072241754,1
983,287,62,0.114887816387897,1
984,302,62,0.122270899417262,1
985,292,62,0.119808603764754,1
985,293,62,0.159201812921541,1
986,293,62,0.141380480153246,1
987,294,62,0.139145124734926,1
987,295,62,0.136024031121832,1
946,281,63,0.124025040258043,1
946,282,63,0.132992429923871,1
947,275,63,0.114051835457755,1
947,276,63,0.125844460274648,1
947,277,63,0.123329015619706,1
947,278,63,0.123092642114756,1
947,279,63,0.118370919127027,1
947,280,63,0.113985319710858,1
947,281,63,0.117963180425,1
948,275,63,0.143148105507165,1
948,276,63,0.157552651076481,1
948,277,63,0.145390856798192,1
948,278,63,0.137532235641361,1
948,279,63,0.125854529496248,1
949,274,63,0.116535682777547,1
949,275,63,0.138371196118947,1
949,276,63,0.150540221393801,1
949,277,63,0.148456186944297,1
949,278,63,0.141291682573289,1
949,279,63,0.123134885738006,1
950,273,63,0.119351814410137,1
950,274,63,0.128498000476351,1
950,275,63,0.135001068868482,1
950,276,63,0.137086528318938,1
950,277,63,0.137669860113427,1
950,278,63,0.124873952188557,1
951,270,63,0.117568784913701,1
951,271,63,0.116780818271819,1
951,273,63,0.117927084326516,1
951,274,63,0.12900256858188,1
951,275,63,0.13467990191848,1
951,276,63,0.126650339531797,1
951,277,63,0.12036576735995,1
952,275,63,0.11505575451657,1
960,271,63,0.133867321623798,1
960,272,63,0.136957418521979,1
961,271,63,0.131189897935072,1
961,272,63,0.135938825486422,1
966,273,63,0.116267770821784,1
967,273,63,0.115815115147614,1
982,274,63,0.113860885330244,1
983,274,63,0.115040385704654,1
985,293,63,0.149257579214979,1
985,294,63,0.139572424813652,1
986,293,63,0.15522878072302,1
986,294,63,0.174277310178567,1
986,295,63,0.137345548739838,1
987,293,63,0.118936726942872,1
987,294,63,0.151301866737114,1
987,295,63,0.128839117439675,1
946,278,64,0.117674694281945,1
947,276,64,0.124219075924804,1
947,277,64,0.124139523185731,1
947,278,64,0.124404055180559,1
947,279,64,0.117948376902718,1
948,275,64,0.138588797297313,1
948,276,64,0.150935983021714,1
948,277,64,0.142511436280364,1
948,278,64,0.13450591047998,1
948,279,64,0.119305955288605,1
949,274,64,0.114552316990308,1
949,275,64,0.138660541973321,1
949,276,64,0.146347974586086,1
949,277,64,0.141587953225675,1
949,278,64,0.132432251450627,1
950,274,64,0.122824105985023,1
950,275,64,0.129067447344213,1
950,276,64,0.124523696376154,1
950,277,64,0.117578265291933,1
951,274,64,0.117436754453634,1
951,275,64,0.11572961509052,1
959,272,64,0.116371795891249,1
960,271,64,0.1298001215938,1
960,272,64,0.159014030771353,1
960,273,64,0.119087741713137,1
961,271,64,0.134321720274339,1
961,272,64,0.161167937374953,1
961,273,64,0.133672909097281,1
962,272,64,0.126655085609346,1
962,273,64,0.123081736735573,1
985,293,64,0.122133675358686,1
985,294,64,0.11642182402383,1
986,293,64,0.15243305840158,1
986,294,64,0.150615134047131,1
987,293,64,0.124609184656381,1
987,294,64,0.136108282830986,1
946,277,65,0.11464628461504,1
946,278,65,0.118423125980071,1
947,276,65,0.121550072696247,1
947,277,65,0.123582100499452,1
947,278,65,0.121975606244868,1
948,275,65,0.123338107361315,1
948,276,65,0.138516004480109,1
948,277,65,0.137852060028483,1
948,278,65,0.128971183230344,1
949,275,65,0.131956701546293,1
949,276,65,0.143366907926001,1
949,277,65,0.139932302326694,1
949,278,65,0.123636592064766,1
950,274,65,0.116556068534961,1
950,275,65,0.127092855323163,1
950,276,65,0.123887156694895,1
960,271,65,0.115530103180433,1
960,272,65,0.148828795250964,1
960,273,65,0.117291981423075,1
961,271,65,0.12510444903669,1
961,272,65,0.156823191911685,1
961,273,65,0.130401000920668,1
962,272,65,0.132376923727731,1
962,273,65,0.120291043136498,1
986,293,65,0.133685957866326,1
986,294,65,0.117521948312177,1
987,293,65,0.117987193457564,1
946,277,66,0.113797443345731,1
947,276,66,0.114553294470299,1
947,277,66,0.119968922260239,1
947,278,66,0.114698114608328,1
948,276,66,0.119554423636342,1
948,277,66,0.125258737776083,1
948,278,66,0.116044622738889,1
949,276,66,0.12638772716635,1
949,277,66,0.124771870302208,1
950,275,66,0.114365924510469,1
960,272,66,0.116782867446741,1
961,272,66,0.129351458277668,1
962,272,66,0.122841158888972,1
946,277,67,0.115446664075128,1
947,277,67,0.120906113588545,1
947,278,67,0.113934584966235,1
948,277,67,0.11743959267867,1
946,277,68,0.11553056247826,1
947,277,68,0.119563374055542,1
947,278,68,0.114566720099099,1
