x,y,z,signal,mito.p
166,251,21,0.265465311566919,2
166,252,21,0.250172601768151,2
165,251,22,0.22469391450635,2
165,252,22,0.214165465740245,2
166,250,22,0.211522053644479,2
166,251,22,0.345698023408267,2
166,252,22,0.326406572509513,2
166,253,22,0.251238502479926,2
167,251,22,0.237103199652385,2
167,252,22,0.25373800125645,2
164,253,23,0.217229523984674,3
165,251,23,0.261734023124868,2
165,252,23,0.25917582844138,2
166,250,23,0.271444709774649,2
166,251,23,0.398934268875115,2
166,252,23,0.380351644069528,2
166,253,23,0.26490296615008,2
167,251,23,0.258016584278843,2
167,252,23,0.263711429817219,2
163,253,24,0.298011249829,3
164,252,24,0.217965060013032,3
164,253,24,0.328200872468021,3
164,254,24,0.300853643875822,3
165,250,24,0.239154612179278,2
165,251,24,0.260807725398878,2
165,252,24,0.282584731263192,2
165,253,24,0.267124248211895,3
166,249,24,0.25428508385318,2
166,250,24,0.336822316654902,2
166,251,24,0.385777058436251,2
166,252,24,0.380520312363977,2
166,253,24,0.26157282136433,2
167,250,24,0.238548786568115,2
167,251,24,0.27779715203314,2
167,252,24,0.299134527438594,2
163,253,25,0.298960394677685,3
163,254,25,0.307769656345357,3
164,252,25,0.246256840475642,3
164,253,25,0.383388215105519,3
164,254,25,0.333338389535057,3
164,255,25,0.191390028837309,3
165,250,25,0.272599667157464,2
165,251,25,0.238099522631747,2
165,252,25,0.278658347236318,2
165,253,25,0.302974422151515,3
165,254,25,0.241823509416029,3
166,249,25,0.271487742448013,2
166,250,25,0.348126295690948,2
166,251,25,0.324027739516044,2
166,252,25,0.352125013237199,2
166,253,25,0.26837796640446,2
167,250,25,0.236615896434417,2
167,251,25,0.286662024068525,2
167,252,25,0.361680103915309,2
167,253,25,0.259118710634643,2
168,252,25,0.220201487126282,2
163,253,26,0.25848115814279,3
163,254,26,0.275892314397512,3
163,255,26,0.201510256049824,1
163,256,26,0.152437886917201,1
164,251,26,0.168396472573843,1
164,252,26,0.242713416621852,3
164,253,26,0.374414995890344,3
164,254,26,0.318278743941508,3
164,255,26,0.194550822270301,3
164,256,26,0.160938794866567,1
165,249,26,0.209022178008198,1
165,250,26,0.28417953108848,1
165,251,26,0.225989322809399,1
165,252,26,0.2593283388738,2
165,253,26,0.326165617803156,3
165,254,26,0.253579343299264,3
165,255,26,0.179491624197713,1
165,256,26,0.194418874248306,1
165,257,26,0.178440315024607,1
166,249,26,0.242299742378671,1
166,250,26,0.304469542571397,2
166,251,26,0.260179641508389,2
166,252,26,0.307302703554202,2
166,253,26,0.282064405709124,2
166,254,26,0.200537486805198,1
166,255,26,0.169151770185645,1
166,256,26,0.226538171936234,1
166,257,26,0.259537825790548,1
167,251,26,0.266204333548018,2
167,252,26,0.374268986288712,2
167,253,26,0.273566147554915,2
167,254,26,0.176724920077467,1
167,255,26,0.171767565527432,1
167,256,26,0.225183525990321,1
167,257,26,0.282113209047498,1
168,252,26,0.243298208747895,2
168,253,26,0.174261105209069,1
168,254,26,0.160698511441651,1
168,255,26,0.20444844313582,1
168,256,26,0.209330708379514,1
175,246,26,0.165097183180598,1
162,254,27,0.1555003317308,1
162,255,27,0.178928607499434,1
162,256,27,0.149087368150904,1
163,251,27,0.114442179726679,1
163,252,27,0.135957962895896,1
163,253,27,0.196934071589033,1
163,254,27,0.220778836272149,1
163,255,27,0.196540206036766,1
163,256,27,0.162494177516773,1
163,257,27,0.119776240933225,1
164,249,27,0.187340741422578,1
164,250,27,0.211315086977347,1
164,251,27,0.183276886022912,1
164,252,27,0.210373314447635,1
164,253,27,0.300652000352741,3
164,254,27,0.278125090681879,3
164,255,27,0.194762264147033,1
164,256,27,0.158032805735956,1
164,257,27,0.143672282096863,1
165,248,27,0.161183117756991,1
165,249,27,0.218622162104717,1
165,250,27,0.267455272399884,1
165,251,27,0.212751205291714,1
165,252,27,0.230318805452558,1
165,253,27,0.315349625043386,3
165,254,27,0.268370546978018,1
165,255,27,0.169061688927144,1
165,256,27,0.161317409375592,1
165,257,27,0.215961438013919,1
166,248,27,0.142014052063929,1
166,249,27,0.195020884154442,1
166,250,27,0.227109514879742,1
166,251,27,0.202666532441784,1
166,252,27,0.255884264673129,2
166,253,27,0.287019051579664,1
166,254,27,0.216443441641571,1
166,255,27,0.145098920032998,1
166,256,27,0.18300691311536,1
167,249,27,0.128847337693098,1
167,250,27,0.157456775599235,1
167,251,27,0.212186904914892,1
167,252,27,0.305710306209857,2
167,253,27,0.250221852627485,1
167,254,27,0.166147385328171,1
167,255,27,0.153881283335601,1
167,256,27,0.189603254297049,1
167,257,27,0.254077999417375,1
168,251,27,0.159750179196814,1
168,252,27,0.209934296385877,1
168,253,27,0.155280799146187,1
168,254,27,0.145270909404045,1
168,255,27,0.194732138920304,1
168,256,27,0.176641009897468,1
168,257,27,0.158321103449134,1
169,254,27,0.12763878378689,1
169,255,27,0.172705239707301,1
169,256,27,0.135983695351096,1
170,245,27,0.171891905693107,1
171,245,27,0.190783425952899,1
173,247,27,0.120480497601853,1
174,247,27,0.137320157813791,1
174,257,27,0.117390330042468,1
175,245,27,0.138539911520867,1
175,246,27,0.140683937332745,1
175,248,27,0.157844057882644,1
175,257,27,0.131077982364471,1
176,245,27,0.117302050644675,1
178,246,27,0.176173338717403,1
178,248,27,0.139157007594101,1
178,258,27,0.137912946432777,1
178,259,27,0.148518486572675,1
179,245,27,0.123500498585457,1
179,246,27,0.206936824549549,1
179,248,27,0.123028740832415,1
179,258,27,0.174727469156855,1
180,245,27,0.131485567967222,1
180,248,27,0.169265346294545,1
180,258,27,0.171704465072073,1
180,259,27,0.142485703825164,1
181,245,27,0.125606202470919,1
181,248,27,0.173075539747964,1
181,258,27,0.153366104272572,1
182,246,27,0.201453562210313,1
182,247,27,0.217807980156073,1
182,248,27,0.129077846318099,1
182,258,27,0.121426792448635,1
183,246,27,0.180896934227044,1
183,247,27,0.194140810632872,1
183,248,27,0.117615845275705,1
183,258,27,0.140924173650192,1
184,246,27,0.220994564928602,1
184,248,27,0.159320029116185,1
184,257,27,0.155505984627137,1
184,258,27,0.232143065761651,1
185,257,27,0.205510905002323,1
186,248,27,0.14267255560283,1
186,257,27,0.189572657995626,1
161,255,28,0.122484319807711,1
161,256,28,0.119896624071465,1
162,254,28,0.123258271977425,1
162,255,28,0.157318880259219,1
162,256,28,0.149146334925817,1
163,249,28,0.156459934437708,1
163,250,28,0.138725326520714,1
163,251,28,0.117085450500036,1
163,252,28,0.115470206032997,1
163,253,28,0.139263446921376,1
163,254,28,0.165788826824274,1
163,255,28,0.180542874486481,1
163,256,28,0.156632159346103,1
163,257,28,0.119610693508628,1
164,248,28,0.209471818804322,1
164,249,28,0.227648023917028,1
164,250,28,0.211493294534365,1
164,251,28,0.17240491781254,1
164,252,28,0.161091317075855,1
164,253,28,0.206140213687019,1
164,254,28,0.221009262459078,1
164,255,28,0.180569537314203,1
164,256,28,0.145551139963075,1
164,257,28,0.158079147709051,1
165,248,28,0.197393251647725,1
165,249,28,0.213255632074835,1
165,250,28,0.214671776822145,1
165,251,28,0.180061200611116,1
165,252,28,0.182811393563311,1
165,253,28,0.253044296660985,1
165,254,28,0.241280690045287,1
165,255,28,0.149302555071458,1
165,256,28,0.14047546322659,1
166,248,28,0.135685328416318,1
166,249,28,0.145720196894148,1
166,250,28,0.152090587098508,1
166,251,28,0.150276443118484,1
166,252,28,0.192943114998378,1
166,253,28,0.245507266421381,1
166,254,28,0.197378200811228,1
166,255,28,0.117950979590406,1
166,256,28,0.144301602558426,1
167,245,28,0.187523106213777,1
167,251,28,0.146493159807003,1
167,252,28,0.19839560438318,1
167,253,28,0.190258648742965,1
167,254,28,0.139144500560956,1
167,255,28,0.124183132925596,1
167,256,28,0.144415484865877,1
167,257,28,0.194016352698523,1
168,251,28,0.123045899728171,1
168,252,28,0.141345455749693,1
168,253,28,0.118736602635682,1
168,254,28,0.117012587021628,1
168,255,28,0.153040367898031,1
168,256,28,0.13458798346867,1
169,245,28,0.147113353196355,1
169,255,28,0.124058180362818,1
170,245,28,0.153622816427468,1
171,244,28,0.251218057838174,1
171,245,28,0.163402067999067,1
172,245,28,0.127214498586211,1
175,245,28,0.115988152659857,1
175,246,28,0.126021348822521,1
175,247,28,0.218118065073881,1
175,248,28,0.154736802088708,1
176,246,28,0.170843128546486,1
176,248,28,0.223287944972446,1
177,246,28,0.142792373451436,1
177,248,28,0.166675295184825,1
178,246,28,0.114411112350561,1
178,247,28,0.147979647783104,1
178,259,28,0.130083896989908,1
179,246,28,0.149319631529142,1
179,247,28,0.175110676644154,1
179,258,28,0.12962792023914,1
179,259,28,0.142798226554518,1
180,246,28,0.20158393213208,1
180,247,28,0.254435215358392,1
180,248,28,0.136071539004796,1
180,258,28,0.123135062391017,1
180,259,28,0.114472222515335,1
181,246,28,0.182588904984988,1
181,247,28,0.233751267662004,1
181,248,28,0.138634927286794,1
182,246,28,0.147992437461066,1
182,247,28,0.177793906328493,1
183,246,28,0.14292580535872,1
183,247,28,0.176101664702599,1
183,248,28,0.114823926882424,1
184,246,28,0.157752610507528,1
184,247,28,0.219777849653308,1
184,248,28,0.146878404692356,1
184,258,28,0.160398083555084,1
184,259,28,0.149405673322136,1
185,246,28,0.170660434003001,1
185,248,28,0.166054595390176,1
185,257,28,0.134836180948458,1
185,258,28,0.184117860344819,1
185,259,28,0.15778419606581,1
186,247,28,0.167797206677804,1
186,248,28,0.113893813451406,1
186,257,28,0.134728717033722,1
186,258,28,0.150394600428791,1
187,257,28,0.14764626822164,1
189,250,28,0.144161587382283,1
161,256,29,0.114567626917886,1
162,255,29,0.130508829918293,1
162,256,29,0.137831780262875,1
162,257,29,0.113991102152736,1
163,248,29,0.147299816337398,1
163,249,29,0.186650039928291,1
163,250,29,0.156581789684369,1
163,251,29,0.124818094506628,1
163,254,29,0.127081690852898,1
163,255,29,0.149678849537612,1
163,256,29,0.13596385132958,1
163,257,29,0.116609700388957,1
164,248,29,0.219534916433233,1
164,249,29,0.236742497758627,1
164,250,29,0.18860978131959,1
164,251,29,0.154135192596062,1
164,252,29,0.12948207551365,1
164,253,29,0.140908380871051,1
164,254,29,0.168805577392485,1
164,255,29,0.152463654703002,1
164,256,29,0.127644778212381,1
165,247,29,0.119163784945734,1
165,248,29,0.202602654713178,1
165,249,29,0.191793445429011,1
165,250,29,0.158534547393318,1
165,251,29,0.14495490072195,1
165,252,29,0.143596945476307,1
165,253,29,0.182779124946721,1
165,254,29,0.192361749940739,1
165,255,29,0.128755466350758,1
165,256,29,0.125851667717477,1
165,257,29,0.245921882813951,1
166,245,29,0.145947466880623,1
166,248,29,0.119888368487439,1
166,252,29,0.13740277253838,1
166,253,29,0.178216130577383,1
166,254,29,0.15735973421212,1
166,257,29,0.220378305012951,1
167,244,29,0.211502998673077,1
167,245,29,0.174388884220015,1
167,252,29,0.115229321987845,1
167,253,29,0.126727383798121,1
167,257,29,0.137020000795174,1
167,258,29,0.141759659951905,1
168,245,29,0.156081543689163,1
169,244,29,0.193318243554662,1
169,245,29,0.128547545757369,1
170,244,29,0.194187694341865,1
170,245,29,0.121448638537603,1
171,244,29,0.185631305570326,1
171,245,29,0.121044644879399,1
175,246,29,0.119466014693008,1
175,247,29,0.194231457181006,1
175,248,29,0.141523050909608,1
176,246,29,0.137850517258858,1
176,247,29,0.23946396693131,1
176,248,29,0.170871075052751,1
177,247,29,0.158711082635169,1
177,248,29,0.116699981854203,1
179,247,29,0.128360199351274,1
180,246,29,0.130165993532333,1
180,247,29,0.164961443007311,1
181,246,29,0.122805745848796,1
181,247,29,0.156502390044571,1
182,246,29,0.115493901090142,1
182,247,29,0.146947075605981,1
183,246,29,0.119294013545093,1
183,247,29,0.161380392062278,1
184,246,29,0.115610609845763,1
184,247,29,0.164590118379186,1
184,248,29,0.122341902150626,1
185,246,29,0.114378926172043,1
185,247,29,0.160923084525498,1
185,248,29,0.122523242354363,1
185,258,29,0.115077082423374,1
187,257,29,0.131976981311902,1
187,258,29,0.164456486265158,1
188,257,29,0.191190905563844,1
189,249,29,0.182002028353421,1
189,250,29,0.147914509929689,1
190,250,29,0.223727010141673,1
190,251,29,0.144583564316959,1
162,249,30,0.13566818129743,1
162,250,30,0.128106714058037,1
163,248,30,0.156523376422222,1
163,249,30,0.210008985278727,1
163,250,30,0.172213673263345,1
163,251,30,0.126091750935649,1
163,258,30,0.118402092494951,1
164,248,30,0.203257165894041,1
164,249,30,0.220033619658814,1
164,250,30,0.161817843800676,1
164,251,30,0.128259259821059,1
164,257,30,0.157325475304946,1
165,245,30,0.131497368388325,1
165,247,30,0.12377552376911,1
165,248,30,0.177474588346667,1
165,249,30,0.160818871026155,1
165,250,30,0.119275076342365,1
165,253,30,0.117653460590079,1
165,254,30,0.123245552960667,1
165,257,30,0.201187546330196,1
165,258,30,0.270849860203874,1
166,245,30,0.144037306100945,1
166,246,30,0.115981628275335,1
166,257,30,0.161276578976426,1
166,258,30,0.219043632634095,1
167,245,30,0.147519737558635,1
167,258,30,0.131683007148653,1
168,244,30,0.157490869630267,1
168,245,30,0.12322983084273,1
169,244,30,0.164046239090381,1
170,244,30,0.159640454123543,1
171,244,30,0.149499664500602,1
172,244,30,0.15204340896783,1
175,247,30,0.14262946404513,1
176,247,30,0.142863482176606,1
183,247,30,0.126629400261616,1
189,249,30,0.133611268973475,1
189,250,30,0.135078984622991,1
190,249,30,0.250551440037656,1
190,250,30,0.26411928628792,1
190,251,30,0.155890193148162,1
191,250,30,0.226996716044088,1
191,251,30,0.137204709182979,1
162,249,31,0.15434495038076,1
162,250,31,0.146187620759998,1
163,248,31,0.169768748490206,1
163,249,31,0.215987865304294,1
163,250,31,0.170317091211744,1
163,251,31,0.117373442014662,1
163,258,31,0.144898713287736,1
164,247,31,0.116301429108723,1
164,248,31,0.176723836605669,1
164,249,31,0.186205969590433,1
164,250,31,0.135665401956731,1
164,257,31,0.140446339033588,1
164,258,31,0.20764840642968,1
165,247,31,0.121880178288582,1
165,248,31,0.13861471818239,1
165,249,31,0.127883624859478,1
165,257,31,0.148308964325325,1
165,258,31,0.214026074738073,1
166,245,31,0.129481686877027,1
166,246,31,0.119669872267154,1
166,257,31,0.12001733696199,1
166,258,31,0.17755503612766,1
167,245,31,0.117487818950544,1
167,258,31,0.125056104996143,1
169,244,31,0.144405863165238,1
170,244,31,0.146297546040014,1
171,244,31,0.147878084078919,1
190,248,31,0.153041557361635,1
190,249,31,0.227282446400179,1
190,250,31,0.252939270557794,1
190,251,31,0.138836241057589,1
191,249,31,0.25511973399731,1
191,250,31,0.272428455059663,1
191,251,31,0.146135307915148,1
162,248,32,0.121141250522422,1
162,249,32,0.161132759872124,1
162,250,32,0.148696705906561,1
163,248,32,0.171864241831659,1
163,249,32,0.201621759430067,1
163,250,32,0.155470712909369,1
163,258,32,0.16342572772561,1
163,259,32,0.14143765684432,1
164,247,32,0.11450670518299,1
164,248,32,0.145875934188227,1
164,249,32,0.146387756844056,1
164,258,32,0.185854359438283,1
164,259,32,0.153643567267771,1
165,245,32,0.117842443980739,1
165,258,32,0.153033419546283,1
166,245,32,0.115109197940688,1
166,258,32,0.130606271718899,1
168,244,32,0.12483630154358,1
169,244,32,0.132203097165374,1
190,248,32,0.143331306455947,1
190,249,32,0.189141294897658,1
190,250,32,0.190405930246274,1
191,248,32,0.172123992418335,1
191,249,32,0.258062372739171,1
191,250,32,0.255411729646841,1
191,251,32,0.136689789211033,1
192,249,32,0.158703357010176,1
192,250,32,0.172950622515788,1
162,248,33,0.134091223426205,1
162,249,33,0.162662775150018,1
162,250,33,0.13912470364691,1
163,248,33,0.164300360334455,1
163,249,33,0.179110878075694,1
163,250,33,0.137795707718125,1
163,258,33,0.154990676018567,1
163,259,33,0.146951939452204,1
164,248,33,0.121106555871155,1
164,249,33,0.1195223905571,1
164,258,33,0.145729547726838,1
164,259,33,0.129848288981337,1
167,244,33,0.140140340688756,1
168,244,33,0.122555722954565,1
171,245,33,0.121588147308449,1
190,248,33,0.134489693733614,1
190,249,33,0.147284105996329,1
190,250,33,0.12420289450904,1
191,247,33,0.118182901439491,1
191,248,33,0.190960114294027,1
191,249,33,0.228309766094455,1
191,250,33,0.197016038585917,1
191,251,33,0.115431389478151,1
192,248,33,0.134575535319862,1
192,249,33,0.164860373931555,1
192,250,33,0.175465325228085,1
192,251,33,0.129048533695219,1
162,248,34,0.138100410607547,1
162,249,34,0.159782082730515,1
162,250,34,0.129518112727798,1
163,248,34,0.144856069250995,1
163,249,34,0.155830849513493,1
163,250,34,0.122296078359695,1
163,258,34,0.12840438615764,1
163,259,34,0.136876217021474,1
171,245,34,0.142207322234311,1
190,248,34,0.113979125078622,1
191,247,34,0.126373076743344,1
191,248,34,0.194953520473095,1
191,249,34,0.18306840013989,1
191,250,34,0.139504613611345,1
192,248,34,0.165404005906146,1
192,249,34,0.164837562139463,1
192,250,34,0.154497531474385,1
192,251,34,0.119520812456873,1
162,248,35,0.130718210843235,1
162,249,35,0.155424900895306,1
162,250,35,0.130231355146227,1
163,248,35,0.128212482103872,1
163,249,35,0.139501740055707,1
170,245,35,0.119880595754976,1
191,247,35,0.114396367712616,1
191,248,35,0.179582023431632,1
191,249,35,0.15225807770622,1
192,248,35,0.195092958582736,1
192,249,35,0.174549768005134,1
192,250,35,0.130930406439478,1
162,249,36,0.137172028376032,1
162,250,36,0.12274052555731,1
163,249,36,0.119909284203886,1
165,245,36,0.121456152178984,1
166,245,36,0.114712835692538,1
170,245,36,0.126978054420056,1
191,248,36,0.155717332288929,1
191,249,36,0.136996812143326,1
192,248,36,0.221040000082909,1
192,249,36,0.200291821351894,1
192,250,36,0.125181210658197,1
193,249,36,0.138231251604009,1
162,249,37,0.114190778938966,1
164,245,37,0.116265486109515,1
165,245,37,0.138552512768951,1
166,245,37,0.124938995827032,1
170,245,37,0.118409994772955,1
171,246,37,0.116278758639039,1
188,259,37,0.122395522227754,1
191,248,37,0.132589755274812,1
191,249,37,0.133548074303177,1
192,248,37,0.237692867401518,1
192,249,37,0.241004663827908,1
192,250,37,0.146531505287154,1
193,249,37,0.195926913891691,1
193,250,37,0.124123494869243,1
157,258,38,0.137585137329579,1
164,245,38,0.121137529032333,1
165,245,38,0.146183027781724,1
166,245,38,0.127081631968561,1
171,246,38,0.117504907185095,1
178,248,38,0.11487773538943,1
187,259,38,0.1282694585882,1
188,259,38,0.159093960370182,1
188,260,38,0.136640915211454,1
191,248,38,0.11453445148251,1
191,249,38,0.131533888454035,1
192,248,38,0.235396660909506,1
192,249,38,0.278735462163846,1
192,250,38,0.186441530491534,1
192,251,38,0.132437786578291,1
193,248,38,0.240040750787543,1
193,249,38,0.270589662096237,1
193,250,38,0.17747256272548,1
193,251,38,0.139053453599331,1
193,252,38,0.149356975975567,1
193,253,38,0.132058512564693,1
194,250,38,0.119961549941266,1
157,258,39,0.129618934489338,1
164,245,39,0.118132755538237,1
165,245,39,0.136542378162183,1
166,245,39,0.115652994791421,1
187,259,39,0.142811663960186,1
187,260,39,0.141852979848932,1
188,259,39,0.175552368054804,1
188,260,39,0.180312248092807,1
191,249,39,0.117308763459075,1
192,248,39,0.198162681500369,1
192,249,39,0.267957602900614,1
192,250,39,0.200491462807522,1
192,251,39,0.136234424857368,1
192,252,39,0.116066833910745,1
193,248,39,0.239694110473423,1
193,249,39,0.303771103675249,1
193,250,39,0.213190458890819,1
193,251,39,0.160050972166269,1
193,252,39,0.184718928101565,1
193,253,39,0.173912827910384,1
193,254,39,0.120780407306255,1
194,250,39,0.151796989795015,1
194,251,39,0.134322603539391,1
194,252,39,0.189523230483281,1
194,253,39,0.216248251841808,1
157,259,40,0.184116058484112,1
158,259,40,0.114781801027847,1
165,245,40,0.117578477275545,1
187,259,40,0.152244758069227,1
187,260,40,0.174094980717971,1
188,259,40,0.185131459988611,1
188,260,40,0.221106021201376,1
189,259,40,0.113927813267498,1
189,260,40,0.136572044091084,1
192,248,40,0.159208914372564,1
192,249,40,0.236104568407018,1
192,250,40,0.193318078678519,1
192,251,40,0.131500395043239,1
193,249,40,0.31568917568335,1
193,250,40,0.236504487269112,1
193,251,40,0.167780424641804,1
193,252,40,0.190492396006493,1
193,253,40,0.19833881632873,1
193,254,40,0.127473577891447,1
194,249,40,0.269621862689641,4
194,250,40,0.195865638850774,1
194,251,40,0.164365333311727,1
194,252,40,0.244646024110733,1
194,253,40,0.298046957290861,1
156,259,41,0.144072389388835,1
157,259,41,0.156865541526742,1
157,260,41,0.170311461869141,1
158,259,41,0.115403254542008,1
158,260,41,0.121155771399887,1
187,259,41,0.146368042368081,1
187,260,41,0.186137522437288,1
188,259,41,0.174610866393041,1
188,260,41,0.225173751190406,1
189,260,41,0.136851120517112,1
192,248,41,0.127139621263483,1
192,249,41,0.188434941946639,1
192,250,41,0.169312960169316,1
192,251,41,0.123532154804943,1
193,249,41,0.301424963265595,4
193,250,41,0.246258135931053,1
193,251,41,0.171763914698548,1
193,252,41,0.182833027668666,1
193,253,41,0.206844776554198,1
193,254,41,0.129532409844783,1
194,248,41,0.248066238378116,4
194,249,41,0.325071334841024,4
194,250,41,0.252566061630891,4
194,251,41,0.198350640303568,1
194,252,41,0.281032775681391,1
194,253,41,0.351064200132127,5
195,249,41,0.271778112889847,4
156,259,42,0.1193008323513,1
156,260,42,0.13886317475326,1
157,259,42,0.126840571270398,1
157,260,42,0.14798216803272,1
187,259,42,0.129112953159724,1
187,260,42,0.177325811181203,1
188,259,42,0.150571547861001,1
188,260,42,0.199364981890004,1
189,260,42,0.122098356533448,1
192,249,42,0.142329884093014,1
192,250,42,0.145054756780367,1
192,251,42,0.11855201201655,1
193,249,42,0.275756032488326,4
193,250,42,0.260295714313171,4
193,251,42,0.189493976744738,1
193,252,42,0.179296033984459,1
193,253,42,0.202660644008099,5
193,254,42,0.132135556831016,1
194,248,42,0.268426793296569,4
194,249,42,0.373974870803054,4
194,250,42,0.32878196665771,4
194,251,42,0.244240923426997,4
194,252,42,0.28760624618665,5
194,253,42,0.355801115278761,5
194,254,42,0.214334793539267,5
195,248,42,0.266101450834688,4
195,249,42,0.316497162999758,4
195,250,42,0.249854626349205,4
195,253,42,0.295226468217344,5
196,249,42,0.227036074334833,4
155,259,43,0.133387885353233,1
156,260,43,0.140256036633783,1
157,260,43,0.11874189044913,1
187,260,43,0.159860869973209,1
188,259,43,0.12613613794876,1
188,260,43,0.166826145078946,1
192,250,43,0.128270070985304,1
192,251,43,0.117366776307732,1
193,249,43,0.245540406526156,4
193,250,43,0.275316614013078,4
193,251,43,0.214223973217331,1
193,252,43,0.176146299029925,1
193,253,43,0.185107105426894,1
193,254,43,0.141849752987273,1
194,248,43,0.271051221082138,4
194,249,43,0.386896520340817,4
194,250,43,0.392561005115117,4
194,251,43,0.291842220502904,4
194,252,43,0.270961292922913,1
194,253,43,0.326381958856713,5
195,248,43,0.265350746201159,4
195,249,43,0.34336822929052,4
195,250,43,0.29920596591605,4
195,251,43,0.233285045036625,4
196,249,43,0.274876583140727,4
196,250,43,0.200156882005587,4
154,259,44,0.139826840479411,1
155,259,44,0.125194954262416,1
155,260,44,0.211474545761515,1
156,260,44,0.144577699437009,1
156,261,44,0.136575848019244,1
187,260,44,0.143960909562326,1
187,261,44,0.115773107061711,1
188,260,44,0.139314935385511,1
192,250,44,0.125988891776053,1
192,251,44,0.122598590751786,1
193,249,44,0.222856652535682,4
193,250,44,0.286641202567018,4
193,251,44,0.240463563879801,4
193,252,44,0.171472731652865,1
193,253,44,0.158543109175894,1
193,254,44,0.147798707992856,1
194,248,44,0.257980547064696,4
194,249,44,0.360270483552521,4
194,250,44,0.418971195478286,4
194,251,44,0.332581513823027,4
194,252,44,0.245238895167791,4
194,253,44,0.276590611971252,1
195,248,44,0.261810195903007,4
195,249,44,0.343474362419244,4
195,250,44,0.327624559686483,4
195,251,44,0.257402891720278,4
196,249,44,0.296444855807805,4
196,250,44,0.216383897800157,4
154,259,45,0.135094600749122,1
154,260,45,0.237865304293526,1
155,259,45,0.119621622441546,1
155,260,45,0.222538064719633,1
155,261,45,0.242823860084032,1
156,260,45,0.154603735264312,1
156,261,45,0.174991482969519,1
187,260,45,0.131652823037588,1
187,261,45,0.128250356509329,1
188,260,45,0.123738579736176,1
190,259,45,0.124438714501224,1
191,258,45,0.128053341295124,1
191,259,45,0.13138824393529,1
192,250,45,0.130151790630287,1
192,251,45,0.129086313885737,1
192,257,45,0.118093550346768,1
192,258,45,0.127875616589668,1
193,249,45,0.211395428766534,4
193,250,45,0.282325828610967,4
193,251,45,0.25668257140456,4
193,252,45,0.16547142847183,1
193,253,45,0.13325798650616,1
193,254,45,0.140199389901741,1
194,248,45,0.242742693914129,4
194,249,45,0.314026164242265,4
194,250,45,0.393064371980176,4
194,251,45,0.347023580491779,4
194,252,45,0.225468479073166,4
194,253,45,0.228870203658781,1
195,248,45,0.262184182103156,4
195,249,45,0.325270128362201,4
195,250,45,0.323022254133869,4
195,251,45,0.261915386882341,4
196,249,45,0.28533580748044,4
196,250,45,0.216009958707477,4
153,260,46,0.240275675737807,1
154,259,46,0.123187669657551,1
154,260,46,0.226536381852394,1
154,261,46,0.247271370491956,1
155,260,46,0.210106050219577,1
155,261,46,0.265260841595669,1
155,262,46,0.151590011351016,1
156,260,46,0.150550596813952,1
156,261,46,0.190284239875757,1
187,260,46,0.12122525491736,1
188,260,46,0.116999938666075,1
190,259,46,0.14038309725582,1
191,258,46,0.141053719191244,1
191,259,46,0.140607046165697,1
192,249,46,0.123105808652474,1
192,250,46,0.13844659162384,1
192,251,46,0.131433184461168,1
192,257,46,0.119483809539602,1
192,258,46,0.130219778485604,1
193,249,46,0.215470837273088,1
193,250,46,0.269538294038795,4
193,251,46,0.257184501491799,4
193,252,46,0.165503308451796,1
193,253,46,0.120841387925489,1
193,254,46,0.12583420262317,1
194,249,46,0.280364250028359,4
194,250,46,0.346432899932052,4
194,251,46,0.335570529868585,4
194,252,46,0.223382301233801,4
194,253,46,0.202347096691284,1
194,254,46,0.241165347406282,1
195,249,46,0.296692546882296,4
195,250,46,0.29252603252978,4
195,251,46,0.246789319756835,4
195,252,46,0.189246615422533,1
195,253,46,0.219944421665366,1
153,259,47,0.13721155154292,1
153,260,47,0.238890645474084,1
154,259,47,0.114863320503771,1
154,260,47,0.206750750045129,1
154,261,47,0.242669842212589,1
155,260,47,0.181182747021206,1
155,261,47,0.241043386167815,1
155,262,47,0.152204386967888,1
156,260,47,0.130550402260103,1
156,261,47,0.170020879443695,1
188,260,47,0.116069377714097,1
190,259,47,0.136111497915777,1
191,258,47,0.136209269468669,1
191,259,47,0.132279517257727,1
192,248,47,0.144424211524597,1
192,249,47,0.146853661494015,1
192,250,47,0.141426409935983,1
192,251,47,0.127987496829667,1
192,258,47,0.113766187539735,1
193,249,47,0.221275513876541,1
193,250,47,0.242484285890333,1
193,251,47,0.233925683067729,1
193,252,47,0.169272094439547,1
193,253,47,0.119050291274905,1
194,250,47,0.287225570725836,4
194,251,47,0.286974063946317,4
194,252,47,0.222219359134911,1
194,253,47,0.186941623387464,1
194,254,47,0.181275595843538,1
195,253,47,0.181281802252642,1
153,259,48,0.139809304723899,1
153,260,48,0.227186300054984,1
154,260,48,0.197439287422268,1
154,261,48,0.24406167950565,1
155,260,48,0.154608822871016,1
155,261,48,0.205939088346102,1
155,262,48,0.143770289187102,1
156,261,48,0.136758660331403,1
188,260,48,0.117809657181986,1
190,259,48,0.118597046757367,1
191,258,48,0.117636749215284,1
192,248,48,0.184580785447334,1
192,249,48,0.169287781226882,1
192,250,48,0.141036136328263,1
192,251,48,0.123485907046788,1
193,249,48,0.220044195285711,1
193,250,48,0.211229846011335,1
193,251,48,0.200945531705777,1
193,252,48,0.16708076095145,1
193,253,48,0.114042013550369,1
194,250,48,0.234656107935649,1
194,251,48,0.223753131233496,1
194,252,48,0.200746761738333,1
194,253,48,0.160097938313334,1
152,259,49,0.203862920844,1
152,260,49,0.255211593562783,1
153,259,49,0.150294343956884,1
153,260,49,0.22096476945416,1
153,261,49,0.236194378797569,1
154,259,49,0.115542987073334,1
154,260,49,0.196591282310542,1
154,261,49,0.247518072309589,1
154,262,49,0.167621436932331,1
155,260,49,0.137557449914396,1
155,261,49,0.174041702169996,1
155,262,49,0.125454751956562,1
188,260,49,0.115758079778949,1
192,249,49,0.180916825356029,1
192,250,49,0.143216246461758,1
192,251,49,0.124907198285137,1
193,250,49,0.180751030617217,1
193,251,49,0.170776259493568,1
193,252,49,0.161758606157813,1
194,251,49,0.169319084140347,1
151,259,50,0.19086808985241,1
152,258,50,0.165609076497631,1
152,259,50,0.213942435426023,1
152,260,50,0.228351385543735,1
153,259,50,0.155408519272796,1
153,260,50,0.213934380048743,1
153,261,50,0.249905431755032,1
154,260,50,0.179033857363105,1
154,261,50,0.225413198457739,1
154,262,50,0.14796834199043,1
155,261,50,0.136207455831094,1
191,248,50,0.116985217581864,1
191,249,50,0.116352328729489,1
192,249,50,0.188243638513107,1
192,250,50,0.150834172003315,1
192,251,50,0.12935820642267,1
193,250,50,0.162979443336686,1
193,251,50,0.151017620266312,1
193,252,50,0.149079830955788,1
194,251,50,0.131722812960358,1
151,259,51,0.168137428599209,1
152,258,51,0.153440687173616,1
152,259,51,0.186365758126886,1
152,260,51,0.195494455545058,1
152,261,51,0.205456166122795,1
153,259,51,0.149251290367804,1
153,260,51,0.198424104402212,1
153,261,51,0.231218039937336,1
153,262,51,0.148630154829062,1
154,260,51,0.156452962532226,1
154,261,51,0.183151179740623,1
154,262,51,0.120855484835729,1
184,261,51,0.11399117281394,1
191,249,51,0.117637997563225,1
192,249,51,0.188032797256612,1
192,250,51,0.155877591900078,1
192,251,51,0.129756370531527,1
192,252,51,0.114406554702889,1
193,251,51,0.138211937541525,1
193,252,51,0.135162341290225,1
193,253,51,0.117445657765365,1
151,258,52,0.14030952716537,1
151,259,52,0.136725343573618,1
151,260,52,0.144096343537062,1
152,258,52,0.127430698317359,1
152,259,52,0.149133215495569,1
152,260,52,0.168629784093277,1
152,261,52,0.183745040054539,1
153,259,52,0.142226742288601,1
153,260,52,0.175943312943964,1
153,261,52,0.185949928716977,1
153,262,52,0.121679512245492,1
154,260,52,0.133155881066076,1
154,261,52,0.136284865180307,1
184,261,52,0.114739887156883,1
184,262,52,0.158627678860467,1
191,249,52,0.114864345091232,1
192,250,52,0.146824537301013,1
192,251,52,0.119014807573524,1
192,253,52,0.120022683659776,1
193,251,52,0.124910083617643,1
193,252,52,0.119108645652715,1
193,253,52,0.128501969280654,1
151,258,53,0.125947284103641,1
151,259,53,0.116778345129672,1
151,260,53,0.125298696687064,1
152,259,53,0.123171405803716,1
152,260,53,0.140346341652764,1
152,261,53,0.144786750609665,1
153,259,53,0.139241235749519,1
153,260,53,0.149651385882909,1
153,261,53,0.135630554206188,1
154,259,53,0.117545360724505,1
154,260,53,0.118993774088405,1
184,262,53,0.165780559463382,1
192,253,53,0.120177573019404,1
192,254,53,0.11790455517924,1
193,253,53,0.131969491224255,1
193,254,53,0.136199683098631,1
151,258,54,0.115382821677124,1
151,259,54,0.116947849581705,1
151,260,54,0.122315733951333,1
152,259,54,0.118851132670839,1
152,260,54,0.120957755151956,1
153,258,54,0.118715357166949,1
153,259,54,0.140162328100133,1
153,260,54,0.125764448237747,1
154,259,54,0.114879619688209,1
184,262,54,0.151489307358149,1
185,262,54,0.123287195963681,1
192,254,54,0.12019692241249,1
193,253,54,0.123064589616685,1
193,254,54,0.153325980485448,1
193,255,54,0.121360665338362,1
151,259,55,0.134685543037949,1
151,260,55,0.145232987891119,1
152,259,55,0.129577609461743,1
152,260,55,0.125415440773286,1
153,251,55,0.117673693248218,1
153,258,55,0.115427597326858,1
153,259,55,0.13527253743819,1
184,262,55,0.119611046814649,1
184,263,55,0.119350978252554,1
193,254,55,0.146286263801075,1
193,255,55,0.148583541988018,1
150,260,56,0.144830784316755,1
151,259,56,0.151043340944644,1
151,260,56,0.173603249397872,1
151,261,56,0.114577967007436,1
152,259,56,0.13360323714993,1
152,260,56,0.129896703683088,1
153,251,56,0.135376609615124,1
154,251,56,0.138647245890062,1
188,262,56,0.115807719274907,1
192,255,56,0.11854261407639,1
193,254,56,0.129110774439261,1
193,255,56,0.163416883298216,1
193,256,56,0.120444955016135,1
150,259,57,0.122260818418794,1
150,260,57,0.165900294873916,1
151,259,57,0.154296830100693,1
151,260,57,0.181473812298215,1
151,261,57,0.124599727831884,1
152,259,57,0.124319532603456,1
152,260,57,0.121521490239144,1
153,251,57,0.135647807316883,1
153,252,57,0.124903782993601,1
154,251,57,0.154316862552087,1
154,252,57,0.125074453355503,1
187,262,57,0.122881212014892,1
188,262,57,0.162839545929217,1
191,249,57,0.125223206967232,1
191,250,57,0.122725109637924,1
192,255,57,0.114723917724732,1
193,255,57,0.155456651329731,1
193,256,57,0.15986167080019,1
194,255,57,0.115435228736913,1
149,260,58,0.145197186214319,1
150,259,58,0.124897541253895,1
150,260,58,0.168239204287006,1
150,261,58,0.147653157689051,1
151,259,58,0.141203992018864,1
151,260,58,0.160999645940259,1
151,261,58,0.124832391623614,1
152,258,58,0.116812851351061,1
153,251,58,0.127704216061989,1
153,252,58,0.147602375836958,1
154,251,58,0.149083623107081,1
154,252,58,0.148402531536567,1
187,262,58,0.165892934331811,1
191,249,58,0.126529402880791,1
191,250,58,0.13428587149007,1
192,256,58,0.137278314604032,1
192,257,58,0.121674624845535,1
193,255,58,0.138453963942812,1
193,256,58,0.191987292665895,1
193,257,58,0.162105034488321,1
194,256,58,0.134407797397934,1
150,259,59,0.114615994512168,1
150,260,59,0.145742196082392,1
151,258,59,0.119050632804059,1
151,259,59,0.128253041635089,1
151,260,59,0.130717468900591,1
152,258,59,0.122682194733234,1
153,252,59,0.149078005541346,1
154,251,59,0.12045097299536,1
154,252,59,0.153108049554797,1
186,262,59,0.119863366198016,1
186,263,59,0.130050050273091,1
187,262,59,0.21586472637909,1
187,263,59,0.201063488809338,1
188,261,59,0.120309674140675,1
188,262,59,0.23820122765834,1
189,261,59,0.126217563209745,1
191,249,59,0.114667082562812,1
191,250,59,0.126896370067989,1
192,256,59,0.154692897927158,1
192,257,59,0.170953736884809,1
192,258,59,0.116352246291417,1
193,255,59,0.118408640433208,1
193,256,59,0.192329893514507,1
193,257,59,0.195684993482211,1
194,256,59,0.142359797336129,1
150,260,60,0.118438647891262,1
151,258,60,0.116815830898505,1
151,259,60,0.117693160409978,1
152,258,60,0.115115557449066,1
153,252,60,0.126416792475015,1
154,252,60,0.143365494701917,1
154,253,60,0.127285536650177,1
154,264,60,0.11912057561936,1
155,252,60,0.13229556912795,1
155,253,60,0.118287538906059,1
156,252,60,0.122809302462741,1
186,262,60,0.127719408220894,1
186,263,60,0.139557138439808,1
187,262,60,0.229941380407137,1
187,263,60,0.222517902722699,1
188,261,60,0.114227440327084,1
188,262,60,0.22081981977059,1
189,261,60,0.127008391630397,1
190,260,60,0.120912025575964,1
190,261,60,0.164242335708932,1
191,257,60,0.119249473432706,1
191,260,60,0.139322178158942,1
192,256,60,0.152701512093241,1
192,257,60,0.205729106800924,1
192,258,60,0.150716803743122,1
193,256,60,0.170630826958437,1
193,257,60,0.194973494040151,1
194,256,60,0.153951932762944,1
153,264,61,0.121002942992048,1
154,252,61,0.12312157787788,1
154,253,61,0.138211478243698,1
154,264,61,0.149939035868381,1
154,265,61,0.135638727352142,1
155,252,61,0.146828270567969,1
155,253,61,0.14654597905715,1
155,264,61,0.121016062422296,1
155,265,61,0.13328792330301,1
156,252,61,0.143841904317569,1
156,253,61,0.121495274932382,1
162,249,61,0.135239809523774,1
186,262,61,0.131041886265987,1
186,263,61,0.141995079530599,1
187,262,61,0.216159030294625,1
187,263,61,0.21109794509681,1
188,262,61,0.188807644468245,1
191,257,61,0.130482214198041,1
191,258,61,0.140737109888913,1
192,256,61,0.127801716746932,1
192,257,61,0.193083247943194,1
192,258,61,0.159560324317969,1
193,256,61,0.139200004936863,1
193,257,61,0.161547953331195,1
151,257,62,0.113884921916543,1
152,264,62,0.121014401883997,1
153,263,62,0.117203466487935,1
153,264,62,0.160247669405055,1
153,265,62,0.161764836120651,1
154,253,62,0.142240273909208,1
154,254,62,0.115789524014823,1
154,264,62,0.162739466110321,1
154,265,62,0.170680030710301,1
154,266,62,0.126683644512715,1
155,252,62,0.159192155890299,1
155,253,62,0.166385113172869,1
155,264,62,0.117999099870473,1
155,265,62,0.144689450131468,1
155,266,62,0.126088194321703,1
156,251,62,0.124729143827395,1
156,252,62,0.155951279759202,1
156,253,62,0.134727574677587,1
156,266,62,0.12437469545021,1
161,249,62,0.121442055268744,1
161,250,62,0.124156352329201,1
162,249,62,0.157818961378282,1
162,250,62,0.122806758659389,1
163,249,62,0.12441224010338,1
186,262,62,0.119731100200602,1
186,263,62,0.128167058726433,1
187,262,62,0.175061496446024,1
191,257,62,0.116852021211928,1
191,258,62,0.145341994575481,1
192,257,62,0.14892081969258,1
192,258,62,0.143495311110918,1
193,257,62,0.123011735035935,1
150,257,63,0.126228892556153,1
151,254,63,0.121997911631663,1
151,256,63,0.125817550132711,1
151,257,63,0.141830533139728,1
151,263,63,0.144824130386692,1
151,264,63,0.149234826307223,1
152,254,63,0.115444956429359,1
152,256,63,0.116474902365059,1
152,263,63,0.163421122970469,1
152,264,63,0.178412003435454,1
152,265,63,0.152973404630174,1
153,254,63,0.116077244661499,1
153,263,63,0.1307909094455,1
153,264,63,0.18122533217361,1
153,265,63,0.20211579901617,1
154,253,63,0.142185688128955,1
154,254,63,0.12180652576006,1
154,264,63,0.155835795797788,1
154,265,63,0.186755984627137,1
154,266,63,0.166384724536246,1
155,252,63,0.158456031018573,1
155,253,63,0.16502078664198,1
155,254,63,0.117252210941972,1
155,265,63,0.14381965781511,1
155,266,63,0.148678911059967,1
156,251,63,0.137240852388933,1
156,252,63,0.1551657744826,1
156,253,63,0.136584880876515,1
156,266,63,0.137077931205759,1
157,266,63,0.115840635619201,1
161,249,63,0.119783778128341,1
161,250,63,0.135947257723458,1
162,248,63,0.114041436483868,1
162,249,63,0.159760601724435,1
162,250,63,0.13051269273079,1
163,248,63,0.128743901467002,1
163,249,63,0.148140955535448,1
187,262,63,0.13321032552392,1
191,258,63,0.116215952605363,1
194,255,63,0.11425243083964,1
194,256,63,0.126307774013786,1
150,256,64,0.132456994648968,1
150,257,64,0.150084150428094,1
151,255,64,0.134997017626108,1
151,256,64,0.147597700420613,1
151,257,64,0.169338786839454,1
151,258,64,0.116218779053532,1
151,263,64,0.1829650699056,1
152,254,64,0.148951039134248,1
152,255,64,0.132621376163696,1
152,256,64,0.124842696382561,1
152,257,64,0.126592880195907,1
152,262,64,0.127403034455911,1
152,263,64,0.207352547967652,1
152,264,64,0.237067845496545,1
153,253,64,0.129296330761517,1
153,254,64,0.143244640488983,1
153,263,64,0.143508948723331,1
153,264,64,0.193728667382449,1
153,265,64,0.22280313845036,1
154,253,64,0.139822730352699,1
154,254,64,0.126917191569497,1
154,264,64,0.145117009301276,1
154,265,64,0.194953414481288,1
154,266,64,0.210013036521102,1
155,251,64,0.115543446371161,1
155,252,64,0.153681853863585,1
155,253,64,0.15710702619213,1
155,254,64,0.121684022785695,1
155,265,64,0.1460058330353,1
155,266,64,0.168272238399974,1
156,251,64,0.146179188522962,1
156,252,64,0.163693015507402,1
156,253,64,0.149873580039548,1
156,265,64,0.116508713751273,1
156,266,64,0.140243894683526,1
157,251,64,0.121008760764528,1
157,252,64,0.128580909622624,1
157,253,64,0.117415932952127,1
157,266,64,0.1247599992199,1
161,249,64,0.115911461699555,1
161,250,64,0.13451441337822,1
162,248,64,0.13677142645563,1
162,249,64,0.157137422286808,1
162,250,64,0.130951534139537,1
163,248,64,0.151408211849451,1
163,249,64,0.159379572957599,1
164,248,64,0.121078126513327,1
150,257,65,0.166944773463948,1
151,255,65,0.181915786353682,1
151,256,65,0.173601812620053,1
151,257,65,0.179938638752413,1
151,258,65,0.121882427670249,1
151,262,65,0.125219721014491,1
151,263,65,0.199910462832772,1
152,254,65,0.190220197271008,1
152,255,65,0.180979242753081,1
152,256,65,0.145561727366839,1
152,257,65,0.139833482632607,1
152,262,65,0.136156026251297,1
152,263,65,0.222088094171223,1
152,264,65,0.27348114212625,1
153,253,65,0.147921729149386,1
153,254,65,0.178393843505972,1
153,255,65,0.143156043115771,1
153,263,65,0.151617015707891,1
153,264,65,0.202380307457263,1
153,265,65,0.225342348823651,1
154,252,65,0.115386519613478,1
154,253,65,0.141724270465463,1
154,254,65,0.142801135440758,1
154,264,65,0.132225979618671,1
154,265,65,0.20062805091526,1
154,266,65,0.262309629294364,1
155,252,65,0.14012126216362,1
155,253,65,0.149037999522896,1
155,254,65,0.136046984236333,1
155,265,65,0.148041841419676,1
155,266,65,0.185375971308913,1
155,267,65,0.185116432705849,1
156,251,65,0.136497661396785,1
156,252,65,0.164602330990647,1
156,253,65,0.164594240282765,1
156,254,65,0.133888048910367,1
156,265,65,0.11853164981287,1
156,266,65,0.130836992327512,1
157,251,65,0.136844077950426,1
157,252,65,0.159323573953263,1
157,253,65,0.142926441309558,1
157,266,65,0.128597715212359,1
158,252,65,0.117011256235616,1
158,266,65,0.119501156865235,1
162,248,65,0.150812208145673,1
162,249,65,0.141745033082634,1
162,250,65,0.116152946364943,1
163,247,65,0.123767809920984,1
163,248,65,0.155809768920904,1
163,249,65,0.142287864230243,1
164,248,65,0.122489171877067,1
166,248,65,0.120384280595453,1
151,256,66,0.196025592263371,1
151,257,66,0.165501718574701,1
151,262,66,0.136488239902891,1
151,263,66,0.191671413529341,1
152,255,66,0.217471679931502,1
152,256,66,0.161916875478376,1
152,257,66,0.139461545607379,1
152,262,66,0.131027377165389,1
152,263,66,0.207941933071969,1
152,264,66,0.269921843055247,1
153,254,66,0.190906435332562,1
153,255,66,0.165868803530573,1
153,263,66,0.15339157763669,1
153,264,66,0.207126549882853,1
153,265,66,0.216687717424525,1
154,253,66,0.135690133378205,1
154,254,66,0.15535923308286,1
154,255,66,0.126382651336514,1
154,264,66,0.123778986168116,1
154,265,66,0.19372544052079,1
154,266,66,0.281135893932068,1
155,252,66,0.122277918430213,1
155,253,66,0.145138761175305,1
155,254,66,0.161647196992508,1
155,255,66,0.127818710766544,1
155,265,66,0.137451399223744,1
155,266,66,0.186909637415692,1
156,251,66,0.118070161488174,1
156,252,66,0.151958062010012,1
156,253,66,0.168113945525676,1
156,254,66,0.156827631790683,1
156,255,66,0.115883173664136,1
156,266,66,0.119923334006656,1
157,251,66,0.142680081021079,1
157,252,66,0.171254141217641,1
157,253,66,0.15046182278773,1
157,254,66,0.119898414155305,1
157,266,66,0.125298072513093,1
158,251,66,0.1250682469464,1
158,252,66,0.124085443810776,1
158,266,66,0.126364562068236,1
162,248,66,0.145079605970514,1
162,249,66,0.122421125137412,1
163,247,66,0.124262061490699,1
163,248,66,0.148829772730956,1
163,249,66,0.119113839251225,1
164,248,66,0.123745021682626,1
166,248,66,0.117846059479022,1
167,248,66,0.115998080559049,1
151,262,67,0.143171741679973,1
151,263,67,0.183741177242042,1
152,255,67,0.23482065432652,1
152,256,67,0.17760632438505,1
152,257,67,0.132195665962065,1
152,262,67,0.123078910287405,1
152,263,67,0.182105441025782,1
152,264,67,0.233083307298605,1
153,254,67,0.185995575854897,1
153,255,67,0.182867239468371,1
153,256,67,0.132890772004747,1
153,263,67,0.145038269166051,1
153,264,67,0.197506427343135,1
153,265,67,0.21419274096507,1
154,253,67,0.131425458836174,1
154,254,67,0.170016839978187,1
154,255,67,0.151366804383783,1
154,264,67,0.126647359984353,1
154,265,67,0.193528861050677,1
154,266,67,0.271119338482996,1
155,252,67,0.11821763142136,1
155,253,67,0.151575113613795,1
155,254,67,0.188394853490117,1
155,255,67,0.149240137674406,1
155,265,67,0.135832350828545,1
155,266,67,0.192927416434176,1
156,252,67,0.146485186867794,1
156,253,67,0.168402278569455,1
156,254,67,0.172397262848751,1
156,255,67,0.13185298267538,1
156,266,67,0.122469893145185,1
157,251,67,0.145589520773829,1
157,252,67,0.169555799174451,1
157,253,67,0.145902514577878,1
157,254,67,0.126372676329853,1
157,255,67,0.118024325920376,1
157,266,67,0.122483142120974,1
158,251,67,0.133459206062015,1
158,252,67,0.127598589338562,1
158,266,67,0.129085513058756,1
158,267,67,0.130886867360817,1
162,248,67,0.122883013875599,1
163,248,67,0.13478005239858,1
164,248,67,0.125613539459289,1
152,255,68,0.230108541262563,1
152,256,68,0.190515537550871,1
152,257,68,0.124446546118024,1
152,263,68,0.150136451496077,1
152,264,68,0.18288769588699,1
153,254,68,0.167634026403548,1
153,255,68,0.185402704797839,1
153,256,68,0.147141311479487,1
153,263,68,0.12348012460491,1
153,264,68,0.167958490876414,1
153,265,68,0.200513650425644,1
154,253,68,0.128225377773641,1
154,254,68,0.171840546774514,1
154,255,68,0.165720803638355,1
154,264,68,0.122538363852064,1
154,265,68,0.181204875754991,1
154,266,68,0.232833284404375,1
155,253,68,0.154615523908548,1
155,254,68,0.190986871336688,1
155,255,68,0.155813243096777,1
155,265,68,0.129862020808688,1
155,266,68,0.188245028183457,1
156,252,68,0.129893677028174,1
156,253,68,0.155949984303791,1
156,254,68,0.168495692681421,1
156,255,68,0.140448588415256,1
156,266,68,0.127434937989611,1
157,251,68,0.128064717749002,1
157,252,68,0.145080642334842,1
157,253,68,0.129087915539699,1
157,254,68,0.126646040975208,1
157,255,68,0.132378666704101,1
157,266,68,0.11451990705131,1
157,267,68,0.118368587307288,1
158,251,68,0.123281813935294,1
158,252,68,0.120464822591386,1
158,265,68,0.119419213422086,1
158,266,68,0.119754123976308,1
152,256,69,0.190732067034306,1
152,257,69,0.119265266211847,1
153,255,69,0.171295807774391,1
153,256,69,0.146299241908915,1
153,264,69,0.124776098197593,1
154,254,69,0.156887799806068,1
154,255,69,0.159662288435644,1
154,256,69,0.118773322908136,1
154,265,69,0.144285421142661,1
155,253,69,0.14352734419016,1
155,254,69,0.165243769848732,1
155,255,69,0.146916208436609,1
156,253,69,0.130324627935785,1
156,254,69,0.14756151010719,1
156,255,69,0.139225160325562,1
156,266,69,0.129719779804613,1
157,254,69,0.118918437467849,1
157,255,69,0.130139660456897,1
158,265,69,0.117626208918989,1
153,256,70,0.132756763030962,1
154,255,70,0.137304871439947,1
154,256,70,0.114887003784049,1
155,254,70,0.133033990488813,1
155,255,70,0.129989894034574,1
156,254,70,0.121720048222974,1
156,255,70,0.126967266809547,1
157,255,70,0.114975506942322,1
