x,y,z,signal,mito.p
987,786,22,0.116455658963779,1
987,787,22,0.116614646673252,1
994,779,22,0.119170509537001,1
994,780,22,0.137681236567305,1
984,786,23,0.117245533458174,1
984,787,23,0.116079823795453,1
985,786,23,0.116126165768547,1
985,787,23,0.11515053474515,1
986,785,23,0.116171777575865,1
986,786,23,0.122428261919038,1
986,787,23,0.121641790939312,1
986,788,23,0.114125688193022,1
987,785,23,0.114706393746088,1
987,786,23,0.121697931266057,1
987,787,23,0.121465644334083,1
988,786,23,0.118721693121593,1
988,787,23,0.118571585170116,1
993,780,23,0.147230674349078,1
993,781,23,0.130547010522301,1
994,779,23,0.142440362885796,1
994,780,23,0.187191022107724,1
994,781,23,0.140766799371549,1
995,779,23,0.136352535060205,1
995,780,23,0.137886966663363,1
985,787,24,0.118685785452987,1
985,788,24,0.117927319863863,1
986,785,24,0.115131008699054,1
986,786,24,0.123378266479041,1
986,787,24,0.128005680312884,1
986,788,24,0.123738956595931,1
987,785,24,0.11910647870912,1
987,786,24,0.127259415558354,1
987,787,24,0.127701048084667,1
987,788,24,0.119664372470093,1
988,785,24,0.120948522087939,1
988,786,24,0.125871170209839,1
988,787,24,0.123210575664583,1
989,785,24,0.117010714499717,1
989,786,24,0.119148192373338,1
989,787,24,0.114383036298755,1
993,780,24,0.156762635259677,1
993,781,24,0.137175549659375,1
994,779,24,0.135650751533725,1
994,780,24,0.199699444923266,1
994,781,24,0.150698455383762,1
995,779,24,0.139769593127133,1
995,780,24,0.14006263691786,1
996,778,24,0.121805030097904,1
996,779,24,0.130232144196341,1
998,804,24,0.116623726637993,1
1001,777,24,0.118469632829309,1
1002,776,24,0.117888903722508,1
1002,777,24,0.118679225737863,1
984,787,25,0.113937811827894,1
985,785,25,0.114351780492759,1
985,786,25,0.118856703129104,1
985,787,25,0.125066657069305,1
985,788,25,0.122939695938243,1
986,785,25,0.121228540663356,1
986,786,25,0.130594871711286,1
986,787,25,0.13288042013833,1
986,788,25,0.126520169816775,1
987,784,25,0.11387066013016,1
987,785,25,0.127192464067364,1
987,786,25,0.13549172849365,1
987,787,25,0.131589675474758,1
987,788,25,0.120289877226629,1
988,784,25,0.119337941260377,1
988,785,25,0.132052223717518,1
988,786,25,0.135949813303677,1
988,787,25,0.127665470168347,1
988,788,25,0.114129539228651,1
989,784,25,0.116444235402432,1
989,785,25,0.127751570845677,1
989,786,25,0.129391228758771,1
989,787,25,0.12083520507012,1
993,780,25,0.133165950287676,1
993,781,25,0.114788266528033,1
994,780,25,0.168288396262003,1
994,781,25,0.127119447489681,1
995,779,25,0.128149899830677,1
995,780,25,0.121769334412911,1
996,778,25,0.134611902286295,1
996,779,25,0.138936085339138,1
997,778,25,0.117979927130398,1
999,776,25,0.120019421467515,1
999,777,25,0.121957363877314,1
999,804,25,0.119707063614304,1
1000,776,25,0.124428256643001,1
1000,777,25,0.125950746502647,1
1001,775,25,0.116274566074256,1
1001,776,25,0.124712114477181,1
1001,777,25,0.126170361525332,1
1001,802,25,0.115746550225796,1
1001,803,25,0.123024724920643,1
1002,775,25,0.122399773676874,1
1002,776,25,0.126705149072529,1
1002,777,25,0.124560216441864,1
1002,802,25,0.113997520545452,1
1002,803,25,0.12195460809035,1
1003,775,25,0.11966331255203,1
1003,776,25,0.119119751238644,1
1003,777,25,0.115060806792671,1
1009,773,25,0.116420198816133,1
1009,775,25,0.126039355652727,1
1009,776,25,0.140811504360079,1
1010,775,25,0.123574174667713,1
1010,776,25,0.134118251336816,1
1011,775,25,0.126966277552688,1
1011,776,25,0.128436760766035,1
985,787,26,0.115611010259253,1
986,786,26,0.11861533623239,1
986,787,26,0.120650838211469,1
987,785,26,0.122192359488782,1
987,786,26,0.125592741511517,1
987,787,26,0.116968906620559,1
988,784,26,0.121774045159858,1
988,785,26,0.131334152783467,1
988,786,26,0.129493369529457,1
989,784,26,0.120111222148651,1
989,785,26,0.127430133027725,1
989,786,26,0.124196947191019,1
994,780,26,0.115742946504381,1
994,804,26,0.132099519616869,1
996,778,26,0.117150835667665,1
996,779,26,0.116355850012832,1
997,778,26,0.119572842656907,1
998,776,26,0.123846361626331,1
998,777,26,0.135731929480495,1
998,778,26,0.120345146065188,1
999,775,26,0.120228955491732,1
999,776,26,0.162499218016007,1
999,777,26,0.155894303274874,1
999,778,26,0.121046988476006,1
1000,775,26,0.126877951047425,1
1000,776,26,0.152784421239514,1
1000,777,26,0.144305936445617,1
1000,803,26,0.119984114419144,1
1001,775,26,0.12668742488714,1
1001,776,26,0.135597814514904,1
1001,777,26,0.131158006178239,1
1001,802,26,0.126257239475909,1
1001,803,26,0.140803048569308,1
1001,804,26,0.114561608938661,1
1002,774,26,0.118417908827827,1
1002,775,26,0.130824485294367,1
1002,776,26,0.132213213494443,1
1002,777,26,0.128046180959764,1
1002,802,26,0.118026045343012,1
1002,803,26,0.130068292640645,1
1003,774,26,0.123023405911498,1
1003,775,26,0.127187058485242,1
1003,776,26,0.121836026812818,1
1003,777,26,0.115727436370057,1
1003,806,26,0.116213220372134,1
1008,775,26,0.114900417635981,1
1008,801,26,0.123123532837863,1
1009,773,26,0.118680273879059,1
1009,774,26,0.122015353172236,1
1009,775,26,0.14950768454728,1
1009,776,26,0.157164049783927,1
1010,774,26,0.124641359058032,1
1010,775,26,0.146492099888939,1
1010,776,26,0.157076135469023,1
1011,775,26,0.15465364562822,1
1011,776,26,0.16254189738335,1
1011,777,26,0.11900359599579,1
1012,776,26,0.173258446275062,1
1012,777,26,0.135422916257617,1
1012,796,26,0.117463923686653,1
985,796,27,0.166789860550585,1
985,797,27,0.1850501524963,1
986,796,27,0.147947190736636,1
986,797,27,0.164907999583193,1
986,798,27,0.146264453042709,1
986,799,27,0.146486364554531,1
988,785,27,0.115099069834751,1
991,803,27,0.115250343696097,1
994,804,27,0.119643480307382,1
997,777,27,0.120464516392834,1
997,778,27,0.126501114845373,1
998,776,27,0.153538870916866,1
998,777,27,0.179537047575152,1
998,778,27,0.156720368082692,1
998,804,27,0.144798339047155,1
999,775,27,0.138419257514678,1
999,776,27,0.20427932732041,1
999,777,27,0.195883457251102,1
999,778,27,0.147231180754375,1
999,804,27,0.124128982889437,1
1000,775,27,0.148237690724012,1
1000,776,27,0.181838683203022,1
1000,777,27,0.160900143187864,1
1000,778,27,0.119192956246205,1
1000,803,27,0.118711411916381,1
1001,774,27,0.115144033914363,1
1001,775,27,0.146825243913055,1
1001,776,27,0.147490201175275,1
1001,777,27,0.127649500736196,1
1001,802,27,0.12255489857385,1
1001,803,27,0.136780965718199,1
1002,774,27,0.123597681294981,1
1002,775,27,0.142331132440955,1
1002,776,27,0.135440746434812,1
1002,777,27,0.120914569379316,1
1002,803,27,0.126057762896423,1
1003,774,27,0.123112592128078,1
1003,775,27,0.131050165403747,1
1003,776,27,0.118680273879059,1
1008,774,27,0.122848743191557,1
1008,775,27,0.119469512422617,1
1008,800,27,0.114996940840932,1
1008,801,27,0.121767261684254,1
1009,774,27,0.134387034780764,1
1009,775,27,0.150135921537045,1
1009,776,27,0.141887957145016,1
1010,773,27,0.125820788771237,1
1010,774,27,0.134347181861589,1
1010,775,27,0.147812958002372,1
1010,776,27,0.15323324943179,1
1010,799,27,0.115505913494858,1
1011,774,27,0.159129762046982,1
1011,775,27,0.162947327819373,1
1011,776,27,0.174422836928638,1
1011,777,27,0.13539936252288,1
1011,798,27,0.118877972151571,1
1011,799,27,0.117000327302698,1
1012,775,27,0.173360598822615,1
1012,776,27,0.194369482066563,1
1012,777,27,0.160908858069717,1
1012,796,27,0.140288858763139,1
1012,797,27,0.145694440885213,1
1013,777,27,0.16312406326797,1
1013,778,27,0.118868432889003,1
1013,795,27,0.121116742861428,1
1013,796,27,0.157930394097321,1
1014,780,27,0.12745270928247,1
1014,781,27,0.124309027637764,1
1015,782,27,0.13072360464849,1
984,796,28,0.121152874290514,1
984,797,28,0.135219447320094,1
985,796,28,0.20166851359352,1
985,797,28,0.218957025551468,1
985,798,28,0.177137652171259,1
985,799,28,0.190048302114899,1
986,796,28,0.178167327239009,1
986,797,28,0.193578429885431,1
986,798,28,0.145900594948496,1
986,799,28,0.14045358180702,1
986,800,28,0.12105712835881,1
989,803,28,0.117624783918038,1
997,777,28,0.127270462259945,1
997,778,28,0.128340143346145,1
998,776,28,0.157104941686606,1
998,777,28,0.202548434015814,1
998,778,28,0.178904229383981,1
998,779,28,0.116771938513823,1
998,804,28,0.11498218442612,1
998,805,28,0.130474182374495,1
998,806,28,0.131775761756046,1
998,807,28,0.119136839473195,1
999,775,28,0.129465375915722,1
999,776,28,0.202037129542149,1
999,777,28,0.20208223494417,1
999,778,28,0.153407134878483,1
999,805,28,0.116189902174745,1
1000,775,28,0.145082020228324,1
1000,776,28,0.172379420894688,1
1000,777,28,0.144259264720236,1
1001,775,28,0.147545681997447,1
1001,776,28,0.132931331535964,1
1002,775,28,0.133948664446711,1
1002,776,28,0.114952212298667,1
1008,774,28,0.130678134163581,1
1008,775,28,0.114651866850172,1
1009,773,28,0.125613339252544,1
1009,774,28,0.155484173868771,1
1009,775,28,0.144910301725226,1
1009,776,28,0.114678035049465,1
1010,772,28,0.127085836310211,1
1010,773,28,0.143055951520007,1
1010,774,28,0.151510576380616,1
1010,775,28,0.144841018414498,1
1010,776,28,0.133169000496324,1
1010,799,28,0.121719871569964,1
1011,773,28,0.192398929511021,1
1011,774,28,0.170745404101063,1
1011,775,28,0.159511191227308,1
1011,776,28,0.161500822307987,1
1011,777,28,0.13158689613406,1
1011,798,28,0.125653486593403,1
1011,799,28,0.137336774973648,1
1012,774,28,0.18503762190942,1
1012,775,28,0.166410986950477,1
1012,776,28,0.18037081445423,1
1012,777,28,0.153440969818433,1
1012,796,28,0.143592211175625,1
1012,797,28,0.142107159977343,1
1012,798,28,0.121936200846653,1
1013,776,28,0.183463514040099,1
1013,777,28,0.163126430418311,1
1013,778,28,0.117640458928505,1
1013,780,28,0.130641025254503,1
1013,781,28,0.12211204125333,1
1013,795,28,0.138239071443942,1
1013,796,28,0.182454566258917,1
1013,797,28,0.155083583725236,1
1014,778,28,0.134100268060344,1
1014,779,28,0.131327722613884,1
1014,780,28,0.152543313433882,1
1014,781,28,0.152409893303466,1
1014,782,28,0.12809305289189,1
1014,783,28,0.114490394221685,1
1014,789,28,0.121522691479615,1
1014,790,28,0.114048537934891,1
1014,794,28,0.113792555945773,1
1014,795,28,0.159158356280952,1
1015,780,28,0.153827757473412,1
1015,781,28,0.154961139635207,1
1015,787,28,0.135673669317624,1
1015,788,28,0.154262488755447,1
1015,789,28,0.168635213229134,1
1015,790,28,0.159295545008926,1
984,797,29,0.12486400073563,1
984,798,29,0.146684027496441,1
984,799,29,0.211523678852176,1
985,796,29,0.181175092057417,1
985,797,29,0.198118306264125,1
985,798,29,0.160287510547362,1
985,799,29,0.184409220043512,1
985,800,29,0.174746406359584,1
986,796,29,0.158827473415371,1
986,797,29,0.173949018223807,1
986,798,29,0.130009573179946,1
986,799,29,0.124421496721132,1
988,803,29,0.117185636310739,1
991,804,29,0.120787838509565,1
993,805,29,0.12043048124614,1
993,806,29,0.134824227428079,1
997,777,29,0.129666383487965,1
997,778,29,0.133825890604396,1
998,776,29,0.143503060289647,1
998,777,29,0.209244525264113,1
998,778,29,0.193521359186164,1
998,779,29,0.121083638087256,1
998,806,29,0.115177456663955,1
999,776,29,0.176783003587328,1
999,777,29,0.196271222386072,1
999,778,29,0.156414216638584,1
999,806,29,0.119512568649715,1
999,807,29,0.118584327740609,1
1000,775,29,0.126981658141471,1
1000,776,29,0.151443742658301,1
1000,777,29,0.129785824476815,1
1001,775,29,0.139878941340648,1
1001,776,29,0.12452362571495,1
1001,809,29,0.117142250331354,1
1002,775,29,0.128245940184066,1
1008,774,29,0.11930436541151,1
1008,803,29,0.113802931365924,1
1009,773,29,0.146387297546228,1
1009,774,29,0.170613738723885,1
1009,775,29,0.134523446235491,1
1009,803,29,0.123420404110485,1
1009,804,29,0.127293474258783,1
1010,772,29,0.141077897099951,1
1010,773,29,0.16773475395015,1
1010,774,29,0.174356756925834,1
1010,775,29,0.143247219622937,1
1010,776,29,0.113864948349486,1
1010,799,29,0.124556883588398,1
1010,800,29,0.123094126000044,1
1011,774,29,0.173037100052873,1
1011,775,29,0.151524897051336,1
1011,776,29,0.142249695403102,1
1011,777,29,0.121819386099226,1
1011,798,29,0.127356774920888,1
1011,799,29,0.151850562764673,1
1011,800,29,0.129949110742877,1
1012,775,29,0.163946618569312,1
1012,776,29,0.162169795481979,1
1012,777,29,0.139307068438109,1
1012,796,29,0.141780681660158,1
1012,797,29,0.142235598492862,1
1012,798,29,0.135546479150046,1
1012,799,29,0.130590902906983,1
1013,775,29,0.170806584927042,1
1013,776,29,0.171770274206927,1
1013,777,29,0.149102501425472,1
1013,779,29,0.117371746145761,1
1013,780,29,0.145859964756076,1
1013,781,29,0.144157536139908,1
1013,782,29,0.115208959784165,1
1013,795,29,0.150741923801219,1
1013,796,29,0.198742409573444,1
1013,797,29,0.164854768142688,1
1013,798,29,0.114577778577558,1
1014,777,29,0.152619698195633,1
1014,779,29,0.134868320019506,1
1014,780,29,0.169680115786391,1
1014,781,29,0.177653196317176,1
1014,782,29,0.149517824430084,1
1014,785,29,0.120400344242544,1
1014,786,29,0.116616837170582,1
1014,787,29,0.121370416584543,1
1014,788,29,0.137762461621545,1
1014,789,29,0.143416394322683,1
1014,790,29,0.128638345404779,1
1014,791,29,0.117069021770058,1
1014,794,29,0.115418752899465,1
1014,795,29,0.158432300630826,1
1014,796,29,0.179381451603482,1
1015,780,29,0.167764879176878,1
1015,781,29,0.172479300506839,1
1015,788,29,0.181768080883148,1
1015,790,29,0.172587164835065,1
1015,791,29,0.154858103822602,1
1015,794,29,0.162447635336933,1
984,798,30,0.136339768935978,1
985,796,30,0.13482726585986,1
985,797,30,0.149601251758522,1
985,798,30,0.130993648217246,1
985,799,30,0.157770499569061,1
985,801,30,0.116790016005234,1
986,796,30,0.117101891006883,1
986,797,30,0.131585671339853,1
987,803,30,0.128443791555854,1
989,804,30,0.132930778023197,1
990,804,30,0.11512977212798,1
991,805,30,0.136027823273125,1
992,805,30,0.113858435741831,1
992,806,30,0.133042764255003,1
996,808,30,0.127306782118909,1
997,777,30,0.114101675160457,1
997,778,30,0.125606873752359,1
998,776,30,0.114851790950617,1
998,777,30,0.187132184878352,1
998,778,30,0.184673410509187,1
998,779,30,0.115424865093629,1
999,776,30,0.137448608106178,1
999,777,30,0.1708858903519,1
999,778,30,0.143311921732258,1
1000,776,30,0.125322238644933,1
1001,775,30,0.136934441853743,1
1001,776,30,0.119459937829446,1
1002,775,30,0.13355450447276,1
1002,806,30,0.115581768297578,1
1008,803,30,0.126209213410781,1
1009,773,30,0.147289146495562,1
1009,774,30,0.158015882377548,1
1009,775,30,0.115527335616601,1
1009,802,30,0.12615403878716,1
1009,803,30,0.1396951868791,1
1009,804,30,0.134958660369089,1
1010,771,30,0.115079084490827,1
1010,772,30,0.144971176352653,1
1010,773,30,0.175728761974248,1
1010,774,30,0.175288024489854,1
1010,775,30,0.131144615880041,1
1010,800,30,0.125779063330151,1
1010,801,30,0.124395104761359,1
1010,802,30,0.131206573979266,1
1010,803,30,0.137130385373018,1
1011,774,30,0.162323177402585,1
1011,775,30,0.136290871382665,1
1011,776,30,0.121305007863179,1
1011,799,30,0.136577002152246,1
1011,800,30,0.128637603462135,1
1011,801,30,0.117500314206821,1
1012,775,30,0.162000762104641,1
1012,776,30,0.144078796004684,1
1012,777,30,0.123137476648827,1
1012,796,30,0.119509106250709,1
1012,797,30,0.124110516761403,1
1012,798,30,0.12618021876332,1
1012,799,30,0.126062779841922,1
1013,775,30,0.178459711525163,1
1013,776,30,0.158659971030791,1
1013,777,30,0.132123603310638,1
1013,779,30,0.120763837253868,1
1013,780,30,0.147648070082348,1
1013,781,30,0.149228961427273,1
1013,782,30,0.118269002116821,1
1013,795,30,0.143192292313531,1
1013,796,30,0.180617068750902,1
1013,797,30,0.150481843462256,1
1014,777,30,0.14078858657618,1
1014,778,30,0.127326685024762,1
1014,779,30,0.13445740156329,1
1014,780,30,0.164337940318228,1
1014,781,30,0.174522563441513,1
1014,782,30,0.149420170645866,1
1014,783,30,0.140143426228007,1
1014,785,30,0.125775860022227,1
1014,786,30,0.120428137649533,1
1014,787,30,0.12701643523081,1
1014,788,30,0.144913787677967,1
1014,789,30,0.144621627152293,1
1014,790,30,0.12764755755308,1
1014,791,30,0.116581541899079,1
1014,794,30,0.120435981043201,1
1014,795,30,0.150039304117155,1
1014,796,30,0.167630352020929,1
1014,797,30,0.127723612562545,1
1015,780,30,0.16180471259356,1
1015,781,30,0.167798137050326,1
1015,791,30,0.153065593947934,1
1015,792,30,0.137472032295374,1
1015,795,30,0.163800762066955,1
982,794,31,0.116357204352579,1
983,798,31,0.135309881884615,1
984,798,31,0.121444952378117,1
984,799,31,0.187346076343496,1
984,801,31,0.156751282359534,1
985,799,31,0.126252375629686,1
985,800,31,0.130812991071816,1
985,802,31,0.113763761505057,1
986,803,31,0.130278568607507,1
987,803,31,0.121673023191573,1
988,804,31,0.127697891884212,1
989,804,31,0.115933943739361,1
989,805,31,0.147540723936285,1
990,805,31,0.122894920288509,1
990,806,31,0.127554779391952,1
991,806,31,0.114787265494306,1
991,807,31,0.125558977232772,1
994,807,31,0.114118045006099,1
994,808,31,0.133202976758682,1
995,808,31,0.136038846420982,1
997,778,31,0.114258884562958,1
998,777,31,0.147164665007479,1
998,778,31,0.162247428591671,1
999,777,31,0.135264093424287,1
999,778,31,0.121187604272384,1
1001,775,31,0.13543243196645,1
1001,776,31,0.114865746538449,1
1002,775,31,0.131567817608923,1
1002,807,31,0.119765889066809,1
1008,802,31,0.119007647238164,1
1008,803,31,0.145961292922913,1
1009,773,31,0.130795749737988,1
1009,774,31,0.128266573255695,1
1009,801,31,0.123515043016657,1
1009,802,31,0.143095616009304,1
1009,803,31,0.153584082310693,1
1009,804,31,0.144705690431568,1
1010,770,31,0.117708917858517,1
1010,771,31,0.131195020872378,1
1010,772,31,0.150519882743856,1
1010,773,31,0.175070046451733,1
1010,774,31,0.162010548681424,1
1010,775,31,0.115068932831155,1
1010,800,31,0.142568989831193,1
1010,801,31,0.154965661952277,1
1010,802,31,0.157959918703813,1
1010,803,31,0.149476499402489,1
1011,774,31,0.156411849488243,1
1011,775,31,0.121754542667496,1
1011,799,31,0.130031713690599,1
1011,800,31,0.149370766687256,1
1011,801,31,0.148065088955861,1
1011,802,31,0.13988864547936,1
1012,775,31,0.158418156613116,1
1012,776,31,0.130079822193799,1
1012,798,31,0.117661527744227,1
1012,799,31,0.130343459146707,1
1012,800,31,0.124667421265518,1
1013,776,31,0.156453092077767,1
1013,777,31,0.132403186141962,1
1013,778,31,0.123991016888216,1
1013,779,31,0.13001421326569,1
1013,780,31,0.142855332584387,1
1013,781,31,0.141713600623628,1
1013,795,31,0.131722824737225,1
1013,796,31,0.159269058834214,1
1013,797,31,0.140422585092106,1
1014,776,31,0.15818816617028,1
1014,777,31,0.143918088872575,1
1014,778,31,0.136908685844808,1
1014,779,31,0.13809296762737,1
1014,780,31,0.15035938759536,1
1014,781,31,0.15635059800106,1
1014,782,31,0.140406285907669,1
1014,783,31,0.137058287390989,1
1014,784,31,0.13276500683812,1
1014,785,31,0.122653105870834,1
1014,786,31,0.118070962315155,1
1014,787,31,0.124204778807819,1
1014,788,31,0.138016300220802,1
1014,789,31,0.130554371064406,1
1014,790,31,0.114800679346239,1
1014,792,31,0.113826473323794,1
1014,793,31,0.118707949517375,1
1014,794,31,0.127786347935016,1
1014,795,31,0.147601245257691,1
1014,796,31,0.165478659468394,1
1014,797,31,0.137497058138531,1
1015,780,31,0.153135937176725,1
1015,781,31,0.161737078044264,1
1015,788,31,0.173394728184248,1
1015,789,31,0.16065072091387,1
1015,790,31,0.144114044168717,1
1015,791,31,0.138294846687798,1
1015,792,31,0.132371447484405,1
1015,793,31,0.124028384888376,1
1015,794,31,0.127848082273761,1
1015,795,31,0.135963580461631,1
982,798,32,0.135006969079034,1
983,798,32,0.121741964973147,1
983,799,32,0.175469423577929,1
984,799,32,0.151657257263689,1
984,800,32,0.182280315729335,1
984,801,32,0.168102804609146,1
985,801,32,0.117123407343565,1
985,802,32,0.124345053075044,1
986,803,32,0.136327485663313,1
987,803,32,0.118001101937926,1
987,804,32,0.14005726666634,1
988,804,32,0.121753659402444,1
988,805,32,0.136866654205171,1
989,805,32,0.122629457921159,1
989,806,32,0.121003331628671,1
990,807,32,0.123149913020768,1
994,808,32,0.119724022303314,1
994,809,32,0.115438278945561,1
995,808,32,0.113948422785393,1
998,778,32,0.118067594131088,1
1001,775,32,0.122062119112556,1
1002,775,32,0.114331276966671,1
1008,803,32,0.150049667760439,1
1009,802,32,0.133246515837343,1
1009,803,32,0.146683191338858,1
1009,804,32,0.140489454145024,1
1010,770,32,0.137719440725048,1
1010,771,32,0.158009051794474,1
1010,773,32,0.170328620764897,1
1010,774,32,0.139515365891253,1
1010,800,32,0.130668229818124,1
1010,801,32,0.150296204701928,1
1010,802,32,0.149166496922752,1
1010,803,32,0.138646103533927,1
1011,774,32,0.156372479420631,1
1011,800,32,0.146816470146866,1
1011,801,32,0.149051201391215,1
1011,802,32,0.133930916707587,1
1012,775,32,0.146046310128445,1
1012,776,32,0.117565946688665,1
1012,799,32,0.120420529793213,1
1012,800,32,0.127542555003624,1
1012,801,32,0.113881329971996,1
1013,776,32,0.15518183812969,1
1013,777,32,0.144958645765773,1
1013,778,32,0.142326209710395,1
1013,779,32,0.140096094998054,1
1013,780,32,0.132201059767319,1
1013,781,32,0.123494515936834,1
1013,796,32,0.128126581633288,1
1013,797,32,0.119767867580526,1
1014,775,32,0.170840879164818,1
1014,776,32,0.161141392315905,1
1014,777,32,0.160214611738352,1
1014,778,32,0.15454019906486,1
1014,779,32,0.14357751364515,1
1014,780,32,0.136170641343701,1
1014,781,32,0.134436674276721,1
1014,782,32,0.127887157919689,1
1014,783,32,0.129440361849432,1
1014,784,32,0.124797908955959,1
1014,785,32,0.114916339960663,1
1014,787,32,0.115067920020561,1
1014,788,32,0.125494216239113,1
1014,789,32,0.116941878709949,1
1014,793,32,0.113769155310312,1
1014,794,32,0.119850293875238,1
1014,795,32,0.134103907112361,1
1014,796,32,0.152393982755651,1
1014,797,32,0.13368262501286,1
1015,779,32,0.145025985893386,1
1015,780,32,0.141625615647519,1
1015,781,32,0.151687029184396,1
1015,787,32,0.150472327753422,1
1015,788,32,0.157939120756041,1
1015,789,32,0.145064814225099,1
1015,790,32,0.133786591197988,1
1015,791,32,0.130962969477752,1
1015,792,32,0.127351322231296,1
1015,793,32,0.117669712667048,1
1015,795,32,0.115086327264258,1
1015,796,32,0.122756059245368,1
982,799,33,0.136105715473899,1
983,799,33,0.13780137239133,1
983,800,33,0.185545416876609,1
983,801,33,0.196285872809079,1
984,799,33,0.114147887588011,1
984,800,33,0.150251900126889,1
984,801,33,0.167059915896208,1
984,802,33,0.145353653674175,1
985,801,33,0.115197065148123,1
985,802,33,0.123499462221128,1
985,803,33,0.126976970948258,1
986,803,33,0.127936397002156,1
986,804,33,0.139972379006349,1
987,804,33,0.128731158896509,1
987,805,33,0.131797077885983,1
988,805,33,0.118198022937192,1
988,806,33,0.120526109409171,1
1007,803,33,0.120309415049593,1
1008,803,33,0.149682076399271,1
1009,802,33,0.124178916807078,1
1009,803,33,0.140447964241285,1
1009,804,33,0.136349579066496,1
1010,770,33,0.151586266307193,1
1010,773,33,0.157203561173948,1
1010,774,33,0.117442678217921,1
1010,800,33,0.123616394737229,1
1010,801,33,0.146942941925535,1
1010,802,33,0.138643748160453,1
1010,803,33,0.126078160430705,1
1011,774,33,0.162548998834373,1
1011,800,33,0.148891530623435,1
1011,801,33,0.151233054501081,1
1011,802,33,0.124760187649778,1
1012,775,33,0.136697255744944,1
1012,800,33,0.131067253638298,1
1012,801,33,0.115477790335582,1
1013,776,33,0.145013643736384,1
1013,777,33,0.145006188979339,1
1013,778,33,0.146890216890327,1
1013,779,33,0.136826141781424,1
1014,775,33,0.166324580074596,1
1014,776,33,0.15911535893819,1
1014,777,33,0.166169431623885,1
1014,778,33,0.16300166628541,1
1014,779,33,0.142940962187023,1
1014,780,33,0.120352541937896,1
1014,795,33,0.116005005357061,1
1014,796,33,0.134461005284704,1
1014,797,33,0.122372592666987,1
1015,776,33,0.143045929405877,1
1015,777,33,0.148512327271042,1
1015,778,33,0.144844151061218,1
1015,779,33,0.129120396139901,1
1015,780,33,0.125311368596352,1
1015,781,33,0.131265258109362,1
1015,782,33,0.137746197767709,1
1015,786,33,0.132920390826178,1
1015,787,33,0.129931398334355,1
1015,788,33,0.134490777205412,1
1015,789,33,0.130300332258404,1
1015,790,33,0.126392237706552,1
1015,791,33,0.122147736938324,1
1015,792,33,0.116351363026365,1
1016,788,33,0.162307914582475,1
983,800,34,0.154386605160642,1
983,801,34,0.179221439306548,1
984,800,34,0.124142149427154,1
984,801,34,0.152045835002508,1
984,802,34,0.134765025115818,1
985,802,34,0.115755006016566,1
986,804,34,0.122729902822943,1
987,805,34,0.118804484499193,1
988,806,34,0.117778566252133,1
989,807,34,0.125780135025082,1
1008,803,34,0.121338677926985,1
1008,804,34,0.128721631410808,1
1009,803,34,0.116290594390744,1
1009,804,34,0.116955940289587,1
1010,770,34,0.146996020266764,1
1010,773,34,0.136312646810429,1
1010,801,34,0.117006533711801,1
1011,774,34,0.161646443272997,1
1011,800,34,0.124136213886001,1
1011,801,34,0.125560932192755,1
1012,775,34,0.132343842507293,1
1013,775,34,0.149667284653856,1
1013,776,34,0.126394098451596,1
1013,777,34,0.129160307943412,1
1013,778,34,0.131034031095452,1
1013,779,34,0.116400107480402,1
1014,774,34,0.170104895615501,1
1014,775,34,0.149915623456053,1
1014,776,34,0.142834899719503,1
1014,777,34,0.152861642158849,1
1014,778,34,0.151532446023319,1
1014,779,34,0.128791939308997,1
1015,776,34,0.12769987039793,1
1015,777,34,0.132746599594424,1
1015,778,34,0.127082150150725,1
1015,782,34,0.119429977478861,1
1015,783,34,0.13056236755735,1
1015,784,34,0.126693336874559,1
1015,785,34,0.12113562117982,1
1015,786,34,0.116559554487702,1
1015,789,34,0.114819216135477,1
1015,790,34,0.121640330607758,1
1015,791,34,0.117108815804895,1
1016,779,34,0.123487814899301,1
1016,790,34,0.161244958087542,1
982,800,35,0.132710444611603,1
983,800,35,0.133585018336111,1
983,801,35,0.157116718553974,1
983,802,35,0.132165894041357,1
984,801,35,0.134483063357285,1
984,802,35,0.123918388947156,1
986,804,35,0.114033381106588,1
986,805,35,0.1312026640593,1
987,805,35,0.115946168127689,1
987,806,35,0.121888798955495,1
988,806,35,0.125720037670901,1
988,807,35,0.14525661228706,1
989,806,35,0.120781785199738,1
989,807,35,0.138849902223736,1
1010,769,35,0.11611093827904,1
1010,770,35,0.135814155568461,1
1010,773,35,0.120411567597146,1
1011,774,35,0.15872821797719,1
1012,775,35,0.142471300716373,1
1013,775,35,0.146212988132309,1
1013,776,35,0.114413950575597,1
1014,774,35,0.155399533522994,1
1014,775,35,0.137540903415744,1
1014,776,35,0.127988050342434,1
1014,777,35,0.133176690790716,1
1014,778,35,0.131790129534235,1
1015,775,35,0.115072736759315,1
1015,776,35,0.119307074091005,1
1015,777,35,0.119310383390735,1
1015,783,35,0.114439388609112,1
1015,790,35,0.123204345701745,1
1015,791,35,0.1287751926036,1
1016,778,35,0.118712589603118,1
1016,790,35,0.166454290491791,1
1016,791,35,0.178808742543359,1
982,800,36,0.120011507412643,1
983,800,36,0.115001039190777,1
983,801,36,0.131462402869109,1
984,801,36,0.115479486204483,1
986,805,36,0.128833452766471,1
987,806,36,0.117322012434865,1
988,806,36,0.12139593705613,1
988,807,36,0.144361111069238,1
989,806,36,0.115695697712499,1
989,807,36,0.140250548613589,1
989,808,36,0.120384527909668,1
1010,771,36,0.127938375515874,1
1010,772,36,0.126380060425693,1
1011,770,36,0.141792340758852,1
1011,774,36,0.146358573766717,1
1012,770,36,0.147214575371386,1
1012,775,36,0.148416416463194,1
1013,771,36,0.148657488938224,1
1013,774,36,0.191742522254511,1
1013,775,36,0.146918634471287,1
1014,773,36,0.131662303415819,1
1014,774,36,0.135069798666444,1
1014,775,36,0.123324363757096,1
1014,776,36,0.113850498133225,1
1014,777,36,0.116268442103224,1
1015,790,36,0.120177019506638,1
1015,791,36,0.138138473442881,1
1015,792,36,0.115923992286435,1
1016,791,36,0.214010976794107,1
983,801,37,0.114193888031952,1
985,804,37,0.113931982278547,1
985,805,37,0.1326158528129,1
986,805,37,0.127410571651026,1
986,806,37,0.130307810569183,1
987,805,37,0.113917002103254,1
987,806,37,0.123198174623244,1
987,807,37,0.127107835498455,1
988,806,37,0.121856553892641,1
988,807,37,0.139511055557796,1
989,807,37,0.134551769601512,1
989,808,37,0.118321774259499,1
1011,769,37,0.11526644267379,1
1011,770,37,0.123311821393348,1
1011,771,37,0.147094239340616,1
1011,772,37,0.177200599527342,1
1011,774,37,0.140027247431418,1
1012,770,37,0.128003760683503,1
1012,771,37,0.149529036007819,1
1012,775,37,0.14737364551893,1
1013,772,37,0.149839674438394,1
1013,774,37,0.181133613930546,1
1013,775,37,0.148134419374059,1
1014,773,37,0.116813075111541,1
1014,774,37,0.121066962043062,1
1014,775,37,0.113900914902429,1
1015,791,37,0.127304426745435,1
1016,792,37,0.16336598367745,1
985,804,38,0.120801652774988,1
985,805,38,0.133320710101763,1
986,804,38,0.114141539856499,1
986,805,38,0.127673843521046,1
986,806,38,0.135304782501045,1
987,805,38,0.117011020698268,1
987,806,38,0.136354961094883,1
987,807,38,0.139326205847582,1
988,806,38,0.121706033750806,1
988,807,38,0.135651293269624,1
988,808,38,0.129838655503829,1
989,807,38,0.122140670817903,1
989,808,38,0.116764542641116,1
1011,769,38,0.125102470522972,1
1011,770,38,0.119360670614398,1
1011,771,38,0.125767027371701,1
1011,772,38,0.161564864912736,1
1011,774,38,0.139320058322816,1
1012,770,38,0.121002719231568,1
1012,771,38,0.12993965391838,1
1012,775,38,0.137732312841082,1
1013,772,38,0.139153121227869,1
1013,774,38,0.164738448023691,1
1013,775,38,0.142396152525695,1
1016,790,38,0.134734652574875,1
1016,791,38,0.175831091174811,1
1016,792,38,0.136413880762327,1
1017,792,38,0.122529495870936,1
984,803,39,0.116014933256253,1
984,804,39,0.126307703352582,1
985,803,39,0.127065403445327,1
985,804,39,0.149779000017712,1
985,805,39,0.147986113283289,1
986,804,39,0.135137762968027,1
986,805,39,0.149274267036039,1
986,806,39,0.155656905182462,1
987,805,39,0.133864836704784,1
987,806,39,0.171041639422847,1
987,807,39,0.165581318421244,1
988,806,39,0.132950362953631,1
988,807,39,0.148313451311792,1
988,808,39,0.142565503878452,1
989,807,39,0.117670454609692,1
989,808,39,0.124684721483682,1
989,809,39,0.114279965155547,1
1011,770,39,0.123468123977061,1
1011,771,39,0.116038157238703,1
1011,772,39,0.147176265221837,1
1011,774,39,0.133100412020771,1
1012,771,39,0.120162840158326,1
1012,775,39,0.123302564775597,1
1013,772,39,0.130446153430159,1
1013,774,39,0.144355528834105,1
1013,775,39,0.128797592205334,1
1016,791,39,0.135913422783509,1
1016,792,39,0.117742976558946,1
1017,791,39,0.117083742854268,1
984,802,40,0.118366055280804,1
984,803,40,0.127505410763944,1
984,804,40,0.13788406955399,1
984,805,40,0.120394396924523,1
985,802,40,0.114926397405396,1
985,803,40,0.150260438355731,1
985,804,40,0.183120053480168,1
985,805,40,0.16760161646455,1
985,806,40,0.132204298405846,1
986,803,40,0.120709616556504,1
986,804,40,0.159498342665009,1
986,805,40,0.179463901451928,1
986,806,40,0.176507165799826,1
986,807,40,0.14107060721905,1
987,805,40,0.150382105172513,1
987,806,40,0.198289730345539,1
987,807,40,0.177796497239314,1
988,806,40,0.138860772272317,1
988,807,40,0.155616934494614,1
988,808,40,0.151161427593747,1
989,808,40,0.127521969039464,1
989,809,40,0.120862232980731,1
1010,769,40,0.118205842777125,1
1011,770,40,0.121015744446877,1
1011,772,40,0.137067791322955,1
1011,773,40,0.165669951125058,1
1011,774,40,0.121883876224936,1
1012,771,40,0.116097041575545,1
1012,772,40,0.148774680545407,1
1012,774,40,0.151678349633146,1
1013,773,40,0.148594447367201,1
1013,774,40,0.128352226412065,1
984,801,41,0.117386267023226,1
984,802,41,0.134011623579663,1
984,803,41,0.143079552362213,1
984,804,41,0.1396459595735,1
985,802,41,0.138763777992672,1
985,803,41,0.189635228491954,1
985,804,41,0.212749674298956,1
985,805,41,0.178457591689036,1
985,806,41,0.128002453451225,1
986,803,41,0.137648049355061,1
986,804,41,0.185851862742401,1
986,805,41,0.206944620835747,1
986,806,41,0.185923996055032,1
986,807,41,0.134185721009969,1
987,805,41,0.165590928345017,1
987,806,41,0.207925892978613,1
987,807,41,0.170666864172584,1
987,808,41,0.133730238887631,1
988,806,41,0.1392778382533,1
988,807,41,0.150660098126743,1
988,808,41,0.1445053776945,1
989,808,41,0.120393972957298,1
1011,771,41,0.118470009689064,1
1011,772,41,0.133068932454295,1
1011,773,41,0.144375408186223,1
1012,772,41,0.140695054695541,1
1012,773,41,0.166127717959666,1
1012,774,41,0.135988229445033,1
1013,773,41,0.139684952781357,1
1013,774,41,0.123459326657137,1
1016,793,41,0.127083504490472,1
1016,794,41,0.125588007210835,1
984,801,42,0.120236092273357,1
984,802,42,0.141588235870491,1
984,803,42,0.152649411232004,1
984,804,42,0.134432858571694,1
985,802,42,0.157653272631276,1
985,803,42,0.219452384146716,1
985,804,42,0.222828058301712,1
985,805,42,0.176074071502355,1
986,803,42,0.149894224888044,1
986,804,42,0.20029801598413,1
986,805,42,0.221239641538537,1
986,806,42,0.184685634897515,1
987,805,42,0.16975942121125,1
987,806,42,0.195127971209422,1
987,807,42,0.151272012378336,1
988,806,42,0.128650487355036,1
988,807,42,0.134325465318162,1
988,808,42,0.130083402361479,1
1010,770,42,0.115508492628812,1
1010,771,42,0.123358069151504,1
1010,772,42,0.129036485959901,1
1010,773,42,0.116687003746363,1
1011,771,42,0.133057862198969,1
1011,772,42,0.136033405508258,1
1011,773,42,0.128586868717512,1
1012,772,42,0.131979689991396,1
1012,773,42,0.135603808940395,1
1012,774,42,0.123212589508903,1
1013,774,42,0.120045601443674,1
1016,793,42,0.133690315307252,1
1016,794,42,0.13507733586156,1
1016,795,42,0.115291845376703,1
1017,793,42,0.115119891336258,1
1017,794,42,0.115568201346369,1
984,801,43,0.116361326256158,1
984,802,43,0.137055720033902,1
984,803,43,0.148393840208449,1
984,804,43,0.122901644879776,1
985,802,43,0.162528459977682,1
985,803,43,0.215861805715983,1
985,804,43,0.198409147780654,1
985,805,43,0.152962993879421,1
986,803,43,0.145375028688449,1
986,804,43,0.185451779004163,1
986,805,43,0.200948122616598,1
986,806,43,0.165017665772127,1
987,805,43,0.153763561769387,1
987,806,43,0.165152169374341,1
987,807,43,0.131256967194735,1
1010,771,43,0.146651476235035,1
1010,772,43,0.148152108228846,1
1010,773,43,0.127359412939178,1
1011,772,43,0.14134703384992,1
1011,773,43,0.123311208996245,1
1012,773,43,0.117837992324874,1
1012,774,43,0.117588770257625,1
1013,774,43,0.114703343537439,1
1016,793,43,0.122840876244155,1
1016,794,43,0.128336869377017,1
1016,795,43,0.132469207260429,1
1016,796,43,0.131407240022355,1
1016,797,43,0.119440070254196,1
1017,795,43,0.122932111635658,1
1017,796,43,0.130176804696577,1
984,802,44,0.12398034704638,1
984,803,44,0.133394880812449,1
985,802,44,0.152161130534044,1
985,803,44,0.185192358169773,1
985,804,44,0.161131794169,1
986,803,44,0.13075604991809,1
986,804,44,0.155746279828921,1
986,805,44,0.164552326411801,1
987,805,44,0.128960030536946,1
987,806,44,0.13387680200203,1
1009,772,44,0.120149237876516,1
1009,773,44,0.118423985691389,1
1010,771,44,0.156726810029143,1
1010,772,44,0.153605657531712,1
1010,773,44,0.129262684251445,1
1011,772,44,0.137198161244723,1
1011,773,44,0.117554346474307,1
1012,775,44,0.116697744249403,1
1012,778,44,0.123126912798798,1
1012,779,44,0.121391391185326,1
1013,779,44,0.115987905345643,1
1016,795,44,0.14176057854756,1
1016,796,44,0.168399428567552,1
1016,797,44,0.153160067977963,1
1017,795,44,0.123048537746462,1
1017,796,44,0.140857257489805,1
984,799,45,0.117482966881188,1
985,802,45,0.123428565479571,1
985,803,45,0.134978751704819,1
985,804,45,0.119245422190332,1
986,804,45,0.117432985856077,1
986,805,45,0.121273104329478,1
1009,772,45,0.123238698823858,1
1009,773,45,0.124684438838865,1
1010,772,45,0.14674838807661,1
1010,773,45,0.128945756973696,1
1011,775,45,0.121714030243749,1
1011,776,45,0.125365106442154,1
1011,777,45,0.118638242239421,1
1011,778,45,0.117346461211521,1
1012,775,45,0.116685154778186,1
1012,776,45,0.115540443269982,1
1012,777,45,0.117539707828169,1
1012,778,45,0.145359930744483,1
1012,779,45,0.137147179185885,1
1013,778,45,0.125725914327718,1
1013,779,45,0.131641764559129,1
1015,796,45,0.118519225217797,1
1015,797,45,0.119342334031906,1
1016,795,45,0.133960488421549,1
1016,796,45,0.184994271260637,1
1017,795,45,0.11387647790264,1
1009,772,46,0.115246374891794,1
1009,773,46,0.117467892490956,1
1010,772,46,0.126683738727654,1
1010,773,46,0.118111027217942,1
1010,776,46,0.119460432457876,1
1010,777,46,0.115362235712964,1
1011,775,46,0.122895167602723,1
1011,776,46,0.13808312216625,1
1011,777,46,0.143574510543971,1
1011,778,46,0.134804618943911,1
1012,776,46,0.115156764707988,1
1012,777,46,0.126842903090137,1
1012,778,46,0.153669782574533,1
1012,779,46,0.133403831231649,1
1013,778,46,0.134941313043455,1
1013,779,46,0.127291236653983,1
1015,796,46,0.11787837520308,1
1015,797,46,0.123249769079185,1
1016,795,46,0.116730118857798,1
1016,797,46,0.18136625416854,1
1010,775,47,0.121090821976351,1
1010,776,47,0.136493586600676,1
1010,777,47,0.140239019060436,1
1011,775,47,0.115778983718528,1
1011,776,47,0.138964585358169,1
1011,777,47,0.156299333297406,1
1011,778,47,0.133642336349593,1
1012,777,47,0.131476546886818,1
1012,778,47,0.142995465529203,1
1012,779,47,0.117047246342293,1
1013,778,47,0.132831063287189,1
1015,797,47,0.114589720321069,1
1010,775,48,0.124789453165189,1
1011,776,48,0.1338007705463,1
1011,777,48,0.152735453024997,1
1011,778,48,0.118596634567009,1
1012,777,48,0.124626944172373,1
1012,778,48,0.117418052788253,1
1013,783,48,0.117628246317044,1
