x,y,z,signal,mito.p
144,398,2,0.273385773054301,2
143,398,3,0.19475377302566,2
144,397,3,0.226202177910215,2
144,398,3,0.345491504262095,2
144,399,3,0.330170200229357,2
145,398,3,0.287886229431466,2
143,398,4,0.190741606296874,2
144,397,4,0.304705951406949,2
144,398,4,0.379597547698197,2
144,399,4,0.292547042461166,2
145,397,4,0.302117395959385,2
145,398,4,0.337018307281647,2
145,399,4,0.305800234369082,2
146,398,4,0.17932569991336,2
143,397,5,0.162025093112624,2
143,398,5,0.154861236469322,2
144,396,5,0.252299621783549,2
144,397,5,0.352001261914892,2
144,398,5,0.336929627470363,2
144,399,5,0.202680947327443,2
145,396,5,0.317341352406457,2
145,397,5,0.388632053731157,2
145,398,5,0.335915592082478,2
145,399,5,0.233503293942695,2
146,396,5,0.226562479390482,2
146,397,5,0.229588545460781,2
146,398,5,0.198427307710136,2
144,396,6,0.277921303768937,2
144,397,6,0.321281162062131,2
144,398,6,0.242535020634956,2
145,395,6,0.273904520508143,2
145,396,6,0.397402899257473,2
145,397,6,0.401230381152188,2
145,398,6,0.275584961712933,2
146,394,6,0.194532768332625,2
146,395,6,0.272788568110052,2
146,396,6,0.327411139296033,2
146,397,6,0.268166500973994,2
147,395,6,0.221558111585913,2
147,396,6,0.222938807962444,2
144,395,7,0.24154877865406,2
144,396,7,0.259483016249816,2
144,397,7,0.23515605950917,2
145,394,7,0.269184728926662,2
145,395,7,0.358787823058315,2
145,396,7,0.417148089302195,2
145,397,7,0.341475050753588,2
145,398,7,0.201057270623367,2
146,393,7,0.199125110655446,2
146,394,7,0.30674014615375,2
146,395,7,0.395293097022167,2
146,396,7,0.413642398531453,2
146,397,7,0.308762705355592,2
146,398,7,0.219501493683642,2
147,393,7,0.203721692650519,2
147,394,7,0.293395730631199,2
147,395,7,0.346435490842873,2
147,396,7,0.338815598564466,2
147,397,7,0.262558498055592,2
148,394,7,0.205652227410744,2
148,395,7,0.213772094816407,2
148,396,7,0.20186125380487,2
144,394,8,0.29451024625147,2
144,395,8,0.264380520759885,2
144,396,8,0.216389291605411,2
145,393,8,0.259519218340106,2
145,394,8,0.338477814454607,2
145,395,8,0.411701665004087,2
145,396,8,0.381960693904331,2
145,397,8,0.256602912673681,2
146,393,8,0.274381695620174,2
146,394,8,0.401196557989106,2
146,395,8,0.484367763115002,2
146,396,8,0.446413322067739,2
146,397,8,0.33505658737663,2
146,398,8,0.233501739396203,2
147,392,8,0.186707440379844,2
147,393,8,0.303286344260633,2
147,394,8,0.402492625796729,2
147,395,8,0.423287652906135,2
147,396,8,0.409994772955187,2
147,397,8,0.346803329518256,2
147,398,8,0.261397770007767,2
148,393,8,0.291308728411118,2
148,394,8,0.31186301279778,2
148,395,8,0.268944551493552,2
148,396,8,0.256916177345679,2
148,397,8,0.214413604335696,2
149,393,8,0.201863279426058,2
149,394,8,0.187552878134484,2
143,394,9,0.32315905422522,2
144,393,9,0.316156269796914,2
144,394,9,0.325245279172054,2
144,395,9,0.244380031784352,2
144,396,9,0.162694949551669,2
145,392,9,0.251778518956234,2
145,393,9,0.339257254644514,2
145,394,9,0.369096421264387,2
145,395,9,0.396864272451514,2
145,396,9,0.297790457119578,2
145,397,9,0.17474074168638,2
146,392,9,0.278723803065151,2
146,393,9,0.356217898614927,2
146,394,9,0.45160904041331,2
146,395,9,0.495872207987392,2
146,396,9,0.393895206419278,2
146,397,9,0.297949185737969,2
146,398,9,0.205054810482882,2
147,392,9,0.275766984974978,2
147,393,9,0.3955817715951,2
147,394,9,0.460657961331928,2
147,395,9,0.422542365631596,2
147,396,9,0.399542520520956,2
147,397,9,0.363939448812458,2
147,398,9,0.245320555966123,2
148,392,9,0.282958175727443,2
148,393,9,0.431148758981981,2
148,394,9,0.411282220095896,2
148,395,9,0.300514328773205,2
148,396,9,0.295849535162334,2
148,397,9,0.255024035173075,2
149,392,9,0.238755140838144,2
149,393,9,0.327309292947032,2
149,394,9,0.274476711386101,2
149,395,9,0.188252176741949,2
150,393,9,0.175642508197642,2
143,393,10,0.212766515219293,2
143,394,10,0.290191928078577,2
144,392,10,0.182843815279176,2
144,393,10,0.332869835089939,2
144,394,10,0.319743904010805,2
144,395,10,0.210182694072411,2
145,392,10,0.301804437485938,2
145,393,10,0.431956746298389,2
145,394,10,0.395845055241987,2
145,395,10,0.344081530593287,2
145,396,10,0.219066785955341,2
146,391,10,0.208044085619522,2
146,392,10,0.391649428473337,2
146,393,10,0.48199995326939,2
146,394,10,0.493831653732212,2
146,395,10,0.461449319711612,2
146,396,10,0.317040053031705,2
146,397,10,0.237573120214117,2
147,391,10,0.257973928465235,2
147,392,10,0.400005681160818,2
147,393,10,0.487030654149396,2
147,394,10,0.48247145193135,2
147,395,10,0.393430797431475,2
147,396,10,0.34810507377595,2
147,397,10,0.330264509383243,2
147,398,10,0.209822604575756,2
148,391,10,0.238699271379348,2
148,392,10,0.384852291703018,2
148,393,10,0.543145919720581,2
148,394,10,0.488156616884749,2
148,395,10,0.326445365510624,2
148,396,10,0.308014308988067,2
148,397,10,0.275340803698652,2
149,391,10,0.184364573939319,2
149,392,10,0.329699125534623,2
149,393,10,0.475036244487013,2
149,394,10,0.389416628635236,2
149,395,10,0.23252506023161,2
149,396,10,0.180933842929376,2
150,392,10,0.241977951254698,2
150,393,10,0.290233476866652,2
150,394,10,0.221167425787835,2
150,395,10,0.141005068952145,1
151,393,10,0.170623631292474,1
151,394,10,0.120792914339401,1
152,393,10,0.138321097325163,1
153,392,10,0.172134497384028,1
153,393,10,0.152722098057401,1
154,393,10,0.178527958471562,1
155,393,10,0.167982657008254,1
155,394,10,0.156180163176506,1
156,393,10,0.13367014153345,1
156,394,10,0.187481522095099,1
156,395,10,0.233911244628335,1
156,396,10,0.197420467988213,1
157,394,10,0.155340531417479,1
157,395,10,0.262184064334483,1
157,396,10,0.271497493694194,1
158,395,10,0.174835486584358,1
158,396,10,0.210038922075578,1
144,393,11,0.294735184418206,2
144,394,11,0.285863929320707,2
144,395,11,0.177981076081578,2
145,392,11,0.292735943413754,2
145,393,11,0.480303048004019,2
145,394,11,0.415109419345794,2
145,395,11,0.280933991317905,2
145,396,11,0.154269048470571,2
146,391,11,0.199976531058708,2
146,392,11,0.436467286500469,2
146,393,11,0.587057006067819,2
146,394,11,0.52307587656637,2
146,395,11,0.391669237164251,2
146,396,11,0.229817158010135,2
147,391,11,0.30209633892053,2
147,392,11,0.486054917134193,2
147,393,11,0.540144278873204,2
147,394,11,0.482644854526481,2
147,395,11,0.365825985196195,2
147,396,11,0.275927150371188,2
147,397,11,0.243225168616476,2
148,390,11,0.138422083962846,2
148,391,11,0.310341465087524,2
148,392,11,0.46521038007437,2
148,393,11,0.572445823583657,2
148,394,11,0.515674727822463,2
148,395,11,0.347658989593772,2
148,396,11,0.278640893918878,2
148,397,11,0.240143280194852,1
149,391,11,0.217167224356295,2
149,392,11,0.39172969960132,2
149,393,11,0.570880348158117,2
149,394,11,0.478419502944594,2
149,395,11,0.265851333725519,2
149,396,11,0.17017341342985,1
149,397,11,0.133381313861241,1
150,391,11,0.181921250820141,2
150,392,11,0.33767281846251,2
150,393,11,0.425198331867977,2
150,394,11,0.30058451890272,2
150,395,11,0.15790659304837,2
151,371,11,0.2741896855746,3
151,392,11,0.303727764803334,2
151,393,11,0.26983702605646,2
151,394,11,0.157537718008658,2
152,392,11,0.279709809508699,2
152,393,11,0.196169752896827,1
153,391,11,0.213592568250244,1
153,392,11,0.257037455525838,1
153,393,11,0.196568588287123,1
154,392,11,0.214266393493592,1
154,393,11,0.229702380660763,1
154,394,11,0.136362945810959,1
155,392,11,0.146141502547384,1
155,393,11,0.228774905248036,1
155,394,11,0.194751382321584,1
155,395,11,0.142009388424451,1
156,393,11,0.189751301296737,1
156,394,11,0.24753498389113,1
156,395,11,0.26119709218781,1
156,396,11,0.186550325192283,1
157,393,11,0.119165763459452,1
157,394,11,0.205399330960876,1
157,395,11,0.295547953142765,1
157,396,11,0.255686154210258,1
157,397,11,0.123533073400598,1
158,394,11,0.118795734286738,1
158,395,11,0.196708320818449,1
158,396,11,0.217238686387486,1
158,397,11,0.14604830041903,1
159,396,11,0.160316352095548,1
159,397,11,0.168989414292105,1
144,393,12,0.24415829692554,2
144,394,12,0.250334722124343,2
145,392,12,0.255051451720308,2
145,393,12,0.492022726904432,2
145,394,12,0.438218176925857,2
145,395,12,0.246106614755492,2
146,391,12,0.164514086923456,2
146,392,12,0.414861728271303,2
146,393,12,0.650880843728696,2
146,394,12,0.55575974549907,2
146,395,12,0.336003800819067,2
146,396,12,0.174093673485693,2
147,391,12,0.293930188426109,2
147,392,12,0.503538713106843,2
147,393,12,0.562121515036516,2
147,394,12,0.491102011413575,2
147,395,12,0.360505903131215,2
147,396,12,0.229567464868191,2
147,397,12,0.168417859364984,1
148,390,12,0.142179057752627,2
148,391,12,0.349473286673071,2
148,392,12,0.505971578367798,2
148,393,12,0.535040938275271,2
148,394,12,0.49846043368267,2
148,395,12,0.363431347646718,2
148,396,12,0.241254780937077,2
148,397,12,0.18291101408438,1
148,398,12,0.114489510956632,1
149,391,12,0.240336562142101,2
149,392,12,0.428226117360911,2
149,393,12,0.587827448731057,2
149,394,12,0.495257879477989,2
149,395,12,0.270622566663664,2
149,396,12,0.150464248822407,1
149,397,12,0.115014653249454,1
150,371,12,0.216339428348974,3
150,391,12,0.196768983462263,2
150,392,12,0.423795471427059,2
150,393,12,0.543456263729472,2
150,394,12,0.354032771535933,2
150,395,12,0.157266649852441,2
151,370,12,0.217234399607764,3
151,371,12,0.383871443527377,3
151,372,12,0.292327097686194,3
151,391,12,0.226505526459889,2
151,392,12,0.397343119878711,2
151,393,12,0.36568240162924,2
151,394,12,0.191299264520501,2
152,371,12,0.312084841871531,3
152,372,12,0.219149647994145,3
152,391,12,0.28407714300358,2
152,392,12,0.354300765929768,2
152,393,12,0.231646977000626,2
153,390,12,0.181946029349084,1
153,391,12,0.289958345691193,1
153,392,12,0.314965722720912,2
153,393,12,0.209071475975002,1
154,391,12,0.190978380215315,1
154,392,12,0.241560202215408,1
154,393,12,0.239467829743807,1
154,394,12,0.136515279590369,1
155,392,12,0.161867495073501,1
155,393,12,0.2611846087084,1
155,394,12,0.218852918043932,1
155,395,12,0.144924151321251,1
156,393,12,0.243559937848289,1
156,394,12,0.303658516823208,4
156,395,12,0.267622951437475,1
156,396,12,0.163860988966677,1
157,393,12,0.170628554023034,1
157,394,12,0.266986152665133,4
157,395,12,0.302056368232682,1
157,396,12,0.215886890443477,1
158,394,12,0.145188153357048,1
158,395,12,0.195049855248168,1
158,396,12,0.190357939511748,1
158,397,12,0.126368895955428,1
159,396,12,0.148530063233298,1
159,397,12,0.160074537677873,1
159,398,12,0.114776795859216,1
160,397,12,0.178024732928913,1
144,393,13,0.210447650034464,2
144,394,13,0.247024221153364,2
145,392,13,0.203576107016111,2
145,393,13,0.447843316411074,2
145,394,13,0.445983890376019,2
145,395,13,0.247232271292294,2
146,391,13,0.11805460424638,2
146,392,13,0.324444593513415,2
146,393,13,0.591964803559968,2
146,394,13,0.519064769755648,2
146,395,13,0.277964289334831,2
146,396,13,0.145621341869458,2
147,391,13,0.224769804639671,2
147,392,13,0.412546443254154,2
147,393,13,0.499314397889284,2
147,394,13,0.440199893951665,2
147,395,13,0.310098861619736,2
147,396,13,0.182426784628795,2
148,391,13,0.311950821120879,2
148,392,13,0.45878454437844,2
148,393,13,0.443074109094116,2
148,394,13,0.413294792514209,2
148,395,13,0.31825219888246,2
148,396,13,0.186048842626004,2
148,397,13,0.121919571909929,1
149,391,13,0.239204805188002,2
149,392,13,0.419097255066597,2
149,393,13,0.51299662107543,2
149,394,13,0.414902334909989,2
149,395,13,0.229870295235701,2
149,396,13,0.121376081257747,1
150,371,13,0.223477081462382,3
150,372,13,0.197353693150235,3
150,391,13,0.19091065145108,2
150,392,13,0.431215463158756,2
150,393,13,0.546540907938061,2
150,394,13,0.336295749361128,2
150,395,13,0.139474453054015,2
151,370,13,0.220482648057834,3
151,371,13,0.456738384334392,3
151,372,13,0.389877433901625,3
151,373,13,0.151788781318459,3
151,391,13,0.194526738576533,2
151,392,13,0.382763876258853,2
151,393,13,0.372963968061889,2
151,394,13,0.191272648800248,2
152,370,13,0.19677759235231,3
152,371,13,0.389645547383142,3
152,372,13,0.318045938827371,3
152,373,13,0.131140223108513,3
152,391,13,0.264399528623817,2
152,392,13,0.337059361441293,2
152,393,13,0.216403612276131,2
153,371,13,0.180625218343121,3
153,372,13,0.144452723320496,3
153,391,13,0.329670931714143,2
153,392,13,0.330752354337109,2
153,393,13,0.193719693409514,2
154,392,13,0.259346899216772,2
154,393,13,0.215943372299376,1
154,394,13,0.127919002569053,1
155,391,13,0.125632759306834,1
155,392,13,0.174241920692126,1
155,393,13,0.257815482491661,1
155,394,13,0.227724809092269,4
155,395,13,0.151488824506587,1
156,392,13,0.129745771350895,1
156,393,13,0.280655892371869,4
156,394,13,0.35137843050725,4
156,395,13,0.277345085202338,4
156,396,13,0.150364581193869,1
157,393,13,0.22666420797081,4
157,394,13,0.333731006739383,4
157,395,13,0.30720443737288,4
157,396,13,0.181278280969298,1
158,394,13,0.177986469886833,4
158,395,13,0.188848239330064,1
158,396,13,0.153908970750784,1
159,397,13,0.136309207965157,1
144,393,14,0.209330496395902,2
144,394,14,0.284791315794532,2
145,392,14,0.165965632934076,2
145,393,14,0.400605500569624,2
145,394,14,0.461878233221167,2
145,395,14,0.287893931502725,2
146,392,14,0.233430183150073,2
146,393,14,0.479392743263915,2
146,394,14,0.456029134274,2
146,395,14,0.250831753034757,2
147,391,14,0.151684603149718,2
147,392,14,0.292388196074101,2
147,393,14,0.40643589785141,2
147,394,14,0.373410452657558,2
147,395,14,0.257132848151522,2
148,391,14,0.243305086438438,2
148,392,14,0.37302026148791,2
148,393,14,0.366747525067769,2
148,394,14,0.330665181964849,2
148,395,14,0.257308064384228,2
149,391,14,0.24200680457975,2
149,392,14,0.409701010775551,2
149,393,14,0.428295836415732,2
149,394,14,0.311514817937168,2
149,395,14,0.180270322444976,2
150,371,14,0.192258455037051,3
150,372,14,0.17625363339912,3
150,391,14,0.200950195345254,2
150,392,14,0.412604479656545,2
150,393,14,0.476432133022449,2
150,394,14,0.277407384830716,2
151,370,14,0.204107903238997,3
151,371,14,0.454097680918121,3
151,372,14,0.41442099078691,3
151,373,14,0.15575442942114,3
151,391,14,0.163057300206858,2
151,392,14,0.315858621251046,2
151,393,14,0.323491232546211,2
151,394,14,0.172907165875198,2
152,370,14,0.203028977311912,3
152,371,14,0.45333194900183,3
152,372,14,0.410424581506663,3
152,373,14,0.161001777553253,3
152,392,14,0.269659101144259,2
152,393,14,0.184638574535511,2
153,371,14,0.221851355583385,3
153,372,14,0.197113068196165,3
153,392,14,0.311006763878897,2
153,393,14,0.167406991954421,1
154,393,14,0.177484999097421,1
155,392,14,0.190755314570491,1
155,393,14,0.223259609829558,1
155,394,14,0.213607454210598,4
156,393,14,0.28804771383682,4
156,394,14,0.369691388603836,4
156,395,14,0.286487961968821,4
157,393,14,0.272362645924808,4
157,394,14,0.384368050470566,4
157,395,14,0.315112768686874,4
157,396,14,0.159792634803677,1
158,394,14,0.211109910394056,4
158,395,14,0.187247645286031,1
143,394,15,0.127315002372332,2
144,393,15,0.210787436211776,2
144,394,15,0.320781493133427,2
144,395,15,0.269653094941901,2
145,392,15,0.141888310451037,2
145,393,15,0.352538569711706,2
145,394,15,0.467754937145446,2
145,395,15,0.327733307279762,2
145,396,15,0.216378668871045,2
146,392,15,0.163323598731792,2
146,393,15,0.353153911031703,2
146,394,15,0.382769293617842,2
146,395,15,0.233185978028323,2
147,392,15,0.187776968366769,2
147,393,15,0.297644094211924,2
147,394,15,0.293633646905774,2
147,395,15,0.200253522979212,2
148,379,15,0.307493300375692,3
148,380,15,0.276909600200791,3
148,392,15,0.265541460791323,2
148,393,15,0.286028122405556,2
148,394,15,0.248461799799284,2
149,379,15,0.257023417499935,3
149,380,15,0.278254612669196,3
149,391,15,0.222834676901173,2
149,392,15,0.360865215354623,2
149,393,15,0.328829333218265,2
149,394,15,0.216054993448293,2
150,371,15,0.155141961656781,3
150,372,15,0.141966497073496,3
150,391,15,0.198914917126655,2
150,392,15,0.34852685050388,2
150,393,15,0.343403866091177,2
150,394,15,0.199483669159343,2
151,370,15,0.184241199476768,3
151,371,15,0.402395207549858,3
151,372,15,0.376749618523712,3
151,373,15,0.145335646843969,3
151,392,15,0.220190511085895,2
151,393,15,0.229323966358483,2
152,370,15,0.21224567148306,3
152,371,15,0.494376216079324,3
152,372,15,0.474298729944937,3
152,373,15,0.185111533529024,3
153,371,15,0.262872116033611,3
153,372,15,0.253579767266489,3
155,394,15,0.179084462562187,4
156,393,15,0.262553292680215,4
156,394,15,0.34528979007781,4
156,395,15,0.274443217975306,4
157,393,15,0.296183008938737,4
157,394,15,0.40484884720485,4
157,395,15,0.311717615593251,4
158,394,15,0.251123018518512,4
143,394,16,0.144969021185925,2
143,395,16,0.163299939005249,2
144,393,16,0.207070185795628,2
144,394,16,0.338660403006286,2
144,395,16,0.310794992249879,2
144,396,16,0.230745834663334,2
145,393,16,0.307486092932862,2
145,394,16,0.451836710813275,2
145,395,16,0.340562626177357,2
145,396,16,0.230665375105474,2
146,393,16,0.260201051853264,2
146,394,16,0.329307686017033,2
146,395,16,0.227123317368298,2
147,378,16,0.236720969645077,3
147,379,16,0.260955101117125,3
147,380,16,0.186874389251658,3
147,393,16,0.20679540792619,2
147,394,16,0.229509828879291,2
148,378,16,0.256123476403115,3
148,379,16,0.378527242438026,3
148,380,16,0.343288476344702,3
148,381,16,0.182044978588713,3
148,393,16,0.207646310147288,2
149,378,16,0.209186418200517,3
149,379,16,0.379140440368162,3
149,380,16,0.419315315542789,3
149,381,16,0.245741390544664,3
149,392,16,0.276279726226462,2
149,393,16,0.228951346274949,2
150,371,16,0.119911309825073,3
150,379,16,0.227412298139783,3
150,380,16,0.280477590599912,3
150,392,16,0.262615945614615,2
150,393,16,0.214753319851804,2
151,370,16,0.161637999259094,3
151,371,16,0.331624925994165,3
151,372,16,0.309026177432356,3
152,370,16,0.217038432534755,3
152,371,16,0.501029156885586,3
152,372,16,0.490582133380466,3
152,373,16,0.201241555043948,3
153,370,16,0.150880184224123,3
153,371,16,0.309403673138982,3
153,372,16,0.314435598813193,3
154,371,16,0.119091616302501,3
156,394,16,0.299601974858178,4
157,393,16,0.30598027911741,4
157,394,16,0.399664152007136,4
157,395,16,0.288934935916883,4
158,394,16,0.287925517061006,4
143,394,17,0.173273591326497,2
143,395,17,0.250969730812845,2
143,396,17,0.2548862693786,2
144,393,17,0.195493348519525,2
144,394,17,0.346105550126681,2
144,395,17,0.371371712039953,2
144,396,17,0.29564911643346,2
145,393,17,0.264858873558653,2
145,394,17,0.43091270345245,2
145,395,17,0.361200573429804,2
145,396,17,0.244960230932121,2
146,378,17,0.193635853890719,3
146,393,17,0.213642831920172,2
146,394,17,0.324681638299805,2
146,395,17,0.269749170625892,2
147,377,17,0.291751562177903,3
147,378,17,0.323449613096932,3
147,379,17,0.256672137100072,3
147,380,17,0.167625017100011,3
147,394,17,0.201420045245782,2
148,377,17,0.222112472286676,3
148,378,17,0.318532606094501,3
148,379,17,0.39949654363075,3
148,380,17,0.362958671298022,3
148,381,17,0.204099942076656,3
149,378,17,0.266614451177253,3
149,379,17,0.476837068830043,3
149,380,17,0.513149861673627,3
149,381,17,0.285638402310603,3
150,379,17,0.283054863808537,3
150,380,17,0.324579721289599,3
150,381,17,0.208820958452342,3
151,371,17,0.255371923835136,3
151,372,17,0.245656950405633,3
151,380,17,0.14212758106536,3
152,370,17,0.206871674919267,3
152,371,17,0.46236730296924,3
152,372,17,0.466105092242078,3
152,373,17,0.205109761346022,3
153,370,17,0.16824173631349,3
153,371,17,0.344243839379357,3
153,372,17,0.359509886350403,3
153,373,17,0.173210903061496,3
154,371,17,0.143144490008883,3
154,372,17,0.145451272127792,3
156,394,17,0.239384708613921,4
157,393,17,0.289594958671675,4
157,394,17,0.351150359693794,4
157,395,17,0.233927614473977,4
158,394,17,0.293952847118926,4
142,395,18,0.152580281020551,2
142,396,18,0.215964170247148,2
143,394,18,0.184389340691394,2
143,395,18,0.340799035012909,2
143,396,18,0.408827496969105,2
143,397,18,0.296439344233876,2
144,393,18,0.178310851921627,2
144,394,18,0.345707845315652,2
144,395,18,0.444430568677603,2
144,396,18,0.399281215387787,2
144,397,18,0.259781300746522,2
145,393,18,0.237454715589595,2
145,394,18,0.437091366256053,2
145,395,18,0.418757563104224,2
145,396,18,0.289401276310935,2
145,397,18,0.190018753954672,2
146,377,18,0.222314633991921,3
146,378,18,0.214060957819218,3
146,393,18,0.204278738477042,2
146,394,18,0.368058172637193,2
146,395,18,0.360603038733269,2
146,396,18,0.265208340320941,2
147,376,18,0.157023422210682,3
147,377,18,0.364113722895775,3
147,378,18,0.393665463290656,3
147,379,18,0.253676573116257,3
147,380,18,0.166686989614122,3
147,394,18,0.204155316907022,2
147,395,18,0.22795514106426,2
148,377,18,0.270414069003775,3
148,378,18,0.379127250276709,3
148,379,18,0.422598093767983,3
148,380,18,0.393854270028306,3
148,381,18,0.241390073589405,3
149,377,18,0.155876473097678,3
149,378,18,0.316313302546404,3
149,379,18,0.536617578171077,3
149,380,18,0.558618697821411,3
149,381,18,0.316327246357368,3
149,382,18,0.181568545419326,3
150,378,18,0.186968933942891,3
150,379,18,0.306169980896979,3
150,380,18,0.32262589188572,3
150,381,18,0.207893223948533,3
151,371,18,0.193046339240861,3
151,372,18,0.202133534978427,3
151,380,18,0.12961185659205,3
152,370,18,0.183165971486037,3
152,371,18,0.40160413181499,3
152,372,18,0.423652688687085,3
152,373,18,0.195446323488123,3
153,370,18,0.177711480033782,3
153,371,18,0.363488229916107,3
153,372,18,0.376967137264006,3
153,373,18,0.174741153876737,3
154,371,18,0.163949680554828,3
154,372,18,0.158652151190858,3
157,394,18,0.282544148178241,4
142,395,19,0.154630221439024,2
142,396,19,0.246022881228502,2
142,397,19,0.235196407056774,2
143,394,19,0.169717201141734,2
143,395,19,0.35630492966478,2
143,396,19,0.506421690238616,2
143,397,19,0.411171753079981,2
143,398,19,0.243410677831263,2
144,393,19,0.153815745068696,2
144,394,19,0.313227645527221,2
144,395,19,0.458539161569953,2
144,396,19,0.475462614193217,2
144,397,19,0.341639832681806,2
144,398,19,0.223699028304806,2
144,399,19,0.241289876001835,2
144,400,19,0.253410368806263,2
145,393,19,0.207970032677509,2
145,394,19,0.43294247009712,2
145,395,19,0.470143898244851,2
145,396,19,0.338591885191937,2
145,397,19,0.231260695750944,2
145,399,19,0.199653138280773,2
146,377,19,0.204278361617286,3
146,378,19,0.20188680960706,3
146,393,19,0.198078312022542,2
146,394,19,0.407975275738862,2
146,395,19,0.451998336541038,2
146,396,19,0.336018569010747,2
146,397,19,0.244622305499854,2
147,376,19,0.144008629428903,3
147,377,19,0.362844977420448,3
147,378,19,0.410579470866291,3
147,379,19,0.268313829584772,3
147,380,19,0.193753693225607,3
147,394,19,0.222585525495128,2
147,395,19,0.282522926263243,2
147,396,19,0.280240946227012,2
147,397,19,0.258482995334099,2
147,398,19,0.214200984772228,2
148,377,19,0.285308767792962,3
148,378,19,0.417269720788376,3
148,379,19,0.448061000027511,3
148,380,19,0.43203715874878,3
148,381,19,0.276633456214738,3
149,377,19,0.162072765871731,3
149,378,19,0.324329981040186,3
149,379,19,0.510676719526272,3
149,380,19,0.532655039161382,3
149,381,19,0.317290005264731,3
149,382,19,0.17788319853688,3
150,378,19,0.1850400832747,3
150,379,19,0.273641919919563,3
150,380,19,0.276907974993094,3
150,381,19,0.190509107381288,3
151,371,19,0.141719571495383,3
151,372,19,0.168172076143006,3
152,370,19,0.15200474551226,3
152,371,19,0.334898353386669,3
152,372,19,0.372853218401157,3
152,373,19,0.178536802898956,3
153,370,19,0.185297878901394,3
153,371,19,0.391415139473911,3
153,372,19,0.389185213191448,3
153,373,19,0.166529509343672,3
154,371,19,0.212006436199339,3
154,372,19,0.183678948274868,3
142,395,20,0.135751961931889,2
142,396,20,0.238842077673057,2
142,397,20,0.262297216476158,2
142,398,20,0.18478849405711,2
143,394,20,0.147402840373136,2
143,395,20,0.313887809604422,2
143,396,20,0.53008772918255,2
143,397,20,0.511324353016593,2
143,398,20,0.315929164686583,2
143,399,20,0.287905755477562,2
143,400,20,0.301448681876475,2
144,394,20,0.272636034123897,2
144,395,20,0.434972142526852,2
144,396,20,0.523835248974282,2
144,397,20,0.443033314025552,2
144,398,20,0.305993563423801,2
144,399,20,0.344212442250953,2
144,400,20,0.355496259290064,2
144,401,20,0.203356444885957,2
145,393,20,0.179881603383748,2
145,394,20,0.416908123852698,2
145,395,20,0.513897739858987,2
145,396,20,0.386077015248123,2
145,397,20,0.27793439964545,2
145,398,20,0.250839667089629,2
145,399,20,0.303695731724092,2
145,400,20,0.284342758470206,2
146,378,20,0.16781566102897,3
146,379,20,0.115191647789133,3
146,393,20,0.185973317575571,2
146,394,20,0.429919489566072,2
146,395,20,0.528845882072292,2
146,396,20,0.383232454257705,2
146,397,20,0.291223746536188,2
146,398,20,0.278829323796772,2
146,399,20,0.275599753458348,2
146,400,20,0.214270232752354,2
147,377,20,0.290353318268993,3
147,378,20,0.367907381627409,3
147,379,20,0.280809721813434,3
147,380,20,0.228536918312256,3
147,394,20,0.250773716632366,2
147,395,20,0.340885783417945,2
147,396,20,0.337381411656348,2
147,397,20,0.35474602573123,2
147,398,20,0.344821800922327,2
147,399,20,0.27795637527996,2
148,377,20,0.276872455961111,3
148,378,20,0.440464449500227,3
148,379,20,0.466547902455128,3
148,380,20,0.448480209398355,3
148,381,20,0.277873159935135,3
148,395,20,0.151485444545652,2
148,396,20,0.188873300503824,2
148,397,20,0.23868078169758,2
148,398,20,0.245794457109026,2
148,399,20,0.19712619940328,2
149,377,20,0.17606827728361,3
149,378,20,0.318254577809668,3
149,379,20,0.430897016665115,3
149,380,20,0.448173869524369,3
149,381,20,0.274681016481208,3
149,398,20,0.132825304399046,1
149,399,20,0.122086638550416,1
150,377,20,0.125958495681376,1
150,378,20,0.174543090521336,3
150,379,20,0.216359072163744,3
150,380,20,0.215867105306298,3
150,382,20,0.17912194833102,1
150,383,20,0.243503102686369,1
151,383,20,0.205493922759578,1
152,371,20,0.273625432305247,3
152,372,20,0.323353820057758,3
153,370,20,0.186441389169126,3
153,371,20,0.424629791818902,3
153,372,20,0.423140206526683,3
153,373,20,0.184600935667402,3
153,398,20,0.134755674283128,1
154,371,20,0.303975526539029,3
154,372,20,0.266342735293331,3
154,373,20,0.120466082716194,1
155,372,20,0.114051623474142,1
155,390,20,0.195541492353327,1
156,389,20,0.220176025539032,1
156,390,20,0.271583017305023,1
156,391,20,0.248685466064344,1
156,392,20,0.167195338094077,1
157,390,20,0.267379311605358,1
157,391,20,0.29406922612226,1
157,392,20,0.209646516854864,1
157,393,20,0.18775539314575,1
158,380,20,0.229510582598802,1
158,381,20,0.211529049103696,1
158,391,20,0.222603308564854,1
158,392,20,0.220839769783912,1
158,393,20,0.260213394010266,1
158,394,20,0.229888408057714,1
158,397,20,0.162545065360672,1
158,398,20,0.178214246278604,1
159,380,20,0.176334316717461,1
159,381,20,0.182013416584166,1
159,383,20,0.150271167081903,1
159,384,20,0.123183724406983,1
159,394,20,0.221253161382276,1
159,395,20,0.163442439100406,1
159,396,20,0.166662293523251,1
159,397,20,0.20555772982698,1
159,398,20,0.182395952790025,1
160,384,20,0.159648238632873,1
142,396,21,0.192634525742725,2
142,397,21,0.244879653605587,2
142,398,21,0.192658456337217,2
142,399,21,0.16804519217398,2
142,400,21,0.199209527240742,2
143,395,21,0.23598046377869,2
143,396,21,0.443822081494415,2
143,397,21,0.530511272440585,2
143,398,21,0.377425492941982,2
143,399,21,0.30367175402213,2
143,400,21,0.289079838492983,2
143,401,21,0.210688887385637,2
144,394,21,0.21909959630783,2
144,395,21,0.364259120100305,2
144,396,21,0.483280192967269,2
144,397,21,0.514030017633268,2
144,398,21,0.408933441667951,2
144,399,21,0.422894917933135,2
144,400,21,0.426923972689727,2
144,401,21,0.24141376864655,2
145,393,21,0.14200903511843,2
145,394,21,0.350586012209502,2
145,395,21,0.495337208456582,2
145,396,21,0.394118519378317,2
145,397,21,0.318657158243788,2
145,398,21,0.307054117437791,2
145,399,21,0.39372823399373,2
145,400,21,0.411515119424972,2
145,401,21,0.238159419779183,2
146,393,21,0.15666779614676,2
146,394,21,0.397747160644385,2
146,395,21,0.54570635200887,2
146,396,21,0.389498501417181,2
146,397,21,0.300095048741157,2
146,398,21,0.320844946894808,2
146,399,21,0.360680483413083,2
146,400,21,0.309631861721111,2
146,401,21,0.183473335947484,2
147,378,21,0.288129492403826,3
147,379,21,0.284374296921018,3
147,380,21,0.256871755001965,3
147,381,21,0.163451672164422,1
147,393,21,0.123735635519333,1
147,394,21,0.267596429932161,2
147,395,21,0.377715722061408,2
147,396,21,0.354046362040876,2
147,397,21,0.395200954811877,2
147,398,21,0.449529434065936,2
147,399,21,0.399255777354271,2
147,400,21,0.253200575690963,2
148,377,21,0.251679899468892,3
148,378,21,0.437506901244278,3
148,379,21,0.488709705683837,3
148,380,21,0.449014360994714,3
148,381,21,0.258234786077444,3
148,394,21,0.125555667933041,1
148,395,21,0.171636971845185,2
148,396,21,0.209319755892862,2
148,397,21,0.293399075261531,2
148,398,21,0.353368485555154,2
148,399,21,0.299329952775704,2
148,400,21,0.178171449142588,2
149,377,21,0.225973965774351,3
149,378,21,0.335736607252214,3
149,379,21,0.383698252915858,3
149,380,21,0.368273288896543,3
149,381,21,0.222491993614488,3
149,382,21,0.120348090282031,1
149,383,21,0.127550245298015,1
149,384,21,0.133560039600423,1
149,397,21,0.154588802196489,2
149,398,21,0.196524213050879,2
149,399,21,0.176747861415101,2
149,400,21,0.123787359520815,1
150,376,21,0.16363775844571,1
150,377,21,0.186717674477588,1
150,378,21,0.191758633009071,3
150,379,21,0.188566866414899,3
150,380,21,0.176477405655987,3
150,381,21,0.138441091826779,1
150,382,21,0.15272013132055,1
150,383,21,0.198446127144191,1
150,384,21,0.167953839013803,1
151,376,21,0.133180435834539,1
151,377,21,0.138477435239477,1
151,378,21,0.116351056827813,1
151,382,21,0.16289229451816,1
151,383,21,0.192208156036521,1
151,384,21,0.147734724272444,1
152,371,21,0.197495451302748,3
152,372,21,0.256747956572189,3
152,382,21,0.130564192971792,1
152,383,21,0.118576908314167,1
152,398,21,0.125253838599258,1
153,370,21,0.159679647538145,3
153,371,21,0.383929762574585,3
153,372,21,0.427212458832782,3
153,373,21,0.219748219055009,3
153,379,21,0.134320365934591,1
153,380,21,0.129907185095046,1
153,381,21,0.118711647453728,1
153,397,21,0.144123265455867,1
153,398,21,0.193559692889448,1
153,399,21,0.129132691189433,1
154,370,21,0.165203269201852,3
154,371,21,0.374544706307539,3
154,372,21,0.3926211377999,3
154,373,21,0.201558517652299,3
154,379,21,0.118176365278102,1
154,380,21,0.117853490682331,1
154,397,21,0.126291427721879,1
154,398,21,0.156901001674388,1
155,371,21,0.198260688590609,3
155,372,21,0.204241853328444,3
155,373,21,0.126987216822869,1
155,384,21,0.115426219433376,1
155,388,21,0.143752977192071,1
155,389,21,0.160002263042833,1
155,390,21,0.158955334864389,1
155,391,21,0.122136713790467,1
156,384,21,0.116253120398778,1
156,388,21,0.152706152178984,1
156,389,21,0.207628597738766,1
156,390,21,0.257453155390206,1
156,391,21,0.226758682000839,1
156,392,21,0.161745498504432,1
156,393,21,0.130955832696126,1
157,380,21,0.121324439694337,1
157,389,21,0.152622418651995,1
157,390,21,0.264656829622081,1
157,391,21,0.30829412735674,1
157,392,21,0.232736926075567,1
157,393,21,0.187040713949502,1
157,394,21,0.131457138609395,1
157,397,21,0.123343489389702,1
157,398,21,0.119772036591575,1
157,403,21,0.147530748929624,1
158,378,21,0.122376196388402,1
158,379,21,0.168941140912762,1
158,380,21,0.21332407922798,1
158,381,21,0.196634197215233,1
158,382,21,0.150244775122131,1
158,383,21,0.122105187116522,1
158,384,21,0.118226216757672,1
158,390,21,0.189051413845903,1
158,391,21,0.267674675438957,1
158,392,21,0.251072283773889,1
158,393,21,0.252095410903382,1
158,394,21,0.199347316588952,1
158,395,21,0.133339188006664,1
158,396,21,0.14132846173008,1
158,397,21,0.201213431884672,1
158,398,21,0.201405489037715,1
158,399,21,0.135687554244251,1
159,379,21,0.136611649696044,1
159,380,21,0.187696120172285,1
159,381,21,0.19512082265093,1
159,382,21,0.165802535097891,1
159,383,21,0.153587521155965,1
159,384,21,0.172492726135639,1
159,385,21,0.117552721266611,1
159,391,21,0.159230807569002,1
159,392,21,0.216747543910757,1
159,393,21,0.288608928674392,1
159,394,21,0.25819170629661,1
159,395,21,0.182794093345147,1
159,396,21,0.171894213959111,1
159,397,21,0.212300433916323,1
159,398,21,0.190957052308511,1
159,399,21,0.140709622680475,1
160,380,21,0.117847390265034,1
160,381,21,0.115864742866704,1
160,383,21,0.134953007472752,1
160,384,21,0.192187911601515,1
160,385,21,0.135248065107799,1
160,393,21,0.226065424926333,1
160,394,21,0.229502197469236,1
160,395,21,0.186775228028417,1
160,396,21,0.170695222869207,1
160,397,21,0.175993458845219,1
160,398,21,0.132214591387925,1
161,384,21,0.179106120221277,1
161,385,21,0.149302731724469,1
161,394,21,0.125232510692453,1
161,395,21,0.113889479564214,1
142,396,22,0.144849650858279,2
142,397,22,0.212051565155095,2
142,398,22,0.207759815594984,2
142,399,22,0.200125696860796,2
142,400,22,0.24655006091938,2
143,395,22,0.169851104123713,2
143,396,22,0.323780967037208,2
143,397,22,0.488003329179083,2
143,398,22,0.441390393920197,2
143,399,22,0.317157868812858,2
143,400,22,0.279841050918652,2
143,401,22,0.223703621283079,2
144,394,22,0.167176200684603,2
144,395,22,0.287224534361507,2
144,396,22,0.399654259438547,2
144,397,22,0.552215991892993,2
144,398,22,0.547234612533526,2
144,399,22,0.468720263409895,2
144,400,22,0.457170124292116,2
144,401,22,0.276058226904998,2
145,394,22,0.267272730955675,2
145,395,22,0.436041152331612,2
145,396,22,0.374609031557105,2
145,397,22,0.358652954373212,2
145,398,22,0.384703432099482,2
145,399,22,0.460607603447061,2
145,400,22,0.554212689094093,2
145,401,22,0.343991908632613,2
145,402,22,0.131231140524596,2
146,393,22,0.124751743635875,2
146,394,22,0.334428503486141,2
146,395,22,0.516342476202249,2
146,396,22,0.379325101648498,2
146,397,22,0.299747466277647,2
146,398,22,0.345004295259067,2
146,399,22,0.426702614690672,2
146,400,22,0.429671704276642,2
146,401,22,0.253103510750113,2
147,378,22,0.196819906636764,3
147,379,22,0.247639821564443,3
147,380,22,0.236543704237449,3
147,381,22,0.152804171046091,1
147,393,22,0.118578957489089,1
147,394,22,0.269872921948199,2
147,395,22,0.394824707453193,2
147,396,22,0.352004041255591,2
147,397,22,0.40133401758503,2
147,398,22,0.525284133412876,2
147,399,22,0.523914625060345,2
147,400,22,0.343536944692439,2
147,401,22,0.167122992797833,2
148,377,22,0.216029390538634,3
148,378,22,0.368858363667403,3
148,379,22,0.444713637461669,3
148,380,22,0.388104167428237,3
148,381,22,0.21566343616203,3
148,394,22,0.144982576360266,1
148,395,22,0.193676166107721,2
148,396,22,0.231332511088156,2
148,397,22,0.36238268826877,2
148,398,22,0.50249504712066,2
148,399,22,0.443731823582904,2
148,400,22,0.23838864472564,2
149,376,22,0.237524882165376,3
149,377,22,0.311567790286591,3
149,378,22,0.352798178975974,3
149,379,22,0.348312252426694,3
149,380,22,0.289138369523804,3
149,381,22,0.170869355630115,1
149,396,22,0.13029887192685,1
149,397,22,0.227362670420692,2
149,398,22,0.313862324463436,2
149,399,22,0.262200622610003,2
149,400,22,0.151203718324466,1
150,375,22,0.239876133735468,1
150,376,22,0.302768067881487,3
150,377,22,0.304682421225947,3
150,378,22,0.236212397404642,3
150,379,22,0.183181210752412,3
150,380,22,0.148323862062546,1
150,381,22,0.118516245670352,1
150,382,22,0.122172703897144,1
150,383,22,0.143253991321674,1
150,384,22,0.115848620335277,1
150,397,22,0.124474516178024,1
150,398,22,0.156135681948455,2
150,399,22,0.140615796378152,1
150,400,22,0.117283926045795,1
151,374,22,0.208037914541021,1
151,375,22,0.196457567758442,1
151,376,22,0.201390343986279,1
151,377,22,0.193055501643674,1
151,378,22,0.154789880429937,1
151,379,22,0.118314213510648,1
151,382,22,0.138075031458368,1
151,383,22,0.165216270863427,1
151,384,22,0.120102895903421,1
152,372,22,0.190559795018442,3
152,373,22,0.202002717535699,1
152,374,22,0.164221372885016,1
152,375,22,0.11481351613167,1
152,378,22,0.117174566055413,1
152,379,22,0.123281731497222,1
152,398,22,0.123786323156487,1
153,371,22,0.278076993955546,3
153,372,22,0.381676777185815,3
153,373,22,0.271814668286159,3
153,374,22,0.142970828322669,1
153,379,22,0.141241324688422,1
153,380,22,0.128166929180892,1
153,397,22,0.144124184051521,1
153,398,22,0.203393965985392,1
153,399,22,0.13538660817552,1
154,370,22,0.142308968376567,3
154,371,22,0.366947543383153,3
154,372,22,0.505692136858881,3
154,373,22,0.334722242112043,3
154,374,22,0.144565510379283,3
154,397,22,0.125001907852514,1
154,398,22,0.172814623251418,1
154,399,22,0.115189103985782,1
155,371,22,0.244051951813204,3
155,372,22,0.335892956943396,3
155,373,22,0.238223768582483,3
155,374,22,0.114613132733398,1
155,388,22,0.119336327829548,1
155,389,22,0.1319232434661,1
155,390,22,0.122574754372233,1
156,371,22,0.149417226429024,1
156,372,22,0.168435701319047,3
156,373,22,0.13152397233171,1
156,388,22,0.133505595142579,1
156,389,22,0.179486772128357,1
156,390,22,0.215012811347398,1
156,391,22,0.19820554929759,1
156,392,22,0.171896710654994,1
156,393,22,0.151106217639524,1
157,371,22,0.140191581838676,1
157,372,22,0.129379228130923,1
157,389,22,0.134851950173864,1
157,390,22,0.229847283236864,1
157,391,22,0.306168120151935,1
157,392,22,0.278209554374645,1
157,393,22,0.205705929925943,1
157,394,22,0.115679822495286,1
157,397,22,0.141025619585703,1
157,398,22,0.119186467192286,1
157,403,22,0.135601088484033,1
157,404,22,0.171546266412713,1
158,378,22,0.115396282636526,1
158,379,22,0.143847321676559,1
158,380,22,0.177411405453236,1
158,381,22,0.165156361939124,1
158,382,22,0.119107621065254,1
158,384,22,0.118448198930698,1
158,390,22,0.176173091403188,1
158,391,22,0.292461118436846,1
158,392,22,0.296027224537188,1
158,393,22,0.247411632982314,1
158,394,22,0.162912303415819,1
158,395,22,0.116370547543308,1
158,396,22,0.158684749559734,1
158,397,22,0.232475456066255,1
158,398,22,0.198892140665165,1
158,399,22,0.115075351223871,1
158,403,22,0.148299413285889,1
159,379,22,0.137638015464063,1
159,380,22,0.207508544352813,1
159,381,22,0.218695579095891,1
159,382,22,0.150537571598643,1
159,383,22,0.137686724587499,1
159,384,22,0.194444123851944,1
159,385,22,0.170739280130032,1
159,391,22,0.170831657877669,1
159,392,22,0.222571934990185,1
159,393,22,0.292111180599863,1
159,394,22,0.263470192466046,1
159,395,22,0.184952793133766,1
159,396,22,0.17875915015487,1
159,397,22,0.216941556023783,1
159,398,22,0.18372865843203,1
159,399,22,0.123931791022221,1
160,380,22,0.173818919169989,1
160,381,22,0.181275843157753,1
160,382,22,0.118906660600481,1
160,383,22,0.122186671261843,1
160,384,22,0.200891899851781,1
160,385,22,0.190870504110221,1
160,392,22,0.152972686241265,1
160,393,22,0.280262921861521,1
160,394,22,0.310923360104194,1
160,395,22,0.22550614149501,1
160,396,22,0.169372857316751,1
160,397,22,0.157999053234079,1
160,398,22,0.124067472311172,1
161,380,22,0.118150844806515,1
161,384,22,0.158848848429644,1
161,385,22,0.166355247037223,1
161,393,22,0.156291207258922,1
161,394,22,0.1859128198079,1
161,395,22,0.150793836232578,1
161,396,22,0.116490589152393,1
162,384,22,0.120256807783058,1
162,385,22,0.147776402606061,1
142,397,23,0.187848218414348,2
142,398,23,0.261083092111685,2
142,399,23,0.268916475441746,2
142,400,23,0.279509084581273,2
143,396,23,0.2108527507182,2
143,397,23,0.385596919472984,2
143,398,23,0.466727146376475,2
143,399,23,0.333569475226559,2
143,400,23,0.270668072479176,2
143,401,23,0.21951108005368,2
144,394,23,0.121449309819043,1
144,395,23,0.209957850120614,2
144,396,23,0.297225662114326,2
144,397,23,0.497268379167645,2
144,398,23,0.620183402568751,2
144,399,23,0.465570375356085,2
144,400,23,0.418831710261175,2
144,401,23,0.27763514944562,2
145,394,23,0.183251318443856,2
145,395,23,0.339083734280709,2
145,396,23,0.331422575859042,2
145,397,23,0.38109839167562,2
145,398,23,0.488593727093993,2
145,399,23,0.508333499779725,2
145,400,23,0.599387433309955,2
145,401,23,0.392490391018377,2
145,402,23,0.142837820382611,2
146,394,23,0.244797333302682,2
146,395,23,0.420282808750834,2
146,396,23,0.342604405226743,2
146,397,23,0.300372888596111,2
146,398,23,0.378321170812815,2
146,399,23,0.457886204935581,2
146,400,23,0.482164499660261,2
146,401,23,0.28415451702219,2
147,378,23,0.127303955670741,1
147,379,23,0.184459860573196,3
147,380,23,0.178669445756126,1
147,381,23,0.123481113861769,1
147,394,23,0.237926261359024,2
147,395,23,0.356846571348785,2
147,396,23,0.324207430958351,2
147,397,23,0.374699972526924,2
147,398,23,0.526931151868075,2
147,399,23,0.564057443601995,2
147,400,23,0.391210645948927,2
147,401,23,0.183065114393895,2
148,377,23,0.171614760673328,3
148,378,23,0.260927213495197,3
148,379,23,0.335457471941849,3
148,380,23,0.284909225790623,3
148,381,23,0.165375800308799,1
148,394,23,0.157940651748799,1
148,395,23,0.204424818739879,2
148,396,23,0.253710490494278,2
148,397,23,0.425453984104809,2
148,398,23,0.618309561648038,2
148,399,23,0.553272376895934,2
148,400,23,0.29652708189577,2
148,401,23,0.130207966287634,2
149,375,23,0.167285831542935,1
149,376,23,0.280073337850626,3
149,377,23,0.352274626560246,3
149,378,23,0.332736662273738,3
149,379,23,0.296999899566875,3
149,380,23,0.217245988045255,1
149,381,23,0.132555449260168,1
149,396,23,0.175882438316537,2
149,397,23,0.33198058738869,2
149,398,23,0.447945304082484,2
149,399,23,0.34943668416929,2
149,400,23,0.187269138068978,2
150,374,23,0.226267751507722,1
150,375,23,0.306826046624335,3
150,376,23,0.390317818079998,3
150,377,23,0.386581135832692,3
150,378,23,0.273301968866108,3
150,379,23,0.186320617394264,1
150,380,23,0.129207391859151,1
150,396,23,0.114517551677836,1
150,397,23,0.179155759717235,2
150,398,23,0.2138782750526,2
150,399,23,0.175093505971531,2
150,400,23,0.137322218765581,1
151,373,23,0.207905707427943,1
151,374,23,0.309138505193316,3
151,375,23,0.291368413574941,3
151,376,23,0.247660360421133,3
151,377,23,0.223326879295966,3
151,378,23,0.194798572229129,1
151,379,23,0.159882668954708,1
151,382,23,0.115961006980573,1
151,383,23,0.130968280844935,1
151,400,23,0.127965179666004,1
151,401,23,0.128836974049814,1
152,373,23,0.221169262979144,1
152,374,23,0.249970251633028,3
152,375,23,0.174275826293279,1
152,378,23,0.160382714743168,1
152,379,23,0.189775526312913,1
152,380,23,0.135041593069097,1
152,398,23,0.115194014939474,1
153,372,23,0.287912397630758,3
153,373,23,0.28965937813618,3
153,374,23,0.196208121930713,1
153,378,23,0.123836940132436,1
153,379,23,0.180387207853607,1
153,380,23,0.146957027058907,1
153,397,23,0.127141976636956,1
153,398,23,0.1749167469692,1
153,399,23,0.127655153632532,1
154,371,23,0.283288940824351,3
154,372,23,0.493610578377973,3
154,373,23,0.422929306385851,3
154,374,23,0.212357669491733,3
154,398,23,0.162745342767138,1
154,399,23,0.125818880918724,1
155,371,23,0.243546135359733,3
155,372,23,0.413773215974181,3
155,373,23,0.34264312756665,3
155,374,23,0.167332703475061,3
155,393,23,0.13008308438606,1
155,394,23,0.117551225604455,1
156,371,23,0.181813398268782,1
156,372,23,0.248166318197012,3
156,373,23,0.196360632363133,3
156,388,23,0.118561657270925,1
156,389,23,0.141826375905547,1
156,390,23,0.159750885808856,1
156,391,23,0.175370709875648,1
156,392,23,0.196570519693372,1
156,393,23,0.177143905687831,1
157,371,23,0.160846841086155,1
157,372,23,0.168529833819922,1
157,373,23,0.119934404261982,1
157,389,23,0.121890965899091,1
157,390,23,0.188640919356911,1
157,391,23,0.286923423416633,1
157,392,23,0.312189349792558,1
157,393,23,0.216183643947425,1
157,397,23,0.136200271942,1
157,404,23,0.140160608677497,1
158,379,23,0.115233962073588,1
158,380,23,0.131728088996939,1
158,381,23,0.123746835320201,1
158,390,23,0.159481749058887,1
158,391,23,0.283492374431272,1
158,392,23,0.320075941009389,1
158,393,23,0.232073629351647,1
158,394,23,0.130614362426781,1
158,396,23,0.156133903641483,1
158,397,23,0.225790694164364,1
158,398,23,0.166700050160034,1
158,403,23,0.13036331494509,1
158,404,23,0.156803383220772,1
159,379,23,0.132383259682375,1
159,380,23,0.199283533075285,1
159,381,23,0.212818451204387,1
159,382,23,0.128497458740452,1
159,384,23,0.175457528941887,1
159,385,23,0.204464365460502,1
159,386,23,0.122709257974447,1
159,391,23,0.168626675000292,1
159,392,23,0.222334843096325,1
159,393,23,0.260283960999538,1
159,394,23,0.228429960802817,1
159,395,23,0.172358670054385,1
159,396,23,0.194087614522969,1
159,397,23,0.223888235455946,1
159,398,23,0.165499740060983,1
159,403,23,0.129346335340363,1
160,379,23,0.138797389172141,1
160,380,23,0.22366558200148,1
160,381,23,0.241910446250943,1
160,382,23,0.139559317160271,1
160,384,23,0.185548313985982,1
160,385,23,0.243647816832592,1
160,386,23,0.155017703929177,1
160,392,23,0.1446469238634,1
160,393,23,0.278269734166897,1
160,394,23,0.336137845123454,1
160,395,23,0.251088606512061,1
160,396,23,0.189646816929445,1
160,397,23,0.156665994286052,1
160,398,23,0.117772677818449,1
161,379,23,0.116892992933503,1
161,380,23,0.153710848511046,1
161,381,23,0.157680453641162,1
161,384,23,0.141714813640966,1
161,385,23,0.180781250058884,1
161,386,23,0.119015891045322,1
161,393,23,0.170292677765689,1
161,394,23,0.246309506626514,1
161,395,23,0.212861530985221,1
161,396,23,0.148119486306235,1
162,384,23,0.124580507984339,1
162,385,23,0.141757740322524,1
162,394,23,0.120245089800027,1
162,395,23,0.124907445599352,1
141,398,24,0.165018113293087,2
141,399,24,0.193523278815545,2
142,397,24,0.179670715019783,2
142,398,24,0.333830215070094,2
142,399,24,0.351016291835673,2
142,400,24,0.27725315497566,2
143,396,24,0.139531076232322,2
143,397,24,0.285625447756497,2
143,398,24,0.454942836027943,2
143,399,24,0.375601303294093,2
143,400,24,0.268209062572663,2
143,401,24,0.196943646182203,2
144,396,24,0.224111948828475,2
144,397,24,0.386132060326202,2
144,398,24,0.562421825154409,2
144,399,24,0.434846883765522,2
144,400,24,0.352571686262746,2
144,401,24,0.250743685620577,2
145,394,24,0.124911002213297,1
145,395,24,0.245022389238091,2
145,396,24,0.291937989988344,2
145,397,24,0.38083946546966,2
145,398,24,0.553602317612126,2
145,399,24,0.531207473731933,2
145,400,24,0.524036162331586,2
145,401,24,0.351150854322223,2
145,402,24,0.13621548765464,2
146,394,24,0.168356054365035,1
146,395,24,0.30160524355127,2
146,396,24,0.298291021090203,2
146,397,24,0.318200121574957,2
146,398,24,0.443978101433311,2
146,399,24,0.486449300868624,2
146,400,24,0.449979734366633,2
146,401,24,0.264843469416135,2
147,379,24,0.126083672004634,1
147,380,24,0.125904286760879,1
147,394,24,0.191448854289813,1
147,395,24,0.285344640130966,2
147,396,24,0.291745767959157,2
147,397,24,0.364290328798831,2
147,398,24,0.514895052095208,2
147,399,24,0.542790729400752,2
147,400,24,0.382678211325615,2
147,401,24,0.182163548089378,2
148,377,24,0.134608416333554,3
148,378,24,0.172599024140505,1
148,379,24,0.219339844402144,3
148,380,24,0.192654605301588,1
148,381,24,0.126686023439923,1
148,394,24,0.159221762934863,1
148,395,24,0.210362314853513,2
148,396,24,0.297416730010511,2
148,397,24,0.51187296660608,2
148,398,24,0.697351373107363,2
148,399,24,0.619310925126634,2
148,400,24,0.359576826064525,2
148,401,24,0.156422601768151,2
149,375,24,0.14626279250441,3
149,376,24,0.257421899584211,3
149,377,24,0.326488680828805,3
149,378,24,0.284389913047149,3
149,379,24,0.233927496705304,1
149,380,24,0.166946716647064,1
149,381,24,0.113915518217966,1
149,395,24,0.143334168234717,1
149,396,24,0.281511199141363,2
149,397,24,0.507596691849692,2
149,398,24,0.597846642198419,2
149,399,24,0.455094898939404,2
149,400,24,0.270496766166436,2
149,401,24,0.141673099976748,1
150,374,24,0.228303948321975,3
150,375,24,0.314769473003086,3
150,376,24,0.383729296738241,3
150,377,24,0.395531837677459,3
150,378,24,0.295065054473193,3
150,379,24,0.195404079864873,1
150,380,24,0.12656624092192,1
150,396,24,0.180708092158792,1
150,397,24,0.279206230660028,2
150,398,24,0.29131480527468,2
150,399,24,0.229696233135997,2
150,400,24,0.177144459200598,1
150,401,24,0.13387948712779,1
151,373,24,0.209269609991607,3
151,374,24,0.398635748841062,3
151,375,24,0.384327490939349,3
151,376,24,0.265665353436038,3
151,377,24,0.219836003824373,3
151,378,24,0.215285893347935,1
151,379,24,0.199722716013186,1
151,380,24,0.140701661518134,1
151,397,24,0.131531909940317,1
151,398,24,0.133070180802236,2
151,399,24,0.133610833229383,1
151,400,24,0.145511133944625,1
151,401,24,0.15914730957936,1
151,402,24,0.131912915153418,1
152,373,24,0.223967847079356,3
152,374,24,0.345056160582957,3
152,375,24,0.264759382583125,3
152,376,24,0.133072489068241,1
152,378,24,0.184949154081749,1
152,379,24,0.256909181886462,1
152,380,24,0.190859528069834,1
152,400,24,0.120001379306706,1
152,401,24,0.153485604145759,1
152,402,24,0.134913354760323,1
153,372,24,0.204800335932786,3
153,373,24,0.286582506660054,3
153,374,24,0.260974250303466,3
153,375,24,0.155214295176157,1
153,378,24,0.145001407571188,1
153,379,24,0.22282417193548,1
153,380,24,0.170727868345552,1
153,398,24,0.13171926812328,1
153,399,24,0.119000840208826,1
153,401,24,0.115968084877862,1
154,371,24,0.193311530740262,3
154,372,24,0.398628258753416,3
154,373,24,0.470155722219689,3
154,374,24,0.314448364937421,3
154,375,24,0.143221180969185,3
154,379,24,0.115714823345105,1
154,398,24,0.128751226678505,1
154,399,24,0.126819773322625,1
155,371,24,0.222958946405644,3
155,372,24,0.441700737929088,3
155,373,24,0.441891758717803,3
155,374,24,0.248716486332993,3
155,392,24,0.118139986534801,1
155,393,24,0.135141790656667,1
155,394,24,0.12279592394141,1
156,371,24,0.216512642514227,3
156,372,24,0.36339938522868,3
156,373,24,0.286585286000753,3
156,374,24,0.139154228253402,1
156,388,24,0.123107410306436,1
156,389,24,0.117786515637607,1
156,390,24,0.12292906142701,1
156,391,24,0.175370321239024,1
156,392,24,0.234301294475575,1
156,393,24,0.191363059811035,1
157,371,24,0.172128408743599,1
157,372,24,0.228438369486118,3
157,373,24,0.154653233437862,1
157,388,24,0.147461159420344,1
157,389,24,0.142359196715893,1
157,390,24,0.167788538903421,1
157,391,24,0.265795958895153,1
157,392,24,0.322556667459328,1
157,393,24,0.210131394038154,1
157,397,24,0.116583755950144,1
158,388,24,0.127144767754523,1
158,389,24,0.133508339152676,1
158,390,24,0.168448385005203,1
158,391,24,0.2621530205121,1
158,392,24,0.307806093972995,1
158,393,24,0.206488738299918,1
158,396,24,0.135632450281835,1
158,397,24,0.183630074275289,1
158,398,24,0.129303337997601,1
158,403,24,0.113886240925688,1
159,378,24,0.114567909562703,1
159,379,24,0.133502297619716,1
159,380,24,0.177527984663315,1
159,381,24,0.191086597849563,1
159,382,24,0.119404951635703,1
159,384,24,0.141011911312086,1
159,385,24,0.20301265457374,1
159,386,24,0.159712387229429,1
159,390,24,0.121627222954377,1
159,391,24,0.17089998726214,1
159,392,24,0.221551964061146,1
159,393,24,0.223736620065445,1
159,394,24,0.180460848605261,1
159,395,24,0.149777115718933,1
159,396,24,0.195586173788123,1
159,397,24,0.210037862157515,1
159,398,24,0.141082831607378,1
160,378,24,0.147541677862542,1
160,379,24,0.188013860053883,1
160,380,24,0.25453465922645,1
160,381,24,0.280791420561544,1
160,382,24,0.179727597289172,1
160,383,24,0.121993448198931,1
160,384,24,0.178108454679034,1
160,385,24,0.285871984697986,1
160,386,24,0.243353748454404,1
160,387,24,0.130095638526674,1
160,392,24,0.140845551283641,1
160,393,24,0.233161105284441,1
160,394,24,0.284209703422678,1
160,395,24,0.232385928320521,1
160,396,24,0.19860096939635,1
160,397,24,0.156203481373895,1
161,378,24,0.126020218243253,1
161,379,24,0.159235223894265,1
161,380,24,0.189131790965692,1
161,381,24,0.207742833352239,1
161,382,24,0.161690135450933,1
161,383,24,0.124287864607103,1
161,384,24,0.148473852245349,1
161,385,24,0.204624837055263,1
161,386,24,0.175792616149119,1
161,393,24,0.159784190789774,1
161,394,24,0.263675416156807,1
161,395,24,0.249182426313554,1
161,396,24,0.164990366993567,1
162,381,24,0.114975259628107,1
162,382,24,0.124751213676844,1
162,383,24,0.131404001383829,1
162,384,24,0.145582466430275,1
162,385,24,0.13592648332942,1
162,394,24,0.158326567915592,1
162,395,24,0.180603030724999,1
162,396,24,0.120151404820112,1
163,382,24,0.125313818184765,1
163,383,24,0.156848394407853,1
163,384,24,0.166275882728027,1
163,385,24,0.119621104259382,1
141,398,25,0.158594526978825,2
141,399,25,0.168234752631141,2
142,397,25,0.163429378554494,2
142,398,25,0.342450151817953,2
142,399,25,0.366512741439913,2
142,400,25,0.23487918535734,2
143,397,25,0.198749240156517,2
143,398,25,0.393377401114827,2
143,399,25,0.41218451656619,2
143,400,25,0.270714661766485,2
144,397,25,0.257129197322638,2
144,398,25,0.406225986967436,2
144,399,25,0.389688886255058,2
144,400,25,0.295749785095724,2
144,401,25,0.204631667638337,2
145,396,25,0.244352450360975,2
145,397,25,0.340513728624044,2
145,398,25,0.510785537780756,2
145,399,25,0.489656942680008,2
145,400,25,0.381035408988934,2
145,401,25,0.25165592176693,2
146,384,25,0.116994733290698,1
146,395,25,0.194272393571979,1
146,396,25,0.250413014738608,2
146,397,25,0.348150061409297,2
146,398,25,0.510788222906516,2
146,399,25,0.495157776105358,2
146,400,25,0.354810939824165,2
146,401,25,0.207500842281554,2
147,383,25,0.124183168256198,1
147,384,25,0.140051295794584,1
147,394,25,0.145012984231811,1
147,395,25,0.207946526050242,1
147,396,25,0.254625694411208,2
147,397,25,0.36285190221846,2
147,398,25,0.485383070404563,2
147,399,25,0.46803541501869,2
147,400,25,0.316414560052037,2
147,401,25,0.164486116863457,2
148,379,25,0.127327203206926,1
148,380,25,0.12200853436603,1
148,394,25,0.147456860863755,1
148,395,25,0.214381830347536,2
148,396,25,0.335950168965072,2
148,397,25,0.539542857810437,2
148,398,25,0.642191164372282,2
148,399,25,0.580242910608489,2
148,400,25,0.385676083575434,2
148,401,25,0.182798792315227,2
149,376,25,0.1996552581169,1
149,377,25,0.255022033105622,3
149,378,25,0.218197629589822,1
149,379,25,0.163773051098037,1
149,380,25,0.124371091728795,1
149,395,25,0.203773416652001,2
149,396,25,0.403562954610634,2
149,397,25,0.628888203422866,2
149,398,25,0.635596024431064,2
149,399,25,0.525874107360561,2
149,400,25,0.381697433811179,2
149,401,25,0.206984403093717,2
150,374,25,0.1886121955774,3
150,375,25,0.255883817152169,3
150,376,25,0.295278945938337,3
150,377,25,0.328694582301837,3
150,378,25,0.28179278404014,1
150,379,25,0.19045324969936,1
150,380,25,0.127339651355734,1
150,395,25,0.146319521674524,1
150,396,25,0.270976108222062,2
150,397,25,0.386012972643373,2
150,398,25,0.360765182643196,2
150,399,25,0.295138966092797,2
150,400,25,0.239944675103552,2
150,401,25,0.181548936935158,1
151,373,25,0.172128479404803,3
151,374,25,0.379893099961673,3
151,375,25,0.384826783008298,3
151,376,25,0.23782465054737,3
151,377,25,0.192372184245227,1
151,378,25,0.215729739925314,1
151,379,25,0.222493477499777,1
151,380,25,0.178990447829985,1
151,381,25,0.126825803078718,1
151,396,25,0.142383939914234,1
151,397,25,0.191927466179663,2
151,398,25,0.198657616128392,2
151,399,25,0.175358567925391,2
151,400,25,0.160769467067545,1
151,401,25,0.181307546484709,1
151,402,25,0.155848844566832,1
152,373,25,0.191868299198005,3
152,374,25,0.365640028460449,3
152,375,25,0.318163613286115,3
152,376,25,0.150597115440057,1
152,378,25,0.18159931837376,1
152,379,25,0.290862008278101,1
152,380,25,0.251230635532524,1
152,381,25,0.151220417922395,1
152,397,25,0.116636469208485,1
152,398,25,0.131219351880361,1
152,399,25,0.133759292419428,1
152,400,25,0.148436731559404,1
152,401,25,0.186527207201639,1
152,402,25,0.15725242339666,1
153,372,25,0.145464285566234,3
153,373,25,0.255425814780214,3
153,374,25,0.300541462675621,3
153,375,25,0.194702225677189,3
153,378,25,0.144020264973863,1
153,379,25,0.238484555533488,1
153,380,25,0.193222650722233,1
153,399,25,0.126611982274778,1
153,400,25,0.149690426198235,1
153,401,25,0.170019183574794,1
153,402,25,0.150033451014073,1
154,371,25,0.131601087259238,3
154,372,25,0.302325045684824,3
154,373,25,0.469465692006842,3
154,374,25,0.405185759826524,3
154,375,25,0.182311500874126,3
154,399,25,0.119501769262338,1
154,400,25,0.117084626119321,1
155,371,25,0.201643994155659,3
155,372,25,0.439441133940856,3
155,373,25,0.496849876408843,3
155,374,25,0.323368258497151,3
155,375,25,0.124352390063414,3
155,392,25,0.122123311715402,1
155,393,25,0.122552083902549,1
155,394,25,0.120144515352701,1
156,371,25,0.249942575994712,3
156,372,25,0.464268419114779,3
156,373,25,0.359808241508313,3
156,374,25,0.166939297220622,3
156,388,25,0.116403746532419,1
156,391,25,0.172135510194622,1
156,392,25,0.246828065650477,1
156,393,25,0.181064789917645,1
157,371,25,0.176691473774141,1
157,372,25,0.271983218811935,3
157,373,25,0.176381365302598,3
157,387,25,0.140732540464374,1
157,388,25,0.193926365654962,1
157,389,25,0.161019537069245,1
157,390,25,0.148325934791203,1
157,391,25,0.228119758116334,1
157,392,25,0.294080037286504,1
157,393,25,0.187199842981383,1
158,387,25,0.127694040848583,1
158,388,25,0.190661158515881,1
158,389,25,0.193768755838971,1
158,390,25,0.193852925110052,1
158,391,25,0.232923448100947,1
158,392,25,0.255952240751579,1
158,393,25,0.171619765841959,1
158,397,25,0.121138282751845,1
159,379,25,0.120050159091346,1
159,380,25,0.137993547313046,1
159,381,25,0.143987737266191,1
159,385,25,0.156288828331713,1
159,386,25,0.158410584087398,1
159,387,25,0.122845940297124,1
159,388,25,0.118982056105373,1
159,389,25,0.139802403479622,1
159,390,25,0.173764910456238,1
159,391,25,0.196379793326341,1
159,392,25,0.212026221336518,1
159,393,25,0.183587901313243,1
159,394,25,0.13584441034073,1
159,395,25,0.125237916274576,1
159,396,25,0.166355871211193,1
159,397,25,0.161379485243491,1
160,378,25,0.15811651570921,1
160,379,25,0.197099701451701,1
160,380,25,0.225770555721164,1
160,381,25,0.246930100429356,1
160,382,25,0.187031198240668,1
160,383,25,0.124690986777122,1
160,384,25,0.159728121124233,1
160,385,25,0.266264372017862,1
160,386,25,0.28522312641346,1
160,387,25,0.176846162927025,1
160,390,25,0.121579844616954,1
160,391,25,0.141601743937363,1
160,392,25,0.160116062912214,1
160,393,25,0.184177781045989,1
160,394,25,0.197694174162721,1
160,395,25,0.185216606739685,1
160,396,25,0.182281410978,1
160,397,25,0.141770035372057,1
161,378,25,0.130840242742906,1
161,379,25,0.170160788628031,1
161,380,25,0.185598989846268,1
161,381,25,0.214988362570741,1
161,382,25,0.201678995005478,1
161,383,25,0.152530135119297,1
161,384,25,0.158021535273885,1
161,385,25,0.206572448273172,1
161,386,25,0.215760830855166,1
161,387,25,0.145332879280138,1
161,393,25,0.142119572795549,1
161,394,25,0.223592329886448,1
161,395,25,0.227114790916323,1
161,396,25,0.151750153193491,1
162,381,25,0.13378304636091,1
162,382,25,0.174260810787384,1
162,383,25,0.168929352268526,1
162,384,25,0.151210289816458,1
162,385,25,0.119915525943591,1
162,394,25,0.171993222083077,1
162,395,25,0.207006520050635,1
162,396,25,0.126380825922072,1
163,381,25,0.116062464692952,1
163,382,25,0.197496758535026,1
163,383,25,0.222727389639447,1
163,384,25,0.186867299577503,1
163,395,25,0.134422848234431,1
142,398,26,0.277794937982074,2
142,399,26,0.312821791123973,2
143,397,26,0.139307692612079,2
143,398,26,0.31601263912249,2
143,399,26,0.423923321099209,2
143,400,26,0.287459836171527,2
144,397,26,0.170271184982742,2
144,398,26,0.287619624707981,2
144,399,26,0.378954530739885,2
144,400,26,0.294087291836803,2
145,396,26,0.198950530373577,2
145,397,26,0.283573893907195,2
145,398,26,0.417970067537037,2
145,399,26,0.417547230891043,2
145,400,26,0.282591962259757,2
145,401,26,0.164437289971347,2
146,384,26,0.133166574461646,1
146,395,26,0.127468113424988,1
146,396,26,0.218892535425759,2
146,397,26,0.387829954848433,2
146,398,26,0.571235302940599,2
146,399,26,0.480571089505323,2
146,400,26,0.265787927071607,2
147,382,26,0.132635755718753,1
147,383,26,0.185591217113804,1
147,384,26,0.18527202867752,1
147,385,26,0.124192342435878,1
147,395,26,0.153077406145904,1
147,396,26,0.244616841033395,2
147,397,26,0.421563189771122,2
147,398,26,0.540824840484687,2
147,399,26,0.43134387812054,2
147,400,26,0.251401282340691,2
148,382,26,0.13941164702034,1
148,383,26,0.154740558909398,1
148,384,26,0.124659412995707,1
148,394,26,0.131567216988687,1
148,395,26,0.223029230750098,2
148,396,26,0.374659106797156,2
148,397,26,0.546377586341397,2
148,398,26,0.57400041718375,2
148,399,26,0.511469067162815,2
148,400,26,0.373950940208562,2
148,401,26,0.20524371143547,2
149,376,26,0.134974311825821,1
149,377,26,0.171576120771492,1
149,378,26,0.153496639070483,1
149,382,26,0.123080382395826,1
149,394,26,0.135961731493454,1
149,395,26,0.295800119426857,2
149,396,26,0.522918961585555,2
149,397,26,0.66433511387006,2
149,398,26,0.591224321247315,2
149,399,26,0.546189627538198,2
149,400,26,0.474860156766121,2
149,401,26,0.313017923073125,2
149,402,26,0.193225818699555,2
150,375,26,0.178357264555925,1
150,376,26,0.191254229779684,1
150,377,26,0.228960814876313,1
150,378,26,0.237427958546934,1
150,379,26,0.177773920984569,1
150,380,26,0.135477549145339,1
150,381,26,0.118700530090932,1
150,395,26,0.224236053456803,2
150,396,26,0.381528412210708,2
150,397,26,0.489025325729308,2
150,398,26,0.425008535873469,2
150,399,26,0.345276953292379,2
150,400,26,0.313583707335236,2
150,401,26,0.28563595272219,2
151,374,26,0.28376844775612,3
151,375,26,0.308977845168677,3
151,376,26,0.186961596954521,1
151,377,26,0.155235552421757,1
151,378,26,0.208464990859267,1
151,379,26,0.242875395655636,1
151,380,26,0.22521007104937,1
151,381,26,0.161482603494168,1
151,395,26,0.126107531937922,1
151,396,26,0.206345296055371,2
151,397,26,0.304629778628811,2
151,398,26,0.303257773580398,2
151,399,26,0.215891177223199,2
151,400,26,0.181568557196194,2
151,401,26,0.208071855472776,1
152,374,26,0.314897699534993,3
152,375,26,0.316906150049727,1
152,376,26,0.155378394046068,1
152,378,26,0.173995395527504,1
152,379,26,0.30898248525442,1
152,380,26,0.319216653658724,5
152,381,26,0.202786774257615,1
152,397,26,0.150273675554653,2
152,398,26,0.17531211996049,2
152,399,26,0.171185800056303,1
152,400,26,0.182072194929201,1
152,401,26,0.199587870881818,1
152,402,26,0.171355186739662,1
153,373,26,0.212948938894829,3
153,374,26,0.293002783674586,3
153,375,26,0.216340865126793,1
153,378,26,0.131452133440763,1
153,379,26,0.236742544866096,1
153,380,26,0.22884160942481,1
153,381,26,0.139335768663885,1
153,398,26,0.114019331303818,1
153,399,26,0.174672647839256,1
153,400,26,0.226210327502434,1
153,401,26,0.229799374940409,1
153,402,26,0.198357682870254,1
153,403,26,0.139549954550713,1
154,372,26,0.247637843050725,3
154,373,26,0.409751886842582,3
154,374,26,0.395811514723722,3
154,375,26,0.187299310403176,3
154,399,26,0.13885986545353,1
154,400,26,0.164011002703215,1
154,401,26,0.151984077110028,1
154,402,26,0.136326696613199,1
155,371,26,0.1975287798374,3
155,372,26,0.41929557751308,3
155,373,26,0.462696160213634,3
155,374,26,0.315719701323569,3
155,375,26,0.124320804505132,3
155,394,26,0.114532873382282,1
156,371,26,0.266755538048326,3
156,372,26,0.47851286994909,3
156,373,26,0.360231431460328,3
156,374,26,0.176489594713713,3
156,391,26,0.158744658484036,1
156,392,26,0.217630526318566,1
156,393,26,0.15076840997593,1
156,394,26,0.118337001749006,1
156,395,26,0.114681250134256,1
157,372,26,0.268289616345463,3
157,373,26,0.182093911472628,3
157,387,26,0.148747158006367,1
157,388,26,0.220155981310771,1
157,389,26,0.18741680820891,1
157,390,26,0.150069547112557,1
157,391,26,0.196420871039722,1
157,392,26,0.246129673861799,1
157,393,26,0.156972322383171,1
158,387,26,0.143644076499516,1
158,388,26,0.247200991932563,1
158,389,26,0.265837060162268,1
158,390,26,0.226537583092865,1
158,391,26,0.204510436565647,1
158,392,26,0.198476864768022,1
158,393,26,0.136577273020196,1
159,379,26,0.121017840729269,1
159,380,26,0.115817329198679,1
159,386,26,0.13678668927574,1
159,387,26,0.138725397181918,1
159,388,26,0.159820216227053,1
159,389,26,0.198992479575143,1
159,390,26,0.23847591131284,1
159,391,26,0.23916207871319,1
159,392,26,0.202919146246835,1
159,393,26,0.145627560055429,1
159,396,26,0.125054903755671,1
160,378,26,0.14816269563261,1
160,379,26,0.187523989478829,1
160,380,26,0.182694307947935,1
160,381,26,0.182184593351365,1
160,382,26,0.161043373448798,1
160,383,26,0.118480102464399,1
160,384,26,0.13762867640824,1
160,385,26,0.21273815652267,1
160,386,26,0.269302850906367,1
160,387,26,0.208901229580325,1
160,388,26,0.126031900895683,1
160,389,26,0.122622674445555,1
160,390,26,0.19395084976222,1
160,391,26,0.246462017058934,1
160,392,26,0.214817762870043,1
160,393,26,0.159438798823595,1
160,394,26,0.134520466688047,1
160,395,26,0.13934362383442,1
160,396,26,0.148110064812341,1
160,397,26,0.118084870795517,1
161,378,26,0.119891018282597,1
161,379,26,0.157417652845838,1
161,380,26,0.159970677484552,1
161,381,26,0.187944941826044,1
161,382,26,0.213274121756604,1
161,383,26,0.176589191681047,1
161,384,26,0.166660703646156,1
161,385,26,0.194265504104568,1
161,386,26,0.229761830287239,1
161,387,26,0.184085485736424,1
161,391,26,0.148429253248625,1
161,392,26,0.141872282134549,1
161,393,26,0.138263661543007,1
161,394,26,0.168515854678356,1
161,395,26,0.17430298374943,1
161,396,26,0.127770767139487,1
162,381,26,0.142247763996854,1
162,382,26,0.214904487721344,1
162,383,26,0.203747672419933,1
162,384,26,0.152174238187425,1
162,394,26,0.158828262465484,1
162,395,26,0.187985937101353,1
162,396,26,0.116260033419923,1
163,381,26,0.139361889755708,1
163,382,26,0.272155373059125,1
163,383,26,0.277268747548056,1
163,384,26,0.178799886339098,1
163,395,26,0.144601500485961,1
164,384,26,0.179184130190725,1
142,399,27,0.220350912019452,2
143,398,27,0.223907761502042,2
143,399,27,0.355513100210401,2
143,400,27,0.260278826285365,2
144,398,27,0.217746222263593,2
144,399,27,0.355506128304919,2
144,400,27,0.284883693542169,2
145,397,27,0.211810610448738,2
145,398,27,0.299270032074534,2
145,399,27,0.322132558911659,2
145,400,27,0.220429628600942,2
146,383,27,0.118276692411213,1
146,384,27,0.120308472900203,1
146,396,27,0.190407343470358,2
146,397,27,0.371238256578935,2
146,398,27,0.517635529131824,2
146,399,27,0.385987911469614,2
146,400,27,0.190667529801127,2
147,382,27,0.175167818004626,1
147,383,27,0.224857777838913,1
147,384,27,0.191473703479961,1
147,385,27,0.118602958744786,1
147,395,27,0.124140276905243,1
147,396,27,0.245422190331512,2
147,397,27,0.482754614930354,2
147,398,27,0.596564141342005,2
147,399,27,0.395243916824037,2
147,400,27,0.196019008994512,2
148,381,27,0.146382975435904,1
148,382,27,0.201397056800679,1
148,383,27,0.199140703227841,1
148,384,27,0.138489989380092,1
148,394,27,0.11898341044512,1
148,395,27,0.224616328504127,2
148,396,27,0.38905891806579,2
148,397,27,0.537526281257219,2
148,398,27,0.540319188907359,2
148,399,27,0.433275755443645,2
148,400,27,0.31256484343173,2
148,401,27,0.197944950776463,2
149,381,27,0.154379032634924,1
149,382,27,0.169498021863142,1
149,383,27,0.134752459198336,1
149,394,27,0.15274658216466,2
149,395,27,0.365144740526405,2
149,396,27,0.579603756462674,2
149,397,27,0.623339885668287,2
149,398,27,0.526167869540197,2
149,399,27,0.493793873541694,2
149,400,27,0.46824655069687,2
149,401,27,0.384520772886599,2
149,402,27,0.251641247790189,2
150,377,27,0.139270536595532,1
150,378,27,0.174854800646842,1
150,379,27,0.164967072349913,1
150,380,27,0.160085172189107,1
150,381,27,0.158851898638293,1
150,382,27,0.142217756538799,1
150,394,27,0.133185652986783,2
150,395,27,0.299174380357768,2
150,396,27,0.488318619472268,2
150,397,27,0.590293430543051,2
150,398,27,0.502846186198114,2
150,399,27,0.374764415545163,2
150,400,27,0.36428236763649,2
150,401,27,0.39498689847059,2
150,402,27,0.298094700711172,2
151,375,27,0.197623465851042,1
151,376,27,0.136138973347347,1
151,377,27,0.124614048502604,1
151,378,27,0.184319892504523,1
151,379,27,0.244816812241309,1
151,380,27,0.264778414000792,5
151,381,27,0.206290462960904,1
151,382,27,0.132354100158771,1
151,395,27,0.167638430951944,2
151,396,27,0.306835114812209,2
151,397,27,0.467852308284847,2
151,398,27,0.435651196699312,2
151,399,27,0.261048632997765,2
151,400,27,0.205198676694654,2
151,401,27,0.228806396591379,2
152,374,27,0.229073472389558,1
152,375,27,0.256243152929312,1
152,376,27,0.150184583553011,1
152,378,27,0.161669372833763,1
152,379,27,0.29037140753727,5
152,380,27,0.357160330649213,5
152,381,27,0.247638172803011,5
152,382,27,0.121531641898815,1
152,396,27,0.142106465142168,2
152,397,27,0.211792780271543,2
152,398,27,0.231347656139592,2
152,399,27,0.199605653951544,1
152,400,27,0.189027612796951,1
152,401,27,0.175359698504658,1
153,373,27,0.174450347690811,3
153,374,27,0.257437892570097,1
153,375,27,0.219904592299926,1
153,376,27,0.116918784273039,1
153,378,27,0.115674522904971,1
153,379,27,0.214482004381372,1
153,380,27,0.262223893699922,5
153,381,27,0.170678016865981,1
153,398,27,0.144847507468418,1
153,399,27,0.223685791105884,1
153,400,27,0.268698132320736,1
153,401,27,0.244707711342009,1
153,402,27,0.221956758546331,1
154,372,27,0.225616208097435,3
154,373,27,0.325301690366749,3
154,374,27,0.317009056316791,3
154,375,27,0.174814194008156,1
154,380,27,0.131529554566843,1
154,399,27,0.17633154915363,1
154,400,27,0.217884435579028,1
154,401,27,0.201751092987507,1
154,402,27,0.176503326541064,1
155,371,27,0.217860434323331,3
155,372,27,0.399578086660408,3
155,373,27,0.399474544442506,3
155,374,27,0.269559421738853,3
155,375,27,0.120188702159067,1
155,395,27,0.130714548237483,1
155,396,27,0.115972795624809,1
155,400,27,0.122899619258589,1
155,401,27,0.113798291280181,1
156,371,27,0.272973182282918,3
156,372,27,0.427411016816613,3
156,373,27,0.336382356443755,3
156,374,27,0.197248407955962,3
156,391,27,0.138720462674491,1
156,392,27,0.158361556988544,1
156,393,27,0.116439960399577,1
156,394,27,0.123856124649379,1
156,395,27,0.155942129133256,1
156,396,27,0.131343197417606,1
157,372,27,0.229819819582161,3
157,373,27,0.189005872699789,3
157,374,27,0.130428181930555,1
157,387,27,0.133313290675321,1
157,388,27,0.208529410323772,1
157,389,27,0.223808623832536,1
157,390,27,0.188099430772182,1
157,391,27,0.186486529901749,1
157,392,27,0.190382011428649,1
157,393,27,0.12791637632763,1
158,387,27,0.150298913381423,1
158,388,27,0.261569712271345,1
158,389,27,0.310486768077115,1
158,390,27,0.254249447052523,1
158,391,27,0.197087889253731,1
158,392,27,0.164460667053074,1
158,393,27,0.116618391717075,1
159,379,27,0.120971463425572,1
159,386,27,0.121630803122057,1
159,387,27,0.158667154919885,1
159,388,27,0.193845317253733,1
159,389,27,0.230855076885043,1
159,390,27,0.264244757032863,1
159,391,27,0.265614288939128,1
159,392,27,0.1940730229843,1
159,393,27,0.120884491260057,1
160,378,27,0.116445024452545,1
160,379,27,0.152600772769772,1
160,380,27,0.137208442449935,1
160,381,27,0.1192225161833,1
160,382,27,0.113762725140729,1
160,385,27,0.149324189176814,1
160,386,27,0.211507968511106,1
160,387,27,0.212926798384176,1
160,388,27,0.152860923769939,1
160,389,27,0.143977691598326,1
160,390,27,0.246881556182064,1
160,391,27,0.342196501648573,6
160,392,27,0.259080153170879,1
160,393,27,0.144915248009521,1
161,379,27,0.124693012398309,1
161,380,27,0.134691878992594,1
161,381,27,0.158960669785307,1
161,382,27,0.192859558124399,1
161,383,27,0.170078550763198,1
161,384,27,0.148378235859186,1
161,385,27,0.161577878351178,1
161,386,27,0.209486186582511,1
161,387,27,0.20081860062928,1
161,388,27,0.126728196401969,1
161,390,27,0.147307377086248,1
161,391,27,0.220794570166953,1
161,392,27,0.189700260353562,1
161,393,27,0.138351481642973,1
161,394,27,0.124050548952763,1
161,395,27,0.125593542338498,1
162,380,27,0.133390158288635,1
162,381,27,0.179739291718469,1
162,382,27,0.24573187483583,1
162,383,27,0.216143178631147,1
162,384,27,0.140349179877799,1
162,394,27,0.13485836856658,1
162,395,27,0.150960867542464,1
162,396,27,0.117589382654728,1
163,380,27,0.121736206085004,1
163,381,27,0.184868965391838,1
163,382,27,0.306216570184288,1
163,383,27,0.277617413483364,1
163,384,27,0.146929233651918,1
163,395,27,0.137021979308892,1
164,381,27,0.158138726881067,1
164,382,27,0.304200841565521,1
164,383,27,0.306091099439346,1
164,384,27,0.175769580596546,1
143,399,28,0.253277690618491,2
144,399,28,0.303100293309948,2
145,397,28,0.154423407871168,2
145,398,28,0.213342050727584,2
145,399,28,0.249401264062993,2
146,396,28,0.154438152509113,2
146,397,28,0.294648271137027,2
146,398,28,0.382668248095822,2
146,399,28,0.270669956777955,2
147,381,28,0.128873129032635,1
147,382,28,0.205308743297078,1
147,383,28,0.230761545004404,1
147,384,28,0.168196689795806,1
147,396,28,0.218323547855725,2
147,397,28,0.449396355464674,2
147,398,28,0.55103632664244,2
147,399,28,0.33641231679434,2
147,400,28,0.156148306750274,2
148,381,28,0.192655347244232,1
148,382,28,0.277140002833985,1
148,383,28,0.2443976264242,1
148,384,28,0.155408931463154,1
148,394,28,0.126385100924927,1
148,395,28,0.211042994233669,2
148,396,28,0.335753825032306,2
148,397,28,0.466708821570849,2
148,398,28,0.501466031557482,2
148,399,28,0.363761170594236,2
148,400,28,0.241860347457158,2
148,401,28,0.172259909244634,2
149,380,28,0.128158956241683,1
149,381,28,0.211484508991308,1
149,382,28,0.236552654656649,1
149,383,28,0.169388485219749,1
149,394,28,0.193206799058755,2
149,395,28,0.391409580792513,2
149,396,28,0.530142986244242,2
149,397,28,0.508022967340957,2
149,398,28,0.445534438009773,2
149,399,28,0.386312081520795,2
149,400,28,0.376177286323345,2
149,401,28,0.376256591748203,2
149,402,28,0.256414577010726,2
150,378,28,0.119720689449849,1
150,379,28,0.156346228783267,1
150,380,28,0.205027393935648,5
150,381,28,0.218954552409321,1
150,382,28,0.182806305956608,1
150,383,28,0.123114052459632,1
150,394,28,0.17584349221615,2
150,395,28,0.370578492915225,2
150,396,28,0.550330892287075,2
150,397,28,0.599296044819177,2
150,398,28,0.504370583910274,2
150,399,28,0.347981393114848,2
150,400,28,0.359047997612217,2
150,401,28,0.437126225783463,2
150,402,28,0.312036109194361,2
151,378,28,0.153982305303887,1
151,379,28,0.241326784704167,5
151,380,28,0.320244656411308,5
151,381,28,0.262746221321444,5
151,382,28,0.164881760722696,1
151,394,28,0.115767783917661,1
151,395,28,0.243307441811912,2
151,396,28,0.440744550513716,2
151,397,28,0.579594334968779,2
151,398,28,0.494334384646432,2
151,399,28,0.276654159947571,2
151,400,28,0.213938949473282,2
151,401,28,0.232263119147604,2
152,375,28,0.177676655836973,1
152,376,28,0.132206488903176,1
152,377,28,0.11762996573968,1
152,378,28,0.148205045247667,1
152,379,28,0.258593956978444,5
152,380,28,0.377848117604363,5
152,381,28,0.286007136027906,5
152,382,28,0.14666139235736,1
152,395,28,0.132314482776944,1
152,396,28,0.2258841553838,2
152,397,28,0.287363784041271,2
152,398,28,0.275608115034179,2
152,399,28,0.21797061869443,2
152,400,28,0.180703346081243,1
153,374,28,0.204354793486507,1
153,375,28,0.197373796262833,1
153,376,28,0.123386993137761,1
153,379,28,0.18895865923851,1
153,380,28,0.292308019161057,5
153,381,28,0.217715013565067,1
153,397,28,0.130499337763194,2
153,398,28,0.188591762712516,2
153,399,28,0.262871385867835,1
153,400,28,0.285398813720861,1
153,401,28,0.255295303536037,1
154,372,28,0.208999731298994,3
154,373,28,0.247212556816319,3
154,374,28,0.233009372125267,1
154,375,28,0.162376338181885,1
154,380,28,0.165593024627408,1
154,381,28,0.131950954435018,1
154,398,28,0.157317243274655,1
154,399,28,0.239268141180709,1
154,400,28,0.306472740603285,2
154,401,28,0.307359585823591,2
155,371,28,0.247926635392332,3
155,372,28,0.363746590832434,3
155,373,28,0.336898253895694,3
155,374,28,0.235286782736959,3
155,375,28,0.128004655725423,1
155,395,28,0.141032815251665,1
155,396,28,0.13801317935095,1
155,399,28,0.137920554289097,1
155,400,28,0.182547733056668,1
155,401,28,0.186984349862277,1
156,371,28,0.267958121082778,3
156,372,28,0.355294097584819,3
156,373,28,0.316636624663134,3
156,374,28,0.228174096582372,3
156,375,28,0.121589548755666,1
156,389,28,0.118840604151412,1
156,390,28,0.136033758814279,1
156,391,28,0.119377558642204,1
156,394,28,0.117397655253971,1
156,395,28,0.171505506674752,1
156,396,28,0.14879784564352,1
157,372,28,0.19094774858329,3
157,373,28,0.197704584913475,3
157,374,28,0.157187803725409,1
157,388,28,0.175148115305518,1
157,389,28,0.26068993317146,1
157,390,28,0.255394323436871,1
157,391,28,0.186892007445241,1
157,392,28,0.137240004454482,1
157,395,28,0.123392198513138,1
158,373,28,0.127357622855338,1
158,387,28,0.143286742789825,1
158,388,28,0.228383324408038,1
158,389,28,0.305372757637346,1
158,390,28,0.2784130115353,1
158,391,28,0.20921840417229,1
158,392,28,0.149855632093678,1
159,386,28,0.116325147719603,1
159,387,28,0.173423075104004,1
159,388,28,0.198768931078757,1
159,389,28,0.220024692793349,1
159,390,28,0.250571766910734,1
159,391,28,0.270968264828395,6
159,392,28,0.190912959717084,1
160,379,28,0.117396783765786,1
160,386,28,0.151549145621248,1
160,387,28,0.190880267133269,1
160,388,28,0.159585420822331,1
160,389,28,0.148857530807343,1
160,390,28,0.251394993493516,6
160,391,28,0.369969393334934,6
160,392,28,0.265900749460996,6
160,393,28,0.130799977633374,1
161,381,28,0.137167894695586,1
161,382,28,0.156390710011317,1
161,383,28,0.140841606033072,1
161,384,28,0.117126116023059,1
161,385,28,0.122646864131129,1
161,386,28,0.166929310437093,1
161,387,28,0.181126088512297,1
161,388,28,0.1273536304973,1
161,390,28,0.165495606380537,1
161,391,28,0.26786494250816,6
161,392,28,0.221835409704968,1
161,393,28,0.139152438169562,1
162,380,28,0.170467104948282,1
162,381,28,0.22318602796224,1
162,382,28,0.247811339860796,1
162,383,28,0.203890478713642,1
162,384,28,0.129633761565355,1
162,386,28,0.114116714220087,1
162,391,28,0.122918403362041,1
162,392,28,0.131566734137125,1
162,393,28,0.132993442734464,1
162,394,28,0.120883643325606,1
162,395,28,0.126113279049198,1
162,396,28,0.141251193703276,1
163,381,28,0.231894927166199,1
163,382,28,0.28455441233055,1
163,383,28,0.243381636076332,1
163,384,28,0.125795751151212,1
163,393,28,0.119762897742497,1
163,394,28,0.123996045610583,1
163,395,28,0.123487202502198,1
146,397,29,0.219652802875591,2
146,398,29,0.261804448791731,2
147,381,29,0.13668089767617,1
147,382,29,0.207291284703602,1
147,383,29,0.20059055336956,1
147,384,29,0.133445933532491,1
147,396,29,0.17960319823916,2
147,397,29,0.353783384592541,2
147,398,29,0.427557144186919,2
147,399,29,0.270342771848727,2
148,381,29,0.210313252424056,1
148,382,29,0.32214504239107,1
148,383,29,0.269008335007219,1
148,384,29,0.173591872943995,1
148,385,29,0.115682166091893,1
148,394,29,0.134544491497479,1
148,395,29,0.177868336130261,2
148,396,29,0.251705620147224,2
148,397,29,0.374626579089484,2
148,398,29,0.438944385675259,2
148,399,29,0.307001121534633,2
148,400,29,0.1849544772258,2
149,380,29,0.141023758840659,1
149,381,29,0.248858586014659,1
149,382,29,0.291833811819603,5
149,383,29,0.208097953010864,1
149,384,29,0.151557483643344,1
149,385,29,0.126199473941467,1
149,393,29,0.138565479099923,1
149,394,29,0.244819685796947,2
149,395,29,0.356924204458477,2
149,396,29,0.405490592261486,2
149,397,29,0.386660959439715,2
149,398,29,0.363020334975563,2
149,399,29,0.281696519926271,2
149,400,29,0.262475094280889,2
149,401,29,0.2964761116138,2
150,379,29,0.153948647016948,1
150,380,29,0.266553753202837,5
150,381,29,0.297514383794729,5
150,382,29,0.22806513700548,1
150,383,29,0.138724643462407,1
150,393,29,0.135321117016085,1
150,394,29,0.256631177155365,2
150,395,29,0.414236517936452,2
150,396,29,0.527704939161645,2
150,397,29,0.512933873926091,2
150,398,29,0.424102894772842,2
150,399,29,0.285124695355995,2
150,400,29,0.301448611215271,2
150,401,29,0.379295989232363,2
150,402,29,0.262449514924965,2
151,378,29,0.123992135690616,1
151,379,29,0.231392266913183,5
151,380,29,0.381989735659261,5
151,381,29,0.337121920160753,5
151,382,29,0.203067134362186,5
151,383,29,0.120829681719325,1
151,394,29,0.171515352135872,2
151,395,29,0.32499961371875,2
151,396,29,0.521084266971973,2
151,397,29,0.571443941922897,2
151,398,29,0.464120972735327,2
151,399,29,0.273666298035016,2
151,400,29,0.218555316605534,2
151,401,29,0.225970998003774,2
152,378,29,0.131730656354025,1
152,379,29,0.220824483410068,5
152,380,29,0.367959623811055,5
152,381,29,0.311179318539578,5
152,382,29,0.174390756741927,5
152,395,29,0.180833551126867,2
152,396,29,0.307006256248806,2
152,397,29,0.338561288890514,2
152,398,29,0.306700693648067,2
152,399,29,0.235137923133423,2
153,375,29,0.145903020983174,1
153,379,29,0.164903465489256,1
153,380,29,0.294045719494993,5
153,381,29,0.269831184730246,5
153,382,29,0.149593031505099,1
153,396,29,0.13496706905239,2
153,397,29,0.171445927502735,2
153,398,29,0.234447068539861,2
153,399,29,0.279056523122042,1
153,400,29,0.268991658963025,2
153,401,29,0.243680344540263,2
154,374,29,0.164964410777888,1
154,375,29,0.150897896632645,1
154,380,29,0.188490705413628,1
154,381,29,0.1965536552193,1
154,382,29,0.125176158382096,1
154,397,29,0.141343771657659,1
154,398,29,0.214285189373912,1
154,399,29,0.295282267014935,2
154,400,29,0.377580052549324,2
154,401,29,0.402456588582581,2
154,402,29,0.264336969904357,2
155,372,29,0.282576275472422,3
155,373,29,0.263194189802401,3
155,374,29,0.22284117773196,1
155,375,29,0.165483346661607,1
155,381,29,0.118917683748338,1
155,395,29,0.136721845844009,1
155,396,29,0.144876243024797,1
155,397,29,0.1218474739279,1
155,398,29,0.134075171555982,1
155,399,29,0.180997155368348,1
155,400,29,0.261264079009402,2
155,401,29,0.286318657723533,2
156,372,29,0.268209156787602,3
156,373,29,0.285808837135157,3
156,374,29,0.253939362134715,1
156,375,29,0.158167462437446,1
156,389,29,0.141206618260287,1
156,390,29,0.165355355667047,1
156,395,29,0.16073167510016,1
156,396,29,0.144965111265959,1
157,373,29,0.1940372213075,1
157,374,29,0.174500375823391,1
157,388,29,0.137846218702268,1
157,389,29,0.266089862397197,1
157,390,29,0.293562255535787,1
157,391,29,0.17372668274476,1
157,395,29,0.125713006881082,1
158,374,29,0.115218287063121,1
158,387,29,0.123896896164208,1
158,388,29,0.169189303061948,1
158,389,29,0.253894727807388,1
158,390,29,0.279350049764331,1
158,391,29,0.215735840342611,1
158,392,29,0.1419721617467,1
159,387,29,0.164100554002684,1
159,388,29,0.168373507682475,1
159,389,29,0.18101222975858,1
159,390,29,0.227267419117417,1
159,391,29,0.262276818941876,1
159,392,29,0.193845611675417,1
160,387,29,0.151381077947034,1
160,388,29,0.139919018020303,1
160,389,29,0.137058805573153,1
160,390,29,0.222816069450731,1
160,391,29,0.326449958488898,6
160,392,29,0.242150364592971,1
160,393,29,0.120020952460272,1
161,382,29,0.117257616524094,1
161,386,29,0.120526545153263,1
161,387,29,0.140262290150356,1
161,388,29,0.115230535005184,1
161,390,29,0.170384737537907,1
161,391,29,0.272737409398204,1
161,392,29,0.229689755858944,1
161,393,29,0.137022144185035,1
162,381,29,0.219896725352524,1
162,382,29,0.20353950451233,1
162,383,29,0.1632666811318,1
162,386,29,0.114128785509139,1
162,391,29,0.147337961610804,1
162,392,29,0.167519260831044,1
162,393,29,0.156820177033639,1
162,394,29,0.122579606441588,1
162,395,29,0.125750527980518,1
163,392,29,0.115895480490536,1
163,393,29,0.152999937912355,1
147,382,30,0.192501282265319,1
147,383,30,0.164850481362966,1
147,397,30,0.241182824277456,2
147,398,30,0.28853398069046,2
148,381,30,0.202668416740563,1
148,382,30,0.318708152079493,5
148,383,30,0.278694784863955,1
148,384,30,0.19040491743568,1
148,396,30,0.179481531422378,2
148,397,30,0.27736275050339,2
148,398,30,0.344874113767177,2
148,399,30,0.249641629925981,2
149,381,30,0.265327851970995,5
149,382,30,0.324235389241483,5
149,383,30,0.266824597598574,5
149,394,30,0.254086149009594,1
149,395,30,0.272709757313623,2
149,396,30,0.279970384476091,2
149,397,30,0.294469757381458,2
149,398,30,0.295496370463692,2
149,399,30,0.220403224864302,2
150,380,30,0.309957963178541,5
150,381,30,0.391401195662947,5
150,382,30,0.286805018792112,5
150,394,30,0.320353097806036,2
150,395,30,0.394236311605735,2
150,396,30,0.4319647545682,2
150,397,30,0.395562221995269,2
150,398,30,0.323202345989666,2
150,399,30,0.226090792298645,2
150,400,30,0.224675589700724,2
150,401,30,0.258995383279562,2
151,379,30,0.215517685651479,5
151,380,30,0.432472290444306,5
151,381,30,0.453164387732913,5
151,382,30,0.267556765442865,5
151,394,30,0.235935876558833,2
151,395,30,0.376334907916203,2
151,396,30,0.507420321483983,2
151,397,30,0.492865008458617,2
151,398,30,0.389564640304322,2
151,399,30,0.251496722073844,2
152,379,30,0.19327591749334,5
152,380,30,0.350998390997273,5
152,381,30,0.357898057174901,5
152,382,30,0.218002816649815,5
152,395,30,0.238125054880202,2
152,396,30,0.365750330600221,2
152,397,30,0.391689399161186,2
152,398,30,0.341877419204095,2
152,399,30,0.246180926788586,2
153,379,30,0.150440000252496,1
153,380,30,0.28777844754131,5
153,381,30,0.351969440819263,5
153,382,30,0.221133696839692,5
153,396,30,0.177331122548386,2
153,397,30,0.238632802739921,2
153,398,30,0.295118615665985,2
153,399,30,0.28621337252926,2
153,400,30,0.23720332657875,2
153,401,30,0.207010241540723,2
154,380,30,0.21078526926818,1
154,381,30,0.31326577902376,5
154,398,30,0.287046609449306,2
154,399,30,0.335976478486772,2
154,400,30,0.392256690862319,2
154,401,30,0.41351648026555,2
154,402,30,0.236463433109466,2
155,374,30,0.212228312380559,1
155,375,30,0.224334036993307,1
155,399,30,0.247741243946219,2
155,400,30,0.357562769760924,2
155,401,30,0.384268041312874,2
155,402,30,0.20301081738243,2
156,374,30,0.246791251163083,1
156,400,30,0.210555267048476,2
156,401,30,0.20993406084853,2
157,374,30,0.180385818183257,1
157,389,30,0.232585805313496,1
157,390,30,0.272738963944697,1
157,391,30,0.151149627172644,1
158,388,30,0.121148505072721,1
158,389,30,0.194857091483083,1
158,390,30,0.249858512715437,1
158,391,30,0.199004256442512,1
159,388,30,0.12554305490809,1
159,389,30,0.140514067797824,1
159,390,30,0.197269830077705,1
159,391,30,0.230963636048445,1
159,392,30,0.176377702696846,1
160,390,30,0.174108253247495,1
160,391,30,0.244071666289179,1
160,392,30,0.193621874749153,1
161,391,30,0.231108585732014,1
161,392,30,0.203473177195312,1
162,392,30,0.182120856945167,1
162,393,30,0.160220594386975,1
148,382,31,0.27190626876055,5
148,398,31,0.233071012249073,2
149,381,31,0.242655309558256,5
149,382,31,0.311242795854693,5
149,383,31,0.311555565898262,5
149,395,31,0.182717849905804,2
149,396,31,0.18490211727348,2
149,397,31,0.219928216695867,2
149,398,31,0.229821374128653,2
150,380,31,0.283098838631291,5
150,381,31,0.410345535172886,5
150,382,31,0.317225986213716,5
150,383,31,0.23165778816487,5
150,394,31,0.316406033600062,2
150,395,31,0.315145084410932,2
150,396,31,0.303126437955506,2
150,397,31,0.287896946380771,2
150,398,31,0.240722419424558,2
151,379,31,0.177303823769826,5
151,380,31,0.396473515992232,5
151,381,31,0.503942094367944,5
151,382,31,0.317367709035627,5
151,383,31,0.181904551222213,5
151,394,31,0.269670736689219,2
151,395,31,0.367004943834706,2
151,396,31,0.402788083845266,2
151,397,31,0.377726509671917,2
151,398,31,0.297703920698155,2
151,399,31,0.21077940438823,2
152,379,31,0.161075724503459,5
152,380,31,0.299854258910943,5
152,381,31,0.376557985337894,5
152,382,31,0.25682170331565,5
152,395,31,0.284350060127974,2
152,396,31,0.363350770320184,2
152,397,31,0.407262539725729,2
152,398,31,0.349639905792598,2
152,399,31,0.243425446022942,2
153,380,31,0.254798814361522,5
153,381,31,0.39295355165824,5
153,382,31,0.288480867018629,5
153,396,31,0.218075927442438,2
153,397,31,0.315829179082625,2
153,398,31,0.352915029054003,2
153,399,31,0.286902366377779,2
153,400,31,0.215626480352228,2
153,401,31,0.175645687951831,2
154,380,31,0.215153403590041,5
154,381,31,0.4041224029181,5
154,382,31,0.320201929936495,5
154,397,31,0.238307831861759,2
154,398,31,0.352083087589368,2
154,399,31,0.345971835574581,2
154,400,31,0.346728169550712,2
154,401,31,0.337776761093903,2
154,402,31,0.180677484080502,2
155,381,31,0.21932451092083,5
155,398,31,0.260785584888225,2
155,399,31,0.309068998122108,2
155,400,31,0.421653824542389,2
155,401,31,0.415521845241034,2
155,402,31,0.205346735471208,2
156,399,31,0.206320800171245,2
156,400,31,0.321244747988228,2
156,401,31,0.284558793325211,2
157,400,31,0.17156221229113,2
149,381,32,0.203737638528935,5
149,382,32,0.287935056323575,5
149,383,32,0.328908544428185,5
150,380,32,0.220677955626271,5
150,381,32,0.368324918683086,5
150,382,32,0.349731129407233,5
150,383,32,0.303021718050866,5
150,384,32,0.231286510644215,5
150,395,32,0.214974489420981,2
150,396,32,0.18708493608647,2
150,397,32,0.189764903578547,2
151,379,32,0.133936357620312,5
151,380,32,0.315750580269809,5
151,381,32,0.481595158784205,5
151,382,32,0.361907067703232,5
151,383,32,0.22555621673506,5
151,395,32,0.298632550243885,2
151,396,32,0.269614113510912,2
151,397,32,0.25660206473923,2
151,398,32,0.213959370561299,2
152,380,32,0.254955682234869,5
152,381,32,0.381351029034406,5
152,382,32,0.307384152368922,5
152,383,32,0.193923880735947,5
152,395,32,0.295174414463576,2
152,396,32,0.311387109587425,2
152,397,32,0.366435909157202,2
152,398,32,0.320126251786786,2
152,399,32,0.219283315438776,2
153,380,32,0.230246778131733,5
153,381,32,0.38887955637577,5
153,382,32,0.35373156637612,5
153,383,32,0.201896042671076,5
153,396,32,0.259070543247107,2
153,397,32,0.388235879912885,2
153,398,32,0.393737867471237,2
153,399,32,0.272691573830406,2
153,400,32,0.186843345429275,2
154,380,32,0.221988791625573,5
154,381,32,0.417581478021351,5
154,382,32,0.402219261151374,5
154,383,32,0.212208645012054,5
154,396,32,0.184179983320187,2
154,397,32,0.312444978475655,2
154,398,32,0.399794168622883,2
154,399,32,0.334320368289965,2
154,400,32,0.281274319231116,2
154,401,32,0.237685447975076,2
155,381,32,0.226499661579939,5
155,382,32,0.228131111016477,5
155,397,32,0.213133741497573,2
155,398,32,0.319507377406579,2
155,399,32,0.368288174856897,2
155,400,32,0.443942252649041,2
155,401,32,0.378408013432789,2
155,402,32,0.187312335618485,2
156,398,32,0.178049075713763,2
156,399,32,0.295602597807355,2
156,400,32,0.432713103828254,2
156,401,32,0.342589825464941,2
156,402,32,0.161704844758277,2
157,399,32,0.153227938064607,2
157,400,32,0.22647634338255,2
157,401,32,0.186395000088562,2
149,382,33,0.261058808211171,5
149,383,33,0.297185479442866,5
150,381,33,0.29323905118773,5
150,382,33,0.375828031544669,5
150,383,33,0.352043305331397,5
150,384,33,0.255805642306578,5
151,380,33,0.224627280990779,5
151,381,33,0.390772287391742,5
151,382,33,0.382735682438373,5
151,383,33,0.264784820616641,5
152,380,33,0.218572275294544,5
152,381,33,0.375842634860206,5
152,382,33,0.371262140065958,5
152,383,33,0.229014847143799,5
152,396,33,0.234756588168036,2
152,397,33,0.278055206750915,2
152,398,33,0.260939649867138,2
153,380,33,0.221879431635191,5
153,381,33,0.374830248233753,5
153,382,33,0.435567816478344,5
153,383,33,0.273147644796113,5
153,395,33,0.250227953044782,2
153,396,33,0.299146021661145,2
153,397,33,0.408704782011127,2
153,398,33,0.369178812228496,2
153,399,33,0.233240222279421,2
154,380,33,0.246648539084314,5
154,381,33,0.375486879250743,5
154,382,33,0.458696406303055,5
154,383,33,0.315048608313451,5
154,384,33,0.174289840765447,5
154,396,33,0.27342171605351,2
154,397,33,0.389397738539977,2
154,398,33,0.390084659659839,2
154,399,33,0.29147805621014,2
154,400,33,0.216248134073134,2
155,381,33,0.221519035939984,5
155,382,33,0.25556970454572,5
155,383,33,0.189747768236526,5
155,397,33,0.252458515278083,2
155,398,33,0.343519609143673,2
155,399,33,0.391237402991588,2
155,400,33,0.39718220076299,2
155,401,33,0.292723389273139,2
156,398,33,0.233567148117567,2
156,399,33,0.371612077902941,2
156,400,33,0.476788406814077,2
156,401,33,0.359300776293411,2
156,402,33,0.172086447765165,2
157,399,33,0.198948551859859,2
157,400,33,0.288788949868985,2
157,401,33,0.24410379358336,2
149,382,34,0.227843190163056,5
149,383,34,0.23403782239881,5
150,381,34,0.22741964690502,5
150,382,34,0.346501888821096,5
150,383,34,0.329531281620889,5
150,384,34,0.227680645839638,5
151,381,34,0.279492125892263,5
151,382,34,0.339141700021896,5
151,383,34,0.268648787246463,5
152,380,34,0.170161083049715,5
152,381,34,0.322365199149654,5
152,382,34,0.366583167106776,5
152,383,34,0.24185299869192,5
152,396,34,0.17423527853893,2
152,397,34,0.202544123682357,2
152,398,34,0.204280552114617,2
153,380,34,0.193690604547114,5
153,381,34,0.329854179770394,5
153,382,34,0.442499916148704,5
153,383,34,0.315335327926401,5
153,384,34,0.202177745338527,5
153,395,34,0.267137485410817,2
153,396,34,0.329316141807804,2
153,397,34,0.386720950802089,2
153,398,34,0.304738008039926,2
153,399,34,0.186137357561145,2
154,380,34,0.243198764879836,5
154,381,34,0.296471306651914,5
154,382,34,0.432242641530623,5
154,383,34,0.393887575009224,5
154,384,34,0.248436832840464,5
154,395,34,0.282120251614185,2
154,396,34,0.389439193113114,2
154,397,34,0.453541718563396,2
154,398,34,0.347466649795912,2
154,399,34,0.234013986019257,2
154,400,34,0.16130041535598,2
155,381,34,0.197255356307709,5
155,382,34,0.251125632983067,5
155,383,34,0.260155357607875,5
155,396,34,0.238146488778812,2
155,397,34,0.306253855746376,2
155,398,34,0.34131603949038,2
155,399,34,0.35637957145016,2
155,400,34,0.302868712990017,2
155,401,34,0.203675291793087,2
156,397,34,0.207765185846504,2
156,398,34,0.305853913330547,2
156,399,34,0.393927922556828,2
156,400,34,0.42057218993581,2
156,401,34,0.320751203030555,2
156,402,34,0.159809393285942,2
157,398,34,0.185489194111792,2
157,399,34,0.247023326111444,2
157,400,34,0.335906099927379,2
157,401,34,0.307758656751235,2
158,400,34,0.241749291597874,2
150,382,35,0.274368293545108,5
150,383,35,0.25019323483978,5
151,382,35,0.267008764250481,5
152,381,35,0.24950442942114,5
152,382,35,0.323784782742235,5
152,383,35,0.262581651376838,5
152,396,35,0.13810890172892,2
152,397,35,0.157516872953416,2
153,381,35,0.269450203070879,5
153,382,35,0.380590596708432,5
153,383,35,0.319162008994135,5
153,384,35,0.220292734294652,5
153,395,35,0.231779042791295,2
153,396,35,0.308472382021227,2
153,397,35,0.323321457226229,2
153,398,35,0.231365368548114,2
154,381,35,0.236637212564354,5
154,382,35,0.355342618278376,5
154,383,35,0.397524436528715,5
154,384,35,0.281120631111959,5
154,394,35,0.257476073174105,2
154,395,35,0.309103033268802,2
154,396,35,0.443105623991194,2
154,397,35,0.448314767965564,2
154,398,35,0.287570915584545,2
154,399,35,0.1782734721446,2
155,382,35,0.233938449191956,5
155,383,35,0.303290089304456,5
155,395,35,0.222619937501578,2
155,396,35,0.314385005390979,2
155,397,35,0.341199848916924,2
155,398,35,0.307926783309786,2
155,399,35,0.273632474871934,2
155,400,35,0.207183455705977,2
156,396,35,0.196805856833994,2
156,397,35,0.276625047531437,2
156,398,35,0.357399683701607,2
156,399,35,0.351839447757251,2
156,400,35,0.307798368348001,2
156,401,35,0.236275497860002,2
157,398,35,0.279794108325322,2
157,399,35,0.282134525177435,2
157,400,35,0.325703022452927,2
157,401,35,0.308647268501647,2
158,400,35,0.24933620864765,2
152,382,36,0.27375716834363,5
152,383,36,0.286582176907768,5
153,382,36,0.29979591631,5
153,383,36,0.313308317068694,5
153,384,36,0.233588063834013,5
153,396,36,0.255513882194394,2
153,397,36,0.253705402887575,2
154,382,36,0.280564880740846,5
154,383,36,0.35224073273596,5
154,384,36,0.279703968182485,5
154,395,36,0.286436756149503,2
154,396,36,0.43521479310211,2
154,397,36,0.400059996073121,2
154,398,36,0.228697389907017,2
155,383,36,0.325185758884375,5
155,395,36,0.255078302977908,2
155,396,36,0.39966919250637,2
155,397,36,0.374710901459842,2
155,398,36,0.274011713554929,2
155,399,36,0.19643269501456,2
156,396,36,0.27919942363069,2
156,397,36,0.348475574023359,2
156,398,36,0.390250901919611,2
156,399,36,0.301439990548357,2
156,400,36,0.216704275700045,2
157,397,36,0.267310888005948,2
157,398,36,0.386461011785535,2
157,399,36,0.320505985098212,2
157,400,36,0.285349727737669,2
158,398,36,0.194092914113285,2
158,399,36,0.196182990095749,2
153,383,37,0.299442233429194,5
153,396,37,0.194462189566487,2
153,397,37,0.193906450972242,2
154,383,37,0.280644021289561,5
154,395,37,0.237197932773496,2
154,396,37,0.37624121115942,2
154,397,37,0.332741137483338,2
154,398,37,0.184706880366247,2
155,395,37,0.261026751578194,2
155,396,37,0.446994015843938,2
155,397,37,0.396805859189367,2
155,398,37,0.25090580597677,2
156,395,37,0.180091266953507,2
156,396,37,0.347880936436196,2
156,397,37,0.400551562517076,2
156,398,37,0.389613679180044,2
156,399,37,0.252127561751297,2
157,396,37,0.166538412655403,2
157,397,37,0.294799132808016,2
157,398,37,0.436311407883981,2
157,399,37,0.330030644351042,2
157,400,37,0.222624342049974,2
158,398,37,0.234718760870049,2
158,399,37,0.216723966622285,2
154,396,38,0.294097443496475,2
154,397,38,0.264242189675776,2
155,395,38,0.225590039898142,2
155,396,38,0.415107723476893,2
155,397,38,0.389471932804398,2
155,398,38,0.238356588092664,2
156,395,38,0.166957574918777,2
156,396,38,0.345555264222028,2
156,397,38,0.411751080739565,2
156,398,38,0.361952620626213,2
156,399,38,0.209459194002503,2
157,396,38,0.160830471240513,2
157,397,38,0.277920809140507,2
157,398,38,0.393033186835384,2
157,399,38,0.290270785982475,2
158,398,38,0.232870993933689,2
154,396,39,0.211667285972865,2
154,397,39,0.207388608735534,2
155,395,39,0.183095651810981,2
155,396,39,0.330920834201681,2
155,397,39,0.358472344335251,2
155,398,39,0.232930420006429,2
156,396,39,0.288665363422821,2
156,397,39,0.378013205731132,2
156,398,39,0.306252654505905,2
157,397,39,0.240717520247733,2
157,398,39,0.292397358476914,2
155,396,40,0.244773779567945,2
155,397,40,0.299988420984003,2
156,397,40,0.308946754238824,2
