x,y,z,signal,mito.p
846,999,34,0.165853434718657,1
846,1000,34,0.135999405692165,1
847,999,34,0.206613125573062,1
847,1000,34,0.155470383157082,1
845,999,35,0.129466223850173,1
845,1000,35,0.137501768885479,1
846,998,35,0.166655462940177,1
846,999,35,0.232443446540748,1
846,1000,35,0.22345623640714,1
846,1001,35,0.13491005723746,1
847,998,35,0.173400463518657,1
847,999,35,0.25298072513093,1
847,1000,35,0.211404332078265,1
847,1001,35,0.114977132150019,1
848,999,35,0.172818356518374,1
848,1000,35,0.147493522251873,1
845,999,36,0.15519145983033,1
845,1000,36,0.176424751281983,1
846,998,36,0.177816141054084,1
846,999,36,0.296879846180922,1
846,1000,36,0.318721295063476,1
846,1001,36,0.166731282412294,1
847,998,36,0.177119480464909,1
847,999,36,0.287480822549177,1
847,1000,36,0.271258117088065,1
847,1001,36,0.135040992448861,1
848,999,36,0.165684036258431,1
848,1000,36,0.151720840570611,1
845,999,37,0.167654800797586,1
845,1000,37,0.190408462272758,1
846,998,37,0.179350360673629,1
846,999,37,0.32720476147227,1
846,1000,37,0.355967286877329,1
846,1001,37,0.168556732184991,1
847,998,37,0.177875213820804,1
847,999,37,0.304176204358986,1
847,1000,37,0.297170145961552,1
847,1001,37,0.137574714801958,1
848,999,37,0.158497426707373,1
848,1000,37,0.149602700313208,1
845,999,38,0.172159970748146,1
845,1000,38,0.18125844872465,1
846,998,38,0.171630588783071,1
846,999,38,0.310430827957115,1
846,1000,38,0.31306399417827,1
846,1001,38,0.14488177815246,1
847,998,38,0.170695423075952,1
847,999,38,0.291180690309089,1
847,1000,38,0.269653306925514,1
847,1001,38,0.123061822052853,1
848,999,38,0.147802818119568,1
848,1000,38,0.135654072610323,1
845,999,39,0.190641550031713,1
845,1000,39,0.175309799917618,1
846,998,39,0.166763103507924,1
846,999,39,0.275485329414997,1
846,1000,39,0.23903901044919,1
846,1001,39,0.117505013176901,1
847,998,39,0.159731206663483,1
847,999,39,0.256892223197452,1
847,1000,39,0.21452063250634,1
848,999,39,0.138892228285058,1
848,1000,39,0.123350037327959,1
821,1000,40,0.144786962593278,1
822,993,40,0.116676640103079,1
823,992,40,0.117002564907498,1
823,993,40,0.16097677526383,1
824,992,40,0.138773800106802,1
825,992,40,0.131360792057455,1
825,993,40,0.166923916631839,1
826,992,40,0.118035078200284,1
826,993,40,0.148616682092793,1
827,993,40,0.140166826863468,1
827,994,40,0.176107364706406,1
828,993,40,0.142237435684172,1
831,992,40,0.117606600434821,1
834,993,40,0.125924448757814,1
837,994,40,0.121056892821462,1
838,995,40,0.120872808607628,1
840,999,40,0.119923439998462,1
841,993,40,0.124601329485846,1
841,999,40,0.122772346652939,1
841,1000,40,0.161466210094792,1
841,1005,40,0.1605673053623,1
842,1001,40,0.118389691453612,1
842,1002,40,0.120660754333793,1
842,1003,40,0.126860650829261,1
842,1004,40,0.142095901292139,1
843,1002,40,0.120187135835707,1
843,1003,40,0.136451531407304,1
843,1004,40,0.14797684488867,1
844,999,40,0.135260195281188,1
844,1000,40,0.131982681315708,1
844,1001,40,0.118245448382085,1
844,1003,40,0.12430313920408,1
845,998,40,0.163151303162193,1
845,999,40,0.218653111712161,1
845,1000,40,0.175691700172639,1
845,1001,40,0.114029141434336,1
846,998,40,0.178909988272124,1
846,999,40,0.248217853768616,1
846,1000,40,0.184492329396531,1
847,998,40,0.15004420329398,1
847,999,40,0.210561838540467,1
847,1000,40,0.162947504472383,1
848,999,40,0.128924617496769,1
820,999,41,0.182810628066932,1
820,1000,41,0.174517369843004,1
822,993,41,0.123912582951543,1
823,992,41,0.125832118117646,1
824,992,41,0.152913377937198,1
825,992,41,0.147083098424086,1
826,992,41,0.128587398676544,1
826,993,41,0.164621904144214,1
827,993,41,0.14578060044688,1
829,992,41,0.116080871936648,1
830,992,41,0.134754508373258,1
831,992,41,0.132907789578094,1
833,993,41,0.144957526963373,1
834,993,41,0.119906634408728,1
840,999,41,0.130273846083692,1
841,993,41,0.135881448588604,1
841,999,41,0.123771672733481,1
841,1000,41,0.154116161178395,1
842,993,41,0.122021064952909,1
842,1002,41,0.119522202127223,1
842,1003,41,0.1229238678285,1
842,1004,41,0.137740662640046,1
843,1001,41,0.114627500511587,1
843,1002,41,0.1331434211404,1
843,1003,41,0.136241373209115,1
844,998,41,0.130439051979136,1
844,999,41,0.156100810644178,1
844,1000,41,0.133435157698849,1
844,1001,41,0.130543041717998,1
844,1002,41,0.149189567805926,1
844,1003,41,0.138367368637053,1
844,1004,41,0.149930156110385,1
845,997,41,0.116216223473313,1
845,998,41,0.20347376603868,1
845,999,41,0.241468955047038,1
845,1000,41,0.165224502893718,1
845,1001,41,0.114493114678047,1
846,997,41,0.120761211012445,1
846,998,41,0.196320320146131,1
846,999,41,0.223919844567962,1
846,1000,41,0.145053685085436,1
847,998,41,0.13566218687194,1
847,999,41,0.159188740598762,1
847,1000,41,0.120116227317282,1
819,1000,42,0.128658472071112,1
819,1001,42,0.114546593432767,1
820,999,42,0.174332802777607,1
820,1000,42,0.181162172833914,1
822,993,42,0.129744888085843,1
823,992,42,0.128382210316385,1
826,992,42,0.131316322606272,1
827,993,42,0.147362115965777,1
829,992,42,0.130708318274646,1
833,993,42,0.13260448813589,1
834,993,42,0.119447831209791,1
838,994,42,0.129105203980996,1
840,999,42,0.144317465998771,1
841,993,42,0.139717056521803,1
841,999,42,0.117905120468874,1
841,1000,42,0.13601554000046,1
842,993,42,0.127643459203236,1
842,1004,42,0.129651721288092,1
843,1001,42,0.115350776821015,1
843,1002,42,0.141855064354456,1
843,1003,42,0.128636143130582,1
844,998,42,0.150309724545667,1
844,999,42,0.165088856935369,1
844,1000,42,0.126911550450027,1
844,1001,42,0.147260846683276,1
844,1002,42,0.19516597516042,1
844,1003,42,0.146168848433413,1
844,1004,42,0.143827348109502,1
845,997,42,0.123684111724597,1
845,998,42,0.227245090176887,1
845,999,42,0.23993054286271,1
845,1000,42,0.145296182561418,1
845,1001,42,0.118544286391557,1
845,1002,42,0.144687059427392,1
846,997,42,0.126824036548613,1
846,998,42,0.200237011811162,1
846,999,42,0.193667592548277,1
847,998,42,0.116544868734094,1
847,999,42,0.114274771557038,1
819,1000,43,0.116069625028312,1
819,1001,43,0.116272057601506,1
819,1002,43,0.118864087224944,1
820,999,43,0.156594520477994,1
823,992,43,0.126632839106888,1
826,992,43,0.12349350312624,1
827,993,43,0.141940069783121,1
829,992,43,0.137274569560208,1
833,993,43,0.13182103203421,1
834,993,43,0.132690294391535,1
835,993,43,0.119575092038574,1
837,1007,43,0.165328162880294,1
838,994,43,0.140062672248462,1
838,1007,43,0.137669188831987,1
838,1008,43,0.130394982941443,1
841,992,43,0.118724755107109,1
841,993,43,0.132828260392756,1
841,1000,43,0.114557863894838,1
841,1001,43,0.117548140065204,1
842,993,43,0.126361653181996,1
843,1002,43,0.136140822315524,1
843,1003,43,0.115667327239009,1
844,998,43,0.172590085498173,1
844,999,43,0.167074059913918,1
844,1000,43,0.114788136982491,1
844,1001,43,0.147285896080169,1
844,1002,43,0.205541053782786,1
844,1003,43,0.137446123187163,1
844,1004,43,0.118967688327184,1
845,997,43,0.129512742476278,1
845,998,43,0.236023402237115,1
845,999,43,0.221641256269533,1
845,1000,43,0.123649888148024,1
845,1001,43,0.114693874936075,1
845,1002,43,0.152444847045815,1
846,997,43,0.124011461529968,1
846,998,43,0.190230513806822,1
846,999,43,0.164110375910069,1
847,995,43,0.123060338167565,1
820,995,44,0.117583482444177,1
820,999,44,0.141666363608613,1
821,993,44,0.11645775524617,1
825,992,44,0.124421755812214,1
826,993,44,0.149935267270823,1
827,993,44,0.127469149789317,1
833,991,44,0.115736398566124,1
833,992,44,0.121651624623564,1
833,993,44,0.135316194285525,1
834,991,44,0.129816102802819,1
834,992,44,0.145808040547849,1
834,993,44,0.149366279700788,1
835,992,44,0.118895825882502,1
835,993,44,0.126644368660041,1
838,994,44,0.135448165861255,1
838,1007,44,0.12782266779398,1
838,1008,44,0.115388380358522,1
839,1008,44,0.132283179863479,1
840,992,44,0.115629982792584,1
841,992,44,0.12360735010309,1
841,993,44,0.117534997081221,1
842,993,44,0.116969330587784,1
843,998,44,0.117238632213897,1
843,1002,44,0.120092873789291,1
844,998,44,0.1665797730136,1
844,999,44,0.142524331950132,1
844,1001,44,0.130633794257939,1
844,1002,44,0.171668368973589,1
844,1003,44,0.116325277265144,1
845,997,44,0.121223617932796,1
845,998,44,0.207070115134424,1
845,999,44,0.175056620822934,1
845,1002,44,0.129761057724739,1
846,998,44,0.153209636812716,1
846,999,44,0.124085938439205,1
847,995,44,0.131156651838491,1
848,995,44,0.127731385295008,1
820,994,45,0.121513858829089,1
820,995,45,0.119759611996501,1
820,996,45,0.117582057443225,1
821,993,45,0.157580468037205,1
823,992,45,0.115753157048389,1
826,993,45,0.125756286868661,1
827,993,45,0.118776549769795,1
831,992,45,0.12336913940683,1
832,993,45,0.138289488213146,1
833,991,45,0.127856314304051,1
833,992,45,0.136216889101857,1
833,993,45,0.134166018310862,1
834,991,45,0.150015185092785,1
834,992,45,0.175192914508988,1
834,993,45,0.152871817372255,1
835,991,45,0.123099449144095,1
835,992,45,0.134937556222765,1
835,993,45,0.125142335219014,1
838,994,45,0.120599608838416,1
838,1007,45,0.121795749926418,1
839,1008,45,0.119555153802119,1
840,992,45,0.118134745828822,1
841,992,45,0.123602274273254,1
844,998,45,0.140744835513907,1
844,1002,45,0.117566052680472,1
845,998,45,0.158814212662714,1
845,999,45,0.125712064731693,1
847,994,45,0.123167295677004,1
847,995,45,0.126149222048406,1
848,994,45,0.118026127781084,1
848,995,45,0.132163515114149,1
820,993,46,0.141500086018239,1
820,994,46,0.157172222929881,1
820,995,46,0.130424743085283,1
820,996,46,0.117054901306083,1
821,993,46,0.194958290104379,1
825,993,46,0.121052240958852,1
830,1009,46,0.162624064586979,1
832,993,46,0.123666116671258,1
833,990,46,0.127244188068846,1
833,991,46,0.136946890002551,1
833,992,46,0.144900185396157,1
833,993,46,0.127232882276173,1
833,994,46,0.133210796598615,1
834,990,46,0.135201911564582,1
834,991,46,0.16607171895533,1
834,992,46,0.190030990119868,1
834,993,46,0.144917049870228,1
834,994,46,0.128659649757849,1
835,991,46,0.135019841195068,1
835,992,46,0.145956499737894,1
835,993,46,0.120995240920789,1
835,994,46,0.143419338539525,1
837,994,46,0.14577885747051,1
838,995,46,0.151770527174038,1
838,1006,46,0.145717335115377,1
839,996,46,0.135462439424505,1
839,1007,46,0.116471133767501,1
840,1004,46,0.139737218518738,1
847,994,46,0.116833613968231,1
848,995,46,0.11450151158448,1
819,993,47,0.12628556284193,1
819,994,47,0.119886071998303,1
819,999,47,0.125756169099987,1
820,992,47,0.124887165833744,1
820,993,47,0.197053171048729,1
820,994,47,0.18863094435025,1
820,995,47,0.141177670720296,1
820,996,47,0.124461608731388,1
820,997,47,0.131095141260227,1
821,992,47,0.117719458154812,1
821,993,47,0.211841772039795,1
827,1011,47,0.138207120802772,1
828,1010,47,0.148384218507809,1
829,1005,47,0.16885769003059,1
829,1008,47,0.145786535988034,1
829,1009,47,0.144947198650691,1
829,1010,47,0.155930069621071,1
830,1007,47,0.168453001537211,1
830,1008,47,0.157016120552914,1
830,1009,47,0.150024359272465,1
830,1010,47,0.155604439238336,1
831,1009,47,0.163639018570518,1
831,1010,47,0.156263672943015,1
832,993,47,0.116285094593683,1
832,1009,47,0.18209404101817,1
833,990,47,0.129715916992116,1
833,991,47,0.138087302954166,1
833,992,47,0.13702686670885,1
833,993,47,0.117386726321054,1
833,994,47,0.124165279194666,1
834,990,47,0.149527764106143,1
834,991,47,0.170679441866933,1
834,992,47,0.171748522332898,1
834,993,47,0.127650819745341,1
834,994,47,0.121806655305601,1
835,990,47,0.12605137983431,1
835,991,47,0.140715982188854,1
835,992,47,0.137837845349569,1
835,993,47,0.113909641561149,1
835,994,47,0.133320109481528,1
836,994,47,0.134346169050996,1
837,994,47,0.115297686702918,1
837,995,47,0.161230554978751,1
837,996,47,0.166922644730163,1
837,997,47,0.163360943178217,1
838,995,47,0.124322688803911,1
838,996,47,0.157206152084769,1
838,1005,47,0.150753947982802,1
838,1006,47,0.127624580884844,1
839,991,47,0.115783211613913,1
839,996,47,0.124393726867877,1
839,997,47,0.163566049100304,1
839,1004,47,0.148100784640855,1
839,1005,47,0.144178286980211,1
839,1006,47,0.125698085590127,1
840,991,47,0.122600687034178,1
840,998,47,0.119018646832286,1
841,991,47,0.118297619904526,1
819,992,48,0.121471179461746,1
819,993,48,0.179978362126047,1
819,994,48,0.146790513931186,1
819,995,48,0.117831750585169,1
819,996,48,0.125622725415836,1
819,997,48,0.128658554509184,1
819,998,48,0.126550624795789,1
820,992,48,0.160854295843199,1
820,993,48,0.253329909248402,1
820,994,48,0.207645344444164,1
820,995,48,0.143549225609731,1
820,996,48,0.127679154888229,1
820,997,48,0.14294455413157,1
821,992,48,0.127660559214654,1
821,993,48,0.207784570570193,1
821,994,48,0.209114697078244,1
822,993,48,0.16067175439899,1
823,993,48,0.117511678883832,1
826,1012,48,0.130838770634485,1
827,1011,48,0.127894648007335,1
828,993,48,0.157457599979951,1
828,1003,48,0.160694683959756,1
828,1004,48,0.143951770713249,1
828,1005,48,0.14926504574889,1
828,1010,48,0.139528073131143,1
829,1004,48,0.158231940786288,1
829,1005,48,0.156834827456645,1
829,1006,48,0.154647863186342,1
829,1007,48,0.1441361375719,1
829,1008,48,0.134981519268651,1
829,1009,48,0.13779617879282,1
829,1010,48,0.151524579075917,1
830,1006,48,0.168330686992723,1
830,1007,48,0.14811396295544,1
830,1008,48,0.134696566185806,1
830,1009,48,0.132247213310536,1
830,1010,48,0.14131011337072,1
831,993,48,0.137136509344049,1
831,1007,48,0.155027961580655,1
831,1008,48,0.143824415669527,1
831,1009,48,0.142250943751043,1
831,1010,48,0.140452627880763,1
831,1011,48,0.136461294430352,1
832,994,48,0.148130603669031,1
832,1008,48,0.154063895441014,1
832,1009,48,0.173715011869198,1
832,1010,48,0.179101020837706,1
833,990,48,0.130601348988339,1
833,991,48,0.136674326184178,1
833,992,48,0.124616450983547,1
833,994,48,0.116425486629581,1
833,1009,48,0.178385493707007,1
833,1013,48,0.161289969274624,1
834,989,48,0.122491256382591,1
834,990,48,0.159761461435753,1
834,991,48,0.171888773046387,1
834,992,48,0.14594412225029,1
834,994,48,0.114118327650916,1
834,1010,48,0.153402883429363,1
834,1011,48,0.151565268152675,1
835,989,48,0.115995418987024,1
835,990,48,0.140727829717427,1
835,991,48,0.145849353798577,1
835,992,48,0.124134129380476,1
835,994,48,0.117728655888226,1
835,995,48,0.16353644205574,1
835,1010,48,0.118987544125567,1
836,995,48,0.143338890758532,1
836,996,48,0.149320550124797,1
836,997,48,0.139320187868357,1
837,995,48,0.118926881481752,1
837,996,48,0.129371290522316,1
837,997,48,0.130108675518851,1
838,996,48,0.128924334851953,1
838,997,48,0.139182528065688,1
839,990,48,0.116820977389545,1
839,991,48,0.114096187140264,1
839,997,48,0.119246729422609,1
839,998,48,0.155904690471892,1
840,990,48,0.115124142785378,1
840,991,48,0.123914914771282,1
840,999,48,0.129494924075949,1
841,991,48,0.120509574687385,1
816,1008,49,0.115472773390083,1
818,1001,49,0.11738947033115,1
819,992,49,0.132937785259281,1
819,993,49,0.203853499350105,1
819,994,49,0.154889489174138,1
819,995,49,0.121122525303306,1
819,996,49,0.137807307932483,1
819,997,49,0.148312803584087,1
819,998,49,0.153699801809454,1
820,992,49,0.16734246649811,1
820,993,49,0.256318995955164,1
820,994,49,0.196080024944347,1
820,995,49,0.139805088605381,1
820,996,49,0.132807544883055,1
820,997,49,0.157625149472001,1
821,992,49,0.125569741289546,1
821,993,49,0.179243038081301,1
821,994,49,0.180180971352252,1
822,993,49,0.12547346539881,1
825,1013,49,0.153955218508939,1
826,994,49,0.129824535039855,1
826,1012,49,0.125153323036269,1
826,1013,49,0.143170881968655,1
827,994,49,0.140959857558318,1
827,1011,49,0.1208678741002,1
827,1012,49,0.134074076307317,1
828,993,49,0.131425776811593,1
828,994,49,0.176998979557996,1
828,1003,49,0.146392738458953,1
828,1004,49,0.13044064185623,1
828,1005,49,0.143123856937253,1
828,1010,49,0.131871095497393,1
828,1011,49,0.149725156180104,1
829,993,49,0.152042419710971,1
829,1003,49,0.163368197728516,1
829,1004,49,0.151014487619592,1
829,1005,49,0.159717804588418,1
829,1006,49,0.158819547583632,1
829,1007,49,0.145691461337769,1
829,1008,49,0.133849161694316,1
829,1009,49,0.13044556458679,1
829,1010,49,0.138968035980308,1
830,993,49,0.142891805542627,1
830,1004,49,0.180249736480816,1
830,1005,49,0.192733051015128,1
830,1006,49,0.169852046273102,1
830,1007,49,0.139963240157271,1
830,1008,49,0.122329348010011,1
830,1009,49,0.118497508674369,1
830,1010,49,0.125045717799124,1
830,1011,49,0.148552121305879,1
831,993,49,0.130667181676928,1
831,994,49,0.201398658454641,1
831,1006,49,0.162712791505732,1
831,1007,49,0.13210815206065,1
831,1008,49,0.122241787001127,1
831,1009,49,0.126968632926161,1
831,1010,49,0.126065017446722,1
831,1011,49,0.11833152550568,1
831,1012,49,0.12388932363849,1
831,1013,49,0.130293348576054,1
832,993,49,0.11543707770509,1
832,994,49,0.14917742585567,1
832,1008,49,0.135719634430962,1
832,1009,49,0.15739011852993,1
832,1010,49,0.159330545858745,1
832,1011,49,0.131189097108091,1
832,1012,49,0.135763326608899,1
832,1013,49,0.137878652195001,1
832,1014,49,0.127075767088611,1
833,989,49,0.120142101094891,1
833,990,49,0.131464416713429,1
833,991,49,0.133844945575798,1
833,992,49,0.117436483585685,1
833,994,49,0.120538263136295,1
833,1009,49,0.16441042693688,1
833,1010,49,0.169918467805059,1
833,1011,49,0.152026968460984,1
833,1012,49,0.155419365767643,1
833,1013,49,0.13490575868087,1
834,989,49,0.135553592377936,1
834,990,49,0.161831575628027,1
834,991,49,0.164048806447467,1
834,992,49,0.126533289247023,1
834,995,49,0.154096658686033,1
834,1010,49,0.138932599386397,1
834,1011,49,0.144481611976151,1
834,1012,49,0.146363649596553,1
834,1013,49,0.114420592728793,1
835,989,49,0.133444885391295,1
835,990,49,0.151075680222438,1
835,991,49,0.144963321182119,1
835,995,49,0.131949800302015,1
835,996,49,0.148704796614443,1
836,989,49,0.11413227146188,1
836,990,49,0.116583626404603,1
836,996,49,0.117451240000497,1
836,997,49,0.126895793001488,1
837,997,49,0.114239417401198,1
837,998,49,0.148898349429642,1
838,998,49,0.137166033950542,1
838,1004,49,0.120035932635565,1
839,990,49,0.119705450183474,1
839,998,49,0.117443102185146,1
839,999,49,0.17579180354527,1
839,1002,49,0.129192235030848,1
840,990,49,0.119973998090075,1
817,1003,50,0.115897223466906,1
818,997,50,0.115195169072477,1
818,998,50,0.118830699805955,1
818,999,50,0.117315417389138,1
818,1001,50,0.123402538602687,1
819,992,50,0.130364598623633,1
819,993,50,0.192455411366919,1
819,994,50,0.151355781235927,1
819,995,50,0.119729192348089,1
819,996,50,0.138216224321247,1
819,997,50,0.16068719387211,1
820,992,50,0.158345304911576,1
820,993,50,0.220949059113091,1
820,994,50,0.171391647921034,1
820,995,50,0.133184757944863,1
820,996,50,0.136886121366931,1
821,992,50,0.127789374589929,1
821,993,50,0.154379868792507,1
821,994,50,0.156611891357362,1
824,1015,50,0.136848329399546,1
825,1014,50,0.163178201527262,1
826,994,50,0.115796437035968,1
826,1013,50,0.120203670557492,1
826,1014,50,0.146787192854588,1
826,1021,50,0.134269619413101,1
827,994,50,0.121723216200296,1
827,1014,50,0.120606981157389,1
827,1015,50,0.150498813928134,1
827,1021,50,0.136507871940794,1
828,994,50,0.138375753766619,1
828,1003,50,0.132428070662712,1
828,1004,50,0.120125354389493,1
828,1005,50,0.136117786762952,1
828,1010,50,0.118425763998361,1
828,1011,50,0.128971701412508,1
828,1012,50,0.138408540565373,1
828,1013,50,0.122630506062354,1
829,993,50,0.118132319794144,1
829,994,50,0.147894430370826,1
829,995,50,0.16620476222599,1
829,1002,50,0.176610201612432,1
829,1003,50,0.14714528028379,1
829,1004,50,0.146587433630286,1
829,1005,50,0.162986297473495,1
829,1006,50,0.161410093321781,1
829,1009,50,0.118322539755878,1
829,1010,50,0.119604439992056,1
829,1011,50,0.147690042837648,1
829,1018,50,0.135309022173297,1
829,1019,50,0.151046909335457,1
830,993,50,0.120520244529221,1
830,994,50,0.156252826448168,1
830,995,50,0.162957903446269,1
830,1003,50,0.165090387928127,1
830,1004,50,0.182907186602485,1
830,1005,50,0.20352970615868,1
830,1006,50,0.171713521483079,1
830,1007,50,0.132680602029691,1
830,1011,50,0.121111396163643,1
830,1012,50,0.129390310163116,1
830,1013,50,0.124376791732601,1
830,1014,50,0.140285302149193,1
831,993,50,0.121844494380456,1
831,994,50,0.162218799027099,1
831,995,50,0.171243035631713,1
831,1003,50,0.163973575818718,1
831,1004,50,0.17643729364573,1
831,1005,50,0.185557170190243,1
831,1006,50,0.150977143173167,1
831,1007,50,0.118838460761551,1
831,1014,50,0.115860997822881,1
832,989,50,0.120959663004469,1
832,990,50,0.11978543866664,1
832,993,50,0.114826871099266,1
832,994,50,0.138787237512469,1
832,995,50,0.155531823074143,1
832,1002,50,0.176647887588011,1
832,1003,50,0.144650162501927,1
832,1004,50,0.139135420596215,1
832,1005,50,0.140784923970429,1
832,1006,50,0.13368177707841,1
832,1007,50,0.125848900153646,1
832,1008,50,0.125304255368461,1
832,1009,50,0.134778462521486,1
832,1010,50,0.131231776475434,1
832,1015,50,0.130640978147033,1
833,989,50,0.131443077029757,1
833,990,50,0.140030733384159,1
833,991,50,0.130762727401887,1
833,994,50,0.118748473717989,1
833,995,50,0.148081399917166,1
833,1001,50,0.174092036501129,1
833,1002,50,0.161114941471796,1
833,1003,50,0.136227264522008,1
833,1004,50,0.130452253847455,1
833,1008,50,0.15406499068968,1
833,1009,50,0.145919190622071,1
833,1010,50,0.142650709513862,1
833,1011,50,0.132183488681206,1
833,1012,50,0.125234606974845,1
834,989,50,0.142971841133263,1
834,990,50,0.163529564365197,1
834,991,50,0.151666172352287,1
834,992,50,0.116646149793462,1
834,995,50,0.133647565278705,1
834,996,50,0.161735700150782,1
834,1001,50,0.162923291233074,1
834,1009,50,0.127192970472661,1
834,1010,50,0.119836774031499,1
834,1011,50,0.129844331953901,1
834,1012,50,0.128806719277545,1
835,989,50,0.142603719813062,1
835,990,50,0.161692585039346,1
835,991,50,0.146478839136283,1
835,996,50,0.120979471695383,1
835,997,50,0.150841214570001,1
836,989,50,0.124177032508299,1
836,990,50,0.130842704108186,1
836,991,50,0.118629927771059,1
836,997,50,0.11834629369736,1
837,998,50,0.15352954363791,1
837,1004,50,0.124141960997276,1
838,998,50,0.122761723918573,1
838,999,50,0.183497113442701,1
838,1003,50,0.116596451413168,1
839,999,50,0.12844640602041,1
839,1000,50,0.135653354221413,1
814,1019,51,0.120756724025978,1
814,1020,51,0.126643238080774,1
814,1021,51,0.121852596865205,1
815,1018,51,0.137912440027481,1
815,1019,51,0.147473101163856,1
815,1020,51,0.129914887166305,1
816,1007,51,0.119376086533783,1
816,1014,51,0.119567024884427,1
816,1017,51,0.143074488309245,1
816,1018,51,0.175644828240513,1
816,1019,51,0.146055814060411,1
817,1003,51,0.119590048660132,1
817,1004,51,0.140717760495827,1
817,1014,51,0.123520837235402,1
817,1016,51,0.123728157208555,1
817,1017,51,0.183098336936741,1
817,1019,51,0.135155722690764,1
817,1021,51,0.12251949731054,1
817,1022,51,0.133198807747634,1
818,997,51,0.121234170005958,1
818,998,51,0.141565471185868,1
818,999,51,0.131270734352689,1
818,1000,51,0.114463166104329,1
818,1001,51,0.123587329428564,1
818,1002,51,0.158571326550109,1
818,1017,51,0.1418513310875,1
818,1018,51,0.146326081389648,1
818,1020,51,0.116159871162955,1
818,1021,51,0.132948690638464,1
818,1022,51,0.119787181643011,1
819,992,51,0.115359739017082,1
819,993,51,0.154027764011928,1
819,994,51,0.139201594813958,1
819,995,51,0.117441688961062,1
819,996,51,0.131796171067195,1
819,997,51,0.169784576599949,1
820,992,51,0.138960381016519,1
820,993,51,0.167735637215202,1
820,994,51,0.143345956878953,1
820,995,51,0.130555254329459,1
820,996,51,0.14063294349704,1
821,992,51,0.129468897199065,1
821,993,51,0.135182774155109,1
821,994,51,0.137908294570167,1
821,996,51,0.156400861670989,1
824,1015,51,0.114647014780816,1
825,1014,51,0.142084371738985,1
825,1015,51,0.164297098142194,1
826,1014,51,0.128797556874732,1
826,1015,51,0.168713611835205,1
827,995,51,0.144077524103008,1
827,1015,51,0.12886773522738,1
827,1016,51,0.142093958109023,1
827,1020,51,0.145996870839233,1
828,994,51,0.115394892966176,1
828,995,51,0.1486912061095,1
828,1000,51,0.16031343143244,1
828,1003,51,0.123977167292191,1
828,1004,51,0.115054223523812,1
828,1005,51,0.13214887646801,1
828,1019,51,0.128192473206214,1
829,994,51,0.114853639918794,1
829,995,51,0.133226118303061,1
829,1001,51,0.170940994314317,1
829,1002,51,0.15916704760907,1
829,1003,51,0.137568885252611,1
829,1004,51,0.145563411458873,1
829,1005,51,0.166423599975429,1
829,1006,51,0.162984790034471,1
829,1012,51,0.114227122351665,1
829,1015,51,0.137829189352054,1
829,1016,51,0.132022016052718,1
830,989,51,0.120993038646591,1
830,994,51,0.119279221799679,1
830,995,51,0.123180744859539,1
830,1002,51,0.179911092659639,1
830,1003,51,0.164317531007079,1
830,1004,51,0.187186075823429,1
830,1005,51,0.209346866241544,1
830,1006,51,0.170648798458041,1
830,1007,51,0.127825482465281,1
830,1014,51,0.116793289974362,1
830,1015,51,0.154843948028025,1
830,1017,51,0.139817795845272,1
831,989,51,0.12581992905992,1
831,990,51,0.116679702088594,1
831,993,51,0.117171056548937,1
831,994,51,0.126615538888723,1
831,995,51,0.126358932725634,1
831,996,51,0.147334169459511,1
831,1002,51,0.198605703697032,1
831,1003,51,0.167828120954646,1
831,1004,51,0.166114315884601,1
831,1005,51,0.169825395222247,1
831,1006,51,0.139517226636297,1
831,1015,51,0.129891156778558,1
832,989,51,0.132460928122669,1
832,990,51,0.135994094324982,1
832,991,51,0.117143592894234,1
832,994,51,0.122598861619736,1
832,995,51,0.128395553507113,1
832,996,51,0.146655892560299,1
832,1001,51,0.192635750536931,1
832,1002,51,0.187191775827235,1
832,1003,51,0.145860848021128,1
832,1004,51,0.125121961238467,1
832,1005,51,0.125814370378522,1
832,1006,51,0.128080946272235,1
832,1007,51,0.129745064738853,1
832,1008,51,0.123556709573406,1
833,989,51,0.140694406967835,1
833,990,51,0.149433984911289,1
833,991,51,0.126292923384035,1
833,995,51,0.126220059905627,1
833,996,51,0.141682391925101,1
833,1000,51,0.158494211622581,1
833,1001,51,0.163448245096018,1
833,1002,51,0.158039082806264,1
833,1003,51,0.130759217895412,1
833,1004,51,0.120858546821244,1
833,1005,51,0.136012489791811,1
833,1006,51,0.15683552229182,1
833,1007,51,0.176794533140482,1
833,1008,51,0.170205175641142,1
833,1009,51,0.136070832392754,1
833,1010,51,0.116118251713676,1
834,989,51,0.144351406930526,1
834,990,51,0.157915472806365,1
834,991,51,0.134315820063787,1
834,996,51,0.125393194270827,1
834,997,51,0.153903364961916,1
834,1000,51,0.157873606042871,1
834,1001,51,0.146214554455669,1
834,1002,51,0.150049608876102,1
834,1003,51,0.140465134913908,1
834,1004,51,0.135394380907983,1
834,1008,51,0.16060194112923,1
834,1009,51,0.123334432978696,1
835,989,51,0.143895547948432,1
835,990,51,0.165926604395617,1
835,991,51,0.151081592209857,1
835,997,51,0.131798067142842,1
835,998,51,0.185187729860897,1
835,1001,51,0.157164096891397,1
836,989,51,0.130023516990911,1
836,990,51,0.146959288217442,1
836,991,51,0.145814305841289,1
836,992,51,0.119781104779448,1
836,998,51,0.170976972644127,1
836,1004,51,0.124556542059245,1
837,989,51,0.116296353278887,1
837,990,51,0.11408470469458,1
837,998,51,0.16506795299579,1
837,999,51,0.22415260257463,1
837,1003,51,0.133372033689755,1
838,998,51,0.117874053092756,1
838,999,51,0.157041311272214,1
838,1000,51,0.150494091404319,1
838,1001,51,0.123166294643278,1
812,1015,52,0.114127831582883,1
813,1015,52,0.125149165802088,1
813,1017,52,0.116119252747402,1
813,1018,52,0.11814343715694,1
813,1020,52,0.119683568763904,1
813,1021,52,0.124001557184511,1
814,1017,52,0.120681281413616,1
814,1018,52,0.132481537640564,1
814,1019,52,0.142980485353911,1
814,1020,52,0.175638562947073,1
814,1021,52,0.160331367601442,1
814,1022,52,0.118732374740297,1
815,1012,52,0.128525216816839,1
815,1017,52,0.128618312953386,1
815,1018,52,0.161362137917857,1
815,1019,52,0.173234445019365,1
815,1020,52,0.18615317389402,1
815,1021,52,0.151066470712156,1
815,1022,52,0.114880067209169,1
815,1023,52,0.122494848327138,1
816,1006,52,0.115307284849823,1
816,1007,52,0.131882778149822,1
816,1013,52,0.154645837565154,1
816,1014,52,0.143376388304233,1
816,1015,52,0.119937313148222,1
816,1016,52,0.12523972991215,1
816,1017,52,0.195336174447627,1
816,1018,52,0.235631491644831,1
816,1019,52,0.174716198694784,1
816,1020,52,0.134074830026829,1
816,1021,52,0.121489139184483,1
816,1022,52,0.123383259870805,1
817,1002,52,0.114366218932153,1
817,1003,52,0.12866801133368,1
817,1004,52,0.137555954252241,1
817,1005,52,0.141719465503577,1
817,1014,52,0.146243713979273,1
817,1016,52,0.14325812500212,1
817,1017,52,0.246165263554986,1
817,1018,52,0.266580298261885,1
817,1019,52,0.158048504300158,1
817,1021,52,0.131790459286522,1
817,1022,52,0.152030242430112,1
818,997,52,0.127463355570571,1
818,998,52,0.156900177293672,1
818,999,52,0.139067621170775,1
818,1000,52,0.118618775077661,1
818,1001,52,0.124299476598328,1
818,1002,52,0.150800030864814,1
818,1013,52,0.148366765190369,1
818,1017,52,0.157807125626576,1
818,1018,52,0.161448462355667,1
818,1019,52,0.116777885831844,1
818,1020,52,0.119641325140653,1
818,1021,52,0.142759445330274,1
818,1022,52,0.132380609887217,1
819,993,52,0.119751415296813,1
819,994,52,0.127524607057754,1
819,995,52,0.115494183734959,1
819,996,52,0.124476247377527,1
819,997,52,0.174018713724893,1
819,1020,52,0.116686944862026,1
820,992,52,0.119911462924349,1
820,993,52,0.12722148226856,1
820,994,52,0.124082428932729,1
820,995,52,0.12909650087601,1
820,996,52,0.139989408356564,1
820,1018,52,0.153387196642029,1
820,1020,52,0.123975671630035,1
821,992,52,0.125242780120799,1
821,993,52,0.118871942395479,1
821,994,52,0.122021618465676,1
821,995,52,0.154308218331438,1
821,996,52,0.153874570521201,1
821,1017,52,0.119519999853025,1
822,994,52,0.146427185796005,1
822,997,52,0.140874051302672,1
822,1021,52,0.124169306883306,1
823,1017,52,0.119077484061659,1
823,1020,52,0.137503276324502,1
825,994,52,0.149547042838025,1
825,1013,52,0.128596042897192,1
825,1014,52,0.121702512467463,1
825,1015,52,0.135118142706991,1
826,995,52,0.132745645668167,1
826,1010,52,0.121940617171916,1
826,1015,52,0.136064037140283,1
826,1016,52,0.136599554853256,1
827,995,52,0.12482014368155,1
827,996,52,0.161804818585366,1
827,1005,52,0.135048093899884,1
828,995,52,0.124352295848475,1
828,996,52,0.174511669839198,1
828,999,52,0.154254633584912,1
828,1000,52,0.148174531384315,1
828,1005,52,0.121465844540828,1
829,996,52,0.151243429921233,1
829,999,52,0.161913083327084,1
829,1000,52,0.139959400898509,1
829,1001,52,0.146076894653001,1
829,1002,52,0.13825134293974,1
829,1003,52,0.124133752520721,1
829,1004,52,0.133971417354467,1
829,1005,52,0.154553283164506,1
829,1006,52,0.150053978093896,1
830,989,52,0.132642185888336,1
830,990,52,0.119206487866812,1
830,996,52,0.129240732170671,1
830,1000,52,0.148236230392458,1
830,1001,52,0.163504008563007,1
830,1002,52,0.170784385532052,1
830,1003,52,0.158518742837309,1
830,1004,52,0.171689190475096,1
830,1005,52,0.188689475381071,1
830,1006,52,0.153977264804653,1
830,1007,52,0.114600072187486,1
831,988,52,0.116070967591192,1
831,989,52,0.148968727989035,1
831,990,52,0.143556574374969,1
831,996,52,0.119235305861262,1
831,997,52,0.169481864001112,1
831,1000,52,0.149021747445927,1
831,1001,52,0.179852125884725,1
831,1002,52,0.202710130404781,1
831,1003,52,0.16905781433778,1
831,1004,52,0.145000653851676,1
831,1005,52,0.14167246402591,1
831,1006,52,0.121541039838975,1
832,988,52,0.117284338236153,1
832,989,52,0.158170547976696,1
832,990,52,0.166200451892533,1
832,991,52,0.126588181225827,1
832,997,52,0.136686962762864,1
832,998,52,0.15041102915877,1
832,999,52,0.144074026373399,1
832,1000,52,0.142571910494301,1
832,1001,52,0.171618906130641,1
832,1002,52,0.18804327866857,1
832,1003,52,0.142365285356323,1
832,1006,52,0.116272858428487,1
832,1007,52,0.123973057165479,1
832,1008,52,0.115097585949462,1
833,988,52,0.121420515378328,1
833,989,52,0.159373237002955,1
833,990,52,0.167142130207307,1
833,991,52,0.125534163373226,1
833,997,52,0.118064626360511,1
833,998,52,0.130898279145297,1
833,999,52,0.137515653812106,1
833,1000,52,0.136938881732741,1
833,1001,52,0.143965125680844,1
833,1002,52,0.143883771081064,1
833,1003,52,0.115818659984692,1
833,1005,52,0.115943553663133,1
833,1006,52,0.136171336178876,1
833,1007,52,0.168108163083798,1
833,1008,52,0.170817702289838,1
833,1009,52,0.121473640827026,1
834,988,52,0.121565323739489,1
834,989,52,0.147219509878813,1
834,990,52,0.153283842854004,1
834,991,52,0.123999661108865,1
834,998,52,0.134077974450416,1
834,999,52,0.139982330459275,1
834,1000,52,0.126969751728561,1
834,1001,52,0.123100049764331,1
834,1002,52,0.11957654059326,1
834,1005,52,0.1175234557512,1
834,1006,52,0.126878787205008,1
834,1007,52,0.146982735960372,1
834,1008,52,0.149393920008502,1
835,988,52,0.116729659559971,1
835,989,52,0.141954837974801,1
835,990,52,0.162173611187006,1
835,991,52,0.155109787255131,1
835,992,52,0.115498011216854,1
835,998,52,0.138324901253323,1
835,999,52,0.14703036161201,1
835,1000,52,0.128325987551569,1
835,1001,52,0.12105931885614,1
835,1002,52,0.115502698410066,1
836,989,52,0.13319998543437,1
836,990,52,0.155447665579929,1
836,991,52,0.168324845666509,1
836,992,52,0.137341379728789,1
836,998,52,0.149101512168613,1
836,999,52,0.173835347899968,1
836,1000,52,0.149766080794209,1
836,1001,52,0.127966286691537,1
836,1002,52,0.114845890740066,1
837,989,52,0.122968561040163,1
837,990,52,0.12012335232204,1
837,991,52,0.115457640115515,1
837,998,52,0.156173415031504,1
837,999,52,0.194773829030788,1
837,1000,52,0.161946553184145,1
837,1001,52,0.120521881513785,1
838,989,52,0.11571663698268,1
838,999,52,0.121217223093815,1
813,1017,53,0.132389171669794,1
813,1018,53,0.142166833364299,1
813,1019,53,0.120362752481904,1
813,1020,53,0.131801082020888,1
814,1017,53,0.14536218012615,1
814,1018,53,0.155693625454917,1
814,1019,53,0.165982202986463,1
814,1020,53,0.228871758205273,1
814,1021,53,0.194838837338662,1
815,1012,53,0.127177695875685,1
815,1013,53,0.128830720533241,1
815,1017,53,0.151456308575783,1
815,1018,53,0.17073253198503,1
815,1019,53,0.190469348677053,1
815,1020,53,0.248611648659679,1
815,1021,53,0.193225194525584,1
815,1022,53,0.123581994507646,1
816,1007,53,0.133820838328295,1
816,1014,53,0.171844327148939,1
816,1015,53,0.128886743091313,1
816,1016,53,0.14121152921398,1
816,1017,53,0.243797053295884,1
816,1018,53,0.265495837207138,1
816,1019,53,0.183496595260536,1
816,1020,53,0.1545710780111,1
816,1021,53,0.133712538255976,1
816,1022,53,0.126107897020811,1
817,1003,53,0.141635131356352,1
817,1004,53,0.139732401779984,1
817,1005,53,0.135099335049804,1
817,1014,53,0.155900203485425,1
817,1016,53,0.148761219586004,1
817,1017,53,0.284840048471702,1
817,1018,53,0.294393702371993,1
817,1019,53,0.161642180047009,1
817,1021,53,0.129692528133523,1
817,1022,53,0.149978170398646,1
818,997,53,0.142706861617475,1
818,998,53,0.173649556040365,1
818,999,53,0.15262490357101,1
818,1000,53,0.131351900522591,1
818,1001,53,0.135014105860659,1
818,1002,53,0.152292159960385,1
818,1003,53,0.162710365471054,1
818,1013,53,0.145159723999221,1
818,1017,53,0.158343243959786,1
818,1018,53,0.160176925762774,1
818,1021,53,0.13432856263428,1
818,1022,53,0.128081122925246,1
819,994,53,0.12108393250894,1
819,995,53,0.117121699697796,1
819,996,53,0.120979789670802,1
819,997,53,0.173314822139154,1
820,994,53,0.118543002713013,1
820,995,53,0.130522926828533,1
820,996,53,0.13409370834522,1
820,1018,53,0.143326572155265,1
820,1019,53,0.160111941008635,1
820,1020,53,0.11564346730572,1
821,992,53,0.114543119256893,1
821,994,53,0.116606815056452,1
821,995,53,0.146994760141956,1
821,996,53,0.144912303792679,1
821,1018,53,0.183420387151796,1
821,1020,53,0.142944719007713,1
822,994,53,0.134946730402445,1
822,995,53,0.174337160218533,1
822,996,53,0.148828041531453,1
822,997,53,0.130378354004719,1
822,1018,53,0.14586043583077,1
822,1020,53,0.139259666546951,1
823,994,53,0.178667773440959,1
823,1019,53,0.131193207234803,1
824,994,53,0.180139010373818,1
825,994,53,0.130303606227532,1
825,995,53,0.151057802937773,1
826,995,53,0.114134944810773,1
826,996,53,0.142805822633971,1
826,1017,53,0.115342144377234,1
826,1019,53,0.118415647669292,1
827,996,53,0.129935049163239,1
827,997,53,0.149722942129039,1
827,1005,53,0.131712013572981,1
828,996,53,0.133203742255061,1
828,997,53,0.154103501045974,1
828,998,53,0.148200570038067,1
828,999,53,0.147629568623712,1
828,1000,53,0.151997773606778,1
828,1001,53,0.14185737262046,1
828,1002,53,0.127407627434184,1
828,1005,53,0.114958701352587,1
828,1006,53,0.137530845971011,1
829,996,53,0.125092448408842,1
829,997,53,0.162619165410153,1
829,998,53,0.160822839830458,1
829,999,53,0.13641140762018,1
829,1000,53,0.130101044108796,1
829,1001,53,0.134352893642263,1
829,1002,53,0.12849719964937,1
829,1003,53,0.116583343759787,1
829,1004,53,0.122282605623426,1
829,1005,53,0.137546049906784,1
829,1006,53,0.137372082022018,1
829,1007,53,0.136595597825821,1
829,1008,53,0.117421715394005,1
830,989,53,0.141591827815039,1
830,990,53,0.136115572711887,1
830,996,53,0.117721201131182,1
830,997,53,0.164883868781955,1
830,998,53,0.176784193050932,1
830,999,53,0.142058450853908,1
830,1000,53,0.125962158287127,1
830,1001,53,0.148878729168606,1
830,1002,53,0.168425808750457,1
830,1003,53,0.152141557380478,1
830,1004,53,0.145585657961332,1
830,1005,53,0.153806806426363,1
830,1006,53,0.136717665056094,1
831,988,53,0.129085819257307,1
831,989,53,0.182804091905542,1
831,990,53,0.182388085842623,1
831,991,53,0.12679030760047,1
831,997,53,0.13581890164601,1
831,998,53,0.150115111812405,1
831,999,53,0.131888301500618,1
831,1000,53,0.122221530789254,1
831,1001,53,0.159759706682515,1
831,1002,53,0.204660450302185,1
831,1003,53,0.16985129255359,1
831,1004,53,0.125559153885782,1
831,1005,53,0.116150744090745,1
832,988,53,0.132712376017851,1
832,989,53,0.189819406920728,1
832,990,53,0.194612909915067,1
832,991,53,0.132867818890246,1
832,998,53,0.117516754713668,1
832,999,53,0.11837448751784,1
832,1000,53,0.117752998673077,1
832,1001,53,0.14793589672083,1
832,1002,53,0.183047295993566,1
832,1003,53,0.142923026018021,1
833,988,53,0.131542827096367,1
833,989,53,0.170777272304162,1
833,990,53,0.17321920575299,1
833,991,53,0.126422751569904,1
833,999,53,0.119218994899957,1
833,1000,53,0.118825623976119,1
833,1001,53,0.12851890441593,1
833,1002,53,0.135640305452369,1
833,1006,53,0.114397062547791,1
833,1007,53,0.144095448495142,1
833,1008,53,0.161519300212888,1
834,988,53,0.125305974791097,1
834,989,53,0.147701749043813,1
834,990,53,0.152256876465749,1
834,991,53,0.131532310353807,1
834,1007,53,0.119064258639604,1
834,1008,53,0.133266348081991,1
835,988,53,0.119152055185835,1
835,989,53,0.144505248148959,1
835,990,53,0.161329527772114,1
835,991,53,0.164242724345555,1
835,992,53,0.121458613544264,1
836,988,53,0.113838250191162,1
836,989,53,0.144389434435259,1
836,990,53,0.158919156327833,1
836,991,53,0.171909606324762,1
836,992,53,0.138696826501682,1
836,998,53,0.123979063367837,1
836,999,53,0.136325672025738,1
836,1000,53,0.117829666079645,1
837,989,53,0.137920295198015,1
837,990,53,0.132660463586491,1
837,991,53,0.126224994413054,1
837,998,53,0.13315953189496,1
837,999,53,0.152910987233122,1
837,1000,53,0.120998620881724,1
838,989,53,0.120166620532752,1
813,1020,54,0.127273700898471,1
814,1018,54,0.159257753041541,1
814,1019,54,0.171210366601633,1
814,1020,54,0.238359885615527,1
814,1021,54,0.191960429631427,1
815,1017,54,0.15644206892991,1
815,1018,54,0.16387082265093,1
815,1019,54,0.188090032832022,1
815,1020,54,0.261406225798538,1
815,1021,54,0.198433219697555,1
816,1016,54,0.141571477388226,1
816,1017,54,0.248175692583438,1
816,1018,54,0.243466170430302,1
816,1019,54,0.168912252257107,1
816,1020,54,0.153307973655242,1
817,997,54,0.114038197845342,1
817,998,54,0.133571898905863,1
817,999,54,0.129269008429222,1
817,1000,54,0.124619807390747,1
817,1016,54,0.136266293060467,1
817,1017,54,0.264111254464375,1
817,1018,54,0.259021504371385,1
817,1019,54,0.145858292440909,1
818,997,54,0.15531027664521,1
818,998,54,0.18654371836969,1
818,999,54,0.164430400503937,1
818,1000,54,0.145019249525251,1
818,1001,54,0.147453645778963,1
818,1017,54,0.141454474210922,1
818,1018,54,0.141219608144995,1
819,995,54,0.114927421992857,1
819,996,54,0.118750028264482,1
819,997,54,0.164546143556433,1
819,998,54,0.201822437250024,1
819,999,54,0.170498961374513,1
819,1000,54,0.153571575277548,1
820,994,54,0.117055937670411,1
820,995,54,0.124798238708245,1
820,996,54,0.125367826898516,1
820,997,54,0.169099975522959,1
821,995,54,0.128255279239889,1
821,996,54,0.125735382929082,1
821,997,54,0.150558946612916,1
822,994,54,0.118577414719464,1
822,995,54,0.133037111358666,1
822,996,54,0.117406181705946,1
822,997,54,0.115443708081418,1
823,994,54,0.13693601995397,1
823,995,54,0.135806288621059,1
823,996,54,0.116011341311706,1
823,997,54,0.123932721394743,1
824,994,54,0.13261366231557,1
824,995,54,0.126826050392933,1
824,996,54,0.128399899171172,1
825,996,54,0.132404081183882,1
826,997,54,0.151442800508911,1
827,997,54,0.11437898505638,1
827,998,54,0.141155471325306,1
827,999,54,0.182355263713267,1
827,1000,54,0.196259162873887,1
828,998,54,0.122039648849617,1
828,999,54,0.140554132700611,1
828,1000,54,0.151747208976649,1
828,1001,54,0.128162324425751,1
829,997,54,0.127306829226379,1
829,998,54,0.126912893012907,1
829,999,54,0.11393438475949,1
829,1000,54,0.117230623944086,1
829,1001,54,0.117569197104059,1
830,989,54,0.149918061267598,1
830,990,54,0.151874952656993,1
830,991,54,0.114335222217239,1
830,997,54,0.133244749307238,1
830,998,54,0.128831921773713,1
830,1001,54,0.126062838726259,1
830,1002,54,0.151440468689172,1
831,988,54,0.142673403537281,1
831,989,54,0.232775648415474,1
831,990,54,0.231618759626411,1
831,991,54,0.140702156146564,1
831,1001,54,0.131443536327585,1
831,1002,54,0.181597787381002,1
832,988,54,0.14947076406808,1
832,989,54,0.227420494839471,1
832,990,54,0.217561537429523,1
832,991,54,0.131814590087759,1
832,1001,54,0.119163113664294,1
833,988,54,0.137634376412046,1
833,989,54,0.171794746537318,1
833,990,54,0.163098095275422,1
833,991,54,0.120169152559236,1
834,988,54,0.125484123463778,1
834,989,54,0.141358987370299,1
834,990,54,0.143799590033115,1
834,991,54,0.134849477031717,1
835,988,54,0.121383017832627,1
835,989,54,0.144885617411222,1
835,990,54,0.152616577325781,1
835,991,54,0.158332762547828,1
835,992,54,0.117894509511375,1
836,988,54,0.126273314899866,1
836,989,54,0.157677638969861,1
836,990,54,0.155166351549101,1
836,991,54,0.152580528334766,1
836,992,54,0.12052414267232,1
837,988,54,0.126033396557838,1
837,989,54,0.156797471233353,1
837,990,54,0.149016212318264,1
837,991,54,0.132854605245059,1
838,989,54,0.12427181273688,1
838,990,54,0.120583191885305,1
814,1020,55,0.209501119650334,1
815,1017,55,0.141499897588361,1
815,1018,55,0.145548266407437,1
815,1019,55,0.171452428333522,1
815,1020,55,0.22869048866274,1
815,1021,55,0.176726957475522,1
816,1016,55,0.133742922573786,1
816,1017,55,0.212471999320145,1
816,1018,55,0.198563306974506,1
816,1019,55,0.151677466368093,1
816,1020,55,0.144537128128925,1
817,1016,55,0.122629752342843,1
817,1017,55,0.209227543021368,1
817,1018,55,0.20207914940492,1
817,1019,55,0.129564230940412,1
818,997,55,0.15095891258248,1
818,998,55,0.18262116182471,1
818,999,55,0.168099554193752,1
818,1000,55,0.159501404650525,1
818,1017,55,0.124384175828441,1
818,1018,55,0.124301490442648,1
819,996,55,0.116883171026118,1
819,997,55,0.148051204029234,1
819,998,55,0.166677002830594,1
819,999,55,0.153661055915813,1
820,995,55,0.118899924232346,1
820,996,55,0.120105427929906,1
820,997,55,0.15179830880416,1
820,998,55,0.175351760896052,1
821,997,55,0.138922106197572,1
821,998,55,0.179319493504257,1
822,998,55,0.145450801053097,1
823,998,55,0.138464869321995,1
824,997,55,0.136135298964729,1
824,999,55,0.18672889783219,1
825,997,55,0.147395338508623,1
825,1000,55,0.176060775419096,1
826,997,55,0.11978208225944,1
826,998,55,0.159706934539837,1
826,999,55,0.184064299152028,1
826,1000,55,0.183247903152319,1
827,998,55,0.134534233846001,1
827,999,55,0.179878011439201,1
827,1000,55,0.189817958366042,1
828,999,55,0.136045347251769,1
828,1000,55,0.147317740729533,1
830,989,55,0.151826078657415,1
830,990,55,0.159024971481138,1
831,988,55,0.148234440308618,1
831,989,55,0.266863484814625,1
831,990,55,0.261482445684146,1
831,991,55,0.153486346088403,1
832,988,55,0.156816243559938,1
832,989,55,0.247300365139417,1
832,990,55,0.224350124194133,1
832,991,55,0.132166011810031,1
833,988,55,0.135554240105641,1
833,989,55,0.16253048559887,1
833,990,55,0.147792148277732,1
833,991,55,0.116786471168156,1
834,988,55,0.118451649552837,1
834,989,55,0.128586220989807,1
834,990,55,0.130589254145552,1
834,991,55,0.133187337078817,1
835,988,55,0.116370217791021,1
835,989,55,0.136177954778337,1
835,990,55,0.13593028725758,1
835,991,55,0.140904635827228,1
836,988,55,0.12956397184933,1
836,989,55,0.15490724869013,1
836,990,55,0.141436432050113,1
836,991,55,0.124150605217925,1
837,989,55,0.15817133702681,1
837,990,55,0.15589055823105,1
837,991,55,0.131071081120193,1
838,989,55,0.119193898395595,1
838,990,55,0.12768604435564,1
815,1020,56,0.161259596733681,1
816,1017,56,0.146367441747845,1
816,1018,56,0.139195894810151,1
817,1017,56,0.139092187716106,1
817,1018,56,0.135192183872136,1
830,989,56,0.144337039152337,1
830,990,56,0.154533439142991,1
831,988,56,0.150311644175048,1
831,989,56,0.255822365458241,1
831,990,56,0.247585435990936,1
831,991,56,0.163379597736128,1
832,988,56,0.161512304753671,1
832,989,56,0.233497452616481,1
832,990,56,0.208221021274864,1
832,991,56,0.137544424699087,1
833,989,56,0.150287902010434,1
833,990,56,0.136181346516139,1
830,989,57,0.142988905814079,1
830,990,57,0.153723602858406,1
831,988,57,0.154199211647077,1
831,989,57,0.213784696064491,1
831,990,57,0.206774068242518,1
831,991,57,0.172698927306391,1
832,988,57,0.164229016071938,1
832,989,57,0.196424981166434,1
832,990,57,0.179323921606387,1
832,991,57,0.14914520434655,1
833,989,57,0.14322393675615,1
833,990,57,0.130863042758131,1
831,989,58,0.166066808001637,1
831,990,58,0.165955940572231,1
832,989,58,0.156963183534093,1
832,990,58,0.149973306552423,1
