x,y,z,signal,mito.p
654,790,34,0.253162607070567,1
653,790,35,0.232395632459232,1
654,789,35,0.232007726001853,1
654,790,35,0.270321173073973,1
654,791,35,0.225743162727666,1
655,786,35,0.232884066256467,1
655,787,35,0.250866683223372,1
655,789,35,0.214314678649802,1
655,790,35,0.238012656458038,1
655,791,35,0.223070803091908,1
653,789,36,0.195126852407022,1
653,790,36,0.229736486468662,1
653,791,36,0.212400490181484,1
654,786,36,0.233217257388053,1
654,787,36,0.219203750922835,1
654,788,36,0.215083872965099,1
654,789,36,0.264029899864594,1
654,790,36,0.296526257515055,2
654,791,36,0.247919498610707,1
654,792,36,0.191468662980727,1
655,785,36,0.215350077275093,1
655,786,36,0.283781308095287,1
655,787,36,0.267110445723339,1
655,788,36,0.227651392101095,1
655,789,36,0.265304722203484,2
655,790,36,0.298670353988137,2
655,791,36,0.254123693662764,1
655,792,36,0.195336692629791,1
656,786,36,0.205244818461003,1
656,787,36,0.203510580526074,1
656,789,36,0.187380712110426,1
656,790,36,0.215991209934626,1
656,791,36,0.207980702519345,1
653,789,37,0.218731804739916,1
653,790,37,0.239657625738315,2
653,791,37,0.243813517356464,1
654,783,37,0.282316383563337,3
654,784,37,0.238958315353982,3
654,785,37,0.212218608241847,1
654,786,37,0.238585035765875,1
654,787,37,0.227173675253165,1
654,788,37,0.247271111400874,1
654,789,37,0.293475036056057,2
654,790,37,0.32358704913912,2
654,791,37,0.277930348403076,2
654,792,37,0.237844883205509,1
654,793,37,0.20690768857968,1
655,783,37,0.284535475127821,3
655,784,37,0.269776068990962,3
655,785,37,0.268403098239424,1
655,786,37,0.303553302290139,1
655,787,37,0.266939210071803,1
655,788,37,0.262222127169817,2
655,789,37,0.317544126508805,2
655,790,37,0.359690378619691,2
655,791,37,0.287842513699794,2
655,792,37,0.223278382156143,1
656,785,37,0.211948093598396,1
656,786,37,0.23670726137146,1
656,787,37,0.227284354252693,1
656,788,37,0.225374476117832,1
656,789,37,0.25800473675027,2
656,790,37,0.287720434692654,2
656,791,37,0.239076060473931,1
657,790,37,0.187566763061111,1
643,785,38,0.241621583248132,4
643,786,38,0.248401337362215,4
643,787,38,0.222198843831955,1
643,788,38,0.213613719504037,1
644,785,38,0.226965295361949,4
644,786,38,0.246240682613613,4
644,787,38,0.22477124141749,4
644,788,38,0.222066071429244,1
644,789,38,0.217798629323382,1
645,788,38,0.202482224467469,1
645,789,38,0.213895422171489,1
652,788,38,0.218594510020136,2
652,789,38,0.219740728967363,2
653,783,38,0.18022966869882,3
653,784,38,0.163189660419211,3
653,788,38,0.240593910247834,2
653,789,38,0.2528448200815,2
653,790,38,0.254096842405164,2
653,791,38,0.268629143431692,2
653,792,38,0.272410271576446,1
653,793,38,0.222677125969519,1
654,782,38,0.224144829842167,3
654,783,38,0.366257795815123,3
654,784,38,0.312882041577429,3
654,785,38,0.221492066913711,3
654,786,38,0.215838228427511,1
654,787,38,0.231128394422928,1
654,788,38,0.278743729524738,2
654,789,38,0.31295534079993,2
654,790,38,0.34024747720658,2
654,791,38,0.310736861632549,2
654,792,38,0.282164885941511,2
654,793,38,0.252199447749714,1
654,794,38,0.227143950439927,1
655,782,38,0.21436852248741,3
655,783,38,0.356903477171909,3
655,784,38,0.343078471245789,3
655,785,38,0.288158628373696,3
655,786,38,0.272609441957379,1
655,787,38,0.257865227979425,2
655,788,38,0.299353883370196,2
655,789,38,0.353164062691374,2
655,790,38,0.399431912182632,2
655,791,38,0.329827092975447,2
655,792,38,0.265549421953664,2
655,793,38,0.237105649240797,1
656,783,38,0.182570050220331,3
656,784,38,0.222732335923742,3
656,785,38,0.240194226923087,1
656,786,38,0.236337632612237,1
656,787,38,0.235909472822193,1
656,788,38,0.28060567580941,2
656,789,38,0.332711671761182,2
656,790,38,0.349186731936264,2
656,791,38,0.263576231379831,2
656,792,38,0.212475744363968,1
657,788,38,0.215680206421163,1
657,789,38,0.260247240727083,2
657,790,38,0.255269512196501,2
657,791,38,0.183628507951929,1
641,785,39,0.213676819959397,1
642,784,39,0.214762741345698,1
642,785,39,0.23976415928053,4
642,786,39,0.227270905070158,4
642,787,39,0.221066969109183,1
642,788,39,0.224686683509785,1
643,784,39,0.280192825946945,4
643,785,39,0.329788229313132,4
643,786,39,0.329017056484117,4
643,787,39,0.284106726494409,4
643,788,39,0.267327045867978,1
643,789,39,0.207968807883303,1
644,782,39,0.212267694225039,4
644,784,39,0.267512295991682,4
644,785,39,0.329806624779961,4
644,786,39,0.358135620143455,4
644,787,39,0.310680591760263,4
644,788,39,0.28973764719671,4
644,789,39,0.282564098191563,1
644,790,39,0.214769100854077,1
645,785,39,0.226946970556324,4
645,786,39,0.243650761049434,4
645,787,39,0.24387068227067,4
645,788,39,0.275774616385033,4
645,789,39,0.304739044404254,4
645,790,39,0.233510242294443,1
646,788,39,0.214834109161951,1
646,789,39,0.217602827126516,1
651,788,39,0.249678538628313,2
651,789,39,0.216981102744406,2
652,787,39,0.235580709792738,2
652,788,39,0.318452358520253,2
652,789,39,0.299555503339543,2
652,790,39,0.261602475516364,2
652,791,39,0.287321787732235,2
652,792,39,0.252867832080337,1
653,783,39,0.185072563874902,3
653,784,39,0.181402821341719,3
653,785,39,0.139080375518135,1
653,787,39,0.218121574580357,2
653,788,39,0.309519157100396,2
653,789,39,0.317331412730398,2
653,790,39,0.280030258069792,2
653,791,39,0.290908409135533,2
653,792,39,0.294293716768036,2
653,793,39,0.243483835731355,1
654,782,39,0.217566672143695,3
654,783,39,0.409295745215671,3
654,784,39,0.398959471371283,3
654,785,39,0.253136368210071,3
654,786,39,0.198854996425485,1
654,787,39,0.244760942782514,2
654,788,39,0.324782683821825,2
654,789,39,0.343853483333566,2
654,790,39,0.349583706581516,2
654,791,39,0.351917434172964,2
654,792,39,0.334875247172892,2
654,793,39,0.287539895315897,2
654,794,39,0.246695269694031,1
655,782,39,0.217416022456319,3
655,783,39,0.400092453119589,3
655,784,39,0.428334040573475,3
655,785,39,0.318751750042491,3
655,786,39,0.241474348852292,3
655,787,39,0.260573648383064,2
655,788,39,0.343799945694509,2
655,789,39,0.387494714541925,2
655,790,39,0.415377696384445,2
655,791,39,0.382292942886527,2
655,792,39,0.332570843981192,2
655,793,39,0.272559036965043,2
655,794,39,0.208246765506931,1
656,783,39,0.198281722075728,3
656,784,39,0.256902421964593,3
656,785,39,0.261834715340868,3
656,786,39,0.225697963110706,1
656,787,39,0.248806791351973,2
656,788,39,0.353129697792393,2
656,789,39,0.426838896599858,2
656,790,39,0.400190201118746,2
656,791,39,0.289909165493063,2
656,792,39,0.244840365976046,2
656,793,39,0.216077722802314,1
657,787,39,0.196212809123925,1
657,788,39,0.290626353162061,2
657,789,39,0.372904235790597,2
657,790,39,0.334246668653974,2
657,791,39,0.21056428812888,2
658,788,39,0.172085270078428,1
658,789,39,0.212345633533283,2
658,790,39,0.210799919691186,2
640,785,40,0.211697623183206,1
641,784,40,0.236658104727065,1
641,785,40,0.252580806268836,1
641,786,40,0.204112119357514,1
641,787,40,0.188333649110404,1
642,783,40,0.200169035732711,1
642,784,40,0.245133350882436,4
642,785,40,0.264137870184627,4
642,786,40,0.247386571808554,4
642,787,40,0.243569759755674,4
642,788,40,0.25680867810034,1
643,781,40,0.294177172888558,4
643,782,40,0.289686111625106,4
643,783,40,0.295276119490169,4
643,784,40,0.334097432190682,4
643,785,40,0.360806543001394,4
643,786,40,0.370428714716034,4
643,787,40,0.312771692330188,4
643,788,40,0.276818729892177,4
643,789,40,0.215396171933973,1
644,781,40,0.315223259256524,4
644,782,40,0.312649118694618,4
644,783,40,0.290697202796149,4
644,784,40,0.320040657514753,4
644,785,40,0.384560437375895,4
644,786,40,0.431796486687241,4
644,787,40,0.353741317622301,4
644,788,40,0.307238095659819,4
644,789,40,0.299643947613479,4
644,790,40,0.210081365905573,1
645,782,40,0.215488502574141,4
645,784,40,0.227794504593355,4
645,785,40,0.277233723144503,4
645,786,40,0.296868611049453,4
645,787,40,0.269982211277377,4
645,788,40,0.309422304143158,4
645,789,40,0.361203776737729,4
645,790,40,0.255866999785567,4
646,786,40,0.170491082650244,1
646,788,40,0.223870687923567,4
646,789,40,0.237898727043117,4
651,788,40,0.308850466571221,2
651,789,40,0.247035691822181,2
651,790,40,0.223162120921482,1
652,787,40,0.267244018953031,2
652,788,40,0.399947173683733,2
652,789,40,0.37457683360172,2
652,790,40,0.282169667349662,2
652,791,40,0.270928576785364,2
652,792,40,0.237470779236686,2
653,783,40,0.162739466110321,3
653,784,40,0.181860058217295,3
653,785,40,0.146865591460659,1
653,787,40,0.232904393129545,2
653,788,40,0.372926682499801,2
653,789,40,0.390876653990361,2
653,790,40,0.30475244647932,2
653,791,40,0.295447284480501,2
653,792,40,0.29486498905034,2
653,793,40,0.244691765463592,2
654,782,40,0.176532945362496,3
654,783,40,0.358385972789972,3
654,784,40,0.417692557434369,3
654,785,40,0.28595310376042,3
654,786,40,0.199776277205977,1
654,787,40,0.258468109373746,2
654,788,40,0.370027618167203,2
654,789,40,0.384291430171467,2
654,790,40,0.350466100145958,2
654,791,40,0.391553823864041,2
654,792,40,0.397514826604942,2
654,793,40,0.310793272827243,2
654,794,40,0.240820944696961,2
655,782,40,0.188698060717383,3
655,783,40,0.364542966157617,3
655,784,40,0.452750595721059,3
655,785,40,0.340837192063183,3
655,786,40,0.229088452564851,3
655,787,40,0.267301395850849,2
655,788,40,0.378393622100865,2
655,789,40,0.415470922066533,2
655,790,40,0.398697176981255,2
655,791,40,0.419772069566803,2
655,792,40,0.407861511200084,2
655,793,40,0.305622709870372,2
655,794,40,0.212675762679352,2
656,783,40,0.187018208355961,3
656,784,40,0.255317656030303,3
656,785,40,0.250527273905816,3
656,787,40,0.261353277002849,2
656,788,40,0.423466849720012,2
656,789,40,0.509250776425312,2
656,790,40,0.408920298683968,2
656,791,40,0.29948950577481,2
656,792,40,0.271437832084106,2
656,793,40,0.239284511026351,2
657,787,40,0.234145156768006,2
657,788,40,0.385738430311282,2
657,789,40,0.477415784092524,2
657,790,40,0.36967763322275,2
657,791,40,0.227207474862512,2
657,792,40,0.185371802297865,1
658,788,40,0.213132092736141,2
658,789,40,0.258934449767798,2
658,790,40,0.24448753102969,2
659,803,40,0.188978055739065,1
661,802,40,0.228491648034092,1
640,785,41,0.228259431763323,1
641,784,41,0.233701003992075,1
641,785,41,0.256847706638799,1
641,786,41,0.211093375672271,1
641,787,41,0.189456820728191,1
642,781,41,0.217289868653069,4
642,782,41,0.200533977298722,4
642,783,41,0.206888939806829,4
642,784,41,0.248169168198916,4
642,785,41,0.260835189053581,4
642,786,41,0.246570905974622,4
642,787,41,0.240317318740821,4
642,788,41,0.249752638677795,1
643,780,41,0.302852013392088,4
643,781,41,0.377264550272526,4
643,782,41,0.348132725860531,4
643,783,41,0.316950925699461,4
643,784,41,0.327926447904603,4
643,785,41,0.333963387886295,4
643,786,41,0.35147316362836,4
643,787,41,0.301264915638059,4
643,788,41,0.253309700143998,4
643,789,41,0.195503405964258,1
644,780,41,0.302001417369542,4
644,781,41,0.383562748279918,4
644,782,41,0.377607327774149,4
644,783,41,0.321923283978523,4
644,784,41,0.316446239825258,4
644,785,41,0.368813964877424,4
644,786,41,0.415674944516822,4
644,787,41,0.333526324784521,4
644,788,41,0.278200651062914,4
644,789,41,0.266282696823487,1
644,790,41,0.179972626791638,1
645,777,41,0.254877224744461,4
645,781,41,0.218987739621565,4
645,782,41,0.25093793327095,4
645,783,41,0.24257800620085,4
645,784,41,0.241919514438816,4
645,785,41,0.287201687238813,4
645,786,41,0.301988062401946,4
645,787,41,0.253939315027245,4
645,788,41,0.28544227036145,4
645,789,41,0.341099721990558,4
645,790,41,0.236266618102006,1
646,783,41,0.274041061508411,4
646,786,41,0.171863888525638,1
646,788,41,0.205206402319647,1
646,789,41,0.227540265580607,1
647,783,41,0.319915869828118,4
651,788,41,0.302950491557022,2
651,789,41,0.25186517314633,2
651,790,41,0.209159708265326,1
651,793,41,0.188231802761402,1
652,787,41,0.25819220092504,2
652,788,41,0.389544101447631,2
652,789,41,0.382881904023619,2
652,790,41,0.27313808197981,2
652,791,41,0.23371087300693,2
652,792,41,0.217044085431092,2
653,784,41,0.168584666914389,3
653,785,41,0.153748569817227,1
653,787,41,0.229376679616824,2
653,788,41,0.375516980923736,2
653,789,41,0.411172177047206,2
653,790,41,0.306440165788144,2
653,791,41,0.285415678194932,2
653,792,41,0.28321698416473,2
653,793,41,0.234626759982167,2
654,783,41,0.264723957766081,3
654,784,41,0.375529982585311,3
654,785,41,0.30631975909617,3
654,786,41,0.206777483534055,1
654,787,41,0.256734059868695,2
654,788,41,0.373575776321675,2
654,789,41,0.394091055723614,2
654,790,41,0.338264205634279,2
654,791,41,0.4017956236784,2
654,792,41,0.427847750166101,2
654,793,41,0.314229126774491,2
654,794,41,0.216755811271649,2
655,782,41,0.154136122968585,1
655,783,41,0.290177701622796,3
655,784,41,0.418172629655773,3
655,785,41,0.347782693808609,3
655,786,41,0.225077180877985,3
655,787,41,0.260272042809761,2
655,788,41,0.373585810212673,2
655,789,41,0.411082861285084,2
655,790,41,0.359593737646066,2
655,791,41,0.410913133072571,2
655,792,41,0.439688212618244,2
655,793,41,0.330673684863089,2
655,794,41,0.226899980855524,2
656,783,41,0.166622487711546,1
656,784,41,0.230176069820053,3
656,785,41,0.220329972749271,3
656,787,41,0.25060919379523,2
656,788,41,0.431757905669742,2
656,789,41,0.512811818472685,2
656,790,41,0.376042299869569,2
656,791,41,0.296286739586517,2
656,792,41,0.287423186560277,2
656,793,41,0.260944007308064,2
656,794,41,0.221710245158577,1
657,787,41,0.254552748494728,2
657,788,41,0.43795046517684,2
657,789,41,0.50892177785851,2
657,790,41,0.359213062185251,2
657,791,41,0.245282540238258,2
657,792,41,0.207518154276586,2
657,793,41,0.214388755145549,1
658,788,41,0.257823490761472,2
658,789,41,0.295559376704113,2
658,790,41,0.266500757299679,2
658,791,41,0.24904998366313,1
658,799,41,0.192659327825402,1
658,803,41,0.223609971633766,1
659,789,41,0.139311202118555,2
659,799,41,0.218726693579478,1
659,802,41,0.227541396159874,1
659,803,41,0.257296358178064,1
659,804,41,0.221419992485416,1
660,802,41,0.236028607612492,1
660,803,41,0.226270813493237,1
661,801,41,0.231795059330916,1
661,802,41,0.301870246620793,5
661,803,41,0.263706742624007,5
662,803,41,0.290767228049521,5
641,785,42,0.238626914306237,1
641,786,42,0.221129527828643,1
641,787,42,0.194340840725123,1
642,780,42,0.195741769759793,4
642,781,42,0.230848081425826,4
642,782,42,0.20916649174093,4
642,783,42,0.205099751008759,4
642,784,42,0.233712568875831,1
642,785,42,0.244926101570488,4
642,786,42,0.243088509847534,4
642,787,42,0.234223072522515,1
642,788,42,0.231029845596789,1
643,779,42,0.247828793178235,4
643,780,42,0.326047519377187,4
643,781,42,0.409606607406726,4
643,782,42,0.367617058293044,4
643,783,42,0.300829783942533,4
643,784,42,0.284296051414223,4
643,785,42,0.287759981413277,4
643,786,42,0.30634482026993,4
643,787,42,0.277702418912029,4
643,788,42,0.233140330890403,1
644,777,42,0.298198431358953,4
644,778,42,0.282910479414601,4
644,779,42,0.2906617073179,4
644,780,42,0.33194344314901,4
644,781,42,0.405761742855775,4
644,782,42,0.391667800386432,4
644,783,42,0.317781289063869,4
644,784,42,0.285062560603759,4
644,785,42,0.322835473017407,4
644,786,42,0.354496332589287,4
644,787,42,0.295629708156037,4
644,788,42,0.25056802186691,1
644,789,42,0.22293953812822,1
645,776,42,0.30842913736425,4
645,777,42,0.314509533986532,4
645,778,42,0.233472297227782,4
645,780,42,0.179415463196442,4
645,781,42,0.217934911232569,4
645,782,42,0.267362918205982,4
645,783,42,0.282224500444129,4
645,784,42,0.243713461091303,4
645,785,42,0.263178149709045,4
645,786,42,0.269926388926051,4
645,787,42,0.22477213645941,1
645,788,42,0.24101024606304,1
645,789,42,0.274093539229405,1
646,777,42,0.29034326082426,4
646,782,42,0.268267310958667,4
646,783,42,0.36573337191121,4
646,784,42,0.250326808069472,4
647,782,42,0.282136856997174,4
647,783,42,0.401866803064774,4
647,784,42,0.267371044244466,4
648,783,42,0.235100778893743,4
650,793,42,0.19454335573639,1
651,788,42,0.26222542469268,2
651,789,42,0.238521393574617,2
651,792,42,0.194812633808767,1
651,793,42,0.213704848903734,1
651,794,42,0.169940196125354,1
652,787,42,0.242576074794602,2
652,788,42,0.344831081093813,2
652,789,42,0.343535343038477,2
652,790,42,0.239402680113525,2
652,791,42,0.194420617224677,1
652,792,42,0.201990822899657,1
652,793,42,0.211704335997606,1
653,787,42,0.240357006783852,2
653,788,42,0.359165012566389,2
653,789,42,0.380891566330897,2
653,790,42,0.28575534660357,2
653,791,42,0.261033275962717,2
653,792,42,0.257549019090585,2
653,793,42,0.217587705628815,1
654,784,42,0.306867477643737,3
654,785,42,0.290308825264075,1
654,787,42,0.248573680039284,2
654,788,42,0.34975378810005,2
654,789,42,0.371972520705617,2
654,790,42,0.328557829317955,2
654,791,42,0.384114188317574,2
654,792,42,0.402928464104297,2
654,793,42,0.294197664637779,2
654,794,42,0.186014842809912,1
655,783,42,0.213174348136259,3
655,784,42,0.33978806161054,3
655,785,42,0.315405046981221,3
655,787,42,0.238099216433196,2
655,788,42,0.335504532303853,2
655,789,42,0.370983617152696,2
655,790,42,0.320023651718273,2
655,791,42,0.371348346735094,2
655,792,42,0.412793945898767,2
655,793,42,0.335130145690213,2
655,794,42,0.239811572948554,2
656,784,42,0.191783281992473,3
656,787,42,0.224998652726373,2
656,788,42,0.381192159093607,2
656,789,42,0.445239875003156,2
656,790,42,0.325261154389267,2
656,791,42,0.281507618973683,2
656,792,42,0.278987063158303,2
656,793,42,0.27148981517667,2
656,794,42,0.271087917800858,1
656,795,42,0.238912267802572,1
657,787,42,0.244187739093961,2
657,788,42,0.417780271542528,2
657,789,42,0.467478463407106,2
657,790,42,0.325664135236877,2
657,791,42,0.253196807093405,2
657,792,42,0.217392280291705,1
657,793,42,0.213071583191603,1
657,794,42,0.237483003625014,1
657,799,42,0.199792670605354,1
657,803,42,0.149162551672183,1
658,788,42,0.28218730909698,2
658,789,42,0.317859675893073,2
658,790,42,0.28223922152834,2
658,791,42,0.28248834938065,1
658,798,42,0.225675893261258,1
658,799,42,0.282136550798622,6
658,800,42,0.210770595291439,1
658,802,42,0.212600791141685,1
658,803,42,0.249578529470621,1
658,804,42,0.205759114258979,1
659,789,42,0.164708770317923,2
659,790,42,0.221138925768803,1
659,798,42,0.277961816192684,1
659,799,42,0.296671207198624,1
659,800,42,0.191374118289494,1
659,801,42,0.16981625637317,1
659,802,42,0.254895690872494,1
659,803,42,0.307435216865831,5
659,804,42,0.245275898085063,1
660,799,42,0.211899148937613,1
660,801,42,0.206281088574479,1
660,802,42,0.27473542560845,5
660,803,42,0.279159193851759,5
660,804,42,0.213390100346447,1
661,800,42,0.198984400644129,1
661,801,42,0.293411935600698,5
661,802,42,0.362796386065686,5
661,803,42,0.301030626638633,5
661,804,42,0.208363827568572,5
662,802,42,0.365637319780954,5
662,803,42,0.327114621329433,5
662,804,42,0.239717263794669,5
663,803,42,0.197606248070949,5
642,778,43,0.24237273540262,1
642,780,43,0.201693268568728,4
642,781,43,0.224532712745811,4
642,782,43,0.21262095313862,4
642,785,43,0.214315950551478,1
642,786,43,0.229667214934801,1
642,787,43,0.21502027788131,1
643,777,43,0.236290195390478,4
643,778,43,0.263315632858704,4
643,779,43,0.279997871684529,4
643,780,43,0.31469713948371,4
643,781,43,0.36231650227416,4
643,782,43,0.333477121032656,4
643,783,43,0.259505062545529,4
643,784,43,0.226270436633482,1
643,785,43,0.234117410468486,4
643,786,43,0.248455275414762,4
643,787,43,0.239953036679383,1
644,776,43,0.269918616193588,4
644,777,43,0.333131375760456,4
644,778,43,0.324887427280199,4
644,779,43,0.312327021372094,4
644,780,43,0.316712373474048,4
644,781,43,0.350349344282868,4
644,782,43,0.339511611425936,4
644,783,43,0.280864295816819,4
644,784,43,0.243259439300518,4
644,785,43,0.258062490507845,4
644,786,43,0.267988269863241,4
644,787,43,0.249510788929519,1
644,788,43,0.224338912616398,1
645,776,43,0.303795034269742,4
645,777,43,0.353604281993603,4
645,778,43,0.273121099737065,4
645,779,43,0.198409595301614,4
645,780,43,0.169940914514264,4
645,781,43,0.192693092104147,4
645,782,43,0.245651533046644,4
645,783,43,0.281551004953068,4
645,784,43,0.231497198801435,1
645,786,43,0.213205721710928,1
646,777,43,0.242404862696801,4
646,782,43,0.26119574962493,4
646,783,43,0.365235940587306,4
646,784,43,0.235888250907196,4
647,782,43,0.275289644986804,4
647,783,43,0.378542835010422,4
647,784,43,0.235003219324464,4
648,782,43,0.17291346649924,1
648,783,43,0.223051394814485,4
649,793,43,0.134853233852407,1
650,792,43,0.180179899657321,1
650,793,43,0.216448599909478,1
650,794,43,0.162995954504737,1
651,791,43,0.153075015441828,1
651,792,43,0.202090054784103,1
651,793,43,0.231674275779186,1
651,794,43,0.16047449187057,1
652,787,43,0.230076625951995,1
652,788,43,0.287621720990372,2
652,789,43,0.264194940883894,2
652,791,43,0.165071639155276,1
652,792,43,0.196503061797086,1
652,793,43,0.210628848915793,1
653,786,43,0.16459207333917,1
653,787,43,0.263138555880953,2
653,788,43,0.324686019294466,2
653,789,43,0.299679937720157,2
653,790,43,0.241507983585496,2
653,791,43,0.221670533561811,2
653,792,43,0.219570176374134,2
653,793,43,0.191812841929567,1
654,785,43,0.240271624495432,1
654,786,43,0.19062410849114,1
654,787,43,0.236731969239199,2
654,788,43,0.299944469714985,2
654,789,43,0.312005206694386,2
654,790,43,0.303074761061493,2
654,791,43,0.32453756010442,2
654,792,43,0.319243363593916,2
654,793,43,0.241971026456685,2
655,784,43,0.245446639108169,3
655,785,43,0.24856913416848,1
655,786,43,0.190807380101127,1
655,787,43,0.212651125472818,1
655,788,43,0.281190562150392,2
655,789,43,0.310220493105916,2
655,790,43,0.283187141582818,2
655,791,43,0.307765605102983,2
655,792,43,0.332421348426818,2
655,793,43,0.295545244463271,2
655,794,43,0.229891564258169,1
656,786,43,0.161999395988026,1
656,787,43,0.208999566422851,2
656,788,43,0.309445740109221,2
656,789,43,0.347230429390237,2
656,790,43,0.273559740939067,2
656,791,43,0.250465657335745,2
656,792,43,0.243369129043187,2
656,793,43,0.2592634483346,1
656,794,43,0.300890670346828,1
656,795,43,0.258651192553854,1
657,787,43,0.224109852546083,2
657,788,43,0.344680290084028,2
657,789,43,0.37955524519061,2
657,790,43,0.293242914000227,2
657,791,43,0.249239520566556,2
657,792,43,0.208797381163871,1
657,793,43,0.2036329892855,1
657,794,43,0.257478098795292,1
657,795,43,0.250224372877102,1
657,798,43,0.172107822779439,1
657,799,43,0.253744360764829,6
657,800,43,0.220655344040924,1
657,803,43,0.185738003988684,1
658,788,43,0.275954826009504,2
658,789,43,0.312473926015646,2
658,790,43,0.291927838328672,2
658,791,43,0.291253070935935,1
658,792,43,0.277155642513851,1
658,793,43,0.241016322926602,1
658,794,43,0.219348889036283,1
658,795,43,0.189103938674366,1
658,798,43,0.262220784606937,6
658,799,43,0.362692773186579,6
658,800,43,0.262059441523991,6
658,801,43,0.16410339222772,1
658,802,43,0.193881024715593,1
658,803,43,0.25090804358157,5
658,804,43,0.23338437113601,1
659,789,43,0.192804736806799,2
659,797,43,0.16785235774769,1
659,798,43,0.291014353834378,1
659,799,43,0.326358216692098,6
659,800,43,0.211553709863965,1
659,801,43,0.179823708303766,1
659,802,43,0.263669786814205,5
659,803,43,0.325581838487707,5
659,804,43,0.256585294480097,5
659,805,43,0.18159640948752,1
660,798,43,0.219380592363239,1
660,799,43,0.208333867217987,1
660,801,43,0.216158441451257,5
660,802,43,0.300554864750687,5
660,803,43,0.333061962904187,5
660,804,43,0.249150440341782,5
660,805,43,0.175167712012819,1
661,800,43,0.224724793452589,1
661,801,43,0.306394165344203,5
661,802,43,0.365677949973375,5
661,803,43,0.319840945397921,5
661,804,43,0.229826956363786,5
662,800,43,0.243624333759059,1
662,801,43,0.313199286830598,5
662,802,43,0.378214331072049,5
662,803,43,0.324466710470332,5
662,804,43,0.243284547581747,5
663,802,43,0.196845639091964,5
663,803,43,0.192941925534773,5
641,778,44,0.265142177880066,1
641,782,44,0.202695079568285,1
642,777,44,0.239328108989349,1
642,778,44,0.286982661059496,4
642,779,44,0.254832708185808,4
643,777,44,0.230395849718881,4
643,778,44,0.312955223031256,4
643,779,44,0.334492027908726,4
643,780,44,0.292291555100476,4
643,781,44,0.284024429745239,4
643,782,44,0.283482010787987,4
643,786,44,0.202106024216254,1
644,776,44,0.229662480634119,4
644,777,44,0.318329643562274,4
644,778,44,0.329316306683947,4
644,779,44,0.304829537853113,4
644,780,44,0.267282411540652,4
644,781,44,0.262724928745242,4
644,782,44,0.269433739010298,4
644,783,44,0.246726831698579,1
644,786,44,0.194843877837895,1
645,776,44,0.265976215627093,4
645,777,44,0.342306968664488,4
645,778,44,0.269669676771156,4
645,783,44,0.259621559317537,1
646,777,44,0.201801521533578,4
646,782,44,0.228458036854623,1
646,783,44,0.301771580025981,4
646,784,44,0.214215658748969,1
646,785,44,0.149680745613258,1
646,788,44,0.133470252763607,1
647,782,44,0.243423750154041,1
647,783,44,0.295462877052896,4
647,784,44,0.195012546132345,1
647,785,44,0.142802866640261,1
647,788,44,0.114488851452059,1
647,795,44,0.139833093995983,1
647,796,44,0.179147386364536,1
648,781,44,0.152349336651458,1
648,782,44,0.183594637681378,1
648,783,44,0.194224108415768,1
648,784,44,0.151557719180692,1
648,785,44,0.145720020241137,1
648,786,44,0.134364470302886,1
648,796,44,0.144917332515045,1
649,793,44,0.116325701232369,1
650,791,44,0.115019352219534,1
650,792,44,0.168844735476485,1
650,793,44,0.190503925559646,1
650,794,44,0.131827367988854,1
651,787,44,0.126391377995234,1
651,788,44,0.147001885146713,1
651,789,44,0.146105265126491,1
651,790,44,0.122443524739147,1
651,791,44,0.128209420118357,1
651,792,44,0.184395429331824,1
651,793,44,0.200030233573908,1
651,794,44,0.131303144291686,1
652,779,44,0.120642582627444,1
652,786,44,0.119036653662493,1
652,787,44,0.190890171478726,1
652,788,44,0.211315016316143,1
652,789,44,0.176535583380786,1
652,790,44,0.138545953053826,1
652,791,44,0.135186401430258,1
652,792,44,0.170924718683614,1
652,793,44,0.176005695010415,1
652,794,44,0.119922686278951,1
653,785,44,0.120481416197508,1
653,786,44,0.150871280912393,1
653,787,44,0.237208626169066,1
653,788,44,0.249013004299593,2
653,789,44,0.203095775703625,2
653,790,44,0.18014938579397,1
653,791,44,0.169708686466627,1
653,792,44,0.168231584653819,1
653,793,44,0.151002204346927,1
654,784,44,0.164739107528264,1
654,785,44,0.169577280180531,1
654,786,44,0.155164797002608,1
654,787,44,0.193882367278473,1
654,788,44,0.220939614065461,2
654,789,44,0.227676123522568,2
654,790,44,0.241926038823338,2
654,791,44,0.238092268081448,2
654,792,44,0.219919690243892,2
654,793,44,0.175683668349094,1
654,794,44,0.119971630939734,1
655,784,44,0.154480407909231,1
655,785,44,0.165669633149639,1
655,786,44,0.153640363959846,1
655,787,44,0.169389721790822,1
655,788,44,0.207704888285578,1
655,789,44,0.231455626459625,2
655,790,44,0.227552607737609,2
655,791,44,0.230647497820808,2
655,792,44,0.23733176509427,2
655,793,44,0.223924602422379,1
655,794,44,0.192288733363055,1
655,795,44,0.140060729065346,1
656,785,44,0.123560666600842,1
656,786,44,0.148402990834394,1
656,787,44,0.177683981048477,1
656,788,44,0.223230308983545,2
656,789,44,0.241446296354221,2
656,790,44,0.212036749855945,1
656,791,44,0.199862059907888,1
656,792,44,0.192037367905945,1
656,793,44,0.219575263980837,1
656,794,44,0.277051864758601,1
656,795,44,0.233781793302222,1
656,796,44,0.131603760608131,1
656,799,44,0.137484056476957,1
656,800,44,0.134089892640193,1
657,786,44,0.139736394138022,1
657,787,44,0.185275585291465,1
657,788,44,0.244881561458101,2
657,789,44,0.267022048556872,2
657,790,44,0.241420834766971,2
657,791,44,0.219116131029615,1
657,792,44,0.180485144282642,1
657,793,44,0.182257162408089,1
657,794,44,0.244388369806449,1
657,795,44,0.233965017804739,1
657,796,44,0.13642836630919,1
657,798,44,0.170296187272165,1
657,799,44,0.26349169702586,6
657,800,44,0.217170616094097,1
657,803,44,0.214475903964075,1
658,787,44,0.17545841220694,1
658,788,44,0.238637230842052,1
658,789,44,0.264628423817989,2
658,790,44,0.267899330960876,1
658,791,44,0.268103918700799,1
658,792,44,0.241842423065023,1
658,793,44,0.205412733035941,1
658,794,44,0.190803682164773,1
658,795,44,0.166900351120234,1
658,796,44,0.114561691376733,1
658,797,44,0.126656522387165,1
658,798,44,0.253994501427733,6
658,799,44,0.373001230070243,6
658,800,44,0.266264536894005,6
658,801,44,0.159471302977531,1
658,802,44,0.171917379057225,1
658,803,44,0.237919171684868,5
658,804,44,0.248807662840158,1
659,788,44,0.184132487214091,1
659,789,44,0.207394190970666,1
659,790,44,0.23840117531252,1
659,791,44,0.283664787769544,1
659,792,44,0.307602071522706,1
659,793,44,0.279952695621304,1
659,794,44,0.230404305509652,1
659,795,44,0.183412708634272,1
659,796,44,0.139402143088373,1
659,798,44,0.242093011248887,1
659,799,44,0.289266219195955,6
659,800,44,0.201966798090225,1
659,801,44,0.179311685441192,1
659,802,44,0.255914342792388,5
659,803,44,0.315616512411688,5
659,804,44,0.246330704987777,5
659,805,44,0.192095451415806,1
660,793,44,0.217079463140666,1
660,794,44,0.214486903558197,1
660,795,44,0.212843747915494,1
660,796,44,0.201726408673503,1
660,799,44,0.181129268266487,1
660,801,44,0.210751964287262,5
660,802,44,0.311458665833555,5
660,803,44,0.359433642911061,5
660,804,44,0.256654848658775,5
660,805,44,0.18567836593233,1
661,800,44,0.219766685183043,1
661,801,44,0.27084522011813,5
661,802,44,0.324926455818658,5
661,803,44,0.309876632132495,5
661,804,44,0.231886070961938,5
662,800,44,0.258249648484063,1
662,801,44,0.286968952785879,5
662,802,44,0.326902991022824,5
662,803,44,0.289052610375627,5
662,804,44,0.234143979081269,1
663,801,44,0.16108015260559,1
663,802,44,0.185208162725781,5
663,803,44,0.179360924523659,1
640,782,45,0.24229039154598,1
640,783,45,0.20742205503886,1
641,778,45,0.240512508540584,4
641,779,45,0.194594855977391,1
641,781,45,0.230618526727082,1
641,782,45,0.26791457022725,1
641,783,45,0.234829793175597,1
641,784,45,0.204085998265691,1
642,777,45,0.209482771290975,4
642,778,45,0.316336879834875,4
642,779,45,0.31343032541463,4
642,780,45,0.221057594722757,1
642,782,45,0.257830768865505,1
642,783,45,0.228662860131893,1
643,777,45,0.215443043866099,4
643,778,45,0.342487672917388,4
643,779,45,0.363432431118516,4
643,780,45,0.252208186185301,4
644,777,45,0.265378940021639,4
644,778,45,0.295915014544902,4
644,779,45,0.261536689935244,4
645,777,45,0.275264937119065,4
645,778,45,0.227503898614174,1
645,781,45,0.139940569687587,1
645,782,45,0.189662845245933,1
645,783,45,0.228241201172637,1
645,784,45,0.210606331545385,1
645,785,45,0.160437854036187,1
645,786,45,0.128944591063826,1
645,788,45,0.131032170350408,1
646,781,45,0.129705412026424,1
646,782,45,0.193609897675039,1
646,783,45,0.226976200741132,1
646,784,45,0.194226746434059,1
646,785,45,0.149168958288032,1
646,786,45,0.119534014325193,1
646,787,45,0.115420272115355,1
646,788,45,0.117945927314305,1
646,795,45,0.132971455323088,1
646,796,45,0.150351697300968,1
647,781,45,0.156265086167099,1
647,782,45,0.19746438392663,1
647,783,45,0.203745387707664,1
647,784,45,0.160193024740466,1
647,785,45,0.126645522793043,1
647,795,45,0.131803460948096,1
647,796,45,0.163173349457906,1
647,797,45,0.136960869144118,1
648,779,45,0.143254851032991,1
648,780,45,0.150766973198111,1
648,781,45,0.17856936593723,1
648,782,45,0.179924954032531,1
648,783,45,0.15809199627135,1
648,784,45,0.123746281807434,1
648,796,45,0.118139680336249,1
649,778,45,0.118694147028819,1
649,779,45,0.14250236809249,1
649,780,45,0.130592151254924,1
649,781,45,0.130192597475718,1
649,782,45,0.117807819990676,1
650,792,45,0.15377446714857,1
650,793,45,0.153578358753152,1
651,791,45,0.114289021566553,1
651,792,45,0.163203038940542,1
651,793,45,0.160199502017519,1
652,778,45,0.118231798992805,1
652,779,45,0.12147550157207,1
652,787,45,0.153562306882929,1
652,788,45,0.15047676763242,1
652,789,45,0.119179012435241,1
652,791,45,0.114840002306382,1
652,792,45,0.142056295687179,1
652,793,45,0.136778704559664,1
653,786,45,0.136162515305217,1
653,787,45,0.191570780197678,1
653,788,45,0.178294352530444,1
653,789,45,0.13996982342613,1
653,790,45,0.131190192356757,1
653,791,45,0.129508385035351,1
653,792,45,0.128692295234194,1
653,793,45,0.116912601417671,1
654,785,45,0.119846054202985,1
654,786,45,0.128900074505174,1
654,787,45,0.155008529749498,1
654,788,45,0.159645989251206,1
654,789,45,0.162646334643172,1
654,790,45,0.17217570464295,1
654,791,45,0.161955550710814,1
654,792,45,0.14742931477098,1
654,793,45,0.125785929243827,1
655,786,45,0.125267005136975,1
655,787,45,0.136467229971506,1
655,788,45,0.152578596928518,1
655,789,45,0.1710945646648,1
655,790,45,0.171634463372435,1
655,791,45,0.164252593360409,1
655,792,45,0.161758382397333,1
655,793,45,0.158060151621986,1
655,794,45,0.150474200275334,1
655,795,45,0.117649621331317,1
656,786,45,0.130301203746589,1
656,787,45,0.143895536171565,1
656,788,45,0.153513762635637,1
656,789,45,0.163019590677545,1
656,790,45,0.15938663907802,1
656,791,45,0.15440066674028,1
656,792,45,0.148420844565324,1
656,793,45,0.172858539189834,1
656,794,45,0.219761856667422,1
656,795,45,0.185893493968548,1
656,799,45,0.125971379574277,1
656,800,45,0.119414914865497,1
656,803,45,0.155224105306675,1
657,786,45,0.119471514490069,1
657,787,45,0.143657042830488,1
657,788,45,0.160143809211734,1
657,789,45,0.173209737151626,1
657,790,45,0.18660073018462,1
657,791,45,0.183139873947949,1
657,792,45,0.153246392415773,1
657,793,45,0.159493749686735,1
657,794,45,0.208319452332328,1
657,795,45,0.192811072761444,1
657,796,45,0.120104697764129,1
657,798,45,0.162716030144258,1
657,799,45,0.233416003801761,1
657,800,45,0.188724817760044,1
657,801,45,0.127791058681963,1
657,802,45,0.131661820564257,1
657,803,45,0.218874658141094,1
658,787,45,0.149471894647348,1
658,788,45,0.189981609714992,1
658,789,45,0.202689827085438,1
658,790,45,0.221228948142967,1
658,791,45,0.225282051262725,1
658,792,45,0.193571976162113,1
658,793,45,0.166456092352498,1
658,794,45,0.160229297491961,1
658,795,45,0.140302661251694,1
658,797,45,0.114815942166348,1
658,798,45,0.213765523324416,1
658,799,45,0.309717715084226,6
658,800,45,0.232414381232083,1
658,801,45,0.14995116604177,1
658,802,45,0.155080922153211,1
658,803,45,0.2232513660224,1
658,809,45,0.208024418251016,1
659,787,45,0.13738084401134,1
659,788,45,0.199466993115149,1
659,789,45,0.206290627837047,1
659,790,45,0.210461711614102,1
659,791,45,0.228866364400019,1
659,792,45,0.229918321300829,1
659,793,45,0.20344203915799,1
659,794,45,0.168496941029362,1
659,795,45,0.138665664910626,1
659,796,45,0.118801799373433,1
659,797,45,0.125765472825208,1
659,798,45,0.175128224176533,1
659,799,45,0.218689973307023,1
659,800,45,0.179995579906139,1
659,801,45,0.172318039861964,1
659,802,45,0.23660178774731,1
659,803,45,0.286997617681054,5
659,804,45,0.228954761566485,1
660,788,45,0.118569771532542,1
660,789,45,0.12871992376504,1
660,790,45,0.131715888162345,1
660,791,45,0.148739467711975,1
660,792,45,0.169899554156066,1
660,793,45,0.180760852524602,1
660,794,45,0.18119355818545,1
660,795,45,0.181788902384655,1
660,796,45,0.188112609086767,1
660,797,45,0.176386735554118,1
660,798,45,0.155244785485774,1
660,799,45,0.14737028911173,1
660,801,45,0.195615156658716,1
660,802,45,0.295933504226671,5
660,803,45,0.336272878684699,5
660,804,45,0.242250632841745,5
660,805,45,0.194950482041314,1
661,793,45,0.114128184888904,1
661,794,45,0.14180595481753,1
661,795,45,0.175832068654803,1
661,796,45,0.226886625887929,1
661,801,45,0.212658285808178,1
661,802,45,0.26443196211655,5
661,803,45,0.274359390233378,5
661,804,45,0.221893069247603,1
662,801,45,0.222883833545568,1
662,802,45,0.24447236242452,5
662,803,45,0.23829654962282,1
639,782,46,0.197479116787708,1
639,783,46,0.168604157629884,1
640,781,46,0.233329443826604,1
640,782,46,0.271415244052494,1
640,783,46,0.238843255359794,1
640,784,46,0.232521150311644,1
641,778,46,0.210515885203996,1
641,779,46,0.213891347375379,4
641,781,46,0.234189320020637,1
641,782,46,0.32479747556724,7
641,783,46,0.298607135764104,7
641,784,46,0.24774746213219,1
641,785,46,0.205065974953147,1
642,777,46,0.171299293727132,1
642,778,46,0.304813827512044,4
642,779,46,0.334273519911574,4
642,780,46,0.22175963734032,4
642,781,46,0.202165780041281,1
642,782,46,0.280252746648115,1
642,783,46,0.287867645534758,7
642,784,46,0.240708028092634,1
643,777,46,0.184503635189204,1
643,778,46,0.315927303941539,4
643,779,46,0.33365167776079,4
643,780,46,0.209641405694426,4
643,782,46,0.209489648981518,1
643,783,46,0.248818921525362,1
644,778,46,0.236244618913762,1
644,779,46,0.206319622484508,4
644,781,46,0.133906397269726,1
644,782,46,0.167446715328055,1
644,783,46,0.206262033603077,1
644,784,46,0.199354759569129,1
644,785,46,0.153289248436126,1
644,786,46,0.128822888916442,1
645,781,46,0.129939536149707,1
645,782,46,0.167531685426117,1
645,783,46,0.192601526960359,1
645,784,46,0.189049717977002,1
645,785,46,0.151547991488246,1
645,786,46,0.117348522163311,1
646,781,46,0.133353873760273,1
646,782,46,0.166017286274353,1
646,783,46,0.175199957075674,1
646,784,46,0.170271208536476,1
646,785,46,0.141977155138464,1
646,796,46,0.127767151641205,1
647,780,46,0.118426776808955,1
647,781,46,0.148545844235572,1
647,782,46,0.157126081163532,1
647,783,46,0.145049315867642,1
647,784,46,0.130013659752923,1
647,796,46,0.131558243015752,1
648,778,46,0.129341106411251,1
648,779,46,0.161243662632132,1
648,780,46,0.156984593878968,1
648,781,46,0.167295665227188,1
648,782,46,0.152528415696661,1
648,783,46,0.119944579475389,1
649,778,46,0.130755519959058,1
649,779,46,0.157576840762056,1
649,780,46,0.134256570644057,1
649,781,46,0.124687901237871,1
650,792,46,0.122559256014776,1
650,793,46,0.114085046223733,1
651,792,46,0.126998923029033,1
651,793,46,0.118783262584195,1
652,778,46,0.114445701010022,1
653,787,46,0.127388431140374,1
653,788,46,0.114321808365307,1
655,789,46,0.117779991253085,1
655,790,46,0.11643592093407,1
656,793,46,0.121328055192619,1
656,794,46,0.146213942058566,1
656,795,46,0.128424006418675,1
656,803,46,0.139403191229569,1
656,804,46,0.144638656502508,1
657,790,46,0.128934038990664,1
657,791,46,0.134030619666728,1
657,792,46,0.118063955079071,1
657,793,46,0.123391503677963,1
657,794,46,0.14841880716727,1
657,795,46,0.135896004796671,1
657,798,46,0.130994555036033,1
657,799,46,0.170357603635491,1
657,800,46,0.147047473400296,1
657,801,46,0.11828833973304,1
657,802,46,0.131906025686007,1
657,803,46,0.197556785228002,1
657,804,46,0.222957085660599,1
657,805,46,0.231216249853496,1
657,809,46,0.173086103597993,1
658,787,46,0.117704913723612,1
658,788,46,0.142793869113592,1
658,789,46,0.145518141180709,1
658,790,46,0.157651835853457,1
658,791,46,0.160041232696955,1
658,792,46,0.137151972370904,1
658,793,46,0.122350287280192,1
658,794,46,0.120322499149239,1
658,798,46,0.153757838211846,1
658,799,46,0.20883014440889,1
658,800,46,0.178220688225055,1
658,801,46,0.141633411933716,1
658,802,46,0.155161040181918,1
658,803,46,0.209658246614763,1
658,804,46,0.224831350548538,1
658,805,46,0.234439130931254,1
658,808,46,0.214860795543407,1
658,809,46,0.266296923279268,1
658,810,46,0.214675663188377,1
659,787,46,0.122496650187846,1
659,788,46,0.181485518504379,1
659,789,46,0.179983543947689,1
659,790,46,0.163340816511884,1
659,791,46,0.159389759947873,1
659,792,46,0.150593853247796,1
659,793,46,0.133504358571506,1
659,794,46,0.115060382825446,1
659,798,46,0.122911690547641,1
659,799,46,0.152001259559519,1
659,800,46,0.149780554564205,1
659,801,46,0.15952890363583,1
659,802,46,0.211826179467399,1
659,803,46,0.248282508770469,1
659,804,46,0.213321017242464,1
659,809,46,0.245505806089828,1
660,788,46,0.118498874790984,1
660,789,46,0.125553241898363,1
660,790,46,0.115107513848654,1
660,791,46,0.115303374929857,1
660,792,46,0.12461111606263,1
660,793,46,0.133756560186199,1
660,794,46,0.14014761879279,1
660,795,46,0.140101371034635,1
660,796,46,0.150060938222511,1
660,797,46,0.143620357888636,1
660,798,46,0.120849042889278,1
660,799,46,0.115912156534729,1
660,800,46,0.127792766327732,1
660,801,46,0.171781509338396,1
660,802,46,0.252023336475088,1
660,803,46,0.279775124015124,5
660,804,46,0.226243868020699,1
661,794,46,0.140488723979247,1
661,795,46,0.164725988098015,1
661,796,46,0.200456509065173,1
661,797,46,0.201972262556684,1
661,798,46,0.161387422852097,1
661,799,46,0.142789829648085,1
661,802,46,0.207089429196908,1
661,803,46,0.229550341303038,1
662,796,46,0.139947824237886,1
639,782,47,0.206718599197213,1
639,783,47,0.176373145049175,1
639,784,47,0.17693823447611,1
640,781,47,0.205476987624302,1
640,782,47,0.2781075431495,7
640,783,47,0.254297143365365,7
640,784,47,0.230182358667228,1
640,785,47,0.207249170625892,1
641,781,47,0.208425915213338,7
641,782,47,0.320876108485864,7
641,783,47,0.321796588439375,7
641,784,47,0.26272283246285,7
641,785,47,0.187593531880639,1
642,778,47,0.256537951473277,1
642,779,47,0.301763713078579,4
642,781,47,0.17510344564759,1
642,782,47,0.261349343529148,7
642,783,47,0.322911740010484,7
642,784,47,0.284072973992531,7
642,785,47,0.176393307046109,1
643,778,47,0.251392002169205,1
643,779,47,0.264785904088438,4
643,782,47,0.180395439883897,1
643,783,47,0.255014755001588,7
643,784,47,0.24477783081032,1
643,785,47,0.159863837743786,1
643,786,47,0.127980536701053,1
643,788,47,0.1386786665722,1
643,789,47,0.153391448091149,1
643,790,47,0.164192319353218,1
643,791,47,0.149057348915982,1
644,781,47,0.120542432147343,1
644,782,47,0.13920319646792,1
644,783,47,0.175265259805231,1
644,784,47,0.178448240856346,1
644,785,47,0.142626614043227,1
644,786,47,0.118786995851151,1
645,781,47,0.133074526466295,1
645,782,47,0.147114471998755,1
645,783,47,0.158601581322378,1
645,784,47,0.16379782962698,1
645,785,47,0.143366719496123,1
646,781,47,0.133735750461559,1
646,782,47,0.143994108551438,1
646,783,47,0.145557452363985,1
646,784,47,0.14749358113621,1
646,785,47,0.127028259205647,1
647,777,47,0.118973011471234,1
647,780,47,0.116879461312896,1
647,781,47,0.12730807757432,1
647,782,47,0.122385924080848,1
648,776,47,0.121908018803041,1
648,777,47,0.124557307555624,1
648,778,47,0.138972464082439,1
648,779,47,0.156590269028874,1
648,780,47,0.142161262906033,1
648,781,47,0.13210367685105,1
648,782,47,0.114309548646376,1
649,778,47,0.126616363269439,1
649,779,47,0.146457805651163,1
649,780,47,0.123516809546762,1
656,804,47,0.114710821848218,1
656,805,47,0.132496753353204,1
656,806,47,0.155038961174777,1
657,802,47,0.126398349900716,1
657,803,47,0.151461667050436,1
657,804,47,0.164282742140872,1
657,805,47,0.197528002564154,1
657,806,47,0.243724719776507,1
657,807,47,0.190903856198608,1
657,809,47,0.17464255794313,1
658,799,47,0.123221751911715,1
658,800,47,0.128669318565958,1
658,801,47,0.135936246352469,1
658,802,47,0.15318693101243,1
658,803,47,0.173787298281105,1
658,804,47,0.183126554310955,1
658,805,47,0.202570739402609,1
658,806,47,0.236089988645216,1
658,807,47,0.202370579764817,1
658,808,47,0.209696851185996,1
658,809,47,0.282619779220481,1
658,810,47,0.220730315578591,1
659,788,47,0.147178255512422,1
659,789,47,0.146873258201316,1
659,790,47,0.11971159770824,1
659,800,47,0.121225714215188,1
659,801,47,0.14378837845538,1
659,802,47,0.174668361059534,1
659,803,47,0.194092372377386,1
659,804,47,0.195403267261025,1
659,805,47,0.190406130453019,1
659,806,47,0.182543505161283,1
659,807,47,0.166936517879923,1
659,808,47,0.192717481996467,1
659,809,47,0.248868902550474,1
659,810,47,0.191367499690033,1
660,794,47,0.115183121337159,1
660,796,47,0.116015969620581,1
660,801,47,0.143855541929982,1
660,802,47,0.189077629152665,1
660,803,47,0.216811445193097,1
660,804,47,0.232560673478532,1
660,805,47,0.22659265172468,1
660,806,47,0.180080891533356,1
660,809,47,0.167415977704223,1
661,794,47,0.136831241164994,1
661,795,47,0.14277185814848,1
661,796,47,0.155449490994371,1
661,797,47,0.150517386047973,1
661,798,47,0.118200178103921,1
661,801,47,0.126185871659656,1
661,802,47,0.157241353141333,1
661,803,47,0.190749720558491,1
661,804,47,0.230877617809186,1
661,805,47,0.241499551348461,1
662,796,47,0.122026764956716,1
662,797,47,0.129306906388414,1
662,802,47,0.125829244562008,1
639,782,48,0.212457089806057,1
639,783,48,0.191942587677364,1
639,784,48,0.175981387556166,1
640,781,48,0.189121356661203,1
640,782,48,0.273673128618089,1
640,783,48,0.269706656134693,7
640,784,48,0.226004726951917,1
640,785,48,0.183303796164849,1
641,781,48,0.18373492372547,1
641,782,48,0.290136058619781,7
641,783,48,0.337665375482333,7
641,784,48,0.274826083933451,7
641,785,48,0.172581182186442,1
642,781,48,0.154394966736474,1
642,782,48,0.244857206896383,7
642,783,48,0.370546035868758,7
642,784,48,0.332444666624207,7
642,785,48,0.176860766242561,7
642,788,48,0.169407987712111,1
642,789,48,0.201800744260332,1
642,790,48,0.205933835863256,1
642,791,48,0.180757107480779,1
643,781,48,0.120567658197246,1
643,782,48,0.163813304430702,1
643,783,48,0.262816623434572,7
643,784,48,0.255729281098561,7
643,785,48,0.153283159795697,1
643,788,48,0.1322029793967,1
643,789,48,0.166863972376934,1
643,790,48,0.178369771589071,1
643,791,48,0.148524622320574,1
644,780,48,0.119448325838221,1
644,781,48,0.11597024004459,1
644,782,48,0.12132388618157,1
644,783,48,0.15049372632143,1
644,784,48,0.157923457522441,1
644,785,48,0.133584594368886,1
645,780,48,0.117609073576968,1
645,781,48,0.132176010370427,1
645,782,48,0.127168686572148,1
645,783,48,0.132044297885779,1
645,784,48,0.139356295743708,1
645,785,48,0.129604083859587,1
646,781,48,0.124375531607793,1
646,782,48,0.125579280552115,1
646,783,48,0.127007755679559,1
646,784,48,0.124506808348348,1
647,776,48,0.14004769207317,1
647,777,48,0.137591744152173,1
647,778,48,0.123128208254208,1
648,776,48,0.1345616268395,1
648,777,48,0.130253107020257,1
648,778,48,0.126938024847871,1
648,779,48,0.126174565866983,1
651,776,48,0.125267440881068,1
652,776,48,0.115398885324214,1
656,805,48,0.118175917757142,1
656,806,48,0.142693553757348,1
656,807,48,0.118728417712861,1
657,804,48,0.114102099127683,1
657,805,48,0.155478214773882,1
657,806,48,0.199901347537429,1
657,807,48,0.16499997691734,1
657,808,48,0.14066467037773,1
657,809,48,0.166796443819443,1
658,801,48,0.11831026826008,1
658,802,48,0.135103892697475,1
658,803,48,0.126819737992023,1
658,804,48,0.135365939773289,1
658,805,48,0.162575826538238,1
658,806,48,0.193386973352624,1
658,807,48,0.177877522086808,1
658,808,48,0.195264594647762,1
658,809,48,0.261959667903646,1
658,810,48,0.204838092569569,1
659,801,48,0.114799619428176,1
659,802,48,0.130111996595449,1
659,803,48,0.137224188121607,1
659,804,48,0.162530202954053,1
659,805,48,0.172404211200498,1
659,806,48,0.158034501604857,1
659,807,48,0.147094204010014,1
659,808,48,0.176053709298675,1
659,809,48,0.228388364907272,1
660,802,48,0.126685151951738,1
660,803,48,0.156655430436023,1
660,804,48,0.218002698881141,1
660,805,48,0.231352154902927,1
660,806,48,0.165790781784258,1
660,807,48,0.124369230983751,1
661,794,48,0.119812219263036,1
661,803,48,0.148459790665711,1
661,804,48,0.2235971112946,1
661,805,48,0.252567781053527,1
661,806,48,0.18560484294935,1
662,804,48,0.148885971942037,1
662,805,48,0.170698979689897,1
639,783,49,0.195228557433615,1
640,782,49,0.245991319223955,1
640,783,49,0.268903403118967,7
640,784,49,0.21702771558545,1
641,781,49,0.158223237681303,1
641,782,49,0.245281762965012,7
641,783,49,0.332023196094828,7
641,784,49,0.271450715977007,7
641,785,49,0.157711921430771,1
641,788,49,0.158040072063123,1
641,789,49,0.180204313103376,1
641,790,49,0.183993520179144,1
642,782,49,0.224679570281895,7
642,783,49,0.382979463592898,7
642,784,49,0.340267333004963,7
642,785,49,0.171201416182433,7
642,787,49,0.129369194239925,1
642,788,49,0.175303181318157,1
642,789,49,0.226008495549475,1
642,790,49,0.231236082098144,1
642,791,49,0.187744605535241,1
643,780,49,0.130027897985572,1
643,781,49,0.117516672275596,1
643,782,49,0.15368966192665,1
643,783,49,0.251497075379865,7
643,784,49,0.24208601578967,7
643,785,49,0.146421733106414,1
643,788,49,0.127498379974125,1
643,789,49,0.167781225468785,1
643,790,49,0.177963764086547,1
643,791,49,0.140839898387304,1
644,779,49,0.119185053968201,1
644,780,49,0.122460589419964,1
644,781,49,0.118886098190056,1
644,783,49,0.132772508702634,1
644,784,49,0.140563742624384,1
644,785,49,0.124229380683752,1
645,780,49,0.127185374393209,1
645,781,49,0.129494912299082,1
645,784,49,0.117014353551734,1
646,777,49,0.115215684375432,1
647,776,49,0.162551224662305,1
647,777,49,0.157140119189435,1
647,778,49,0.131850957054193,1
648,775,49,0.145554696577021,1
648,776,49,0.136490901474916,1
648,777,49,0.128051009475385,1
651,775,49,0.116858262951633,1
651,776,49,0.129106110799783,1
652,775,49,0.121436555471683,1
652,776,49,0.127873225885592,1
656,806,49,0.116159176327781,1
657,805,49,0.117933561603568,1
657,806,49,0.141073610320229,1
657,807,49,0.129551500146787,1
657,808,49,0.130537153284314,1
657,809,49,0.154028576615777,1
657,810,49,0.142946261777338,1
658,802,49,0.117025859551152,1
658,805,49,0.133374930799127,1
658,806,49,0.145567827784136,1
658,807,49,0.14440612225632,1
658,808,49,0.172878889616647,1
658,809,49,0.218644962119942,1
658,810,49,0.180519756495837,1
659,804,49,0.137518963111837,1
659,805,49,0.157859073388538,1
659,806,49,0.138557235292765,1
659,807,49,0.130197049131583,1
659,808,49,0.16194787219329,1
659,809,49,0.203570642549652,1
659,810,49,0.173286180797714,1
660,803,49,0.12122346483352,1
660,804,49,0.189861579882774,1
660,805,49,0.218515110380338,1
660,806,49,0.154917117704984,1
660,808,49,0.127556816790007,1
660,809,49,0.15802996751092,1
660,810,49,0.166241670928322,1
660,811,49,0.157781475609448,1
661,803,49,0.11822591055912,1
661,804,49,0.194302471691237,1
661,805,49,0.232356603920774,1
661,806,49,0.168804541028156,1
661,810,49,0.199619927514795,1
662,804,49,0.124340742741587,1
662,805,49,0.147471523063629,1
662,806,49,0.135005426309409,1
663,805,49,0.114276220111724,1
663,806,49,0.13997676000101,1
639,783,50,0.177358798186702,1
640,782,50,0.212723812298215,1
640,783,50,0.253138982674626,1
640,784,50,0.2023434458624,1
641,782,50,0.210739810560138,1
641,783,50,0.3032986628639,7
641,784,50,0.248989238581244,1
641,785,50,0.144621521160487,1
641,788,50,0.161660752166849,1
641,789,50,0.194140810632872,1
641,790,50,0.203937562629381,1
641,791,50,0.182300136197116,1
642,782,50,0.199811607808082,7
642,783,50,0.337887840506922,7
642,784,50,0.297660699594913,7
642,785,50,0.160712726120564,1
642,787,50,0.123310549491673,1
642,788,50,0.172296688401425,1
642,789,50,0.222650722232879,1
642,790,50,0.23240750354154,1
642,791,50,0.181753336245203,1
642,792,50,0.129996559741504,1
643,780,50,0.120320826834073,1
643,781,50,0.121608297528516,1
643,782,50,0.142150345749983,1
643,783,50,0.21358309964888,7
643,784,50,0.20591958585374,1
643,785,50,0.139401236269586,1
643,788,50,0.119052670202114,1
643,789,50,0.150252712730737,1
643,790,50,0.159358645464286,1
643,791,50,0.127364382777208,1
644,780,50,0.120770373415258,1
644,781,50,0.116584073925563,1
644,783,50,0.113836754529006,1
644,784,50,0.121981694885297,1
644,785,50,0.114475461153862,1
645,780,50,0.123397239012371,1
645,781,50,0.11619972408213,1
646,776,50,0.11465747263904,1
646,777,50,0.119420744414844,1
646,778,50,0.115960100161786,1
647,775,50,0.175203819888171,1
647,776,50,0.158591359001503,1
647,777,50,0.153051131954805,1
647,778,50,0.127817874608961,1
648,775,50,0.137286181551434,1
648,776,50,0.120587172466476,1
648,777,50,0.113784842097647,1
652,775,50,0.12066282706245,1
652,776,50,0.118552106231489,1
657,809,50,0.129463173641524,1
657,810,50,0.125549614623214,1
658,808,50,0.135127964614376,1
658,809,50,0.161945505042949,1
658,810,50,0.146001687577986,1
659,805,50,0.132039858006781,1
659,806,50,0.117886842770718,1
659,808,50,0.131666649079878,1
659,809,50,0.163218454859927,1
659,810,50,0.159560465640377,1
659,811,50,0.126773231142786,1
660,804,50,0.142176572833612,1
660,805,50,0.176312953480055,1
660,806,50,0.136236509362892,1
660,809,50,0.142760081281112,1
660,810,50,0.168574621246524,1
660,811,50,0.166220331244651,1
660,812,50,0.1427084043871,1
660,813,50,0.1382361272271,1
661,804,50,0.142079566777099,1
661,805,50,0.178529430579983,1
661,806,50,0.138612692561203,1
661,809,50,0.129204965824473,1
661,810,50,0.175349111100894,1
661,811,50,0.200068202194304,1
661,812,50,0.188974157595966,1
661,813,50,0.189645957218127,1
662,805,50,0.118268542818994,1
662,809,50,0.131934172399018,1
662,810,50,0.190096940577131,1
662,811,50,0.209860785179764,1
662,812,50,0.1903560081055,1
663,806,50,0.121080693870414,1
663,807,50,0.12836271960089,1
664,806,50,0.173174076797235,1
664,807,50,0.206694668602721,1
664,808,50,0.181798441647224,1
640,783,51,0.225911736807176,1
640,784,51,0.188168596314236,1
641,782,51,0.201745699182252,1
641,783,51,0.273786516297112,1
641,784,51,0.237278109686539,1
641,785,51,0.157772124776758,1
641,787,51,0.123461799799284,1
641,788,51,0.170064135877539,1
641,789,51,0.213153314651139,1
641,790,51,0.233657005615587,1
641,791,51,0.189968089871253,1
642,781,51,0.155708487861536,1
642,782,51,0.201594908172468,1
642,783,51,0.284630538001219,7
642,784,51,0.262577246828443,1
642,785,51,0.180822469094674,1
642,786,51,0.122024704004926,1
642,787,51,0.125928829752475,1
642,788,51,0.17157725135076,1
642,789,51,0.210361561134001,1
642,790,51,0.224228704691565,1
642,791,51,0.176178332109167,1
642,792,51,0.1219934953064,1
643,780,51,0.123565860199351,1
643,781,51,0.143479742092258,1
643,782,51,0.154998613627173,1
643,783,51,0.188025059854751,1
643,784,51,0.190665150873919,1
643,785,51,0.158238936245505,1
643,788,51,0.119659567508207,1
643,789,51,0.136763300417146,1
643,790,51,0.14269336532747,1
643,791,51,0.12109176412574,1
644,780,51,0.121226986116863,1
644,781,51,0.120659364663444,1
644,784,51,0.121147127179239,1
644,785,51,0.118273536210758,1
645,779,51,0.119787746932644,1
645,780,51,0.121336110569899,1
646,776,51,0.122656426947432,1
646,777,51,0.129416525469878,1
646,778,51,0.127672159429012,1
646,779,51,0.122474038602499,1
647,775,51,0.160044518442951,1
647,776,51,0.143925037224322,1
647,777,51,0.146627863615962,1
647,778,51,0.127798407447201,1
648,775,51,0.120367369013913,1
658,810,51,0.115471407273469,1
659,809,51,0.127930508568472,1
659,810,51,0.148856482666147,1
659,811,51,0.12525449810383,1
659,813,51,0.121629825642065,1
659,814,51,0.187385634840986,1
660,805,51,0.117698106694273,1
660,809,51,0.121462676563506,1
660,810,51,0.159859468525992,1
660,811,51,0.162121263011554,1
660,812,51,0.148298706673847,1
660,813,51,0.160516829708759,1
660,814,51,0.215830408587579,1
661,805,51,0.116109454393751,1
661,810,51,0.141876945774027,1
661,811,51,0.176273618743045,1
661,812,51,0.193806006070457,1
661,813,51,0.203804484028118,1
661,814,51,0.223250635856623,1
662,810,51,0.134067469484723,1
662,811,51,0.158089746889682,1
662,812,51,0.177971171736121,1
662,813,51,0.203459751566512,1
662,814,51,0.233868635922197,1
663,810,51,0.125298037182491,1
663,811,51,0.125938910750942,1
663,812,51,0.121771148050486,1
663,813,51,0.144009029842393,1
664,806,51,0.150072538436869,1
664,807,51,0.189476900287054,1
664,808,51,0.162772935967382,1
664,809,51,0.120721252101464,1
665,806,51,0.210824062269291,1
665,807,51,0.282407819161585,1
665,808,51,0.223788037868376,1
665,809,51,0.139721496400801,1
640,783,52,0.190478122443242,1
640,784,52,0.166365893325324,1
640,785,52,0.12221465309871,1
640,788,52,0.131410302007871,1
640,789,52,0.15040270291354,1
640,790,52,0.153801235968098,1
641,781,52,0.17702344011152,1
641,782,52,0.200640981915631,1
641,783,52,0.245405561394788,1
641,784,52,0.227063537989536,1
641,785,52,0.177903972930917,1
641,786,52,0.124739107057189,1
641,787,52,0.123518882275419,1
641,788,52,0.17174699134014,1
641,789,52,0.219182952975063,1
641,790,52,0.237129650496494,1
641,791,52,0.178867968409354,1
641,792,52,0.119065954508505,1
642,780,52,0.142374388874799,1
642,781,52,0.180822151119255,1
642,782,52,0.208726672852191,1
642,783,52,0.238594174614953,1
642,784,52,0.238886759107852,1
642,785,52,0.214273129861726,1
642,786,52,0.14475164376804,1
642,787,52,0.12661698744341,1
642,788,52,0.164241499551348,1
642,789,52,0.193189428179387,1
642,790,52,0.200141053895844,1
642,791,52,0.158113618599838,1
643,780,52,0.127329593911002,1
643,781,52,0.162084212986813,1
643,782,52,0.168556037349817,1
643,783,52,0.167356316094135,1
643,784,52,0.178633173004631,1
643,785,52,0.179476137617123,1
643,786,52,0.126088406305316,1
643,788,52,0.127755751633593,1
643,789,52,0.140261171347956,1
643,790,52,0.133192412908653,1
643,791,52,0.114223730613863,1
644,780,52,0.117623641561903,1
644,781,52,0.119910768089174,1
644,784,52,0.114733327441759,1
644,785,52,0.115895091853913,1
645,779,52,0.127149136972316,1
645,780,52,0.118563058718142,1
646,775,52,0.146907187356204,1
646,776,52,0.13274223037663,1
646,777,52,0.141817978999113,1
646,778,52,0.143893569434714,1
646,779,52,0.138472064987957,1
646,780,52,0.115349387150665,1
647,775,52,0.135111029479101,1
647,776,52,0.1272680244484,1
647,777,52,0.137710996711145,1
647,778,52,0.128302198279484,1
658,814,52,0.126020371342529,1
659,810,52,0.128339578056512,1
659,813,52,0.131936092028399,1
659,814,52,0.187357947425803,1
659,815,52,0.201413026232831,1
660,810,52,0.133311441707145,1
660,811,52,0.139009278569832,1
660,812,52,0.140413034052671,1
660,813,52,0.17134217330122,1
660,814,52,0.215977784305826,1
660,815,52,0.224438497806865,1
660,816,52,0.22187366097018,1
661,811,52,0.140145004328234,1
661,812,52,0.172506540401062,1
661,813,52,0.194956865103427,1
661,814,52,0.216050659561102,1
661,815,52,0.207413293049538,1
661,816,52,0.200535885151236,1
662,812,52,0.1473580293928,1
662,813,52,0.173042328981985,1
662,814,52,0.204707392895515,1
662,815,52,0.204498424160931,1
662,816,52,0.179305749900038,1
663,813,52,0.118013585417336,1
663,814,52,0.161706422858504,1
663,815,52,0.200478814451969,1
664,806,52,0.118549209122117,1
664,807,52,0.158286397020999,1
664,808,52,0.131430181359989,1
665,806,52,0.20284264371641,1
665,807,52,0.293763616414051,1
665,808,52,0.215302804929476,1
665,809,52,0.118817285954022,1
666,806,52,0.163903291474264,1
666,807,52,0.219317020833184,1
666,808,52,0.156506135088394,1
640,783,53,0.153315110436867,1
640,784,53,0.141198433337466,1
640,785,53,0.119334902828596,1
640,788,53,0.121105213308275,1
640,789,53,0.140795582035397,1
640,790,53,0.141074740899496,1
640,791,53,0.113872544428939,1
641,780,53,0.192258749458735,1
641,781,53,0.196721628678575,1
641,782,53,0.196582355445077,1
641,783,53,0.213962385439345,1
641,784,53,0.211162600098662,1
641,785,53,0.198826590621393,1
641,786,53,0.139801779305651,1
641,787,53,0.118809383676018,1
641,788,53,0.157608485204674,1
641,789,53,0.197982919396859,1
641,790,53,0.207964473996112,1
641,791,53,0.158952084448995,1
642,779,53,0.115228191408577,1
642,780,53,0.160397977563278,1
642,781,53,0.197371770641645,1
642,782,53,0.205025297653257,1
642,783,53,0.200054964995382,1
642,784,53,0.219099784737707,1
642,785,53,0.244257575917456,1
642,786,53,0.16804071696438,1
642,787,53,0.121577783665165,1
642,788,53,0.146640641517056,1
642,789,53,0.170575982087102,1
642,790,53,0.167695242560129,1
642,791,53,0.136909109812034,1
643,780,53,0.132483516154282,1
643,781,53,0.168759918477698,1
643,782,53,0.168791551143449,1
643,783,53,0.147005253330781,1
643,784,53,0.16288312033848,1
643,785,53,0.189371426662903,1
643,786,53,0.137450139098936,1
643,788,53,0.132514206670644,1
643,789,53,0.148322177970512,1
643,790,53,0.127446067129275,1
644,780,53,0.119058499751461,1
644,781,53,0.12106021389806,1
645,775,53,0.14617069740159,1
645,776,53,0.124558626564769,1
645,778,53,0.117323437435816,1
645,779,53,0.131228090315948,1
645,780,53,0.121720896157425,1
646,775,53,0.145451448780802,1
646,776,53,0.139890741761752,1
646,777,53,0.148272974218647,1
646,778,53,0.150444487238963,1
646,779,53,0.144277401095984,1
646,780,53,0.116156773846837,1
647,777,53,0.124503357726209,1
647,778,53,0.122415648894086,1
648,774,53,0.124726270271757,1
655,776,53,0.118067605907955,1
655,777,53,0.117595388857086,1
656,775,53,0.121733285421896,1
656,776,53,0.126274445479134,1
656,777,53,0.114370069967782,1
657,776,53,0.118278706255533,1
658,815,53,0.114341122427791,1
659,813,53,0.124954423523284,1
659,814,53,0.155030340507864,1
659,815,53,0.142751908135158,1
659,816,53,0.133937888613069,1
660,811,53,0.115569744115994,1
660,812,53,0.128070299984134,1
660,813,53,0.167344445011828,1
660,814,53,0.197359628691388,1
660,815,53,0.177990379806799,1
660,816,53,0.184741892992934,1
660,817,53,0.214147635563049,1
661,812,53,0.143918088872575,1
661,813,53,0.175721554531418,1
661,814,53,0.198256708009438,1
661,815,53,0.1849287447706,1
661,816,53,0.190012488661232,1
661,817,53,0.257922604877244,1
662,812,53,0.11948641222729,1
662,813,53,0.142282811954142,1
662,814,53,0.169398566218216,1
662,815,53,0.17854072459579,1
662,816,53,0.170140414647484,1
662,817,53,0.19907416392721,1
663,814,53,0.131490749788864,1
663,815,53,0.17776308626659,1
663,816,53,0.201470473791854,1
664,807,53,0.129222796001669,1
664,815,53,0.153635182138204,1
664,816,53,0.232234289376286,1
665,806,53,0.171243070962315,1
665,807,53,0.244882079640265,1
665,808,53,0.17802492135879,1
666,806,53,0.149764726454462,1
666,807,53,0.20072426792166,1
666,808,53,0.14616353706623,1
640,782,54,0.118257590332341,1
640,783,54,0.119722997715853,1
640,784,54,0.117487159445971,1
640,785,54,0.116056046300236,1
640,789,54,0.125911470649974,1
640,790,54,0.123629337514467,1
641,780,54,0.202484721163351,1
641,781,54,0.205800121311155,1
641,782,54,0.189213051350533,1
641,783,54,0.181578143566231,1
641,784,54,0.191838892360186,1
641,785,54,0.210411165299357,1
641,786,54,0.149566050701958,1
641,788,54,0.136120542549916,1
641,789,54,0.16669809520005,1
641,790,54,0.167261712518565,1
641,791,54,0.137480252548797,1
642,779,54,0.120942574769918,1
642,780,54,0.169868898970306,1
642,781,54,0.199148735051387,1
642,782,54,0.192120206391014,1
642,783,54,0.171754787626338,1
642,784,54,0.199788124734549,1
642,785,54,0.24947484593031,1
642,786,54,0.175657947670762,1
642,787,54,0.114357197851749,1
642,788,54,0.125875115460408,1
642,789,54,0.151283730361367,1
642,790,54,0.143294880605176,1
642,791,54,0.121295397939406,1
643,780,54,0.134423531292738,1
643,781,54,0.162172775029423,1
643,782,54,0.155296544817858,1
643,783,54,0.129815796604267,1
643,784,54,0.143093237082096,1
643,785,54,0.176854854255142,1
643,786,54,0.134505486512755,1
643,788,54,0.119569462695972,1
643,789,54,0.14164449396591,1
643,790,54,0.117719811460833,1
644,776,54,0.115943588993735,1
644,780,54,0.125855542306841,1
644,781,54,0.123167319230739,1
645,775,54,0.14862099242625,1
645,776,54,0.138113400492254,1
645,777,54,0.121453278623346,1
645,778,54,0.118939989135133,1
645,779,54,0.133086397548603,1
645,780,54,0.126406911683293,1
646,774,54,0.15399831006664,1
646,775,54,0.139364786865081,1
646,776,54,0.142130478174733,1
646,777,54,0.144266625262341,1
646,778,54,0.143221569605808,1
646,779,54,0.135504317964867,1
647,774,54,0.134843411945022,1
648,774,54,0.127838931647816,1
649,773,54,0.210387799994498,1
649,774,54,0.123041801378327,1
650,773,54,0.133067625222018,1
654,774,54,0.12433374728237,1
654,775,54,0.116552429482945,1
654,776,54,0.118988450944354,1
654,812,54,0.117540614646956,1
655,774,54,0.136857456471756,1
655,775,54,0.134912165296719,1
655,776,54,0.151412922596398,1
655,777,54,0.129542467289515,1
656,775,54,0.130678958544296,1
656,776,54,0.14340038955993,1
656,777,54,0.119745326656383,1
657,775,54,0.123076448922125,1
657,776,54,0.135338146366299,1
658,776,54,0.11663666941523,1
659,818,54,0.129135906274225,1
660,813,54,0.140502020062506,1
660,814,54,0.159097599422199,1
660,815,54,0.138801805497404,1
660,816,54,0.151693341585306,1
660,817,54,0.192940524087557,1
660,818,54,0.221415423060878,1
661,813,54,0.142129924661966,1
661,814,54,0.163416011810031,1
661,815,54,0.152139743742903,1
661,816,54,0.168576481991568,1
661,817,54,0.240222255867424,1
661,818,54,0.309005426592053,1
662,814,54,0.130522290877695,1
662,815,54,0.141256893707083,1
662,816,54,0.151043258506573,1
662,817,54,0.183856213682496,1
662,818,54,0.238455231133741,1
663,815,54,0.135967513935332,1
663,816,54,0.163561597444439,1
663,817,54,0.153883061642573,1
664,815,54,0.125853552016256,1
664,816,54,0.188353858214808,1
664,817,54,0.19189530355488,1
665,806,54,0.117235028492482,1
665,807,54,0.153007439776869,1
665,808,54,0.117411657949272,1
665,816,54,0.177620385964687,1
666,806,54,0.116478011458044,1
666,807,54,0.145422760331893,1
666,808,54,0.115839481486199,1
641,779,55,0.151092297382294,1
641,780,55,0.193101125227859,1
641,781,55,0.199046723826242,1
641,782,55,0.175081234475733,1
641,783,55,0.151579800807007,1
641,784,55,0.169359372803614,1
641,785,55,0.198964050217316,1
641,786,55,0.145185079594665,1
641,789,55,0.130024965545597,1
641,790,55,0.128750060768636,1
641,791,55,0.113924445083431,1
642,778,55,0.126578076673625,1
642,779,55,0.139736912320186,1
642,780,55,0.176366173143692,1
642,781,55,0.192665487127036,1
642,782,55,0.17461660172745,1
642,783,55,0.151341472342074,1
642,784,55,0.178667514349877,1
642,785,55,0.223048144399091,1
642,786,55,0.161541947128837,1
642,789,55,0.131652505062169,1
642,790,55,0.126041605034394,1
643,780,55,0.136569076320507,1
643,781,55,0.15151919704753,1
643,782,55,0.137891017905738,1
643,783,55,0.119388911542348,1
643,784,55,0.129980637416822,1
643,785,55,0.155111188702347,1
643,786,55,0.124013451820553,1
643,789,55,0.121187368735036,1
644,776,55,0.125608616728729,1
644,780,55,0.133084313043078,1
644,781,55,0.128257834820108,1
645,775,55,0.151728837063554,1
645,776,55,0.150038986141736,1
645,777,55,0.129554020396404,1
645,778,55,0.116470898230154,1
645,779,55,0.129041126045644,1
645,780,55,0.127119518150885,1
646,774,55,0.143490765240114,1
646,775,55,0.138792749086398,1
646,776,55,0.146175196164924,1
646,777,55,0.14001166663589,1
646,778,55,0.129387083301457,1
646,779,55,0.119231231065153,1
647,774,55,0.138389697577583,1
648,773,55,0.193381756200379,1
648,774,55,0.129010612182293,1
649,772,55,0.289714140569443,1
649,773,55,0.221609388066434,1
649,774,55,0.126841536973522,1
650,773,55,0.149751077065182,1
654,773,55,0.13973295529275,1
654,774,55,0.149302555071458,1
654,775,55,0.164279527056081,1
654,776,55,0.159517315198339,1
654,812,55,0.114519494860952,1
655,774,55,0.155948370872962,1
655,775,55,0.172501711885441,1
655,776,55,0.188162472343205,1
655,777,55,0.136139150000358,1
656,775,55,0.140651680493023,1
656,776,55,0.159311349564934,1
656,777,55,0.125675438674177,1
657,775,55,0.132642468533153,1
657,776,55,0.152913401490933,1
657,777,55,0.132865310417497,1
658,776,55,0.135620167009169,1
658,777,55,0.137924770407615,1
659,818,55,0.122369189152318,1
659,819,55,0.139115541244097,1
660,814,55,0.115054258854414,1
660,816,55,0.121628753947135,1
660,817,55,0.162359991889978,1
660,818,55,0.204086233803039,1
660,819,55,0.18673153585048,1
661,814,55,0.125559954712763,1
661,815,55,0.120326526837879,1
661,816,55,0.141757575446381,1
661,817,55,0.200527193823118,1
661,818,55,0.257293413961222,1
661,819,55,0.218152995262496,1
662,816,55,0.129933847922768,1
662,817,55,0.160424451961122,1
662,818,55,0.193006191900003,1
662,819,55,0.181606773130804,1
662,820,55,0.164238060706077,1
663,816,55,0.120702314898736,1
663,817,55,0.126347685817298,1
663,818,55,0.134200760069598,1
663,819,55,0.151146576963995,1
663,820,55,0.186271837609624,1
664,816,55,0.129851456958659,1
664,817,55,0.144862593635517,1
664,818,55,0.144758321251838,1
665,816,55,0.13116663862202,1
665,817,55,0.182468969367708,1
666,816,55,0.118949481290232,1
641,779,56,0.155100271546297,1
641,780,56,0.172290658645332,1
641,781,56,0.175574826540876,1
641,782,56,0.150315907401036,1
641,783,56,0.124049171059281,1
641,784,56,0.142214294139793,1
641,785,56,0.167047503078002,1
641,786,56,0.127576955233206,1
642,778,56,0.143739492678934,1
642,779,56,0.171493482493168,1
642,780,56,0.183589585405277,1
642,781,56,0.18261825293847,1
642,782,56,0.157354764374091,1
642,783,56,0.136206961202665,1
642,784,56,0.157088371634218,1
642,785,56,0.181428282928969,1
642,786,56,0.137941010707716,1
642,790,56,0.116396586197059,1
643,777,56,0.118488334494689,1
643,779,56,0.119589130064477,1
643,780,56,0.139644734779294,1
643,781,56,0.144307420330905,1
643,782,56,0.126923374424865,1
643,783,56,0.115749623988179,1
643,784,56,0.123020720785738,1
643,785,56,0.132095821680516,1
644,776,56,0.138212008202729,1
644,777,56,0.117857636139645,1
644,780,56,0.132529964119183,1
644,781,56,0.128867699896778,1
645,775,56,0.151622150422064,1
645,776,56,0.156615330202634,1
645,777,56,0.135814497097615,1
645,778,56,0.1166993694571,1
645,779,56,0.121966267189045,1
645,780,56,0.122231246704833,1
646,774,56,0.139027956681479,1
646,775,56,0.145470915942562,1
646,776,56,0.150826729023138,1
646,777,56,0.134830975573081,1
646,778,56,0.117653272160202,1
647,773,56,0.183389590643627,1
647,774,56,0.150926479089748,1
647,775,56,0.129633266936925,1
647,776,56,0.118931604005567,1
648,773,56,0.191267455201739,1
648,774,56,0.135963062279466,1
649,772,56,0.250051983092564,1
649,773,56,0.207507366666076,1
649,774,56,0.130105601756468,1
650,772,56,0.170885124855521,1
650,773,56,0.165285024215124,1
650,774,56,0.125040288663267,1
651,773,56,0.126830195850246,1
653,775,56,0.115171721329546,1
654,773,56,0.145444406214116,1
654,774,56,0.159426291790449,1
654,775,56,0.203736837701954,1
654,776,56,0.189913798512685,1
655,773,56,0.190012629983641,1
655,774,56,0.169164536309872,1
655,775,56,0.207443276953858,1
655,776,56,0.210889470990655,1
655,777,56,0.133600116280078,1
656,774,56,0.120803348643889,1
656,775,56,0.156135787940262,1
656,776,56,0.178430964191917,1
656,777,56,0.139822365269811,1
657,775,56,0.137080062818753,1
657,776,56,0.174307941810593,1
657,777,56,0.167228725513066,1
658,776,56,0.146212929247973,1
658,777,56,0.162275975718172,1
658,778,56,0.123140185328322,1
659,820,56,0.115043965872334,1
660,817,56,0.116422825057556,1
660,818,56,0.15578033852935,1
660,819,56,0.151977305411292,1
660,820,56,0.130788577625761,1
661,817,56,0.139234558265722,1
661,818,56,0.17672580334252,1
661,819,56,0.164871043773391,1
661,820,56,0.13624077258888,1
661,821,56,0.135132687138191,1
662,817,56,0.120996006417168,1
662,818,56,0.136677788583184,1
662,819,56,0.138108359993021,1
662,820,56,0.141218795541146,1
662,821,56,0.158392165066834,1
663,819,56,0.120242463558604,1
663,820,56,0.150349612795444,1
663,821,56,0.184346319794898,1
664,819,56,0.116148212064261,1
664,820,56,0.133833357138308,1
665,817,56,0.121862901624152,1
665,818,56,0.148085663143154,1
665,819,56,0.137897930926883,1
665,820,56,0.131106117300614,1
666,817,56,0.127574752959009,1
666,818,56,0.170675967691059,1
666,819,56,0.163481420531395,1
641,779,57,0.141399311364168,1
641,780,57,0.143631934549259,1
641,781,57,0.140005601549195,1
641,782,57,0.119148298365145,1
641,785,57,0.12538105232057,1
642,778,57,0.141929882792847,1
642,779,57,0.18361968707827,1
642,780,57,0.180919004076492,1
642,781,57,0.164932707450932,1
642,782,57,0.139075123035289,1
642,783,57,0.12403901939961,1
642,784,57,0.135074415198452,1
642,785,57,0.139370298439009,1
642,786,57,0.114044345370108,1
642,790,57,0.11428169635505,1
642,791,57,0.1143429596191,1
643,777,57,0.122782203890926,1
643,778,57,0.115922520178013,1
643,779,57,0.13133856910873,1
643,780,57,0.140356257775088,1
643,781,57,0.138833167295206,1
643,782,57,0.124601011510428,1
643,783,57,0.119714483040746,1
643,784,57,0.119377817733287,1
644,776,57,0.15399858093459,1
644,777,57,0.136976285063503,1
644,780,57,0.124945425996615,1
644,781,57,0.125161213537405,1
645,775,57,0.154938963793953,1
645,776,57,0.164051762441177,1
645,777,57,0.139015685185681,1
645,778,57,0.115602436699809,1
646,774,57,0.150991240083407,1
646,775,57,0.161872406027193,1
646,776,57,0.157590183952784,1
646,777,57,0.127887982300405,1
647,773,57,0.189234273265531,1
647,774,57,0.180491126931265,1
647,775,57,0.155035922742996,1
647,776,57,0.131965557750554,1
648,773,57,0.179504154784593,1
648,774,57,0.146763486020576,1
649,772,57,0.177398356684192,1
649,773,57,0.168525853238752,1
649,774,57,0.130125174910034,1
650,772,57,0.137503288101369,1
650,773,57,0.160034637651229,1
650,774,57,0.14331491305657,1
650,813,57,0.135793958240924,1
651,773,57,0.136886498226686,1
651,774,57,0.125007348765238,1
651,814,57,0.142971735141456,1
652,816,57,0.134006112005734,1
653,775,57,0.117080598430681,1
654,773,57,0.143944457278613,1
654,774,57,0.157004108148198,1
654,775,57,0.213775251016862,1
654,776,57,0.197958305744059,1
655,773,57,0.189004129723419,1
655,774,57,0.177181791870155,1
655,775,57,0.224838416668959,1
655,776,57,0.217417600556546,1
655,777,57,0.132448762618678,1
656,774,57,0.14260798303905,1
656,775,57,0.175395335305315,1
656,776,57,0.202520805484968,1
656,777,57,0.168867347061832,1
657,775,57,0.142540831341315,1
657,776,57,0.198249688996487,1
657,777,57,0.212829874765735,1
657,778,57,0.130090739349849,1
658,776,57,0.148163979311153,1
658,777,57,0.181315896283673,1
658,778,57,0.142699477521635,1
659,777,57,0.115566387708794,1
659,778,57,0.12473207626737,1
659,779,57,0.121669808106781,1
660,779,57,0.126856870454836,1
660,780,57,0.1417646062362,1
660,781,57,0.122708763346017,1
661,819,57,0.118718301383791,1
661,820,57,0.115954835902072,1
661,821,57,0.118186375615365,1
661,822,57,0.12823840298895,1
662,820,57,0.11766970089018,1
662,821,57,0.134458767679904,1
662,822,57,0.139339749245056,1
663,820,57,0.114165022930032,1
663,821,57,0.135899196327728,1
663,822,57,0.135168076624633,1
664,821,57,0.116786694928636,1
665,820,57,0.117062049864575,1
665,821,57,0.125943998357645,1
666,819,57,0.123205252520532,1
666,820,57,0.141488368035208,1
641,780,58,0.118034666009926,1
642,778,58,0.131083870798155,1
642,779,58,0.177959618629233,1
642,780,58,0.169732664168589,1
642,781,58,0.142164595759499,1
642,782,58,0.118523771088601,1
642,791,58,0.120944930143391,1
643,777,58,0.128752286596568,1
643,778,58,0.131195044426112,1
643,779,58,0.141806155024275,1
643,780,58,0.13822516296358,1
643,781,58,0.130632922769753,1
643,782,58,0.126090243496625,1
643,783,58,0.130310260157595,1
643,784,58,0.119257999884681,1
644,776,58,0.162666072672882,1
644,777,58,0.156454340425708,1
644,778,58,0.133766735399605,1
644,779,58,0.11537133923144,1
644,781,58,0.115660461325333,1
644,782,58,0.114720631978736,1
644,783,58,0.114177765500524,1
645,775,58,0.159021791726949,1
645,776,58,0.169734878219654,1
645,777,58,0.144677213966272,1
645,778,58,0.11819015598979,1
646,774,58,0.172729028979385,1
646,775,58,0.184136291142251,1
646,776,58,0.164569756175507,1
646,777,58,0.123929989161513,1
647,774,58,0.207629351458278,1
647,775,58,0.179088301820949,1
647,776,58,0.141417765715334,1
648,773,58,0.155068097144647,1
648,774,58,0.152862289886554,1
648,775,58,0.131398254272553,1
648,776,58,0.114680979266307,1
649,773,58,0.126921466572351,1
649,774,58,0.126092068911068,1
649,775,58,0.125952654355161,1
649,776,58,0.114855441779502,1
649,813,58,0.124471524853712,1
650,773,58,0.134714832107095,1
650,774,58,0.14227969108429,1
650,775,58,0.136713731582393,1
650,813,58,0.131453464226776,1
650,814,58,0.169416549494688,1
651,773,58,0.121923646706038,1
651,774,58,0.116413415340529,1
651,814,58,0.124256973883996,1
651,815,58,0.13219519488737,1
652,816,58,0.125721132919566,1
654,774,58,0.143249162806053,1
654,775,58,0.190885272301901,1
654,776,58,0.180981810110167,1
655,773,58,0.179032656122633,1
655,774,58,0.182531021681872,1
655,775,58,0.222690598705788,1
655,776,58,0.216847199762428,1
655,777,58,0.139296104174589,1
656,774,58,0.181819062941986,1
656,775,58,0.19700138816291,1
656,776,58,0.231194580417538,1
656,777,58,0.20416217104383,1
657,775,58,0.150622447481767,1
657,776,58,0.212652774234249,1
657,777,58,0.242311071725079,1
657,778,58,0.145589956517921,1
658,776,58,0.139973957106576,1
658,777,58,0.181622707232353,1
658,778,58,0.157036435649124,1
658,779,58,0.119228899245414,1
658,821,58,0.118339675097899,1
658,822,58,0.134617142992274,1
659,777,58,0.115143821930751,1
659,778,58,0.144086132993054,1
659,779,58,0.166960660458028,1
659,780,58,0.152011576095333,1
660,779,58,0.165468613800529,1
660,780,58,0.198200814996908,1
660,781,58,0.161597840141368,1
661,780,58,0.12491166171787,1
661,781,58,0.120657468587797,1
661,823,58,0.150905198290413,1
662,822,58,0.117861275191661,1
662,823,58,0.15600020086625,1
666,820,58,0.12840501033161,1
666,821,58,0.150734539705379,1
641,792,59,0.113961094694681,1
642,779,59,0.149493163669815,1
642,780,59,0.147486114602298,1
642,781,59,0.123623590403191,1
642,791,59,0.118242869248131,1
643,778,59,0.141912806335163,1
643,779,59,0.14339474844046,1
643,780,59,0.132110036359429,1
643,781,59,0.12334927183158,1
643,782,59,0.127531802723716,1
643,783,59,0.13757273628824,1
643,784,59,0.117915684318903,1
644,777,59,0.170386727828493,1
644,778,59,0.14934152472558,1
644,779,59,0.120143431880903,1
644,782,59,0.114343477801265,1
644,783,59,0.121516178871961,1
645,776,59,0.167015163800209,1
645,777,59,0.149364878253572,1
645,778,59,0.121397809578041,1
646,775,59,0.19707567664227,1
646,776,59,0.161910822168549,1
646,777,59,0.121499008199338,1
647,774,59,0.213858065948196,1
647,775,59,0.194027517168788,1
647,776,59,0.148425837957088,1
648,774,59,0.152219885325345,1
648,775,59,0.156159777419091,1
648,776,59,0.14221654352146,1
649,774,59,0.117535833238804,1
649,775,59,0.147828267929951,1
649,776,59,0.149735496269654,1
649,777,59,0.119378889428217,1
649,814,59,0.128247282746946,1
650,774,59,0.118641928398908,1
650,775,59,0.144227973583639,1
650,776,59,0.138484548467368,1
650,813,59,0.117880860122095,1
650,814,59,0.144607259374104,1
650,815,59,0.126700520763654,1
651,816,59,0.129198570985492,1
652,817,59,0.15715133076717,1
654,774,59,0.125073640751654,1
654,775,59,0.157045303630252,1
654,776,59,0.161300026719357,1
655,774,59,0.181459703611108,1
655,775,59,0.209351741864634,1
655,776,59,0.22516621399529,1
655,777,59,0.164638591965275,1
656,774,59,0.221706193916202,1
656,775,59,0.213209890721977,1
656,776,59,0.254851504066128,1
656,777,59,0.231747457233013,1
656,778,59,0.122604950260165,1
657,775,59,0.161659256504694,1
657,776,59,0.212333738897241,1
657,777,59,0.239490629759032,1
657,778,59,0.15724347297746,1
657,821,59,0.124138157069116,1
657,822,59,0.144746096863509,1
658,776,59,0.131733659455204,1
658,777,59,0.165334157305784,1
658,778,59,0.16287354574531,1
658,779,59,0.146320828906801,1
658,821,59,0.125160130065608,1
658,822,59,0.164489049303431,1
658,823,59,0.151671919463563,1
659,778,59,0.16126130437945,1
659,779,59,0.223531561250828,1
659,780,59,0.211801424492191,1
659,781,59,0.132957747049471,1
659,823,59,0.120592507387393,1
660,778,59,0.129065504161097,1
660,779,59,0.212873519836202,1
660,780,59,0.25458701917877,1
660,781,59,0.190184548693484,1
661,780,59,0.13922731549229,1
661,781,59,0.127474896900592,1
661,823,59,0.135847978731543,1
661,824,59,0.15325338787499,1
662,823,59,0.138851162348545,1
662,824,59,0.164289714046355,1
666,821,59,0.121704608749854,1
666,822,59,0.117901775838541,1
642,780,60,0.115805964521669,1
643,779,60,0.135350559184506,1
643,780,60,0.120656620653347,1
643,781,60,0.118494705779936,1
643,782,60,0.12896283343138,1
643,783,60,0.13706087830181,1
644,778,60,0.160997902963889,1
644,779,60,0.122704818095449,1
644,783,60,0.121386633330909,1
645,777,60,0.149327286492932,1
645,778,60,0.122965546162117,1
646,776,60,0.15363555899796,1
646,777,60,0.115380937378345,1
647,775,60,0.199627182065093,1
647,776,60,0.155875071650461,1
648,775,60,0.182443107366968,1
648,776,60,0.171933195390101,1
648,777,60,0.121240105547112,1
649,775,60,0.159239133814231,1
649,776,60,0.175097145023548,1
649,777,60,0.138277734899512,1
650,775,60,0.135155039632456,1
650,776,60,0.155502333798253,1
650,777,60,0.136223919891675,1
651,817,60,0.13273300908948,1
652,817,60,0.120980237191762,1
652,818,60,0.144158301636287,1
654,775,60,0.12699159781753,1
654,776,60,0.151971911606037,1
654,777,60,0.140764526436147,1
655,774,60,0.170613232318588,1
655,775,60,0.190528916072202,1
655,776,60,0.237102139734321,1
655,777,60,0.215534079050856,1
655,778,60,0.118877477523142,1
656,775,60,0.21990112990092,1
656,776,60,0.254933306186869,1
656,777,60,0.243277575676265,1
656,778,60,0.147128875107546,1
657,776,60,0.196212361602965,1
657,777,60,0.207468432342556,1
657,778,60,0.158391340686118,1
657,821,60,0.12940139219531,1
657,822,60,0.161660387083961,1
657,823,60,0.140570584984325,1
658,777,60,0.137249791031265,1
658,778,60,0.151398260396524,1
658,779,60,0.161368956724064,1
658,780,60,0.121631745271446,1
658,822,60,0.164633457251102,1
658,823,60,0.163062116945612,1
658,824,60,0.114507847539125,1
659,778,60,0.160960110996504,1
659,779,60,0.258188738526034,1
659,780,60,0.250337807663594,1
659,781,60,0.14631600039118,1
659,823,60,0.115184004602211,1
660,778,60,0.134672812244324,1
660,779,60,0.234418662735768,1
660,780,60,0.2698410537451,1
660,781,60,0.189892046638656,1
661,779,60,0.114273970730056,1
661,780,60,0.135590442195932,1
661,781,60,0.118732527839572,1
661,824,60,0.118771450386225,1
662,824,60,0.12316740166881,1
662,825,60,0.116329434499325,1
643,780,61,0.127150291105318,1
643,781,61,0.130336499018092,1
643,782,61,0.132488568430383,1
643,783,61,0.127823774819512,1
644,779,61,0.142962784722256,1
644,780,61,0.114297418472987,1
644,781,61,0.114794802689422,1
644,782,61,0.115690080146764,1
644,783,61,0.115314668945663,1
645,778,61,0.136424927463919,1
646,777,61,0.117295608698225,1
646,779,61,0.116239070596007,1
647,776,61,0.17194241667725,1
647,777,61,0.115742051462461,1
647,779,61,0.122362382122979,1
647,780,61,0.132075942328398,1
647,781,61,0.122474062156233,1
648,776,61,0.202401929785751,1
648,777,61,0.134585875409411,1
649,775,61,0.159632669614212,1
649,776,61,0.186156200548934,1
649,777,61,0.152285977105016,1
650,775,61,0.118659994113451,1
650,776,61,0.157399893329846,1
650,777,61,0.159525405906221,1
651,776,61,0.119571523647761,1
651,777,61,0.13566576703962,1
654,776,61,0.148195977059793,1
654,777,61,0.174213585549237,1
654,778,61,0.119242454419755,1
655,775,61,0.173568283878656,1
655,776,61,0.230037079231372,1
655,777,61,0.259471074506304,1
655,778,61,0.172969889470802,1
656,775,61,0.224134395537679,1
656,776,61,0.231392902864021,1
656,777,61,0.23734827626232,1
656,778,61,0.179744991722275,1
657,776,61,0.180133557684227,1
657,777,61,0.172066462421241,1
657,778,61,0.153676200967248,1
657,779,61,0.114962729041227,1
657,821,61,0.122862098159153,1
657,822,61,0.161321613717243,1
657,823,61,0.144895392211138,1
658,778,61,0.129977610761909,1
658,779,61,0.156203045629802,1
658,780,61,0.133377933900306,1
658,822,61,0.141525806696572,1
658,823,61,0.151272813205317,1
659,778,61,0.149128434087417,1
659,779,61,0.254227071004523,1
659,780,61,0.257945122247652,1
659,781,61,0.14995385116753,1
660,779,61,0.224513846204287,1
660,780,61,0.251421609213769,1
660,781,61,0.174482863621615,1
661,780,61,0.124632608845577,1
642,787,62,0.125881616291195,1
643,781,62,0.136116573745613,1
643,782,62,0.125765425717739,1
643,786,62,0.134057553362399,1
643,787,62,0.14508351589048,1
644,780,62,0.125404500063501,1
644,781,62,0.128113709517254,1
644,782,62,0.115002487745463,1
645,779,62,0.120329895021946,1
645,783,62,0.115882879242452,1
646,778,62,0.120249882985046,1
646,779,62,0.135047775924465,1
646,780,62,0.129330672106763,1
646,781,62,0.124604415025097,1
646,782,62,0.138591188001388,1
646,783,62,0.120740236411662,1
647,777,62,0.127003162701286,1
647,779,62,0.13572273174708,1
647,780,62,0.145391810724449,1
647,781,62,0.138583167954711,1
647,782,62,0.132538631893566,1
648,776,62,0.212332749640382,1
648,777,62,0.142367711391001,1
649,776,62,0.178204918999648,1
649,777,62,0.150293872882189,1
650,776,62,0.145902820776429,1
650,777,62,0.164386826094674,1
650,778,62,0.123917976756798,1
651,776,62,0.128062362375528,1
651,777,62,0.167231610845572,1
651,778,62,0.149390940461058,1
652,777,62,0.128092287395511,1
652,778,62,0.124191270740948,1
653,777,62,0.123071914828188,1
654,776,62,0.145615347443968,1
654,777,62,0.195854980785805,1
654,778,62,0.162359497261549,1
655,775,62,0.15965836673881,1
655,776,62,0.203669426913138,1
655,777,62,0.267475764149105,1
655,778,62,0.231788016764229,1
655,779,62,0.133468392018563,1
656,776,62,0.21276948298987,1
656,777,62,0.224023245463456,1
656,778,62,0.208408956524328,1
656,779,62,0.132482715327301,1
657,776,62,0.17639388411261,1
657,777,62,0.148834389262964,1
657,778,62,0.141260591643436,1
657,822,62,0.137373200824418,1
657,823,62,0.127108330126885,1
658,779,62,0.137506079218936,1
658,780,62,0.132954743948292,1
658,823,62,0.120236586901787,1
659,778,62,0.128112001871486,1
659,779,62,0.214772021517185,1
659,780,62,0.232818139352939,1
659,781,62,0.145878477991579,1
660,779,62,0.189176260416875,1
660,780,62,0.209494501050873,1
660,781,62,0.151405067425863,1
642,786,63,0.128400382022734,1
642,787,63,0.150268199311326,1
643,781,63,0.13724046375231,1
643,782,63,0.119776358701899,1
643,786,63,0.158030473916217,1
643,787,63,0.169376661244911,1
644,780,63,0.138731768467164,1
644,781,63,0.142882725577886,1
644,782,63,0.120002309679228,1
644,784,63,0.120216742880271,1
644,785,63,0.12082764432127,1
644,786,63,0.118264656452762,1
645,779,63,0.142369042177013,1
645,780,63,0.127514196307,1
645,781,63,0.123291035222443,1
645,782,63,0.125460381299164,1
645,783,63,0.144674976361472,1
645,784,63,0.13426752313071,1
646,778,63,0.141847668481749,1
646,779,63,0.15462383837691,1
646,780,63,0.151619488850039,1
646,781,63,0.141599977407258,1
646,782,63,0.160525897896633,1
646,783,63,0.169608170903638,1
646,784,63,0.119194675668841,1
647,777,63,0.15368299621972,1
647,778,63,0.129240814608742,1
647,779,63,0.146233609427071,1
647,780,63,0.156496725371367,1
647,781,63,0.151282929534386,1
647,782,63,0.153017155692448,1
647,783,63,0.127960574910863,1
648,777,63,0.159688503742406,1
648,780,63,0.113966936020896,1
649,776,63,0.179945328013079,1
649,777,63,0.152050062897893,1
650,776,63,0.138900495645951,1
650,777,63,0.16041631414577,1
650,778,63,0.14209647835864,1
651,776,63,0.129805103208697,1
651,777,63,0.18436241877259,1
651,778,63,0.196568717832664,1
651,779,63,0.15323700625248,1
652,776,63,0.131481269410633,1
652,777,63,0.164144540602305,1
652,778,63,0.160147189172668,1
652,779,63,0.122633626932207,1
653,776,63,0.144857647351222,1
653,777,63,0.163617855539857,1
653,778,63,0.141221515997508,1
654,776,63,0.148452971859505,1
654,777,63,0.198703263266311,1
654,778,63,0.203937892381667,1
654,779,63,0.152485806990522,1
655,776,63,0.170077314192124,1
655,777,63,0.235586056490524,1
655,778,63,0.271972148556608,1
655,779,63,0.193106424818175,1
656,776,63,0.200419906561392,1
656,777,63,0.204206051651644,1
656,778,63,0.220937305799457,1
656,779,63,0.155004926028083,1
657,777,63,0.13846516374368,1
657,778,63,0.131131767317742,1
658,779,63,0.117924163663408,1
658,780,63,0.129403276494089,1
659,779,63,0.162617234003905,1
659,780,63,0.196696967918306,1
659,781,63,0.146752392211515,1
660,779,63,0.146050549800698,1
660,780,63,0.166182174194377,1
660,781,63,0.135896252110886,1
662,784,63,0.127185598153689,1
642,786,64,0.146400440530212,1
642,787,64,0.162762065918801,1
643,785,64,0.116561933414911,1
643,786,64,0.176035761352806,1
643,787,64,0.178769407806348,1
644,781,64,0.14920552546121,1
644,782,64,0.127230609340771,1
644,783,64,0.122293452118272,1
644,784,64,0.12558525142387,1
644,785,64,0.131568712650843,1
644,786,64,0.135205103095639,1
644,787,64,0.114644953829027,1
645,780,64,0.164061254596276,1
645,781,64,0.149223685390692,1
645,782,64,0.142752131895638,1
645,783,64,0.174661695352603,1
645,784,64,0.166293948442571,1
645,785,64,0.124311277019431,1
646,779,64,0.173374754617192,1
646,780,64,0.174655524274102,1
646,781,64,0.163281567092154,1
646,782,64,0.180864053213351,1
646,783,64,0.233519593127133,1
646,784,64,0.1888365331239,1
647,778,64,0.158187282905227,1
647,779,64,0.156456507369304,1
647,780,64,0.165103154052354,1
647,781,64,0.161816524791531,1
647,782,64,0.165992142662522,1
647,783,64,0.174259162025953,1
647,784,64,0.120317176005189,1
648,777,64,0.185175952993529,1
648,778,64,0.134731237283339,1
648,779,64,0.123584432319191,1
648,780,64,0.132272309814898,1
648,781,64,0.131059151153549,1
648,782,64,0.114825764073733,1
649,776,64,0.18735505031643,1
649,777,64,0.158810679602503,1
649,778,64,0.120743934348016,1
650,776,64,0.135809232837901,1
650,777,64,0.154024961117495,1
650,778,64,0.163541494331841,1
650,779,64,0.144025011051412,1
651,776,64,0.128506044076763,1
651,777,64,0.188421139458083,1
651,778,64,0.230634731696581,1
651,779,64,0.192973734853535,1
652,776,64,0.165172296040674,1
652,777,64,0.195475153259441,1
652,778,64,0.183138342955191,1
652,779,64,0.138325843402712,1
653,776,64,0.199925278131921,1
653,777,64,0.209978224101161,1
653,778,64,0.168797074494245,1
653,779,64,0.12492011750864,1
654,776,64,0.151589069201626,1
654,777,64,0.194996023187427,1
654,778,64,0.233157101149535,1
654,779,64,0.196778805369649,1
655,776,64,0.140432654313706,1
655,777,64,0.19318601288785,1
655,778,64,0.278177544849137,1
655,779,64,0.237766802574857,1
655,780,64,0.114427246658856,1
656,776,64,0.18209873998825,1
656,777,64,0.175543523627411,1
656,778,64,0.203266964247692,1
656,779,64,0.164797744550891,1
657,777,64,0.126592008707722,1
657,778,64,0.115977423933685,1
658,780,64,0.120651309286164,1
659,779,64,0.118502843595287,1
659,780,64,0.159648156194802,1
659,781,64,0.147139639164321,1
660,780,64,0.129765968678432,1
660,781,64,0.124515876536222,1
662,783,64,0.130090397820695,1
662,784,64,0.133426054180373,1
667,797,64,0.134174968730062,1
667,798,64,0.129842318109581,1
668,798,64,0.114630432951562,1
642,786,65,0.134582295241731,1
642,787,65,0.140141294615013,1
643,785,65,0.121435530884222,1
643,786,65,0.166476631209188,1
643,787,65,0.158078323328335,1
644,781,65,0.136429473334723,1
644,782,65,0.12407427934051,1
644,783,65,0.12491949333467,1
644,784,65,0.120485820745903,1
644,785,65,0.131271605840874,1
644,786,65,0.139848462807899,1
644,787,65,0.117174942915168,1
645,780,65,0.183834991767499,1
645,781,65,0.159334561770517,1
645,782,65,0.148086699507482,1
645,783,65,0.182976104830325,1
645,784,65,0.180476276301513,1
645,785,65,0.13459894773219,1
646,779,65,0.173167658404519,1
646,780,65,0.174601515560351,1
646,781,65,0.170960967881374,1
646,782,65,0.187890732905547,1
646,783,65,0.270280519327818,1
646,784,65,0.253034309877457,1
646,785,65,0.134091588509094,1
647,778,65,0.178110009225527,1
647,779,65,0.155686771318108,1
647,780,65,0.157209143409081,1
647,781,65,0.158656237763835,1
647,782,65,0.166851971749085,1
647,783,65,0.205933741648317,1
647,784,65,0.17139694751135,1
648,777,65,0.199392633974585,1
648,778,65,0.1644213912004,1
648,779,65,0.146176055876242,1
648,780,65,0.142806906105769,1
648,781,65,0.134974665131843,1
648,782,65,0.118446632607338,1
649,777,65,0.167645779717182,1
649,778,65,0.146866003651017,1
649,779,65,0.145599707764102,1
649,780,65,0.134191774319796,1
650,776,65,0.14352873386051,1
650,777,65,0.157356860656482,1
650,778,65,0.179172153116611,1
650,779,65,0.172203215405122,1
650,780,65,0.124331721661183,1
651,776,65,0.151788204251958,1
651,777,65,0.198358413036031,1
651,778,65,0.232628673110717,1
651,779,65,0.192792112004981,1
652,776,65,0.207704558533292,1
652,777,65,0.225699753194546,1
652,778,65,0.190710597805093,1
652,779,65,0.132341133827798,1
653,776,65,0.240259070354817,1
653,777,65,0.246820905315117,1
653,778,65,0.195574361590152,1
653,779,65,0.1366965138023,1
654,776,65,0.160212279918613,1
654,777,65,0.198680769449638,1
654,778,65,0.251238855785947,1
654,779,65,0.221468513178974,1
654,780,65,0.120044612186815,1
655,776,65,0.125497902398599,1
655,777,65,0.162972059240846,1
655,778,65,0.252228395289705,1
655,779,65,0.244659190648451,1
655,780,65,0.135868823786785,1
656,777,65,0.144182267561382,1
656,778,65,0.168044038040977,1
656,779,65,0.158215311849564,1
658,781,65,0.113991314136349,1
659,780,65,0.130291110971254,1
659,781,65,0.141265278836649,1
660,781,65,0.116510656934389,1
662,783,65,0.146363543604746,1
662,784,65,0.12469739339297,1
667,797,65,0.140110886743468,1
667,798,65,0.147832766693286,1
668,798,65,0.123358269358249,1
643,785,66,0.122234096706736,1
643,786,66,0.14180018415252,1
643,787,66,0.124845310847117,1
643,807,66,0.120147459569543,1
644,782,66,0.116575830118406,1
644,783,66,0.120669398554441,1
644,784,66,0.114292837271581,1
644,785,66,0.128428717165623,1
644,786,66,0.135239903738713,1
645,781,66,0.162211697576076,1
645,782,66,0.15219820411252,1
645,783,66,0.179268487891684,1
645,784,66,0.176359530990497,1
645,785,66,0.132913948879728,1
646,780,66,0.161617213088189,1
646,781,66,0.164714140569443,1
646,782,66,0.182918468841424,1
646,783,66,0.262049713831544,1
646,784,66,0.265815131635228,1
646,785,66,0.146781669503793,1
647,779,66,0.139559811788701,1
647,780,66,0.12705979765646,1
647,781,66,0.133132150678329,1
647,782,66,0.148912681877229,1
647,783,66,0.201492049012872,1
647,784,66,0.194154495352754,1
648,778,66,0.184176132284558,1
648,779,66,0.157809174801499,1
648,780,66,0.135953735000511,1
648,781,66,0.116898810705983,1
649,777,66,0.163040306187246,1
649,778,66,0.168154858362914,1
649,779,66,0.176711164696381,1
649,780,66,0.158819005847733,1
649,781,66,0.119266891419544,1
650,777,66,0.150324068770122,1
650,778,66,0.170199558075407,1
650,779,66,0.173475011089098,1
650,780,66,0.142897446662097,1
651,777,66,0.189737204386497,1
651,778,66,0.190554730965473,1
651,779,66,0.153533736202693,1
652,777,66,0.232022871053289,1
652,778,66,0.178998385438591,1
652,779,66,0.115669093769114,1
653,777,66,0.23951896490192,1
653,778,66,0.205680044371468,1
653,779,66,0.141971419804056,1
654,777,66,0.187310015575614,1
654,778,66,0.239066379888955,1
654,779,66,0.213812041950521,1
654,780,66,0.132838659366642,1
655,777,66,0.135633533753632,1
655,778,66,0.199656977539535,1
655,779,66,0.209134882628913,1
655,780,66,0.141926031757218,1
656,778,66,0.123677575563207,1
656,779,66,0.13303046920547,1
659,781,66,0.11787842231055,1
665,790,66,0.131852346724542,1
667,797,66,0.121819315438022,1
667,798,66,0.139714300734839,1
668,798,66,0.117588946910636,1
642,806,67,0.117397867237584,1
642,807,67,0.123650005916698,1
643,785,67,0.12499490061643,1
643,786,67,0.126173765040002,1
643,806,67,0.140935031921906,1
643,807,67,0.14190261934489,1
644,782,67,0.116321237799636,1
644,783,67,0.121194587954733,1
644,784,67,0.12081668005775,1
644,785,67,0.13336780579437,1
644,786,67,0.131204395258803,1
645,781,67,0.167425964487751,1
645,782,67,0.161910574854334,1
645,783,67,0.176883519150317,1
645,784,67,0.169907562425876,1
645,785,67,0.131486863422633,1
646,780,67,0.156987043467381,1
646,781,67,0.163899358000563,1
646,782,67,0.181769034809405,1
646,783,67,0.231030764192444,1
646,784,67,0.235465296492529,1
646,785,67,0.145863851122307,1
647,780,67,0.115985644187108,1
647,781,67,0.119845064946126,1
647,782,67,0.138571473525414,1
647,783,67,0.184488725675116,1
647,784,67,0.193704124390853,1
647,785,67,0.122719845378211,1
648,779,67,0.168613732223054,1
648,780,67,0.133376944643447,1
648,783,67,0.120283411726444,1
648,784,67,0.119683309672822,1
649,778,67,0.189656473960687,1
649,779,67,0.195486671035727,1
649,780,67,0.175688638187124,1
649,781,67,0.129962088850717,1
650,778,67,0.154155707899018,1
650,779,67,0.157447483650882,1
650,780,67,0.152509784692484,1
650,781,67,0.138954315929824,1
650,782,67,0.115783246944515,1
651,778,67,0.146594016899145,1
651,779,67,0.113994117030782,1
652,777,67,0.220719716397959,1
652,778,67,0.167072835119711,1
653,777,67,0.203502171842773,1
653,778,67,0.198907120840458,1
653,779,67,0.141694663420899,1
654,777,67,0.162594127790128,1
654,778,67,0.20446947662094,1
654,779,67,0.184979373523416,1
654,780,67,0.131574082902363,1
655,778,67,0.152971237686579,1
655,779,67,0.162714004523071,1
655,780,67,0.131847094241696,1
658,827,67,0.118613263503733,1
665,789,67,0.117062061641443,1
665,790,67,0.134641509330859,1
642,794,68,0.1155211645381,1
642,806,68,0.125959555599439,1
642,807,68,0.133352908057149,1
642,809,68,0.113939177944509,1
643,793,68,0.115383457627962,1
643,794,68,0.118667460647362,1
643,806,68,0.146022544410096,1
643,807,68,0.146115569885438,1
644,784,68,0.117603032044008,1
644,785,68,0.12416933043704,1
644,786,68,0.115704883669046,1
645,782,68,0.163723470486417,1
645,783,68,0.163582206962333,1
645,784,68,0.151267972912828,1
645,785,68,0.121352256655061,1
646,781,68,0.15504678101471,1
646,782,68,0.172381281639732,1
646,783,68,0.187775437374011,1
646,784,68,0.181960797540764,1
646,785,68,0.130678028171774,1
647,782,68,0.12690594466116,1
647,783,68,0.157454667539976,1
647,784,68,0.167673997091396,1
647,785,68,0.127017118289117,1
648,779,68,0.168130020949634,1
648,780,68,0.127555803979413,1
648,783,68,0.122402329257093,1
648,784,68,0.123352710676851,1
649,779,68,0.194102759574405,1
649,780,68,0.170869544059993,1
649,781,68,0.137790419904677,1
649,782,68,0.114919884797741,1
650,778,68,0.146299877859753,1
650,779,68,0.145194100675069,1
650,780,68,0.153619460020268,1
650,781,68,0.156332732493263,1
650,782,68,0.137365251438945,1
651,781,68,0.12532923410415,1
651,782,68,0.115686853285105,1
652,778,68,0.163140315344938,1
652,779,68,0.117176780106478,1
653,778,68,0.181825387119763,1
653,779,68,0.145888947626669,1
653,780,68,0.11387061302269,1
654,778,68,0.16252976720996,1
654,779,68,0.155287029109024,1
654,780,68,0.128958099130698,1
655,779,68,0.125754355462413,1
655,780,68,0.119473398788848,1
657,827,68,0.116640826649412,1
665,790,68,0.114870610384672,1
641,808,69,0.118380764588147,1
641,809,69,0.117380107721593,1
642,793,69,0.119842992217469,1
642,794,69,0.118557994665173,1
642,806,69,0.126486099339478,1
642,807,69,0.142503851977779,1
642,808,69,0.127578026928137,1
642,809,69,0.121856188809753,1
643,793,69,0.118953320548994,1
643,794,69,0.114183642157341,1
643,806,69,0.131362900116713,1
643,807,69,0.14030465154228,1
643,808,69,0.115579460031573,1
645,782,69,0.162423551643165,1
645,783,69,0.147344238681111,1
645,784,69,0.129883925781993,1
646,781,69,0.150824644517614,1
646,782,69,0.163534475318889,1
646,783,69,0.150695546497522,1
646,784,69,0.13719655959076,1
646,785,69,0.1146702269864,1
647,782,69,0.125431504420377,1
647,783,69,0.134595214465234,1
647,784,69,0.13840268746229,1
647,785,69,0.122539247117117,1
648,780,69,0.126866445048006,1
648,781,69,0.113856633881124,1
648,782,69,0.120437512035958,1
648,783,69,0.125432717437715,1
648,784,69,0.117860038620588,1
649,779,69,0.186502358011492,1
649,780,69,0.15501102644538,1
649,781,69,0.148096627406674,1
649,782,69,0.139744932366864,1
649,783,69,0.114419049959167,1
650,779,69,0.143288850849084,1
650,780,69,0.149980419780313,1
650,781,69,0.162281181093549,1
650,782,69,0.14986305152012,1
651,779,69,0.117538577248901,1
651,780,69,0.130451759219026,1
651,781,69,0.133380901670883,1
651,782,69,0.120801299468967,1
652,779,69,0.135053876341762,1
652,780,69,0.129923507833218,1
652,781,69,0.117243260522772,1
653,779,69,0.143604058704198,1
653,780,69,0.1304675402213,1
653,781,69,0.118745894584035,1
654,779,69,0.131407016261875,1
654,780,69,0.125926415494664,1
658,782,69,0.117528319597423,1
658,828,69,0.142653300424683,1
659,783,69,0.11546701450194,1
663,828,69,0.115795671539589,1
667,827,69,0.124793516184431,1
668,826,69,0.11763640768613,1
668,827,69,0.15372971505257,1
641,807,70,0.116350208893363,1
641,808,70,0.126432196617533,1
642,793,70,0.11972390453464,1
642,806,70,0.11912169442176,1
642,807,70,0.136094138813276,1
642,808,70,0.13123595726335,1
642,809,70,0.122710871405276,1
643,807,70,0.122196104532605,1
643,808,70,0.114277115153644,1
645,784,70,0.114507305803226,1
646,782,70,0.15113921642189,1
646,783,70,0.131953050717409,1
646,784,70,0.115735303317459,1
647,782,70,0.12881564614301,1
647,783,70,0.125100845315275,1
647,784,70,0.119965012340273,1
647,785,70,0.11429601702577,1
648,781,70,0.127786230166342,1
648,782,70,0.136251925282277,1
648,783,70,0.129502614370341,1
649,780,70,0.145701554113104,1
649,781,70,0.151490873681509,1
649,782,70,0.154618892092616,1
649,783,70,0.129024850414941,1
650,780,70,0.14789696239731,1
650,781,70,0.157959789158272,1
650,782,70,0.150821629639568,1
650,783,70,0.119647142913133,1
651,780,70,0.147214375164641,1
651,781,70,0.141433900023629,1
651,782,70,0.125181799501565,1
652,780,70,0.150524852581885,1
652,781,70,0.131619529833537,1
653,780,70,0.139088560440956,1
653,781,70,0.125692680008005,1
654,780,70,0.120118417814613,1
654,781,70,0.114664350329583,1
657,782,70,0.124230735023499,1
658,782,70,0.119997410502403,1
658,783,70,0.12158800598604,1
659,783,70,0.117175343328659,1
668,826,70,0.120771821969944,1
