x,y,z,signal,mito.p
336,1003,20,0.171720634710969,1
337,1003,20,0.158607811285216,1
335,1003,21,0.141833453802835,1
336,1002,21,0.138402663908556,1
336,1003,21,0.183105379503427,1
336,1004,21,0.151293481607548,1
337,1002,21,0.134931243821855,1
337,1003,21,0.166196918832323,1
337,1004,21,0.139002942615188,1
338,1003,21,0.151352330613788,1
339,1003,21,0.180583940422995,1
339,1004,21,0.196157599169703,1
334,1003,22,0.150047595031782,1
335,1002,22,0.120806198645792,1
335,1003,22,0.140744340885477,1
335,1004,22,0.132692013814171,1
336,1002,22,0.154135640117022,1
336,1003,22,0.187256395498486,1
336,1004,22,0.143249834087493,1
337,1002,22,0.152223724584107,1
337,1003,22,0.179447131192795,1
337,1004,22,0.145197398197932,1
337,1005,22,0.118143790462961,1
337,1010,22,0.128944143542866,1
338,1002,22,0.146704189493376,1
338,1003,22,0.177075293658543,1
338,1004,22,0.171895662513798,1
339,1002,22,0.165365954847679,1
339,1003,22,0.21442312004453,1
339,1004,22,0.220298033884968,1
339,1005,22,0.182406092672829,1
340,1003,22,0.194193017485916,1
340,1004,22,0.204352414559298,1
334,1003,23,0.160778982776379,1
335,1002,23,0.133034379125437,1
335,1003,23,0.146269917509168,1
335,1004,23,0.144000079423194,1
336,1002,23,0.15398600324024,1
336,1003,23,0.17343034143117,1
336,1004,23,0.140191711384217,1
336,1005,23,0.124623293343488,1
336,1010,23,0.117612524199107,1
337,1002,23,0.162469799401321,1
337,1003,23,0.18601874095301,1
337,1004,23,0.159097199008708,1
337,1005,23,0.135973001955525,1
337,1009,23,0.14825349528002,1
337,1010,23,0.14529975095223,1
337,1011,23,0.132208761838578,1
338,1002,23,0.16838999529679,1
338,1003,23,0.207890114855548,1
338,1004,23,0.199033251089973,1
338,1005,23,0.164429152155996,1
338,1009,23,0.144783076227046,1
338,1010,23,0.133341248958454,1
339,1002,23,0.18365889226974,1
339,1003,23,0.241545999313362,1
339,1004,23,0.238505424142465,1
339,1005,23,0.186561866522304,1
340,1003,23,0.208633871137329,1
340,1004,23,0.21836241151804,1
340,1005,23,0.178498245435192,1
340,1012,23,0.186814751195305,1
340,1013,23,0.199048914323573,1
341,1004,23,0.153134641721314,1
341,1012,23,0.17272430645557,1
341,1013,23,0.178857451666794,1
334,1003,24,0.192096852863022,1
334,1004,24,0.18501148904073,1
335,1002,24,0.162162234733129,1
335,1003,24,0.178063808574841,1
335,1004,24,0.179252282922186,1
335,1005,24,0.177334950030281,1
335,1006,24,0.161473947496653,1
336,1001,24,0.12441295849229,1
336,1002,24,0.156831188404628,1
336,1003,24,0.162482494864344,1
336,1004,24,0.152081200935215,1
336,1005,24,0.152903214500659,1
336,1006,24,0.152087065815165,1
336,1010,24,0.123474660138451,1
336,1011,24,0.127524336189805,1
337,1001,24,0.1291108686542,1
337,1002,24,0.165543279139644,1
337,1003,24,0.183381723696225,1
337,1004,24,0.174310049869851,1
337,1005,24,0.161306127136653,1
337,1006,24,0.14953341700248,1
337,1008,24,0.116915816502463,1
337,1009,24,0.149393872901032,1
337,1010,24,0.151527959036852,1
337,1011,24,0.133415749421426,1
337,1012,24,0.126542486980438,1
338,1002,24,0.186806318958269,1
338,1003,24,0.238051684996497,1
338,1004,24,0.230925950072866,1
338,1005,24,0.19006700378028,1
338,1008,24,0.122807182626615,1
338,1009,24,0.144469375810955,1
338,1010,24,0.133601352851151,1
338,1011,24,0.120922836740208,1
339,1002,24,0.195095361063679,1
339,1003,24,0.26009407079009,1
339,1004,24,0.251799505333885,1
339,1005,24,0.193854102796789,1
339,1009,24,0.113853324581394,1
339,1012,24,0.184123842993442,1
339,1013,24,0.192509325865732,1
340,1002,24,0.165002744481172,1
340,1003,24,0.214526591601228,1
340,1004,24,0.221452967714048,1
340,1005,24,0.178333628383117,1
340,1011,24,0.167379198547432,1
340,1012,24,0.253611140841158,1
340,1013,24,0.245239295581282,1
340,1014,24,0.165668102156881,1
341,1003,24,0.139881756011949,1
341,1004,24,0.154219208767868,1
341,1011,24,0.170380285882042,1
341,1012,24,0.236214258149686,1
341,1013,24,0.222375826594767,1
341,1014,24,0.151401687464928,1
342,1012,24,0.190666528767401,1
342,1013,24,0.186284179766626,1
343,1012,24,0.182898377505693,1
343,1013,24,0.193975557629959,1
333,1003,25,0.202084731640052,1
333,1004,25,0.171133734525667,1
334,1002,25,0.191961736863705,1
334,1003,25,0.235764381816215,1
334,1004,25,0.222971241455176,1
334,1005,25,0.168843652004687,1
334,1006,25,0.139290792807405,1
335,1001,25,0.164251639434153,1
335,1002,25,0.207235509459745,1
335,1003,25,0.244784567178455,1
335,1004,25,0.239465262386721,1
335,1005,25,0.201525565977403,1
335,1006,25,0.192517710995298,1
335,1007,25,0.147450206933692,1
336,1001,25,0.165084299287697,1
336,1002,25,0.183446284483139,1
336,1003,25,0.196430092326872,1
336,1004,25,0.199483857589221,1
336,1005,25,0.191127934654026,1
336,1006,25,0.193301225981315,1
336,1007,25,0.142035921706632,1
336,1010,25,0.121436190388795,1
336,1011,25,0.126133523484204,1
337,1001,25,0.158759473783186,1
337,1002,25,0.183945376345342,1
337,1003,25,0.208714000942903,1
337,1004,25,0.214936355924443,1
337,1005,25,0.197133925028274,1
337,1006,25,0.173418941423558,1
337,1007,25,0.126716419534601,1
337,1009,25,0.130393711039767,1
337,1010,25,0.14419382066827,1
337,1011,25,0.134351445087577,1
337,1012,25,0.134722098434261,1
338,1001,25,0.150989921074261,1
338,1002,25,0.214461536185885,1
338,1003,25,0.276298946074007,1
338,1004,25,0.273008489331289,2
338,1005,25,0.226495445461421,1
338,1006,25,0.185671688448532,1
338,1008,25,0.117724840183199,1
338,1009,25,0.12886039823901,1
338,1010,25,0.130592339684802,1
338,1011,25,0.125341411385009,1
339,1002,25,0.217969205470345,1
339,1003,25,0.281271822535234,1
339,1004,25,0.26530012922521,1
339,1005,25,0.207046938259443,1
339,1006,25,0.179652931950057,1
339,1009,25,0.115432414065612,1
339,1012,25,0.186193521441624,1
339,1013,25,0.184254766427976,1
340,1002,25,0.181803835452479,1
340,1003,25,0.220244025171217,1
340,1004,25,0.216967630008136,1
340,1005,25,0.175999441493842,1
340,1007,25,0.185592842321501,1
340,1011,25,0.174333085422424,1
340,1012,25,0.279479642412852,1
340,1013,25,0.253676855761074,1
340,1014,25,0.163021157000905,1
341,1003,25,0.148038991417773,1
341,1004,25,0.158586165402993,1
341,1007,25,0.192412578900301,1
341,1008,25,0.177257646672875,1
341,1011,25,0.18846098060039,1
341,1012,25,0.270281979659372,1
341,1013,25,0.239531660364943,1
341,1014,25,0.16259841456985,1
342,1011,25,0.190729146371199,1
342,1012,25,0.212846597917398,1
342,1013,25,0.196070356136238,1
343,1010,25,0.208415245371503,1
343,1011,25,0.209089847888097,1
343,1012,25,0.216282899385606,1
343,1013,25,0.221592146732607,1
343,1014,25,0.188158209117217,1
344,1012,25,0.205858628788241,1
344,1013,25,0.234597364921216,1
333,1003,26,0.2061343016996,1
333,1004,26,0.18448096471952,1
334,1002,26,0.194572091292768,1
334,1003,26,0.259302170674507,1
334,1004,26,0.242668311219831,1
334,1005,26,0.16167994846066,1
334,1006,26,0.131598590563356,1
334,1007,26,0.114411371441643,1
335,1001,26,0.197799106050973,1
335,1002,26,0.223803536225832,1
335,1003,26,0.281476740027443,1
335,1004,26,0.268117815404293,1
335,1005,26,0.207624216744105,1
335,1006,26,0.204575350658581,1
335,1007,26,0.148261162020677,1
336,1001,26,0.190837175575568,1
336,1002,26,0.192629473466624,1
336,1003,26,0.223826289133588,1
336,1004,26,0.236730673783789,1
336,1005,26,0.218594345143992,1
336,1006,26,0.216949988260819,1
336,1007,26,0.147394702557785,1
336,1011,26,0.119206558528016,1
337,1001,26,0.175473498374039,1
337,1002,26,0.190042484342419,1
337,1003,26,0.230919190150996,1
337,1004,26,0.260944643258902,2
337,1005,26,0.23515024173669,1
337,1006,26,0.189328393989539,1
337,1007,26,0.126916767602271,1
337,1010,26,0.130260738430311,1
337,1011,26,0.133524932758798,1
337,1012,26,0.146420590750279,1
338,1001,26,0.173800547256894,1
338,1002,26,0.234801575801383,1
338,1003,26,0.306083444475556,2
338,1004,26,0.321215188051134,2
338,1005,26,0.270613262938443,2
338,1006,26,0.207177237520007,1
338,1007,26,0.141574692473018,1
338,1009,26,0.115473150249839,1
338,1010,26,0.126504553690644,1
338,1011,26,0.134951900447219,1
338,1012,26,0.15667204759588,1
339,1001,26,0.174231274404025,1
339,1002,26,0.243669109408794,1
339,1003,26,0.30019223145068,2
339,1004,26,0.282089490436618,2
339,1005,26,0.228431279811962,1
339,1006,26,0.205690784874508,1
339,1007,26,0.181512228439571,1
339,1011,26,0.137097881219081,1
339,1012,26,0.184862900305143,1
339,1013,26,0.175028921630883,1
340,1002,26,0.197448979784112,1
340,1003,26,0.22432221301847,1
340,1004,26,0.210135845694019,1
340,1005,26,0.180163235389995,1
340,1006,26,0.203627831017593,1
340,1007,26,0.244840201099903,1
340,1008,26,0.214523647384386,1
340,1011,26,0.170853009338208,1
340,1012,26,0.265684691052257,1
340,1013,26,0.235725659476308,1
340,1014,26,0.162673845405345,1
341,1003,26,0.152559624395187,1
341,1004,26,0.157562213892784,1
341,1006,26,0.198043546710071,1
341,1007,26,0.257655882385085,1
341,1008,26,0.236678643583755,1
341,1009,26,0.157471708667058,1
341,1011,26,0.196303596994468,1
341,1012,26,0.268401543692932,1
341,1013,26,0.234186069605243,1
341,1014,26,0.177760660231912,1
342,1007,26,0.18830381830536,1
342,1008,26,0.189642483042253,1
342,1010,26,0.19893333614722,1
342,1011,26,0.22157485829131,1
342,1012,26,0.222310394319668,1
342,1013,26,0.198235344772032,1
342,1014,26,0.180125231438998,1
343,1009,26,0.219809317442916,1
343,1010,26,0.253931518741047,1
343,1011,26,0.25653180394851,1
343,1012,26,0.238548244832216,1
343,1013,26,0.226718263792031,1
343,1014,26,0.194293803916854,1
344,1010,26,0.208749684851029,1
344,1011,26,0.214231651734855,1
344,1012,26,0.231107478706482,1
344,1013,26,0.249200539135567,1
344,1014,26,0.201471722139795,1
345,1012,26,0.147990258740603,1
345,1013,26,0.160530761742856,1
333,1001,27,0.180396122942204,1
333,1002,27,0.193536987089162,1
333,1003,27,0.208270248580464,1
333,1004,27,0.183058507571301,1
334,1000,27,0.167403458894211,1
334,1001,27,0.193605434242307,1
334,1002,27,0.20393407667664,1
334,1003,27,0.254091566368583,1
334,1004,27,0.231408589651356,1
334,1005,27,0.148700568719057,1
334,1006,27,0.122055088322737,1
335,1000,27,0.187544610773591,1
335,1001,27,0.21651598714456,1
335,1002,27,0.220417875287308,1
335,1003,27,0.276435463520541,1
335,1004,27,0.255412907333578,1
335,1005,27,0.187963325516006,1
335,1006,27,0.187273047988944,1
335,1007,27,0.138535766063553,1
336,1002,27,0.188125504756535,1
336,1003,27,0.232982379545258,1
336,1004,27,0.250738880658691,1
336,1005,27,0.218786826264261,1
336,1006,27,0.209344039793375,1
336,1007,27,0.146560499934615,1
336,1008,27,0.114797652691325,1
336,1010,27,0.114443333859681,1
336,1011,27,0.115982935507613,1
336,1012,27,0.119359045406701,1
337,1002,27,0.187859182677867,1
337,1003,27,0.241412661621017,2
337,1004,27,0.299567704174136,2
337,1005,27,0.262674594414109,1
337,1006,27,0.194275726425444,1
337,1007,27,0.136184420278522,1
337,1009,27,0.119652548495256,1
337,1010,27,0.130951357486526,1
337,1011,27,0.140221094668301,1
337,1012,27,0.153063379896869,1
337,1013,27,0.138566444803047,1
338,1001,27,0.197655946451244,1
338,1002,27,0.243306217017705,2
338,1003,27,0.309147785364802,2
338,1004,27,0.353925484274208,2
338,1005,27,0.300176026481181,2
338,1006,27,0.211207634839478,1
338,1007,27,0.149568300083625,1
338,1009,27,0.123559347591697,1
338,1010,27,0.136485260355447,1
338,1011,27,0.156688040581766,1
338,1012,27,0.175686871657018,1
338,1013,27,0.15726003125298,1
339,1001,27,0.209357559637114,1
339,1002,27,0.266823749664124,2
339,1003,27,0.30526189020794,2
339,1004,27,0.297550962744775,2
339,1005,27,0.251856434710743,2
339,1006,27,0.220633132869067,1
339,1007,27,0.192053148908218,1
339,1008,27,0.155249296025976,1
339,1010,27,0.130329150252854,1
339,1011,27,0.15800813319882,1
339,1012,27,0.191175878281082,1
339,1013,27,0.173615379571262,1
340,1002,27,0.218402076007337,1
340,1003,27,0.23279745917384,2
340,1004,27,0.217448126196765,2
340,1005,27,0.20097966106741,1
340,1006,27,0.234855443192726,1
340,1007,27,0.277198298327459,1
340,1008,27,0.223334487152286,1
340,1009,27,0.138288451848817,1
340,1011,27,0.1671632814611,1
340,1012,27,0.227844132312445,1
340,1013,27,0.205918149075921,1
340,1014,27,0.157083837540282,1
341,1003,27,0.170513753119928,1
341,1004,27,0.166629777592447,1
341,1005,27,0.167401021082665,1
341,1006,27,0.223805444078346,1
341,1007,27,0.308520031226599,3
341,1008,27,0.268427782553428,1
341,1009,27,0.166472038230915,1
341,1010,27,0.149601122212981,1
341,1011,27,0.190267069203134,1
341,1012,27,0.234793991498798,1
341,1013,27,0.216738357954209,1
341,1014,27,0.184953723506288,1
342,1006,27,0.154850295759536,1
342,1007,27,0.210911799931185,1
342,1008,27,0.218205708520837,1
342,1009,27,0.201406925815534,1
342,1010,27,0.227133351259296,1
342,1011,27,0.244610222433934,1
342,1012,27,0.226816812618169,1
342,1013,27,0.211170537707268,1
342,1014,27,0.20218243253174,1
343,1007,27,0.136453721904634,1
343,1008,27,0.181566107607781,1
343,1009,27,0.234808170847109,1
343,1010,27,0.294820543152892,1
343,1011,27,0.302617135549294,4
343,1012,27,0.25519760264435,1
343,1013,27,0.232783091395651,1
343,1014,27,0.209266877758378,1
344,1009,27,0.174853717175044,1
344,1010,27,0.220434033149338,1
344,1011,27,0.244880572201242,1
344,1012,27,0.243501783677224,1
344,1013,27,0.24144240998799,1
344,1014,27,0.202546761700647,1
345,1011,27,0.136276220959658,1
345,1012,27,0.150598187134988,1
345,1013,27,0.161032314970339,1
332,1001,28,0.225112652802499,1
332,1002,28,0.213202965923964,1
333,1000,28,0.191181531177419,1
333,1001,28,0.233935245884032,1
333,1002,28,0.232073888442729,1
333,1003,28,0.20491089716364,1
333,1004,28,0.169738481941069,1
334,999,28,0.195108621816336,1
334,1000,28,0.232458756468327,1
334,1001,28,0.240218063302641,1
334,1002,28,0.234366514767061,1
334,1003,28,0.243620400285358,1
334,1004,28,0.209086173505478,1
334,1005,28,0.150723975855349,1
334,1006,28,0.126365233349676,1
335,999,28,0.227926075755594,1
335,1000,28,0.234660347607902,1
335,1001,28,0.221855006412269,1
335,1002,28,0.219087654564318,1
335,1003,28,0.252577979820668,1
335,1004,28,0.223588231536604,1
335,1005,28,0.173140171196081,1
335,1006,28,0.163817602987292,1
335,1007,28,0.137570369137899,1
336,998,28,0.213606747598555,1
336,999,28,0.237852938582789,1
336,1000,28,0.201287296396806,1
336,1001,28,0.180222343487317,1
336,1002,28,0.185079771317732,1
336,1003,28,0.228898538801669,1
336,1004,28,0.244167129576067,2
336,1005,28,0.212466063778991,1
336,1006,28,0.193782829195476,1
336,1007,28,0.159850576991129,1
336,1008,28,0.131817522527734,1
336,1010,28,0.118178755982178,1
336,1011,28,0.126994612695576,1
336,1012,28,0.126794500165253,1
337,998,28,0.191511719207826,1
337,999,28,0.21152191232207,1
337,1002,28,0.190931708489934,1
337,1003,28,0.245745488894508,2
337,1004,28,0.318108403331892,2
337,1005,28,0.277193092952082,2
337,1006,28,0.201563487490329,1
337,1007,28,0.161714796211203,1
337,1010,28,0.126294854790283,1
337,1011,28,0.144945514558658,1
337,1012,28,0.153241269478468,1
337,1013,28,0.12857430280003,1
338,999,28,0.186639699838742,1
338,1000,28,0.191776686946746,1
338,1001,28,0.215986687617557,1
338,1002,28,0.255896865921213,2
338,1003,28,0.307963786227057,2
338,1004,28,0.372700495985125,2
338,1005,28,0.312088539807884,2
338,1006,28,0.208008354603926,2
338,1007,28,0.161346651337268,1
338,1010,28,0.138585358452041,1
338,1011,28,0.170154558665193,1
338,1012,28,0.179988348909575,1
338,1013,28,0.153593185829169,1
339,1000,28,0.198053533493599,1
339,1001,28,0.238023467622283,1
339,1002,28,0.288052942765932,2
339,1003,28,0.308807198360509,2
339,1004,28,0.31945407530487,2
339,1005,28,0.281253332853465,2
339,1006,28,0.228386150856207,1
339,1007,28,0.194113417639373,1
339,1008,28,0.154414221914621,1
339,1010,28,0.143318033926423,1
339,1011,28,0.178291208106856,1
339,1012,28,0.191116935059904,1
339,1013,28,0.167264609627938,1
340,1001,28,0.201391710102894,1
340,1002,28,0.237390720092316,1
340,1003,28,0.24240043459467,2
340,1004,28,0.242995920116284,2
340,1005,28,0.250043126888303,2
340,1006,28,0.268011399630753,1
340,1007,28,0.28509155525122,3
340,1008,28,0.208418307357018,1
340,1009,28,0.138247173928691,1
340,1011,28,0.160751731105288,1
340,1012,28,0.186009484335259,1
340,1013,28,0.173939302308228,1
341,1002,28,0.202619896047005,1
341,1003,28,0.195720430076122,1
341,1004,28,0.182422132766185,1
341,1005,28,0.193000715656676,1
341,1006,28,0.251049059791438,3
341,1007,28,0.33755655722785,3
341,1008,28,0.272594697319434,3
341,1009,28,0.170711215855093,1
341,1010,28,0.152489446042539,1
341,1011,28,0.172839119135544,1
341,1012,28,0.192984557794647,1
341,1013,28,0.193771005220638,1
342,1006,28,0.168453684595518,1
342,1007,28,0.259484688564982,3
342,1008,28,0.263240072477668,1
342,1009,28,0.223941749541267,1
342,1010,28,0.24051955110727,1
342,1011,28,0.25195960006889,4
342,1012,28,0.228016522096983,1
342,1013,28,0.222662875960003,1
342,1014,28,0.210830515992609,1
343,1007,28,0.160164960465527,1
343,1008,28,0.206082624805587,1
343,1009,28,0.244710396467769,1
343,1010,28,0.317682716683996,4
343,1011,28,0.333682462492091,4
343,1012,28,0.268357309779096,4
343,1013,28,0.239661559212016,1
343,1014,28,0.223862114364123,1
343,1015,28,0.1835172518859,1
344,1009,28,0.166241977126874,1
344,1010,28,0.229812635693066,1
344,1011,28,0.263730225697539,4
344,1012,28,0.237969788660818,1
344,1013,28,0.225572515919498,1
344,1014,28,0.219740352107607,1
344,1019,28,0.121569021675843,1
345,1011,28,0.136586129224457,1
345,1012,28,0.146329119821429,1
345,1013,28,0.158436469641874,1
345,1019,28,0.11697892873469,1
346,1019,28,0.121403391813174,1
329,1000,29,0.156733098876317,1
330,1000,29,0.169247904753973,1
331,1001,29,0.1767551159654,1
332,1000,29,0.184118166543371,1
332,1001,29,0.231344853245158,1
332,1002,29,0.207208422664798,1
333,999,29,0.188217317214539,1
333,1000,29,0.237767297203286,1
333,1001,29,0.276969379579553,1
333,1002,29,0.260930299034448,1
333,1003,29,0.194980654375511,1
334,998,29,0.163643941301078,1
334,999,29,0.249796613500549,1
334,1000,29,0.291103858026378,5
334,1001,29,0.286595060800669,5
334,1002,29,0.270986283435469,1
334,1003,29,0.230168532624937,1
334,1004,29,0.184041192938251,1
335,998,29,0.221823373746517,1
335,999,29,0.28516758670695,6
335,1000,29,0.261790787625584,1
335,1001,29,0.225387760424223,1
335,1002,29,0.225224533042498,1
335,1003,29,0.227004371007877,1
335,1004,29,0.196814889691265,1
335,1005,29,0.167368752466076,1
335,1006,29,0.154415281832684,1
335,1007,29,0.140214287638962,1
336,997,29,0.183516015314827,1
336,998,29,0.302718675699744,6
336,999,29,0.316278113266707,6
336,1000,29,0.214684425177699,1
336,1001,29,0.170383277206354,1
336,1002,29,0.187084088152019,1
336,1003,29,0.222033991242533,1
336,1004,29,0.23260292887865,2
336,1005,29,0.203914456415604,1
336,1006,29,0.185903751620026,1
336,1007,29,0.173422392045697,1
336,1008,29,0.147229355339933,1
336,1011,29,0.130657830844237,1
336,1012,29,0.12580242863501,1
337,997,29,0.183431268977244,1
337,998,29,0.286004757100697,6
337,999,29,0.298448524914387,6
337,1000,29,0.206719164486847,1
337,1001,29,0.183218578752572,1
337,1002,29,0.208263064691369,1
337,1003,29,0.256358189369766,2
337,1004,29,0.314989135133241,2
337,1005,29,0.271960277474301,2
337,1006,29,0.209569213497458,1
337,1007,29,0.188510608319481,1
337,1008,29,0.152034540986702,1
337,1011,29,0.129692622348462,1
337,1012,29,0.133013698946338,1
337,1013,29,0.114212931226486,1
338,998,29,0.217338883975056,1
338,999,29,0.260898595707492,6
338,1000,29,0.230031944517199,1
338,1001,29,0.241224655710349,1
338,1002,29,0.277307469887963,2
338,1003,29,0.30887955543362,2
338,1004,29,0.364509590515495,2
338,1005,29,0.301901596641727,2
338,1006,29,0.206118026068897,2
338,1007,29,0.180299964820142,1
338,1008,29,0.152178878273168,1
338,1010,29,0.129948498345774,1
338,1011,29,0.156911235772131,1
338,1012,29,0.161087171618541,1
338,1013,29,0.144900585809647,1
339,999,29,0.22695446064397,1
339,1000,29,0.239914408554415,1
339,1001,29,0.267529961292734,2
339,1002,29,0.306913595856352,2
339,1003,29,0.308523846931627,2
339,1004,29,0.33327415850043,2
339,1005,29,0.304421775597351,2
339,1006,29,0.232948014646278,2
339,1007,29,0.199810218137732,1
339,1008,29,0.161798282423977,1
339,1010,29,0.148534043814469,1
339,1011,29,0.177360976907165,1
339,1012,29,0.1759774776362,1
339,1013,29,0.157361382973552,1
340,1000,29,0.200704412123277,1
340,1001,29,0.212903244649439,1
340,1002,29,0.244961738371144,2
340,1003,29,0.243774818570292,2
340,1004,29,0.274683277639742,2
340,1005,29,0.309566288123604,2
340,1006,29,0.294211632002478,2
340,1007,29,0.270542154213273,3
340,1008,29,0.192859711223675,1
340,1009,29,0.146452835813133,1
340,1011,29,0.151464905688962,1
340,1012,29,0.152200029526962,1
341,1001,29,0.171922761085612,1
341,1002,29,0.222491334109916,1
341,1003,29,0.200455755345661,1
341,1004,29,0.197321601186656,1
341,1005,29,0.229892789052375,2
341,1006,29,0.270785158094552,3
341,1007,29,0.320546285538346,3
341,1008,29,0.251747027612891,3
341,1009,29,0.175968633208806,1
341,1010,29,0.157749089224185,1
341,1011,29,0.159737259973311,1
341,1012,29,0.161896572159033,1
341,1013,29,0.168364969453632,1
342,1002,29,0.208152786105332,1
342,1004,29,0.125541759452679,1
342,1005,29,0.13125721450895,1
342,1006,29,0.18197544796377,1
342,1007,29,0.284377712212555,3
342,1008,29,0.28843781079153,1
342,1009,29,0.240808908738511,1
342,1010,29,0.245218332757366,4
342,1011,29,0.253694214863575,4
342,1012,29,0.231097633245362,1
342,1013,29,0.221730430709246,1
342,1014,29,0.201152333496765,1
343,1007,29,0.175149057454908,1
343,1008,29,0.222605145756163,1
343,1009,29,0.252728111325879,4
343,1010,29,0.325602942634031,4
343,1011,29,0.350036503578095,4
343,1012,29,0.286164357207273,4
343,1013,29,0.24830613316641,1
343,1014,29,0.23112323615502,1
343,1015,29,0.183407621027568,1
343,1019,29,0.126712003209338,1
344,1008,29,0.11875804831116,1
344,1009,29,0.163515655884835,1
344,1010,29,0.238533029119576,4
344,1011,29,0.273515271487884,4
344,1012,29,0.236824794507797,1
344,1013,29,0.227741461582728,1
344,1014,29,0.25177307804351,1
344,1015,29,0.217673888744217,1
344,1018,29,0.130215079515524,1
344,1019,29,0.134651955412215,1
344,1020,29,0.119338176797725,1
345,1010,29,0.117538801009381,1
345,1011,29,0.139824131799916,1
345,1012,29,0.144987440206489,1
345,1013,29,0.166512951068152,1
345,1014,29,0.209886105444606,1
345,1018,29,0.124311500779911,1
345,1019,29,0.128346538185126,1
345,1020,29,0.120787261443064,1
346,1018,29,0.127956064370661,1
346,1019,29,0.12302030859538,1
346,1020,29,0.119123319629456,1
347,1019,29,0.129359454770611,1
328,1000,30,0.143940370705636,1
329,999,30,0.166197931642916,1
329,1000,30,0.19839430892777,1
329,1001,30,0.170790250412002,1
330,999,30,0.18317312004453,1
330,1000,30,0.205143254756818,1
330,1001,30,0.169177514417712,1
331,1000,30,0.176312694388973,1
331,1001,30,0.167575318719717,1
332,999,30,0.157103022057225,1
332,1000,30,0.196224362230814,1
332,1001,30,0.217126452841466,1
332,1002,30,0.185835905087117,1
333,998,30,0.164275499367441,1
333,999,30,0.208881962625311,1
333,1000,30,0.269239350037516,5
333,1001,30,0.293929528921537,5
333,1002,30,0.264011292414152,1
333,1003,30,0.178837560537809,1
334,998,30,0.198606763615095,1
334,999,30,0.274215783112688,5
334,1000,30,0.326515178780384,5
334,1001,30,0.322749525439353,5
334,1002,30,0.294272447745568,5
334,1003,30,0.213252405213176,1
334,1004,30,0.156103389778131,1
334,1005,30,0.151922095457069,1
334,1006,30,0.143433435449765,1
335,997,30,0.13909091581443,1
335,998,30,0.245513743698434,6
335,999,30,0.300704737164816,6
335,1000,30,0.270545357521197,5
335,1001,30,0.233660986196758,5
335,1002,30,0.22749885811494,1
335,1003,30,0.200005054631474,1
335,1004,30,0.168511403022491,1
335,1005,30,0.156178738175554,1
335,1006,30,0.140640468915288,1
336,997,30,0.181806744338719,6
336,998,30,0.335973958237156,6
336,999,30,0.341161903850263,6
336,1000,30,0.22032335414981,6
336,1001,30,0.172831110865734,1
336,1002,30,0.189613594386599,1
336,1003,30,0.211090855422654,1
336,1004,30,0.209358855092525,1
336,1005,30,0.185838990626367,1
336,1006,30,0.169964727340082,1
336,1007,30,0.169089034813174,1
336,1008,30,0.144410715234593,1
337,997,30,0.186815799336501,6
337,998,30,0.331581469353576,6
337,999,30,0.339514602750247,6
337,1000,30,0.226510496297918,6
337,1001,30,0.201803829799582,1
337,1002,30,0.228969459096961,2
337,1003,30,0.264787387973727,2
337,1004,30,0.285868640067654,2
337,1005,30,0.24274398936954,1
337,1006,30,0.206562225952296,1
337,1007,30,0.196885809986557,1
337,1008,30,0.147501754282163,1
338,997,30,0.152199252253716,1
338,998,30,0.255113963332299,6
338,999,30,0.306359211601854,6
338,1000,30,0.265233613478314,6
338,1001,30,0.276865177857077,2
338,1002,30,0.302975058102353,2
338,1003,30,0.31490643797058,2
338,1004,30,0.33808430220836,2
338,1005,30,0.28035744299902,2
338,1006,30,0.215662965087335,1
338,1007,30,0.197003920189395,1
338,1008,30,0.151871007406425,1
338,1009,30,0.119151478119334,1
338,1011,30,0.12895119788642,1
338,1012,30,0.132205370100776,1
339,998,30,0.20525042424987,1
339,999,30,0.263690466993304,6
339,1000,30,0.267257067722075,1
339,1001,30,0.293761213933108,2
339,1002,30,0.316696992885265,2
339,1003,30,0.308258467002348,2
339,1004,30,0.335956928886941,2
339,1005,30,0.315721562068613,2
339,1006,30,0.24466872991102,2
339,1007,30,0.207263326420469,1
339,1008,30,0.163305297479901,1
339,1009,30,0.139808751211133,1
339,1010,30,0.139223452679793,1
339,1011,30,0.155609079324079,1
339,1012,30,0.151376343646352,1
340,999,30,0.209534872152212,1
340,1000,30,0.207505882780788,1
340,1001,30,0.21703348625046,1
340,1002,30,0.240883456308953,2
340,1003,30,0.244502487651248,2
340,1004,30,0.301124370502885,2
340,1005,30,0.357078999603167,2
340,1006,30,0.314737487031314,2
340,1007,30,0.252551364100415,2
340,1008,30,0.1812553631854,1
340,1009,30,0.150525971384285,1
340,1010,30,0.141375604530156,1
340,1011,30,0.139748112121053,1
340,1012,30,0.132334114814847,1
341,1001,30,0.176679119840272,1
341,1002,30,0.221216605985965,1
341,1003,30,0.196705965444975,1
341,1004,30,0.214260929027133,2
341,1005,30,0.280400075258893,2
341,1006,30,0.303605685796194,2
341,1007,30,0.291658265834611,3
341,1008,30,0.22535233560718,1
341,1009,30,0.176929013188961,1
341,1010,30,0.158102195038491,1
341,1011,30,0.148905509765002,1
341,1012,30,0.143080753602685,1
341,1013,30,0.143721862708484,1
342,1002,30,0.211703205418339,1
342,1003,30,0.15467709337115,1
342,1004,30,0.130763481121399,1
342,1005,30,0.164996667617609,1
342,1006,30,0.221688340185272,1
342,1007,30,0.284649004129252,1
342,1008,30,0.279134627306429,1
342,1009,30,0.237304160117158,1
342,1010,30,0.226938679641697,1
342,1011,30,0.230122414412323,1
342,1012,30,0.2153194338662,1
342,1013,30,0.197894875536413,1
342,1014,30,0.174642663934936,1
343,1006,30,0.119982088797957,1
343,1007,30,0.174936791197461,1
343,1008,30,0.215933738821869,1
343,1009,30,0.242376833752464,1
343,1010,30,0.29402541617565,4
343,1011,30,0.317140415495418,4
343,1012,30,0.276709652546611,1
343,1013,30,0.237691972359598,1
343,1014,30,0.215722367606341,1
343,1015,30,0.168071902109171,1
343,1016,30,0.13174790946472,1
343,1018,30,0.120201692043775,1
343,1019,30,0.115672026209089,1
344,1009,30,0.15429778402695,1
344,1010,30,0.219276979484132,1
344,1011,30,0.24798580237399,1
344,1012,30,0.227937405102003,1
344,1013,30,0.235052917704758,1
344,1014,30,0.266516891607974,1
344,1015,30,0.224498606937913,1
344,1017,30,0.130437579870714,1
344,1018,30,0.125225244365287,1
344,1019,30,0.127888594697508,1
345,1011,30,0.133742639928969,1
345,1012,30,0.14962694888312,1
345,1013,30,0.192442433259079,1
345,1014,30,0.248034275960078,1
345,1015,30,0.230390903434587,1
345,1017,30,0.138817704268351,1
345,1018,30,0.126536398340008,1
345,1019,30,0.129010129330731,1
345,1020,30,0.114624273649928,1
346,1014,30,0.157883816586879,1
346,1017,30,0.142737481472632,1
346,1018,30,0.13196996229895,1
346,1019,30,0.130539909071278,1
346,1020,30,0.1157533337014,1
347,1018,30,0.13061082936657,1
347,1019,30,0.125932515911961,1
347,1020,30,0.114798406410837,1
348,1019,30,0.11414569709068,1
326,1001,31,0.123927351143223,1
326,1002,31,0.152325406056965,1
326,1003,31,0.138479060447174,1
327,1002,31,0.153994588576552,1
327,1003,31,0.140649984624122,1
328,999,31,0.122018921563048,1
328,1000,31,0.132882822619273,1
328,1001,31,0.130343023402614,1
329,998,31,0.128184759358087,1
329,999,31,0.192931479453418,1
329,1000,31,0.213206098570684,1
329,1001,31,0.167637088389064,1
330,998,31,0.145072363197082,1
330,999,31,0.209901957108084,1
330,1000,31,0.217184230152775,1
330,1001,31,0.161423224528897,1
331,999,31,0.165600797359871,1
331,1000,31,0.174507135745261,1
331,1001,31,0.148504177678823,1
332,999,31,0.159761108129732,1
332,1000,31,0.191620678784718,1
332,1001,31,0.188150459938489,1
332,1002,31,0.154826541818054,1
333,998,31,0.175505225254729,1
333,999,31,0.207102501519687,1
333,1000,31,0.265495130595095,5
333,1001,31,0.275305143344261,5
333,1002,31,0.234598401285544,1
333,1003,31,0.152921339099539,1
334,998,31,0.214960239411466,1
334,999,31,0.264790826818998,5
334,1000,31,0.31450300960201,5
334,1001,31,0.31723554903002,5
334,1002,31,0.276239308017654,5
334,1003,31,0.181611036356791,1
334,1004,31,0.127453357010176,1
334,1005,31,0.12749679009703,1
334,1006,31,0.124502498014891,1
335,997,31,0.150350708044109,1
335,998,31,0.247360592039139,1
335,999,31,0.289550795419044,6
335,1000,31,0.26485512851483,5
335,1001,31,0.234604501702841,5
335,1002,31,0.215228940417342,1
335,1003,31,0.170742094801333,1
335,1004,31,0.142915806798324,1
335,1005,31,0.137093924191645,1
335,1006,31,0.123172336176238,1
336,997,31,0.176323517330084,1
336,998,31,0.316527735747447,6
336,999,31,0.326239717852638,6
336,1000,31,0.229671148408502,6
336,1001,31,0.182999741003133,1
336,1002,31,0.186767525957158,1
336,1003,31,0.191065505480106,1
336,1004,31,0.176862956739892,1
336,1005,31,0.15389766495811,1
336,1006,31,0.14066180859896,1
336,1007,31,0.142503121812002,1
336,1008,31,0.127472152890495,1
337,997,31,0.186464365837362,6
337,998,31,0.323867173706344,6
337,999,31,0.336848272870582,6
337,1000,31,0.246270148335768,6
337,1001,31,0.219502789139053,1
337,1002,31,0.23493955357947,2
337,1003,31,0.253024841276092,2
337,1004,31,0.234190992335803,1
337,1005,31,0.188105849164898,1
337,1006,31,0.174284941588622,1
337,1007,31,0.168737507099096,1
337,1008,31,0.129496643498585,1
338,997,31,0.162748369422052,1
338,998,31,0.264474241070402,6
338,999,31,0.318958810924561,6
338,1000,31,0.288834879651721,6
338,1001,31,0.295406724949284,2
338,1002,31,0.301368269426084,2
338,1003,31,0.299974806925326,2
338,1004,31,0.284817978622253,2
338,1005,31,0.237360500650648,2
338,1006,31,0.214574664773826,1
338,1007,31,0.186089920339385,1
338,1008,31,0.138289499990013,1
339,997,31,0.160813359452227,1
339,998,31,0.231063904297219,1
339,999,31,0.275529162915342,6
339,1000,31,0.273010279415129,1
339,1001,31,0.295616070543624,2
339,1002,31,0.299284446960193,2
339,1003,31,0.294855803093793,2
339,1004,31,0.313470296102479,2
339,1005,31,0.299930832102572,2
339,1006,31,0.255444351569451,2
339,1007,31,0.199148075546814,1
339,1008,31,0.15480029118069,1
339,1009,31,0.13272209193343,1
339,1010,31,0.123362143947613,1
339,1011,31,0.123282285009989,1
339,1012,31,0.120185746165358,1
339,1013,31,0.118626100289164,1
340,998,31,0.21889691642042,1
340,999,31,0.210756203959515,1
340,1000,31,0.198368823786785,1
340,1001,31,0.212548195652018,1
340,1002,31,0.227016548288736,2
340,1003,31,0.242877963012722,2
340,1004,31,0.302680353773327,2
340,1005,31,0.350619105206807,2
340,1006,31,0.302793176162716,2
340,1007,31,0.219319423314127,2
340,1008,31,0.170438263400097,1
340,1009,31,0.151626531416725,1
340,1010,31,0.13890703180734,1
340,1011,31,0.127384697873418,1
340,1012,31,0.116135151518349,1
341,1001,31,0.173705131077476,1
341,1002,31,0.197795667205702,1
341,1003,31,0.186581204138523,1
341,1004,31,0.220170584626308,2
341,1005,31,0.301750263896044,2
341,1006,31,0.31195157484039,2
341,1007,31,0.245441363071588,2
341,1008,31,0.198845292286774,1
341,1009,31,0.178224456822612,1
341,1010,31,0.160494241677147,1
341,1011,31,0.143984592842604,1
341,1012,31,0.129873361931964,1
341,1013,31,0.121064335801639,1
342,1004,31,0.132345326392582,1
342,1005,31,0.199115170979387,1
342,1006,31,0.255261833678977,2
342,1007,31,0.247716065003786,1
342,1008,31,0.234901467190401,1
342,1009,31,0.220179817690325,1
342,1010,31,0.203758601352851,1
342,1011,31,0.198261748508672,1
342,1012,31,0.185784393069248,1
342,1013,31,0.163347058251589,1
342,1014,31,0.142784447619697,1
342,1015,31,0.115064799150709,1
343,1006,31,0.132316166868978,1
343,1007,31,0.155597585101528,1
343,1008,31,0.188820233939462,1
343,1009,31,0.221264490728685,1
343,1010,31,0.247310163493068,1
343,1011,31,0.260816510941935,1
343,1012,31,0.244124944837153,1
343,1013,31,0.210822931690024,1
343,1014,31,0.186689775078792,1
343,1015,31,0.1454290374022,1
343,1016,31,0.118610437055565,1
343,1017,31,0.115377404318134,1
344,1009,31,0.146129501919535,1
344,1010,31,0.192827477937688,1
344,1011,31,0.217710514801732,1
344,1012,31,0.222961301779117,1
344,1013,31,0.236837701954432,1
344,1014,31,0.249633079920272,1
344,1015,31,0.20402930442618,1
344,1016,31,0.151478154664751,1
344,1017,31,0.131466748533168,1
344,1018,31,0.123530529597246,1
344,1019,31,0.119523638905042,1
345,1011,31,0.13296142143209,1
345,1012,31,0.170336864572055,1
345,1013,31,0.226808615918481,1
345,1014,31,0.267040373362497,1
345,1015,31,0.235860952128636,1
345,1016,31,0.178595887442543,1
345,1017,31,0.141539750507536,1
345,1018,31,0.126904189907922,1
345,1019,31,0.126819196256124,1
346,1013,31,0.157494261368069,1
346,1014,31,0.192910646175043,1
346,1015,31,0.191190057629394,1
346,1017,31,0.138409141185608,1
346,1018,31,0.131740878674901,1
346,1019,31,0.138497691451351,1
347,1017,31,0.116171353608639,1
347,1018,31,0.117648278768437,1
347,1019,31,0.122224792981515,1
325,1000,32,0.12002046960871,1
325,1001,32,0.127074883823559,1
325,1002,32,0.123708301410172,1
326,999,32,0.143128791444681,1
326,1000,32,0.116162509181246,1
326,1001,32,0.125951194023607,1
326,1002,32,0.151210195601519,1
326,1003,32,0.130447919960264,1
327,1002,32,0.141832511653446,1
327,1003,32,0.128559711261361,1
328,999,32,0.114406660694696,1
328,1000,32,0.116152969918677,1
329,998,32,0.124488412881519,1
329,999,32,0.178579588258105,1
329,1000,32,0.186631644461462,1
329,1001,32,0.139833105772851,1
330,998,32,0.142446109997072,1
330,999,32,0.198450955659812,1
330,1000,32,0.196035779253644,1
330,1001,32,0.137665220027684,1
331,998,32,0.125743544298168,1
331,999,32,0.156313347769574,1
331,1000,32,0.156206508028809,1
331,1001,32,0.124055283253445,1
332,998,32,0.128006021842038,1
332,999,32,0.151325773777872,1
332,1000,32,0.172394919252144,1
332,1001,32,0.15988964086019,1
332,1002,32,0.12729438107757,1
333,999,32,0.189824541634901,1
333,1000,32,0.234865665513601,1
333,1001,32,0.239745999351048,1
333,1002,32,0.193611334452858,1
333,1003,32,0.12490069745435,1
334,998,32,0.206995544010248,1
334,999,32,0.235252441391713,1
334,1000,32,0.271950549781855,5
334,1001,32,0.279003974739844,5
334,1002,32,0.233249149144886,1
334,1003,32,0.148805759698392,1
335,997,32,0.160450290408128,1
335,998,32,0.22895483222769,1
335,999,32,0.263583533037599,1
335,1000,32,0.252463461562378,1
335,1001,32,0.228028793592781,1
335,1002,32,0.197200346560231,1
335,1003,32,0.146734703356728,1
335,1004,32,0.119297546605304,1
336,997,32,0.168724882297277,1
336,998,32,0.263382431250417,1
336,999,32,0.291683350562105,6
336,1000,32,0.244724646477285,1
336,1001,32,0.198416284562279,1
336,1002,32,0.181112556891691,1
336,1003,32,0.165805196669916,1
336,1004,32,0.143183966068301,1
336,1005,32,0.1220684550672,1
337,997,32,0.177055249430282,1
337,998,32,0.272237764023234,6
337,999,32,0.307854944418839,6
337,1000,32,0.270771968003099,6
337,1001,32,0.234801458032709,1
337,1002,32,0.225539422922193,1
337,1003,32,0.222894314957526,1
337,1004,32,0.183445000804596,1
337,1005,32,0.14552408849873,1
337,1006,32,0.14314002657615,1
337,1007,32,0.133959758255772,1
338,997,32,0.164960653957197,1
338,998,32,0.242538577248901,6
338,999,32,0.305550564780873,6
338,1000,32,0.305126738878021,6
338,1001,32,0.294030009153923,6
338,1002,32,0.281580023154263,2
338,1003,32,0.275317956575958,2
338,1004,32,0.235695440034641,1
338,1005,32,0.210349902035306,1
338,1006,32,0.2165468660908,1
338,1007,32,0.167251183999138,1
338,1008,32,0.11981179529581,1
339,997,32,0.17336679345485,1
339,998,32,0.22935154778186,1
339,999,32,0.265294876742364,6
339,1000,32,0.267675641142081,6
339,1001,32,0.273533572739774,1
339,1002,32,0.269904648828889,2
339,1003,32,0.280556354288871,2
339,1004,32,0.282357060863227,2
339,1005,32,0.285004241556551,2
339,1006,32,0.272171413152481,1
339,1007,32,0.191853248361508,1
339,1008,32,0.142152960214539,1
339,1009,32,0.12022623503537,1
340,998,32,0.224643485960278,1
340,999,32,0.200032306302565,1
340,1000,32,0.185580653263775,1
340,1001,32,0.195848008880323,1
340,1002,32,0.207581537376762,1
340,1003,32,0.239205770891126,1
340,1004,32,0.28487867659667,2
340,1005,32,0.315608810340429,2
340,1006,32,0.2777125705717,2
340,1007,32,0.195959653582975,1
340,1008,32,0.16439834387096,1
340,1009,32,0.148922044486787,1
340,1010,32,0.130349865762555,1
341,1002,32,0.164676207279649,1
341,1003,32,0.172443981681601,1
341,1004,32,0.218832402740976,1
341,1005,32,0.298043306461977,2
341,1006,32,0.296763160979036,2
341,1007,32,0.209551147782915,1
341,1008,32,0.180962319394673,1
341,1009,32,0.176637076423767,1
341,1010,32,0.158162445491947,1
341,1011,32,0.135276105829003,1
341,1012,32,0.113792815036855,1
342,1004,32,0.134965620497704,1
342,1005,32,0.221625687250872,1
342,1006,32,0.267532316666208,1
342,1007,32,0.206013494594135,1
342,1008,32,0.188902978209592,1
342,1009,32,0.198202298882196,1
342,1010,32,0.183850584339894,1
342,1011,32,0.168359010358744,1
342,1012,32,0.151609195867959,1
342,1013,32,0.13100875793808,1
342,1014,32,0.114521614697078,1
343,1006,32,0.139245652074783,1
343,1007,32,0.13522134339574,1
343,1008,32,0.159758623210717,1
343,1009,32,0.195218629534424,1
343,1010,32,0.206179336440416,1
343,1011,32,0.211654920262129,1
343,1012,32,0.205811215120216,1
343,1013,32,0.178424428030527,1
343,1014,32,0.152581246723675,1
343,1015,32,0.121029075860738,1
344,1010,32,0.170039534001606,1
344,1011,32,0.20039413877559,1
344,1012,32,0.223696013426759,1
344,1013,32,0.226547334339046,1
344,1014,32,0.211201298884834,1
344,1015,32,0.171204843250837,1
344,1016,32,0.140361121621311,1
344,1017,32,0.12884965773597,1
344,1018,32,0.119901829446841,1
345,1012,32,0.192626011067617,1
345,1013,32,0.240708970242023,1
345,1014,32,0.254831624714011,1
345,1015,32,0.221466628880195,1
345,1016,32,0.173263545658632,1
345,1017,32,0.139797315872918,1
345,1018,32,0.127461565486731,1
345,1019,32,0.123798535767948,1
346,1013,32,0.170659538961081,1
346,1014,32,0.214830010812106,1
346,1015,32,0.213258552737943,1
346,1017,32,0.12861278960259,1
346,1018,32,0.126769639198238,1
346,1019,32,0.133789924051453,1
324,1000,33,0.117470542286114,1
324,1001,33,0.135689026352672,1
325,999,33,0.134023624207511,1
325,1000,33,0.126179677027421,1
325,1001,33,0.143232274778246,1
325,1002,33,0.127842229170679,1
326,998,33,0.145710033457609,1
326,999,33,0.124794399449483,1
326,1001,33,0.119619585043492,1
326,1002,33,0.130687143467117,1
329,999,33,0.143496641896931,1
329,1000,33,0.14242795006759,1
330,998,33,0.128466367810599,1
330,999,33,0.167311599328737,1
330,1000,33,0.160881311976942,1
331,998,33,0.117141885248466,1
331,999,33,0.140907438721662,1
331,1000,33,0.135037294512507,1
332,999,33,0.134139697012294,1
332,1000,33,0.145017789193697,1
332,1001,33,0.131268249433674,1
333,998,33,0.134411518888023,1
333,999,33,0.15620977022107,1
333,1000,33,0.184848026121657,1
333,1001,33,0.18579556931638,1
333,1002,33,0.145073069809124,1
334,998,33,0.168006587602746,1
334,999,33,0.18419715399281,1
334,1000,33,0.204313809988065,1
334,1001,33,0.207878008235893,1
334,1002,33,0.171295101162349,1
334,1003,33,0.115424288027128,1
335,998,33,0.188393357827961,1
335,999,33,0.215142403995919,1
335,1000,33,0.216679850477123,1
335,1001,33,0.196911883970911,1
335,1002,33,0.164884634278334,1
335,1003,33,0.122293310795864,1
336,998,33,0.196401686522779,1
336,999,33,0.244223776308108,1
336,1000,33,0.247112288567545,1
336,1001,33,0.201729117352997,1
336,1002,33,0.163699045263495,1
336,1003,33,0.135089666241694,1
336,1004,33,0.114190166541863,1
337,997,33,0.151696085595403,1
337,998,33,0.201217129821026,1
337,999,33,0.264642838703648,6
337,1000,33,0.281977845733966,1
337,1001,33,0.231339859853394,1
337,1002,33,0.19281717317874,1
337,1003,33,0.173034403150246,1
337,1004,33,0.139055950295213,1
337,1005,33,0.120700725021641,1
337,1006,33,0.122382061268352,1
338,998,33,0.196225469256346,1
338,999,33,0.26103249868947,6
338,1000,33,0.288099414284568,6
338,1001,33,0.257181415952549,1
338,1002,33,0.234985177163655,1
338,1003,33,0.227946685273489,1
338,1004,33,0.190461175531099,1
338,1005,33,0.194800444751041,1
338,1006,33,0.213089813782289,1
338,1007,33,0.145270461883085,1
339,998,33,0.199391927362543,1
339,999,33,0.227320815434065,1
339,1000,33,0.23925824861212,1
339,1001,33,0.229296172951494,1
339,1002,33,0.229968043234859,1
339,1003,33,0.250550050367306,1
339,1004,33,0.242747051355056,1
339,1005,33,0.267063008501579,1
339,1006,33,0.276973383714458,1
339,1007,33,0.180315734045548,1
339,1008,33,0.129296519191395,1
340,999,33,0.183630451135045,1
340,1000,33,0.180581361289041,1
340,1001,33,0.18129688841974,1
340,1002,33,0.188423011979995,1
340,1003,33,0.222608301956618,1
340,1004,33,0.247959563513494,1
340,1005,33,0.265348838348646,2
340,1006,33,0.244147038240336,1
340,1007,33,0.180656745017066,1
340,1008,33,0.161407455303491,1
340,1009,33,0.14160717307322,1
340,1010,33,0.118351970147431,1
341,1003,33,0.155894315051741,1
341,1004,33,0.202038731196111,1
341,1005,33,0.260660043482079,1
341,1006,33,0.248771437196133,1
341,1007,33,0.183608110417647,1
341,1008,33,0.173024192606238,1
341,1009,33,0.174016334797685,1
341,1010,33,0.152504273118556,1
341,1011,33,0.123878959995206,1
342,1004,33,0.133553903852524,1
342,1005,33,0.209865048405751,1
342,1006,33,0.229965193232955,1
342,1007,33,0.165492650386828,1
342,1008,33,0.154555591430511,1
342,1009,33,0.176724660986385,1
342,1010,33,0.165896903136114,1
342,1011,33,0.139955596970349,1
342,1012,33,0.118129846651997,1
343,1006,33,0.132148994236684,1
343,1008,33,0.1334348868309,1
343,1009,33,0.161442467930177,1
343,1010,33,0.164032295279417,1
343,1011,33,0.162748534298195,1
343,1012,33,0.159592969794314,1
343,1013,33,0.140724167111675,1
343,1014,33,0.11787842231055,1
344,1010,33,0.139996274270239,1
344,1011,33,0.175834553573818,1
344,1012,33,0.206468293658166,1
344,1013,33,0.195050079008648,1
344,1014,33,0.161125999950255,1
344,1015,33,0.134169657362879,1
344,1016,33,0.122991007749367,1
344,1017,33,0.115611669763826,1
345,1012,33,0.19377556286831,1
345,1013,33,0.218731592756303,1
345,1014,33,0.209003028821857,1
345,1015,33,0.187463209066341,1
345,1016,33,0.155507963140855,1
345,1017,33,0.132667435491973,1
345,1018,33,0.120487351738661,1
346,1013,33,0.160384010198579,1
346,1014,33,0.200505759924507,1
346,1015,33,0.203098413721916,1
346,1016,33,0.153273384995781,1
346,1017,33,0.123275854840406,1
346,1018,33,0.12216328240325,1
346,1019,33,0.119303588138264,1
324,1000,34,0.116856696628273,1
324,1001,34,0.136702096037433,1
325,998,34,0.130408078817957,1
325,999,34,0.116172024890079,1
325,1000,34,0.116642699171323,1
325,1001,34,0.136849118449659,1
325,1002,34,0.115985255550485,1
326,997,34,0.172145014126588,1
326,998,34,0.133565032992187,1
327,997,34,0.145871800507781,1
330,999,34,0.134862337370883,1
330,1000,34,0.125052242183646,1
331,999,34,0.124660849773526,1
331,1000,34,0.113877620258775,1
332,999,34,0.116768487891684,1
332,1000,34,0.119076883441423,1
333,999,34,0.127464686356584,1
333,1000,34,0.142701090952464,1
333,1001,34,0.134641426892788,1
334,997,34,0.128448584740873,1
334,998,34,0.136768105379032,1
334,999,34,0.145383908446445,1
334,1000,34,0.152413049503921,1
334,1001,34,0.145074106173453,1
334,1002,34,0.117473086089466,1
335,998,34,0.157626009183319,1
335,999,34,0.177281848135317,1
335,1000,34,0.183495217367054,1
335,1001,34,0.162127598966198,1
335,1002,34,0.128680883449714,1
336,998,34,0.159107009139226,1
336,999,34,0.216458633800476,1
336,1000,34,0.246044220912174,1
336,1001,34,0.198013986772976,1
336,1002,34,0.14145108247312,1
337,998,34,0.159558063159434,1
337,999,34,0.23916292664764,1
337,1000,34,0.286074052188293,1
337,1001,34,0.223857851138135,1
337,1002,34,0.161439971234295,1
337,1003,34,0.128966543144601,1
338,998,34,0.159690517586726,1
338,999,34,0.219247254670894,1
338,1000,34,0.257398016097188,1
338,1001,34,0.217834054140426,1
338,1002,34,0.19071607404842,1
338,1003,34,0.179212182688796,1
338,1004,34,0.153469481614332,1
338,1005,34,0.170806125629214,1
338,1006,34,0.1816201280984,1
338,1007,34,0.120335100397323,1
339,999,34,0.187641534392033,1
339,1000,34,0.208603581034457,1
339,1001,34,0.192685896438185,1
339,1002,34,0.195430636700789,1
339,1003,34,0.212841722294307,1
339,1004,34,0.203519907805029,1
339,1005,34,0.235226814928319,1
339,1006,34,0.24607234407145,1
339,1007,34,0.16228381911184,1
340,1000,34,0.190428541831621,1
340,1001,34,0.178121409233139,1
340,1002,34,0.172070737424096,1
340,1003,34,0.196556658320479,1
340,1004,34,0.210080541524857,1
340,1005,34,0.225012879182154,1
340,1006,34,0.215762550277802,1
340,1007,34,0.173788263984229,1
340,1008,34,0.152436202825167,1
340,1009,34,0.126104010654579,1
341,1004,34,0.18008968885328,1
341,1005,34,0.21306112533338,1
341,1006,34,0.19928087150326,1
341,1007,34,0.169666419289642,1
341,1008,34,0.16802142645563,1
341,1009,34,0.16151736880664,1
341,1010,34,0.136211848602623,1
342,1005,34,0.173122658994305,1
342,1006,34,0.171849862276602,1
342,1007,34,0.13757363133016,1
342,1008,34,0.139489032815817,1
342,1009,34,0.157245581036719,1
342,1010,34,0.14600672807722,1
342,1011,34,0.116013472924699,1
343,1008,34,0.119616428843037,1
343,1009,34,0.132959278042229,1
343,1010,34,0.131167439449001,1
343,1011,34,0.126721130281548,1
343,1012,34,0.1247711872439,1
344,1011,34,0.148979338946534,1
344,1012,34,0.177832039825032,1
344,1013,34,0.161795974157973,1
344,1014,34,0.124722772542149,1
345,1011,34,0.129236963573113,1
345,1012,34,0.171609366868073,1
345,1013,34,0.17921659901406,1
345,1014,34,0.162520333939198,1
345,1015,34,0.15380982130441,1
345,1016,34,0.138028135972507,1
345,1017,34,0.126716431311468,1
345,1018,34,0.117048400475296,1
346,1013,34,0.135011114536348,1
346,1014,34,0.163346728499303,1
346,1015,34,0.170851419461113,1
346,1016,34,0.138776555893766,1
346,1017,34,0.126367482731344,1
346,1018,34,0.124649449765914,1
324,1001,35,0.124909812749693,1
325,997,35,0.120429680419158,1
325,1001,35,0.121272574370446,1
326,996,35,0.14724216857163,1
326,997,35,0.171829865155811,1
326,998,35,0.116410035379594,1
327,996,35,0.140173504347266,1
327,997,35,0.15628866345557,1
334,998,35,0.118992337310586,1
334,999,35,0.122640386854077,1
334,1000,35,0.118266128561183,1
335,997,35,0.128255620769043,1
335,998,35,0.135932772176595,1
335,999,35,0.151086832915836,1
335,1000,35,0.159162902151756,1
335,1001,35,0.136592488732835,1
336,998,35,0.142250661106227,1
336,999,35,0.202909300785715,1
336,1000,35,0.250114706688168,1
336,1001,35,0.197487219272457,1
336,1002,35,0.125131688930913,1
337,998,35,0.141942495817799,1
337,999,35,0.228922092536406,1
337,1000,35,0.295284198421184,1
337,1001,35,0.223910729272619,1
337,1002,35,0.141270401773954,1
338,998,35,0.135677037501691,1
338,999,35,0.188166912222203,1
338,1000,35,0.229495296224958,1
338,1001,35,0.188795349418713,1
338,1002,35,0.15574811702023,1
338,1003,35,0.141230219102493,1
338,1004,35,0.130933315325718,1
338,1005,35,0.148441972265383,1
338,1006,35,0.146137333536335,1
339,999,35,0.148924140769178,1
339,1000,35,0.172268553465282,1
339,1001,35,0.15921913669344,1
339,1002,35,0.162102973536531,1
339,1003,35,0.174470321257867,1
339,1004,35,0.173742275317156,1
339,1005,35,0.202082070068027,1
339,1006,35,0.204823630576441,1
339,1007,35,0.146179812696933,1
340,1000,35,0.183601868677942,1
340,1001,35,0.165133667915706,1
340,1002,35,0.151276216719986,1
340,1003,35,0.166759452679039,1
340,1004,35,0.179410658234555,1
340,1005,35,0.202937353283786,1
340,1006,35,0.207579676631718,1
340,1007,35,0.176799232110562,1
340,1008,35,0.140607293479912,1
341,1003,35,0.132915656525496,1
341,1004,35,0.155200504464469,1
341,1005,35,0.17146608949967,1
341,1006,35,0.169720769532547,1
341,1007,35,0.165539286781606,1
341,1008,35,0.159427057286828,1
341,1009,35,0.143586098981461,1
341,1010,35,0.118027588112637,1
342,1004,35,0.121626127705712,1
342,1005,35,0.132735329132352,1
342,1006,35,0.123312021600094,1
342,1007,35,0.120228578631976,1
342,1008,35,0.133076622748687,1
342,1009,35,0.141670461958457,1
342,1010,35,0.128741216341242,1
343,1009,35,0.117061708335422,1
343,1010,35,0.11386126219,1
344,1011,35,0.123229183115025,1
344,1012,35,0.143582789681731,1
344,1013,35,0.133432661002967,1
345,1012,35,0.138565679306668,1
345,1013,35,0.142088034344737,1
345,1014,35,0.126322059353904,1
345,1015,35,0.125893805348921,1
345,1016,35,0.128356819390339,1
345,1017,35,0.131099145395132,1
345,1018,35,0.122503692754532,1
346,1014,35,0.121872699977803,1
346,1015,35,0.133422344467152,1
346,1016,35,0.135085850536667,1
346,1017,35,0.145806568439428,1
346,1018,35,0.138020787207269,1
346,1019,35,0.116171742245263,1
326,996,36,0.146715236194968,1
326,997,36,0.153602736868604,1
327,996,36,0.140304698649749,1
327,997,36,0.146357808270338,1
335,998,36,0.115609184844811,1
335,999,36,0.123240995312995,1
335,1000,36,0.127931238734249,1
336,997,36,0.114757587788538,1
336,998,36,0.125678948180653,1
336,999,36,0.175441971700093,1
336,1000,36,0.220465995567376,1
336,1001,36,0.168805648053689,1
337,998,36,0.125085971131789,1
337,999,36,0.199894304970742,1
337,1000,36,0.2636501194457,1
337,1001,36,0.196032069540423,1
337,1002,36,0.114566920305844,1
338,998,36,0.114012194522193,1
338,999,36,0.155676289906151,1
338,1000,36,0.190703802552622,1
338,1001,36,0.154776584346678,1
338,1002,36,0.121186874106607,1
338,1005,36,0.121381734154084,1
339,999,36,0.120486515581078,1
339,1000,36,0.140437541713664,1
339,1001,36,0.129658292780083,1
339,1002,36,0.128620362128308,1
339,1003,36,0.135734673490592,1
339,1004,36,0.143764754059439,1
339,1005,36,0.162330961911915,1
339,1006,36,0.161644441205544,1
339,1007,36,0.123980040847829,1
340,1001,36,0.141906340834978,1
340,1002,36,0.127301376536787,1
340,1003,36,0.136130647102118,1
340,1004,36,0.149354208411736,1
340,1005,36,0.175397042951083,1
340,1006,36,0.192407879930221,1
340,1007,36,0.16457551506365,1
340,1008,36,0.118494293589578,1
341,1003,36,0.121467375533586,1
341,1004,36,0.132791540120301,1
341,1005,36,0.13906518335923,1
341,1006,36,0.14824682957309,1
341,1007,36,0.150975341312459,1
341,1008,36,0.137292599944149,1
341,1009,36,0.117488619777525,1
342,1004,36,0.115069557005126,1
342,1008,36,0.12078137300938,1
342,1009,36,0.120429032691453,1
345,1017,36,0.123069653669653,1
346,1016,36,0.124360504325031,1
346,1017,36,0.149753809298412,1
346,1018,36,0.132607338137793,1
320,1005,37,0.127094350985319,1
323,998,37,0.157856847560606,1
323,999,37,0.117719811460833,1
324,998,37,0.114372554886797,1
326,996,37,0.126220860732608,1
326,997,37,0.117222356583193,1
327,996,37,0.116510810033665,1
327,997,37,0.115542881081527,1
335,996,37,0.115064457621555,1
336,998,37,0.117138858593552,1
336,999,37,0.1582556476203,1
336,1000,37,0.188982095204573,1
336,1001,37,0.139394087711093,1
337,998,37,0.119639664602355,1
337,999,37,0.177732219097217,1
337,1000,37,0.224467657330469,1
337,1001,37,0.164355511404341,1
338,999,37,0.133003712162809,1
338,1000,37,0.158431464473242,1
338,1001,37,0.128756679368097,1
339,1005,37,0.118745977022107,1
339,1006,37,0.119748035335878,1
340,1000,37,0.120142489731514,1
340,1004,37,0.118428390239785,1
340,1005,37,0.137940445418083,1
340,1006,37,0.158158794663063,1
340,1007,37,0.133180965793571,1
341,1005,37,0.11602125743403,1
341,1006,37,0.127821666760253,1
341,1007,37,0.124960370841305,1
346,1017,37,0.137191424876588,1
346,1018,37,0.11545922999261,1
319,1005,38,0.138366202727183,1
319,1006,38,0.114946406303055,1
320,1005,38,0.120550369755949,1
322,998,38,0.129542137537229,1
322,1000,38,0.114542341983647,1
323,997,38,0.176281438582977,1
323,998,38,0.186759199711928,1
323,999,38,0.125331012411122,1
323,1000,38,0.121217764829714,1
324,997,38,0.117515506365727,1
324,998,38,0.120472689538788,1
335,995,38,0.120529371601432,1
336,999,38,0.145601898261433,1
336,1000,38,0.151337633083312,1
337,998,38,0.115889780486729,1
337,999,38,0.160718261248227,1
337,1000,38,0.178201433046907,1
337,1001,38,0.131376219753707,1
338,999,38,0.115926276998704,1
338,1000,38,0.128533743268814,1
346,1017,38,0.119674147270009,1
319,1005,39,0.126093729449366,1
322,997,39,0.125992495497468,1
322,998,39,0.131333516832629,1
322,1000,39,0.127623473859311,1
322,1001,39,0.121122266212224,1
323,997,39,0.180119978956151,1
323,998,39,0.182320710384408,1
323,999,39,0.127830770278729,1
323,1000,39,0.127006683984629,1
324,997,39,0.12081645629727,1
324,998,39,0.117786633406281,1
335,995,39,0.11490610586292,1
336,999,39,0.132660345817818,1
336,1000,39,0.119017104062661,1
337,998,39,0.117700697605094,1
337,999,39,0.146630843163406,1
337,1000,39,0.139294290537014,1
322,997,40,0.114754667125431,1
322,998,40,0.125639684104847,1
322,999,40,0.128874094735759,1
322,1000,40,0.143722804857873,1
322,1001,40,0.122584658717689,1
323,997,40,0.148475383238107,1
323,998,40,0.152036107310062,1
323,999,40,0.12739507329357,1
323,1000,40,0.124763449842039,1
324,997,40,0.114333090604246,1
321,999,41,0.115016525771366,1
321,1000,41,0.132513323405591,1
322,999,41,0.145852368676623,1
322,1000,41,0.164084949653421,1
322,1001,41,0.122615160804173,1
323,998,41,0.1200935921782,1
323,999,41,0.12421878150312,1
323,1000,41,0.123114476426857,1
321,999,42,0.118236462632282,1
321,1000,42,0.135180571880911,1
322,999,42,0.142905608031183,1
322,1000,42,0.161458378477992,1
322,1001,42,0.11643162237748,1
323,999,42,0.118840227291656,1
323,1000,42,0.117678109573481,1
324,997,42,0.114377901584582,1
326,993,42,0.135881425034869,1
326,994,42,0.121899091937575,1
327,993,42,0.119150406424404,1
337,995,42,0.147037333517492,1
337,996,42,0.129465093270905,1
338,994,42,0.117529485507293,1
338,995,42,0.146013641098365,1
338,996,42,0.127967252394661,1
338,997,42,0.11393774116669,1
321,999,43,0.121344307269587,1
321,1000,43,0.134709744500391,1
321,1001,43,0.116682610974834,1
322,999,43,0.137758233726159,1
322,1000,43,0.146456368873344,1
323,999,43,0.121139024694489,1
324,997,43,0.122504788003197,1
325,993,43,0.11537760452488,1
325,996,43,0.117630071731486,1
325,997,43,0.120060310751017,1
326,992,43,0.145519672173467,1
326,993,43,0.157415344579833,1
326,994,43,0.1241020727475,1
327,992,43,0.140918014348558,1
327,993,43,0.149890138315068,1
327,994,43,0.125034035146695,1
328,992,43,0.114992748276149,1
328,993,43,0.116594755544267,1
336,995,43,0.121029028753269,1
337,994,43,0.126693607742508,1
337,995,43,0.172055239066639,1
337,996,43,0.147834062148696,1
338,994,43,0.142606581591833,1
338,995,43,0.17373473812204,1
338,996,43,0.152731696204306,1
338,997,43,0.140259298826044,1
339,997,43,0.128023227845263,1
321,999,44,0.124074420662919,1
321,1000,44,0.132293790820978,1
321,1001,44,0.11813068280958,1
322,999,44,0.133959805363242,1
322,1000,44,0.128593687523719,1
323,999,44,0.121317350020181,1
324,996,44,0.115443531428408,1
324,997,44,0.120746631250643,1
325,992,44,0.115616227411497,1
325,993,44,0.11800430524585,1
325,996,44,0.125664168212106,1
325,997,44,0.116120183119924,1
326,991,44,0.116555703452073,1
326,992,44,0.167582043310984,1
326,993,44,0.160253404739464,1
326,994,44,0.12387594511716,1
327,991,44,0.131523560141353,1
327,992,44,0.174378862105885,1
327,993,44,0.174685413963483,1
327,994,44,0.136888170541853,1
328,991,44,0.140729925999818,1
328,992,44,0.156270656625364,1
328,993,44,0.15834134788414,1
328,994,44,0.129511741442551,1
329,991,44,0.130773832987816,1
329,992,44,0.115829117842915,1
336,995,44,0.123611695767149,1
337,994,44,0.137402678323441,1
337,995,44,0.178771716072353,1
337,996,44,0.151270186963893,1
338,994,44,0.153865149027306,1
338,995,44,0.184651858841902,1
338,996,44,0.171841877560526,1
338,997,44,0.157949248861978,1
339,995,44,0.11821767852883,1
339,996,44,0.137563597439163,1
339,997,44,0.158683878071548,1
340,997,44,0.115794164100566,1
321,999,45,0.127945441636295,1
321,1000,45,0.125167419946509,1
322,998,45,0.120005948731245,1
322,999,45,0.132112968799404,1
323,998,45,0.115890651974915,1
323,999,45,0.113993657732955,1
324,995,45,0.114648569327309,1
324,996,45,0.119145471916976,1
325,992,45,0.121247442535482,1
325,993,45,0.120012838198656,1
325,994,45,0.113874004760492,1
325,995,45,0.125319459304234,1
325,996,45,0.123360200764498,1
326,991,45,0.127961611275192,1
326,992,45,0.17007294497433,1
326,993,45,0.153301614146863,1
326,994,45,0.127136877253386,1
326,995,45,0.117968680222061,1
327,991,45,0.150785780855298,1
327,992,45,0.189122899430829,1
327,993,45,0.185632271273451,1
327,994,45,0.143917205607522,1
328,990,45,0.1256870153348,1
328,991,45,0.178855638029219,1
328,992,45,0.19270426835128,1
328,993,45,0.193350500394384,1
328,994,45,0.145657520406014,1
329,990,45,0.151968508091367,1
329,991,45,0.173261531814312,1
329,992,45,0.1455582767447,1
329,993,45,0.132132895258991,1
330,990,45,0.123118280355017,1
330,991,45,0.123553588703553,1
332,993,45,0.120719344248951,1
332,994,45,0.115620843943506,1
333,993,45,0.117828405954836,1
333,994,45,0.117546408865701,1
336,995,45,0.119180119460774,1
337,994,45,0.140845857482192,1
337,995,45,0.166265895944499,1
337,996,45,0.142916254319284,1
338,994,45,0.149528023197225,1
338,995,45,0.179374679904745,1
338,996,45,0.181031355391186,1
338,997,45,0.158708008872786,1
339,995,45,0.129300276012085,1
339,996,45,0.168772531502649,1
339,997,45,0.178498398534468,1
340,996,45,0.120370902074123,1
340,997,45,0.142099175261267,1
343,998,45,0.128082571479932,1
317,1012,46,0.117625643629355,1
322,998,46,0.113845810940013,1
324,994,46,0.123853239316874,1
324,995,46,0.129645408887182,1
325,992,46,0.122763290241933,1
325,993,46,0.128430625018136,1
325,994,46,0.134852951207591,1
325,995,46,0.133086927507634,1
326,991,46,0.12695579614073,1
326,992,46,0.161078232976208,1
326,993,46,0.149644684845376,1
326,994,46,0.13245730084752,1
327,991,46,0.155527512740686,1
327,992,46,0.185909993359731,1
327,993,46,0.179655887943766,1
327,994,46,0.139311614308913,1
328,990,46,0.133931140468067,1
328,991,46,0.197404993184491,1
328,992,46,0.209842625250282,1
328,993,46,0.199355301305028,1
328,994,46,0.141195347798216,1
329,990,46,0.160887600824117,1
329,991,46,0.199670638705683,1
329,992,46,0.176112570081782,1
329,993,46,0.147353459968261,1
330,990,46,0.126421220577146,1
330,991,46,0.1368828120672,1
330,992,46,0.120775154823409,1
332,992,46,0.121994343240851,1
332,993,46,0.125227258209607,1
333,992,46,0.118182124166245,1
333,993,46,0.122034679011587,1
337,994,46,0.128089166525658,1
337,995,46,0.139081211675718,1
337,996,46,0.119577788941201,1
338,994,46,0.130929664496834,1
338,995,46,0.158643271432862,1
338,996,46,0.164358267191306,1
338,997,46,0.134010763868345,1
339,995,46,0.13236202599051,1
339,996,46,0.174254321733464,1
339,997,46,0.163464826925273,1
340,996,46,0.131508391536182,1
340,997,46,0.143934470495084,1
342,996,46,0.122832738428804,1
342,997,46,0.119068321658846,1
343,997,46,0.154406107653004,1
343,998,46,0.122468691904713,1
344,998,46,0.140570373000712,1
316,1011,47,0.126477219581482,1
316,1012,47,0.122353302158238,1
317,1011,47,0.132396320228287,1
317,1012,47,0.132661782595637,1
317,1013,47,0.119165174616084,1
318,1012,47,0.113969079410757,1
318,1013,47,0.129489471386358,1
323,994,47,0.116676404565731,1
323,995,47,0.117633369254349,1
324,993,47,0.118865288465416,1
324,994,47,0.149459564267213,1
324,995,47,0.136429967963152,1
325,992,47,0.122196540276698,1
325,993,47,0.151948993822138,1
325,994,47,0.162793286394195,1
325,995,47,0.130129155491205,1
326,991,47,0.116729600675634,1
326,992,47,0.148869755195671,1
326,993,47,0.157731847890358,1
326,994,47,0.141705592353817,1
327,991,47,0.155249578670793,1
327,992,47,0.178808777873961,1
327,993,47,0.169814136537043,1
327,994,47,0.131277682704436,1
328,990,47,0.137814727358925,1
328,991,47,0.212186740038749,1
328,992,47,0.225901891346056,1
328,993,47,0.19367402271786,1
328,994,47,0.129733923822323,1
329,990,47,0.155439939954935,1
329,991,47,0.222180259935248,1
329,992,47,0.21758231182356,1
329,993,47,0.167721610966167,1
330,990,47,0.117754517888967,1
330,991,47,0.146626473945612,1
330,992,47,0.142353579150159,1
330,993,47,0.11695722396813,1
332,991,47,0.129374399615302,1
332,992,47,0.130453525749131,1
332,993,47,0.125821460052677,1
333,991,47,0.122881223791759,1
333,992,47,0.123873095115257,1
333,993,47,0.121387622587768,1
338,995,47,0.127532956856718,1
338,996,47,0.131709552207701,1
339,995,47,0.126484285701903,1
339,996,47,0.155875118757931,1
339,997,47,0.130426450731051,1
340,996,47,0.128407730787972,1
340,997,47,0.126782322884394,1
342,996,47,0.132035900979345,1
342,997,47,0.12354452051568,1
343,996,47,0.16877064720387,1
343,997,47,0.15048459924922,1
344,997,47,0.169626001080834,1
344,998,47,0.120368122733424,1
316,1011,48,0.132801797771779,1
316,1012,48,0.123980005517227,1
317,1010,48,0.114232410165114,1
317,1011,48,0.136241608746463,1
317,1012,48,0.130112561885083,1
317,1013,48,0.116120265557996,1
318,1013,48,0.129920987583602,1
318,1014,48,0.114553847983065,1
323,994,48,0.131686281117781,1
323,995,48,0.119985539420096,1
324,993,48,0.142815774086897,1
324,994,48,0.175557385000303,1
324,995,48,0.136012372023138,1
325,992,48,0.12667198541402,1
325,993,48,0.191580025038562,1
325,994,48,0.19639984933147,1
325,995,48,0.125478588336115,1
326,992,48,0.144349887714636,1
326,993,48,0.177777418714177,1
326,994,48,0.155276429928393,1
327,991,48,0.155131103385067,1
327,992,48,0.177277738008605,1
327,993,48,0.162165284941777,1
327,994,48,0.121408385204938,1
328,990,48,0.136821572356885,1
328,991,48,0.220934809103575,1
328,992,48,0.240197359569807,1
328,993,48,0.183257689729102,1
328,994,48,0.113856174583297,1
329,990,48,0.142994193627528,1
329,991,48,0.226016550926755,1
329,992,48,0.241018678300076,1
329,993,48,0.174319883554104,1
330,991,48,0.146682025428989,1
330,992,48,0.151689455219074,1
330,993,48,0.118753596655294,1
331,991,48,0.116736984771474,1
331,992,48,0.116407762444192,1
332,990,48,0.118064108178347,1
332,991,48,0.136308324700104,1
332,992,48,0.132400571677407,1
332,993,48,0.119788724412636,1
333,991,48,0.129051960763623,1
333,992,48,0.12459585324252,1
333,993,48,0.114321643489164,1
339,995,48,0.115537605044946,1
339,996,48,0.121101279834574,1
342,996,48,0.134902355166201,1
342,997,48,0.12015355998684,1
343,996,48,0.168949349389318,1
343,997,48,0.143288862625951,1
344,997,48,0.161186285734313,1
316,1011,49,0.125352540524672,1
316,1012,49,0.119071089222678,1
317,1011,49,0.125940959925864,1
317,1012,49,0.119202436624437,1
318,997,49,0.122207904953708,1
318,1013,49,0.119765323777175,1
318,1014,49,0.114623932120775,1
319,997,49,0.126556183477187,1
323,994,49,0.141744797545286,1
323,995,49,0.119039727424876,1
324,993,49,0.165338243878761,1
324,994,49,0.190746434812495,1
324,995,49,0.131620083346304,1
325,992,49,0.132016834231076,1
325,993,49,0.225329865344241,1
325,994,49,0.221150985280989,1
325,995,49,0.124958510096261,1
326,992,49,0.142016407437403,1
326,993,49,0.19362927062186,1
326,994,49,0.165050452570881,1
327,991,49,0.153188438451453,1
327,992,49,0.172318899573282,1
327,993,49,0.154470103150284,1
328,990,49,0.129864623496377,1
328,991,49,0.217934534372813,1
328,992,49,0.237643687203388,1
328,993,49,0.169356181272557,1
329,990,49,0.131569007072527,1
329,991,49,0.21565135309611,1
329,992,49,0.239266963493972,1
329,993,49,0.170314170548636,1
330,991,49,0.148154734470269,1
330,992,49,0.156152122455302,1
330,993,49,0.121328867796467,1
331,990,49,0.117954512650617,1
331,991,49,0.128841131283995,1
331,992,49,0.123162372946444,1
332,990,49,0.125055292392294,1
332,991,49,0.135662504847359,1
332,992,49,0.126689544723266,1
333,990,49,0.118523735757999,1
333,991,49,0.129470946373987,1
333,992,49,0.11883609361121,1
342,996,49,0.130794784034864,1
343,995,49,0.131112959660555,1
343,996,49,0.158383615061125,1
343,997,49,0.13147036403145,1
344,996,49,0.160208876403944,1
344,997,49,0.144606764745674,1
345,997,49,0.132050680947893,1
315,1008,50,0.119173712844926,1
315,1009,50,0.118425375361738,1
316,1009,50,0.125559707398548,1
316,1010,50,0.113928072358581,1
318,996,50,0.124702163024254,1
318,997,50,0.131750853681562,1
319,996,50,0.127127738404308,1
319,997,50,0.135268945493643,1
320,995,50,0.117055219281502,1
320,996,50,0.117111324277645,1
320,997,50,0.114881503986988,1
322,994,50,0.121868024561458,1
323,993,50,0.135943830655054,1
323,994,50,0.147653122358449,1
324,992,50,0.119512038690684,1
324,993,50,0.197436508081569,1
324,994,50,0.198559868129234,1
324,995,50,0.123899675504907,1
325,992,50,0.140102701820647,1
325,993,50,0.242539825596842,1
325,994,50,0.225744222645729,1
325,995,50,0.121400200282117,1
326,992,50,0.140681746835414,1
326,993,50,0.193968173534119,1
326,994,50,0.162094576630097,1
327,991,50,0.148718292904447,1
327,992,50,0.166860038903233,1
327,993,50,0.146553009846969,1
328,990,50,0.124222962291036,1
328,991,50,0.205306953213238,1
328,992,50,0.223086395664304,1
328,993,50,0.154399288846798,1
329,990,50,0.122837614051894,1
329,991,50,0.193546773665945,1
329,992,50,0.220036728751799,1
329,993,50,0.158494847573419,1
330,990,50,0.121917086990914,1
330,991,50,0.147742508781774,1
330,992,50,0.159172488521794,1
330,993,50,0.123299173037795,1
331,990,50,0.138714409364663,1
331,991,50,0.136008897847264,1
331,992,50,0.123649110874778,1
332,990,50,0.128755407466421,1
332,991,50,0.129716376289944,1
332,992,50,0.114305073436776,1
333,990,50,0.120654877676976,1
333,991,50,0.126534525818097,1
334,990,50,0.117737618084294,1
334,991,50,0.115184722991121,1
338,991,50,0.115935945806813,1
342,996,50,0.117837980548007,1
343,995,50,0.12236255877599,1
343,996,50,0.138834992709648,1
344,996,50,0.141201754414064,1
344,997,50,0.117831503270954,1
315,1000,51,0.131999333806167,1
315,1001,51,0.118146534473058,1
315,1008,51,0.130215209061065,1
315,1009,51,0.149163128738684,1
315,1010,51,0.122260959741203,1
316,999,51,0.130035211420207,1
316,1000,51,0.136211224428652,1
316,1001,51,0.118003940162962,1
316,1008,51,0.12085064454324,1
316,1009,51,0.142885316488707,1
316,1010,51,0.122007038703874,1
317,996,51,0.11654407968398,1
317,999,51,0.117415143902013,1
317,1000,51,0.115305365220442,1
318,995,51,0.121769958586881,1
318,996,51,0.1436309452924,1
318,997,51,0.13432229734084,1
319,995,51,0.127857197569104,1
319,996,51,0.139113880705798,1
319,997,51,0.13706289214613,1
320,994,51,0.135325851316767,1
320,995,51,0.134754673249402,1
320,996,51,0.130343141171288,1
320,997,51,0.125279665269396,1
321,993,51,0.117308198169441,1
321,994,51,0.148424695600954,1
321,995,51,0.128586244543542,1
322,993,51,0.128922909851001,1
322,994,51,0.139979315581229,1
323,993,51,0.156051241809424,1
323,994,51,0.143676568876585,1
324,992,51,0.141398651859596,1
324,993,51,0.226779055981386,1
324,994,51,0.191489343159826,1
325,992,51,0.14787244295945,1
325,993,51,0.240747928119278,1
325,994,51,0.20578403411033,1
326,992,51,0.146925194186411,1
326,993,51,0.186886213226496,1
326,994,51,0.15034394812224,1
327,991,51,0.147481038772462,1
327,992,51,0.170994496622771,1
327,993,51,0.148576628966873,1
328,990,51,0.122275939916495,1
328,991,51,0.187080590422411,1
328,992,51,0.205476869855629,1
328,993,51,0.146548110670143,1
329,990,51,0.122655155045756,1
329,991,51,0.175452688649399,1
329,992,51,0.200579695097846,1
329,993,51,0.148245910977435,1
330,990,51,0.131346942461429,1
330,991,51,0.151535449124498,1
330,992,51,0.164508410473385,1
330,993,51,0.125299261976697,1
331,989,51,0.125828679272374,1
331,990,51,0.152951417218798,1
331,991,51,0.142859584033507,1
331,992,51,0.125998195501274,1
332,990,51,0.132670662353632,1
332,991,51,0.129694388878567,1
333,990,51,0.124778983530098,1
333,991,51,0.132556532731966,1
334,990,51,0.120461348415512,1
334,991,51,0.116467235624402,1
336,990,51,0.12123805637219,1
337,990,51,0.122500430562271,1
337,991,51,0.120976869007694,1
337,992,51,0.11542208575293,1
338,991,51,0.117729162293523,1
338,992,51,0.130289450432955,1
338,993,51,0.115665831576853,1
339,993,51,0.114994844558541,1
340,994,51,0.120771174242239,1
343,995,51,0.114912465371299,1
343,996,51,0.117977100682229,1
344,995,51,0.133078518824333,1
344,996,51,0.120766628371434,1
315,999,52,0.130349041381839,1
315,1000,52,0.151905325197936,1
315,1001,52,0.123429378083419,1
315,1008,52,0.131768566090084,1
315,1009,52,0.169221430356129,1
315,1010,52,0.141567485030188,1
316,999,52,0.153300601336269,1
316,1000,52,0.153355846621094,1
316,1001,52,0.118240019246228,1
316,1008,52,0.123971773486936,1
316,1009,52,0.150629113188697,1
316,1010,52,0.123652161083427,1
317,996,52,0.125282550601902,1
317,999,52,0.125146221585245,1
317,1000,52,0.117543499979461,1
318,995,52,0.147140004247209,1
318,996,52,0.158286479459071,1
318,997,52,0.133040915286826,1
319,994,52,0.125136270132319,1
319,995,52,0.1468505995085,1
319,996,52,0.148431726390773,1
319,997,52,0.136563576523446,1
320,993,52,0.133782045327184,1
320,994,52,0.168710243651138,1
320,995,52,0.149461236582379,1
320,996,52,0.138810025750827,1
320,997,52,0.130740480899429,1
321,993,52,0.191145599955078,1
321,994,52,0.211446116403688,1
321,995,52,0.150706593199113,1
321,996,52,0.120938441089471,1
322,993,52,0.174419857381194,1
322,994,52,0.171169606863671,1
322,995,52,0.120229155698478,1
323,992,52,0.11940617642991,1
323,993,52,0.17207881635511,1
323,994,52,0.139856600623251,1
324,992,52,0.156685049257454,1
324,993,52,0.233734568064075,1
324,994,52,0.170451005970589,1
325,992,52,0.147762647224974,1
325,993,52,0.215837404046795,1
325,994,52,0.167007061315459,1
326,992,52,0.147130147009222,1
326,993,52,0.166438285729037,1
326,994,52,0.126436872033878,1
327,991,52,0.136645849718881,1
327,992,52,0.164457887712375,1
327,993,52,0.142041280181285,1
328,990,52,0.113973142429999,1
328,991,52,0.154315343336196,1
328,992,52,0.171538705663863,1
328,993,52,0.12998736200809,1
329,990,52,0.118060009828502,1
329,991,52,0.148597686005728,1
329,992,52,0.16491991777297,1
329,993,52,0.12576443646088,1
330,990,52,0.134595885746674,1
330,991,52,0.148797598329305,1
330,992,52,0.154966686539738,1
330,993,52,0.115073443371357,1
331,989,52,0.132510461626821,1
331,990,52,0.156693151742204,1
331,991,52,0.14449736942469,1
331,992,52,0.121917369635731,1
332,989,52,0.125823603442538,1
332,990,52,0.142092132694581,1
332,991,52,0.13209293634801,1
333,989,52,0.11917149879386,1
333,990,52,0.135135972884187,1
333,991,52,0.13807936534556,1
334,989,52,0.116714502731668,1
334,990,52,0.122397371195931,1
334,991,52,0.117775598481557,1
336,990,52,0.134863950801713,1
337,990,52,0.139978903390871,1
337,991,52,0.134689535395987,1
337,992,52,0.124922837965003,1
338,991,52,0.124609679284811,1
338,992,52,0.155125038298373,1
338,993,52,0.129254734865972,1
339,992,52,0.121514459449325,1
339,993,52,0.130309953959044,1
340,994,52,0.11883228968305,1
350,1009,52,0.133018810106776,1
350,1010,52,0.123883093675653,1
314,1010,53,0.124826620958603,1
315,1000,53,0.159510519945868,1
315,1001,53,0.123088225789493,1
315,1008,53,0.122500654322751,1
315,1009,53,0.164743947820752,1
315,1010,53,0.147010918003985,1
315,1011,53,0.120647057837044,1
316,999,53,0.158190274229538,1
316,1000,53,0.154109036173637,1
316,1001,53,0.11480523699391,1
316,1008,53,0.122331868259628,1
316,1009,53,0.143988596977509,1
316,1010,53,0.118500912189039,1
317,996,53,0.127234519260737,1
317,997,53,0.114275124863059,1
317,998,53,0.115595735662276,1
317,999,53,0.122360344724924,1
318,995,53,0.164152725525126,1
318,996,53,0.160433932339353,1
318,997,53,0.130601007459185,1
319,994,53,0.13256259781866,1
319,995,53,0.158970479915825,1
319,996,53,0.149684419995877,1
319,997,53,0.132728463218676,1
320,993,53,0.157799670869532,1
320,994,53,0.183866165135423,1
320,995,53,0.159336552061103,1
320,996,53,0.143456977407634,1
320,997,53,0.129638554750374,1
321,992,53,0.11869808050252,1
321,993,53,0.247403930911055,1
321,994,53,0.257632564187696,1
321,995,53,0.178018985817637,1
321,996,53,0.140036633594711,1
322,992,53,0.115799404806545,1
322,993,53,0.202393874408472,1
322,994,53,0.196610513934955,1
322,995,53,0.143643664309158,1
323,992,53,0.125916958670167,1
323,993,53,0.167077486982322,1
323,994,53,0.135305124030199,1
324,992,53,0.160393890990301,1
324,993,53,0.207680039095431,1
324,994,53,0.14302891183253,1
325,992,53,0.147745229238137,1
325,993,53,0.183009657125457,1
325,994,53,0.132205746960532,1
326,992,53,0.142958062198442,1
326,993,53,0.14581863972848,1
327,991,53,0.119639617494885,1
327,992,53,0.145785605615512,1
327,993,53,0.127954980898863,1
328,991,53,0.121699050068457,1
328,992,53,0.13357285283212,1
329,991,53,0.127007685018355,1
329,992,53,0.129934742964688,1
330,990,53,0.129964679761538,1
330,991,53,0.1427430872615,1
330,992,53,0.135359238735756,1
331,989,53,0.123737649363653,1
331,990,53,0.14823385146525,1
331,991,53,0.142847877827343,1
331,992,53,0.114098683836146,1
332,989,53,0.136361473702538,1
332,990,53,0.148066831932232,1
332,991,53,0.133888154902173,1
333,989,53,0.138955258079214,1
333,990,53,0.144707727829623,1
333,991,53,0.137371245864435,1
334,989,53,0.118947337900371,1
334,990,53,0.120592684040404,1
334,991,53,0.117799941266407,1
336,990,53,0.141956757604182,1
336,991,53,0.126431725542838,1
337,989,53,0.114960267675947,1
337,990,53,0.153609273029994,1
337,991,53,0.155970428945543,1
337,992,53,0.138341577297516,1
338,990,53,0.114035606934521,1
338,991,53,0.137960913613569,1
338,992,53,0.171087875404135,1
338,993,53,0.13040461641895,1
339,992,53,0.133929962781331,1
339,993,53,0.132498661205718,1
350,1009,53,0.131080161084934,1
350,1010,53,0.124729956431244,1
314,1010,54,0.127340416852113,1
314,1011,54,0.14859924055222,1
315,1000,54,0.164003759929783,1
315,1008,54,0.115077200192048,1
315,1009,54,0.144300436648556,1
315,1010,54,0.139812272494476,1
315,1011,54,0.127361626990243,1
315,1012,54,0.116612138200502,1
316,999,54,0.153601453190061,1
316,1000,54,0.146582722883339,1
316,1001,54,0.11545694528034,1
316,1008,54,0.1266050810305,1
316,1009,54,0.131129176406921,1
317,997,54,0.115359597694674,1
317,998,54,0.116571449123745,1
317,999,54,0.116192728622913,1
317,1003,54,0.114536853963453,1
318,996,54,0.149579417446421,1
318,997,54,0.123501664495326,1
318,1002,54,0.119574220550389,1
318,1003,54,0.124667963001417,1
319,994,54,0.136574564340701,1
319,995,54,0.158954628252347,1
319,996,54,0.140641776147566,1
319,997,54,0.121499561712104,1
320,993,54,0.165830858463912,1
320,994,54,0.184571882135604,1
320,995,54,0.162334989600555,1
320,996,54,0.136662937953433,1
320,997,54,0.11855223577703,1
321,992,54,0.13389895428955,1
321,993,54,0.258468274249889,1
321,994,54,0.274424233665108,1
321,995,54,0.2027138047874,1
321,996,54,0.150060714462031,1
322,992,54,0.127289717438092,1
322,993,54,0.208856901451551,1
322,994,54,0.220627385757791,1
322,995,54,0.176800138929349,1
322,996,54,0.130564675823354,1
323,992,54,0.12878454343629,1
323,993,54,0.151054340538766,1
323,994,54,0.133885222462198,1
324,992,54,0.149471117374102,1
324,993,54,0.157994648685683,1
325,992,54,0.143520101416729,1
325,993,54,0.144030628617147,1
326,992,54,0.132538737885372,1
326,993,54,0.1219733568632,1
327,992,54,0.118240631643331,1
330,990,54,0.120085513247186,1
330,991,54,0.131542308914203,1
331,990,54,0.136114866099844,1
331,991,54,0.137499731487424,1
332,989,54,0.140165342978179,1
332,990,54,0.150485341191864,1
332,991,54,0.132479217597692,1
333,989,54,0.153652647232512,1
333,990,54,0.15250300121688,1
333,991,54,0.130202101407684,1
334,989,54,0.118329676537503,1
334,990,54,0.122582503550961,1
334,991,54,0.115667115255396,1
336,990,54,0.138813488149833,1
336,991,54,0.136262807107726,1
337,989,54,0.118823574801197,1
337,990,54,0.159435831053018,1
337,991,54,0.176347071064821,1
337,992,54,0.147846156991483,1
338,990,54,0.126944490348056,1
338,991,54,0.157870944470846,1
338,992,54,0.173120374282035,1
338,993,54,0.11993866748797,1
339,992,54,0.138322922739605,1
339,993,54,0.121767426560397,1
314,1011,55,0.141213696157576,1
315,1009,55,0.114249168647379,1
315,1010,55,0.121558811131834,1
315,1011,55,0.125655641760131,1
315,1012,55,0.115259141016021,1
316,999,55,0.133583346020945,1
316,1000,55,0.124247269745284,1
316,1008,55,0.120534070571512,1
317,1007,55,0.114422877441062,1
317,1008,55,0.117271442566385,1
318,996,55,0.13048047122167,1
318,1002,55,0.122112665427301,1
318,1003,55,0.122352854637278,1
319,995,55,0.143412284195972,1
319,996,55,0.12358676413893,1
320,994,55,0.169254240708617,1
320,995,55,0.15376054689134,1
320,996,55,0.123295416217104,1
321,993,55,0.217333278186189,1
321,994,55,0.253106855380446,1
321,995,55,0.210853080470487,1
321,996,55,0.150256975956724,1
322,992,55,0.139735393104296,1
322,993,55,0.195774638996618,1
322,994,55,0.236664770433995,1
322,995,55,0.205392547485271,1
322,996,55,0.144468869405658,1
323,992,55,0.127506894649232,1
323,993,55,0.137649745223962,1
323,994,55,0.140850391576129,1
323,995,55,0.119288148665144,1
324,992,55,0.127976803434097,1
324,993,55,0.117319869045003,1
325,992,55,0.128322289615215,1
326,992,55,0.118520096705982,1
330,991,55,0.123292012702435,1
331,990,55,0.123861659777042,1
331,991,55,0.128912475546513,1
332,989,55,0.132295439582409,1
332,990,55,0.144106165444448,1
332,991,55,0.125618945041411,1
333,989,55,0.147000931220457,1
333,990,55,0.149417803495525,1
333,991,55,0.119048854497086,1
334,989,55,0.114104419170554,1
334,990,55,0.125615977270834,1
336,990,55,0.122886464497738,1
336,991,55,0.134527768345816,1
337,990,55,0.148095732364754,1
337,991,55,0.178856368194996,1
337,992,55,0.144020394519404,1
338,990,55,0.140728065254774,1
338,991,55,0.175056561938597,1
338,992,55,0.158827143663084,1
339,991,55,0.131971929035801,1
339,992,55,0.13434310706548,1
315,1002,56,0.123906317658103,1
315,1011,56,0.118457537986521,1
316,999,56,0.116528169136166,1
318,1002,56,0.117018063264955,1
319,995,56,0.117871049991577,1
320,994,56,0.150119104170443,1
320,995,56,0.138402640354821,1
321,993,56,0.175038955521881,1
321,994,56,0.216207315450835,1
321,995,56,0.198613876842986,1
321,996,56,0.142770480254998,1
322,992,56,0.147087903385972,1
322,993,56,0.177999118242386,1
322,994,56,0.229875100197588,1
322,995,56,0.211398891165541,1
322,996,56,0.147077928379311,1
323,992,56,0.123945216651021,1
323,993,56,0.130362890977864,1
323,994,56,0.145567745346065,1
323,995,56,0.126977147601269,1
331,990,56,0.119190306451048,1
331,991,56,0.120967635943678,1
332,989,56,0.119224000068588,1
332,990,56,0.136642717072161,1
332,991,56,0.11979747462509,1
333,989,56,0.131308761857421,1
333,990,56,0.143964513283741,1
334,989,56,0.117434469741365,1
334,990,56,0.136510097768726,1
335,990,56,0.125315961574626,1
335,991,56,0.115891864992254,1
336,990,56,0.117589276662922,1
336,991,56,0.132187469262376,1
337,990,56,0.134140886475898,1
337,991,56,0.167731503534756,1
337,992,56,0.132295781111563,1
338,990,56,0.14833964306482,1
338,991,56,0.183664132975719,1
338,992,56,0.143360253995938,1
339,990,56,0.144585248408992,1
339,991,56,0.170939274891681,1
339,992,56,0.134278357848689,1
340,991,56,0.122347931906718,1
340,992,56,0.115014676803189,1
343,993,56,0.118073824093926,1
344,993,56,0.114881162457834,1
315,1002,57,0.137321217731854,1
319,1001,57,0.115979567323546,1
320,994,57,0.124625472063952,1
320,995,57,0.116261010899915,1
321,993,57,0.149410466507155,1
321,994,57,0.169674945741617,1
321,995,57,0.165568811388099,1
321,996,57,0.128776570497082,1
322,992,57,0.148678063125517,1
322,993,57,0.160388909375404,1
322,994,57,0.192339585876352,1
322,995,57,0.187246550037366,1
322,996,57,0.13559958104501,1
323,992,57,0.122256590523409,1
323,993,57,0.128565246389024,1
323,994,57,0.139530828918107,1
323,995,57,0.126189381166132,1
332,990,57,0.118933535411815,1
333,990,57,0.129516251982753,1
334,989,57,0.124711195881526,1
334,990,57,0.144330656090223,1
335,990,57,0.13479526811122,1
335,991,57,0.115860950715412,1
336,991,57,0.123153363642907,1
337,990,57,0.115860880054208,1
337,991,57,0.147641286606743,1
337,992,57,0.116563358415862,1
338,990,57,0.139770935690013,1
338,991,57,0.181078875051017,1
338,992,57,0.133590423918234,1
339,990,57,0.157680170996346,1
339,991,57,0.202244543730241,1
339,992,57,0.143035601093195,1
340,990,57,0.116006960317045,1
340,991,57,0.144421597060042,1
340,992,57,0.119945792492728,1
342,993,57,0.143989009167867,1
343,993,57,0.15381720540025,1
343,994,57,0.13285294470676,1
344,993,57,0.128257057546862,1
344,994,57,0.121332177096198,1
315,1003,58,0.122908899430075,1
319,1019,58,0.113941580425452,1
321,993,58,0.134443964157622,1
321,994,58,0.128365546049059,1
321,995,58,0.128841178391465,1
321,996,58,0.114335410647117,1
322,992,58,0.143784433204812,1
322,993,58,0.142664900639041,1
322,994,58,0.146612412365975,1
322,995,58,0.149568559174707,1
322,996,58,0.118263678972771,1
323,992,58,0.117983554405547,1
323,993,58,0.12225537750607,1
323,994,58,0.122572846519719,1
323,995,58,0.115719392769644,1
333,990,58,0.114486378309912,1
334,989,58,0.129031527898739,1
334,990,58,0.14423056449446,1
335,989,58,0.116741730849024,1
335,990,58,0.131934737688651,1
337,991,58,0.126670430867527,1
338,990,58,0.126934374018987,1
338,991,58,0.175733578713001,1
338,992,58,0.133817835227116,1
339,990,58,0.155889521866722,1
339,991,58,0.220751254848772,1
339,992,58,0.161614775276643,1
340,990,58,0.120468438089668,1
340,991,58,0.161945976117644,1
340,992,58,0.132915373880679,1
341,992,58,0.115296815214733,1
341,993,58,0.117776764391426,1
342,992,58,0.131285714527981,1
342,993,58,0.165903392190034,1
342,994,58,0.136356857170529,1
343,992,58,0.136083539632645,1
343,993,58,0.180313837969902,1
343,994,58,0.159191991014156,1
344,993,58,0.133829776970628,1
344,994,58,0.127881764114434,1
346,996,58,0.129681834737952,1
346,997,58,0.126228692349408,1
347,996,58,0.135774714839644,1
347,997,58,0.142411580221948,1
319,1019,59,0.115922637946687,1
322,993,59,0.118476192544433,1
322,995,59,0.11811148651577,1
334,989,59,0.123157014471791,1
334,990,59,0.134416653602195,1
335,990,59,0.117853702665944,1
337,991,59,0.115209725280544,1
338,990,59,0.117143121819539,1
338,991,59,0.167458397980484,1
338,992,59,0.141918447454633,1
339,990,59,0.139885159526619,1
339,991,59,0.205540865352908,1
339,992,59,0.170594660198748,1
340,990,59,0.114702731140336,1
340,991,59,0.156516027656984,1
340,992,59,0.138889872911585,1
341,991,59,0.123890254011013,1
341,992,59,0.125147093073431,1
341,993,59,0.121877846468843,1
342,991,59,0.137920083214403,1
342,992,59,0.155856311100743,1
342,993,59,0.176888065021121,1
342,994,59,0.158310092078144,1
343,992,59,0.160627920898645,1
343,993,59,0.190907613019299,1
343,994,59,0.172140185610967,1
344,992,59,0.114388524318948,1
344,993,59,0.13566661497407,1
344,994,59,0.126221225815496,1
346,996,59,0.140084000155266,1
346,997,59,0.136294274897334,1
347,996,59,0.146038431404176,1
347,997,59,0.156309484957078,1
338,991,60,0.142189079866757,1
338,992,60,0.139140413987979,1
339,990,60,0.119894115598715,1
339,991,60,0.165849524798691,1
339,992,60,0.15664850563801,1
340,991,60,0.140748969194353,1
340,992,60,0.134160447852597,1
341,991,60,0.146919564843809,1
341,992,60,0.145056853062758,1
341,993,60,0.12584270552141,1
342,991,60,0.185531602611186,1
342,992,60,0.196232959343993,1
342,993,60,0.181291647713761,1
342,994,60,0.158034195406306,1
343,992,60,0.183712429908796,1
343,993,60,0.186181261722694,1
343,994,60,0.161387010661739,1
344,993,60,0.12715954772307,1
344,994,60,0.114902537472108,1
346,996,60,0.147286932444497,1
346,997,60,0.143364175692772,1
347,996,60,0.149101370846205,1
347,997,60,0.159878123083904,1
347,998,60,0.114861695296074,1
348,997,60,0.118680721400019,1
328,993,61,0.12211181749285,1
329,993,61,0.116213514793818,1
338,991,61,0.118453298314269,1
338,992,61,0.133378216545123,1
339,991,61,0.135994353416064,1
339,992,61,0.135740161510786,1
340,990,61,0.117668099236218,1
340,991,61,0.141320524121474,1
340,992,61,0.13019129024344,1
341,991,61,0.171507473411602,1
341,992,61,0.16612577477655,1
341,993,61,0.130744426149997,1
342,991,61,0.206322590255085,1
342,992,61,0.222436689445327,1
342,993,61,0.182851281813087,1
342,994,61,0.140491197121394,1
343,992,61,0.187019268274024,1
343,993,61,0.175382451412414,1
343,994,61,0.136778834105205,1
344,993,61,0.113840146266808,1
346,995,61,0.119040222053305,1
346,996,61,0.147495877625346,1
346,997,61,0.141343842318863,1
347,996,61,0.146664289466732,1
347,997,61,0.150904150149218,1
347,998,61,0.116619828494894,1
348,997,61,0.128816918044686,1
348,998,61,0.128924782372913,1
349,998,61,0.118938010621415,1
328,992,62,0.118172467135003,1
328,993,62,0.138272835722687,1
329,992,62,0.118389361701326,1
329,993,62,0.132211223203858,1
337,992,62,0.119773838452282,1
337,993,62,0.113828157415827,1
338,992,62,0.130660268655783,1
338,993,62,0.125442833766785,1
339,991,62,0.127732727857888,1
339,992,62,0.127357540417267,1
340,991,62,0.159753252959197,1
340,992,62,0.135823164871998,1
341,991,62,0.193368036149895,1
341,992,62,0.178989564564932,1
341,993,62,0.131133757608327,1
342,992,62,0.220154568086687,1
342,993,62,0.177263829528243,1
342,994,62,0.11713273462252,1
343,992,62,0.175879800298247,1
343,993,62,0.164512603038168,1
346,995,62,0.120944647498575,1
346,996,62,0.13264265696303,1
346,997,62,0.122366303819813,1
347,996,62,0.137213023651341,1
347,997,62,0.133809885841643,1
348,997,62,0.137133847772024,1
348,998,62,0.141419343815562,1
348,999,62,0.11476970618506,1
349,998,62,0.127933629438324,1
328,993,63,0.128758116145916,1
329,992,63,0.117238773536305,1
329,993,63,0.131408005518734,1
337,992,63,0.126087793908213,1
337,993,63,0.130979209777852,1
338,992,63,0.138490095371898,1
338,993,63,0.139702370768195,1
339,991,63,0.151367463888356,1
339,992,63,0.149722282624466,1
339,993,63,0.128104394015166,1
340,991,63,0.208482373515502,1
340,992,63,0.168791150729959,1
340,993,63,0.119333831133666,1
341,991,63,0.225905495067471,1
341,992,63,0.188928392689373,1
341,993,63,0.133840800118485,1
342,992,63,0.195078791011292,1
342,993,63,0.163196208357468,1
343,993,63,0.157933903603797,1
346,995,63,0.120433814099605,1
347,996,63,0.124760540955799,1
347,997,63,0.116286366495359,1
348,997,63,0.138213150558864,1
348,998,63,0.136597505678334,1
349,998,63,0.125702160386236,1
321,1004,64,0.115066471465875,1
329,993,64,0.114751616916782,1
336,993,64,0.120197534809593,1
337,992,64,0.120439219681727,1
337,993,64,0.134747348037899,1
338,992,64,0.137057804539427,1
338,993,64,0.141526101118256,1
339,991,64,0.163451118651656,1
339,992,64,0.169033259569317,1
339,993,64,0.143546352054093,1
340,991,64,0.23443727018621,1
340,992,64,0.197714265498452,1
340,993,64,0.139392933578091,1
341,992,64,0.189631330348855,1
341,993,64,0.135627468666938,1
342,992,64,0.162185682476059,1
342,993,64,0.137739626275717,1
343,993,64,0.142072724417158,1
348,998,64,0.122995636058243,1
321,1004,65,0.142739330440809,1
321,1005,65,0.115182909353546,1
322,1018,65,0.122675152166548,1
336,993,65,0.130081600500771,1
336,994,65,0.115389475607187,1
337,993,65,0.125527132583408,1
338,992,65,0.126942806256023,1
338,993,65,0.129542867703006,1
339,991,65,0.159371823778871,1
339,992,65,0.172145202556466,1
339,993,65,0.148657430053887,1
340,992,65,0.21357812981085,1
340,993,65,0.164220242305749,1
341,992,65,0.208552092570323,1
341,993,65,0.162864430449967,1
342,993,65,0.134615246916628,1
343,994,65,0.11627888818458,1
321,1004,66,0.140194938245876,1
321,1005,66,0.115754782256086,1
322,1018,66,0.139637138699841,1
323,1018,66,0.118580818234133,1
336,993,66,0.12201833271968,1
336,994,66,0.115507362049544,1
339,992,66,0.15005834731169,1
339,993,66,0.132994396660721,1
340,992,66,0.204100224721472,1
340,993,66,0.16791093588598,1
341,992,66,0.22228121124233,1
341,993,66,0.178327692841963,1
342,993,66,0.132944521627416,1
343,994,66,0.115427726872399,1
344,995,66,0.11860347692695,1
321,1004,67,0.121145525525277,1
322,1018,67,0.13602672802446,1
323,1018,67,0.122552990721336,1
339,993,67,0.119962715851136,1
340,992,67,0.195018658326509,1
340,993,67,0.164680293852626,1
341,993,67,0.185859176177037,1
340,992,68,0.182797697066561,1
340,993,68,0.154219585627624,1
341,993,68,0.175683609464757,1
340,993,69,0.141244068698519,1
