x,y,z,signal,mito.p
602,745,29,0.171230210623149,1
601,745,30,0.153525409957464,1
602,744,30,0.157345072012246,1
602,745,30,0.208821994816671,1
602,746,30,0.171917320172888,1
603,745,30,0.171702969409917,1
598,747,31,0.148815911358063,1
599,746,31,0.138193648066502,1
599,747,31,0.141217500085736,1
600,745,31,0.13221578085153,1
600,746,31,0.145116867978867,1
601,744,31,0.160804138165077,1
601,745,31,0.199530046463039,1
601,746,31,0.170853374421096,1
602,743,31,0.122391023464419,1
602,744,31,0.198642635953099,1
602,745,31,0.229601217370069,1
602,746,31,0.160394915577762,1
603,744,31,0.167773511620659,1
603,745,31,0.159416269676319,1
597,747,32,0.135623264325287,1
598,746,32,0.172869103039864,1
598,747,32,0.193067867354411,1
598,748,32,0.140486415713243,1
599,745,32,0.133207404860813,1
599,746,32,0.200047851767491,1
599,747,32,0.193327617941087,1
599,748,32,0.12234734306335,1
600,744,32,0.130859356598645,1
600,745,32,0.174696354673268,1
600,746,32,0.187937569507071,1
600,747,32,0.142866449947183,1
601,743,32,0.131857410777511,1
601,744,32,0.206976300608968,1
601,745,32,0.244637191460207,1
601,746,32,0.182385224063852,1
602,743,32,0.142590612159681,1
602,744,32,0.22219434506862,1
602,745,32,0.223789663076073,1
602,746,32,0.13883373258484,1
603,744,32,0.160383633338823,1
603,745,32,0.130979563083874,1
597,747,33,0.135075745984465,1
598,745,33,0.1154008756148,1
598,746,33,0.193639033644908,1
598,747,33,0.216579276029798,1
598,748,33,0.144786597510389,1
599,745,33,0.1739751864231,1
599,746,33,0.262656293162219,1
599,747,33,0.237384313476467,1
599,748,33,0.128805659359482,1
600,744,33,0.163852344746029,1
600,745,33,0.23973547083162,1
600,746,33,0.242050096344197,1
600,747,33,0.163518682539748,1
601,743,33,0.145621636291142,1
601,744,33,0.235329862517793,1
601,745,33,0.271769704206546,1
601,746,33,0.187648965595342,1
602,743,33,0.158522158128846,1
602,744,33,0.216471541247112,1
602,745,33,0.19613080679644,1
602,746,33,0.11776945095679,1
603,744,33,0.137631314426531,1
597,747,34,0.128531788308831,1
598,745,34,0.120018856177881,1
598,746,34,0.185478653815498,1
598,747,34,0.203715144712262,1
598,748,34,0.136767881618552,1
599,744,34,0.125281243369624,1
599,745,34,0.226299973016841,1
599,746,34,0.286109736096419,1
599,747,34,0.237409186220349,1
599,748,34,0.122779200789747,1
600,743,34,0.114567638694754,1
600,744,34,0.210626611310993,1
600,745,34,0.329921731881619,2
600,746,34,0.28186657789107,1
600,747,34,0.164384765142884,1
601,743,34,0.149576755874396,1
601,744,34,0.235461268803889,1
601,745,34,0.279623461517154,1
601,746,34,0.181528197871722,1
602,742,34,0.124585030301409,1
602,743,34,0.159182392867251,1
602,744,34,0.183741683647339,1
602,745,34,0.157292346977038,1
603,743,34,0.127312305469705,1
607,747,34,0.152904392187396,1
607,748,34,0.153024845986839,1
608,747,34,0.139436425549283,1
608,748,34,0.159860186914902,1
609,747,34,0.14558763647505,1
611,744,34,0.159609681169109,1
612,740,34,0.123993749121446,1
612,742,34,0.11799311722185,1
613,739,34,0.119260720341043,1
613,744,34,0.116984711176567,1
614,739,34,0.122550482248586,1
614,742,34,0.127619740592356,1
615,740,34,0.130804935694536,1
615,741,34,0.123569287267755,1
622,734,34,0.14176818640388,1
622,735,34,0.124775509354224,1
623,734,34,0.148380508794588,1
623,735,34,0.128170285588092,1
624,734,34,0.128909743313283,1
624,735,34,0.124128099624384,1
625,734,34,0.120460453373592,1
625,735,34,0.132536676933583,1
626,734,34,0.124922896849339,1
626,735,34,0.148504790075926,1
630,740,34,0.12403919605262,1
635,751,34,0.158860295544726,1
636,744,34,0.24799878048183,1
636,745,34,0.223261093714846,1
636,746,34,0.219670609499052,1
636,747,34,0.209143055774867,1
637,744,34,0.251715559823283,1
637,745,34,0.236714351045616,1
637,746,34,0.251994365381361,1
637,747,34,0.253382245646987,3
637,748,34,0.186344771749236,1
597,746,35,0.1179117155146,1
597,747,35,0.128529621365235,1
598,745,35,0.130110324280283,1
598,746,35,0.169518407620557,1
598,747,35,0.175280746385821,1
598,748,35,0.131364701977421,1
599,744,35,0.151647894654131,1
599,745,35,0.263467366017877,2
599,746,35,0.263984653140165,1
599,747,35,0.200881630423436,1
599,748,35,0.114511309938131,1
600,743,35,0.124621338383505,1
600,744,35,0.244359516481396,2
600,745,35,0.383675335131959,2
600,746,35,0.280348869439576,2
600,747,35,0.151126803603684,1
601,742,35,0.116141475696126,1
601,743,35,0.152316596960174,1
601,744,35,0.21598546282335,1
601,745,35,0.262134978351291,2
601,746,35,0.165707495778229,1
602,742,35,0.149185127926928,1
602,743,35,0.159052446912708,1
602,744,35,0.148258712432264,1
602,745,35,0.125000235537347,1
603,742,35,0.128629394985579,1
603,743,35,0.120239378019353,1
606,740,35,0.115334112553688,1
607,739,35,0.145607586488372,1
607,747,35,0.126750537119367,1
607,748,35,0.124123153340089,1
608,748,35,0.126097498046924,1
609,747,35,0.118721869774604,1
609,748,35,0.16007124015501,1
609,749,35,0.144182161569576,1
610,747,35,0.140849555418546,1
610,749,35,0.153084484043193,1
611,744,35,0.125534304695635,1
611,745,35,0.126427709631066,1
611,749,35,0.137226614156284,1
612,741,35,0.11572357355756,1
612,744,35,0.129354732246796,1
613,740,35,0.153914694308325,1
613,742,35,0.127509532667523,1
614,740,35,0.151542185492633,1
614,741,35,0.175197625255935,1
615,740,35,0.118721233823766,1
615,749,35,0.137624083429966,1
616,747,35,0.12283463450445,1
616,748,35,0.158069926421901,1
617,748,35,0.120965704537429,1
622,734,35,0.120757866382112,1
622,735,35,0.120755287248159,1
622,740,35,0.12752364135463,1
622,741,35,0.116852186088071,1
623,734,35,0.140641305072871,1
623,735,35,0.127399336519557,1
624,734,35,0.139879341754139,1
624,735,35,0.122271511814365,1
625,734,35,0.134624432873175,1
625,735,35,0.124148956456493,1
626,733,35,0.120929102033648,1
626,734,35,0.135396536074712,1
626,735,35,0.14144633639557,1
626,738,35,0.130557774579076,1
626,739,35,0.12147505405111,1
626,740,35,0.124449431450529,1
626,742,35,0.125226151184075,1
627,734,35,0.145653692924119,1
627,743,35,0.11656265180382,1
629,740,35,0.119856005655911,1
629,742,35,0.120609277646526,1
634,751,35,0.200943529638324,1
635,744,35,0.14698381943217,1
635,745,35,0.143194058843636,1
635,746,35,0.147885079538136,1
635,747,35,0.171695208454321,1
635,748,35,0.176343384905335,1
635,750,35,0.154037114844619,1
635,751,35,0.17798939054994,1
635,752,35,0.170273940769706,1
636,743,35,0.269390447245852,1
636,744,35,0.303345016613862,1
636,745,35,0.277340586439003,1
636,746,35,0.275221409817272,1
636,747,35,0.286394170997099,3
636,748,35,0.232596569370271,1
636,749,35,0.165674037698035,1
636,750,35,0.140663221823044,1
636,751,35,0.144962885438026,1
636,752,35,0.129448593879722,1
636,755,35,0.186276807447653,1
637,743,35,0.259289804963771,1
637,744,35,0.299774741502472,1
637,745,35,0.283519225688871,1
637,746,35,0.307799593142208,3
637,747,35,0.326865611245797,3
637,748,35,0.245356475411597,3
637,749,35,0.164681024018403,1
638,744,35,0.152944928164878,1
638,745,35,0.161819575000179,1
638,746,35,0.201490612235053,1
638,747,35,0.242851041093918,3
638,748,35,0.208748460056823,1
597,746,36,0.133915877647958,1
598,745,36,0.148779779928977,1
598,746,36,0.156499245620984,1
598,747,36,0.143579821911154,1
599,744,36,0.174220475016648,1
599,745,36,0.268517145423019,1
599,746,36,0.219998100626831,1
599,747,36,0.152673000297342,1
600,743,36,0.125264225796276,1
600,744,36,0.238644508946085,1
600,745,36,0.351076518735394,2
600,746,36,0.234993208987201,1
600,747,36,0.127633130890554,1
601,742,36,0.120956589242086,1
601,743,36,0.144246157066855,1
601,744,36,0.181552175573684,1
601,745,36,0.213893844071261,1
601,746,36,0.140323058785976,1
602,741,36,0.124160627332055,1
602,742,36,0.16076205941797,1
602,743,36,0.147701113092975,1
602,744,36,0.116551028035728,1
603,742,36,0.130336451910622,1
606,739,36,0.128712433677394,1
607,739,36,0.128084290902568,1
609,748,36,0.115483596331195,1
610,748,36,0.138590528496816,1
610,749,36,0.120354673550889,1
611,747,36,0.129401356864708,1
611,748,36,0.147747195974987,1
611,749,36,0.115563608368096,1
612,745,36,0.124818553804456,1
612,749,36,0.120269691675959,1
613,740,36,0.11693144440546,1
613,741,36,0.135318832303815,1
613,749,36,0.134136976555931,1
614,740,36,0.121037896734397,1
614,741,36,0.135772936532672,1
614,749,36,0.155593898942042,1
615,747,36,0.126608025247342,1
615,748,36,0.190289468804868,1
615,749,36,0.162659336304747,1
616,748,36,0.154760049624893,1
616,749,36,0.129755216398525,1
617,748,36,0.117083978391615,1
623,734,36,0.121629684319657,1
623,735,36,0.114850625040748,1
624,734,36,0.140541119262169,1
625,733,36,0.119813279181099,1
625,734,36,0.14250594826017,1
626,733,36,0.132752829557261,1
626,734,36,0.1390781143596,1
626,735,36,0.122876619036618,1
627,733,36,0.142319237804913,1
627,734,36,0.140542155626497,1
627,735,36,0.162420984286079,1
627,738,36,0.149350875558271,1
627,739,36,0.128024688176817,1
627,740,36,0.131251514505144,1
627,742,36,0.121921138233289,1
628,733,36,0.139068563320165,1
628,734,36,0.13838801348555,1
628,739,36,0.134293349800848,1
628,740,36,0.132823243447257,1
628,742,36,0.126105788961552,1
629,734,36,0.123534109764926,1
629,739,36,0.116173897411991,1
631,740,36,0.116214610042483,1
633,739,36,0.119938019760264,1
634,748,36,0.153329454661322,1
634,750,36,0.145045912352973,1
634,751,36,0.165041431490477,1
634,752,36,0.161851113450991,1
635,744,36,0.145722375614611,1
635,745,36,0.145072233651541,1
635,746,36,0.168200517277701,1
635,747,36,0.24031607039288,3
635,748,36,0.252521686394647,1
635,749,36,0.18209309886878,1
635,750,36,0.164334018621394,1
635,751,36,0.18831097864072,1
635,752,36,0.170819775018494,1
635,753,36,0.141527608557279,1
635,755,36,0.187222101260709,1
636,743,36,0.23861549074489,1
636,744,36,0.307493559466774,1
636,745,36,0.286816371692255,1
636,746,36,0.293980993831936,3
636,747,36,0.349213653855068,3
636,748,36,0.303179410304929,3
636,749,36,0.194483175944137,1
636,750,36,0.164182038148006,1
636,751,36,0.178161450582192,1
636,752,36,0.151964409741523,1
636,753,36,0.126360463718392,1
636,754,36,0.167097637202389,1
636,755,36,0.245882336093329,1
636,756,36,0.203666035175336,1
637,743,36,0.23138185616243,1
637,744,36,0.298405068273798,1
637,745,36,0.289188185672772,3
637,746,36,0.315127890184575,3
637,747,36,0.359044700089353,3
637,748,36,0.298883680163648,3
637,749,36,0.198098591788151,3
637,750,36,0.145951435684926,1
637,751,36,0.133087916764493,1
637,752,36,0.122844609511111,1
637,755,36,0.196947862300721,1
638,744,36,0.147561945851283,1
638,745,36,0.162836012869007,1
638,746,36,0.211941969627365,3
638,747,36,0.271390394862346,3
638,748,36,0.264856282647832,3
638,749,36,0.201215999241758,1
639,747,36,0.143541052463777,1
639,748,36,0.162350040437052,1
595,745,37,0.135891506033336,1
595,746,37,0.148640341819336,1
595,747,37,0.148607083945887,1
596,745,37,0.144414318956008,1
596,746,37,0.166109416707776,1
596,747,37,0.153158254340388,1
597,745,37,0.140786478516921,1
598,744,37,0.149410077870531,1
598,745,37,0.186650605217925,1
598,746,37,0.153414306990711,1
599,744,37,0.203852957614206,1
599,745,37,0.257636450553927,1
599,746,37,0.180251314581043,1
599,747,37,0.113973260198673,1
600,743,37,0.123547841592278,1
600,744,37,0.20766183205848,1
600,745,37,0.259273176027046,1
600,746,37,0.175703594808682,1
601,742,37,0.117810387347763,1
601,743,37,0.130453313765519,1
601,744,37,0.146066095265624,1
601,745,37,0.155202400540115,1
601,746,37,0.116578126607542,1
602,741,37,0.12588812889885,1
602,742,37,0.152549778934067,1
602,743,37,0.127927682120303,1
603,741,37,0.113896498577166,1
603,742,37,0.120475563094426,1
612,746,37,0.11512288266057,1
612,747,37,0.117694184997439,1
612,748,37,0.115492758734007,1
613,748,37,0.125282515271299,1
614,748,37,0.14073734542626,1
614,749,37,0.153467408885675,1
614,750,37,0.122689555275339,1
615,748,37,0.154222565175068,1
615,749,37,0.180768790133209,1
615,750,37,0.129548815021027,1
616,748,37,0.133261943533595,1
616,749,37,0.134230402444765,1
624,734,37,0.127060551375971,1
625,733,37,0.12423891994632,1
625,734,37,0.138251460708413,1
626,733,37,0.145115713845865,1
626,734,37,0.138136094515673,1
627,732,37,0.114817826465127,1
627,733,37,0.143429337099921,1
627,734,37,0.133178421990219,1
627,735,37,0.140742173941881,1
627,736,37,0.146456427757681,1
627,737,37,0.120347878298418,1
628,732,37,0.122909806248862,1
628,733,37,0.125791028627398,1
628,734,37,0.122483530757597,1
628,735,37,0.177055590959436,1
629,735,37,0.167644590253578,1
629,738,37,0.115987257617937,1
630,734,37,0.131957525927009,1
631,734,37,0.149909711468634,1
634,747,37,0.14405988235569,1
634,748,37,0.173260000821554,1
634,749,37,0.139228351856618,1
634,750,37,0.128724092776088,1
634,751,37,0.137504465788106,1
634,752,37,0.135808267134777,1
635,745,37,0.131171478914508,1
635,746,37,0.173952680829559,1
635,747,37,0.286534504148661,3
635,748,37,0.30400631127033,3
635,749,37,0.198971304767615,1
635,750,37,0.174595262043778,1
635,751,37,0.196783127479973,1
635,752,37,0.171900173054,1
635,753,37,0.133011331795997,1
635,755,37,0.180575590624031,1
636,744,37,0.256595681677116,1
636,745,37,0.252399913586058,1
636,746,37,0.270224414331675,3
636,747,37,0.360226414514829,3
636,748,37,0.344793607101847,3
636,749,37,0.219337229937588,3
636,750,37,0.190865110304966,1
636,751,37,0.209449395648853,1
636,752,37,0.175534537877609,1
636,753,37,0.133087763665217,1
636,754,37,0.177625473571391,1
636,755,37,0.274828557075598,1
636,756,37,0.222404279506329,1
637,744,37,0.257605194747932,1
637,745,37,0.262264665214752,1
637,746,37,0.279662183857062,3
637,747,37,0.341743893081872,3
637,748,37,0.332199684229211,3
637,749,37,0.224314934914436,3
637,750,37,0.161369993088392,1
637,751,37,0.147239200801053,1
637,752,37,0.135460390249583,1
637,753,37,0.144354068502552,1
637,754,37,0.186760459836737,1
637,755,37,0.248961233190642,1
637,756,37,0.200108078667213,1
638,745,37,0.154190767633174,1
638,746,37,0.202064428320709,1
638,747,37,0.277374951337984,3
638,748,37,0.310099733107921,3
638,749,37,0.239905740780032,1
638,750,37,0.158829958334385,1
638,751,37,0.123178990106301,1
638,752,37,0.138934365916502,1
638,753,37,0.200658011265846,1
638,754,37,0.213939608977855,1
638,755,37,0.190901547932604,1
639,747,37,0.143699415999279,1
639,748,37,0.177745927370834,1
639,749,37,0.179026237729917,1
639,753,37,0.22427025347964,1
639,754,37,0.216413127984965,1
594,745,38,0.122958538926033,1
594,746,38,0.123781765508815,1
594,747,38,0.132604087722399,1
595,744,38,0.134183035884209,1
595,745,38,0.197090185742868,1
595,746,38,0.192434048129513,1
595,747,38,0.166943548669742,1
595,748,38,0.149921558997206,1
596,744,38,0.12474165086054,1
596,745,38,0.195223057636554,1
596,746,38,0.199237297093997,1
596,747,38,0.169841023125245,1
596,748,38,0.145088591720316,1
597,744,38,0.119195653148833,1
597,745,38,0.161651165796812,1
597,746,38,0.153260642425289,1
597,747,38,0.139291110782824,1
598,744,38,0.180317853881674,1
598,745,38,0.21193349028286,1
598,746,38,0.147074972385601,1
599,743,38,0.116560308207214,1
599,744,38,0.208206088207041,1
599,745,38,0.229321022141641,1
599,746,38,0.146072819856891,1
600,743,38,0.11635330620948,1
600,744,38,0.164289560947079,1
600,745,38,0.173287641129268,1
600,746,38,0.126091303414689,1
602,742,38,0.125961192584003,1
614,749,38,0.12810491219733,1
614,750,38,0.119383906373716,1
615,749,38,0.161743249122765,1
615,750,38,0.130690358551909,1
625,733,38,0.114990899307972,1
626,733,38,0.139771736516994,1
626,734,38,0.121055703357858,1
627,733,38,0.130384360207077,1
627,734,38,0.115807318861416,1
628,735,38,0.133418634753931,1
628,736,38,0.141865192460393,1
629,735,38,0.136710280960254,1
629,736,38,0.153081351396473,1
629,737,38,0.117856458452908,1
630,733,38,0.127630975723825,1
630,734,38,0.118675692677653,1
630,735,38,0.138061099424271,1
630,738,38,0.129383138050889,1
631,733,38,0.159636096682617,1
631,734,38,0.135025505868272,1
631,739,38,0.116137306685078,1
632,734,38,0.127888606474375,1
632,735,38,0.148481436547934,1
632,739,38,0.115260883992392,1
633,735,38,0.138313795667394,1
633,736,38,0.146868370801358,1
633,738,38,0.131212415305481,1
634,738,38,0.115772259127261,1
634,747,38,0.144131638808565,1
634,748,38,0.166173553527464,1
634,749,38,0.130163555720788,1
634,750,38,0.116619333866464,1
634,751,38,0.12071267854202,1
634,752,38,0.11941709358596,1
635,746,38,0.162195315953566,1
635,747,38,0.280137121364293,3
635,748,38,0.301400538042673,3
635,749,38,0.200994759011376,1
635,750,38,0.177486329883434,1
635,751,38,0.191406587112828,1
635,752,38,0.161128543753606,1
635,753,38,0.119515324436679,1
635,754,38,0.125586794193496,1
635,755,38,0.157023316218876,1
635,756,38,0.133643231391513,1
636,745,38,0.196000660635152,1
636,746,38,0.224636019426367,3
636,747,38,0.321128557414772,3
636,748,38,0.340988336378988,3
636,749,38,0.231415019820939,3
636,750,38,0.201196520303131,1
636,751,38,0.212093961877621,1
636,752,38,0.174765414223516,1
636,753,38,0.13033310728029,1
636,754,38,0.173117865809286,1
636,755,38,0.266790374022002,1
636,756,38,0.213116806362297,1
636,757,38,0.119176751276707,1
637,745,38,0.216598189678791,1
637,746,38,0.229694136853605,3
637,747,38,0.299733993541378,3
637,748,38,0.334204342592652,3
637,749,38,0.23092025006906,3
637,750,38,0.163375817361703,1
637,751,38,0.147413050917145,1
637,752,38,0.135829359504233,1
637,753,38,0.149818099217375,1
637,754,38,0.217599011421489,1
637,755,38,0.294120031528087,1
637,756,38,0.211343092367949,1
638,746,38,0.176445702329031,1
638,747,38,0.260021242642284,3
638,748,38,0.318569185044547,3
638,749,38,0.241317221887864,1
638,750,38,0.160111187289123,1
638,751,38,0.126859378927585,1
638,752,38,0.142564385076052,1
638,753,38,0.206581916874536,1
638,754,38,0.237932361776321,1
638,755,38,0.222112378071737,1
638,756,38,0.142325503098352,1
639,747,38,0.138889566713033,1
639,748,38,0.180084589469709,1
639,749,38,0.184452170278805,1
639,752,38,0.186317920491636,1
639,753,38,0.242126528213417,1
639,754,38,0.22658191122164,1
639,755,38,0.172831982353919,1
640,753,38,0.199963128983643,1
640,754,38,0.180702933890885,1
594,745,39,0.136002102594792,1
594,746,39,0.135097815833913,1
594,747,39,0.138995876494767,1
595,744,39,0.152390178827491,1
595,745,39,0.251374737281643,1
595,746,39,0.225904505810612,1
595,747,39,0.177446818493413,1
595,748,39,0.144586461426331,1
596,744,39,0.143603799613116,1
596,745,39,0.241126577958905,1
596,746,39,0.218987857390239,1
596,747,39,0.174227870889355,1
596,748,39,0.145652738997862,1
597,744,39,0.135423399109179,1
597,745,39,0.176887617500161,1
597,746,39,0.14964211748829,1
597,747,39,0.134430161669067,1
598,744,39,0.193170714737138,1
598,745,39,0.20872408194137,1
598,746,39,0.13372849591126,1
599,743,39,0.11602662768555,1
599,744,39,0.187318812895538,1
599,745,39,0.18849655851671,1
599,746,39,0.118829051044523,1
600,744,39,0.122510758874953,1
600,745,39,0.116331283467502,1
615,749,39,0.12280286051629,1
626,733,39,0.11695923781245,1
630,732,39,0.132839224656276,1
630,733,39,0.120564796418476,1
630,736,39,0.120631606587056,1
630,737,39,0.120500070755419,1
630,751,39,0.113803461324956,1
631,732,39,0.170090881143332,1
631,733,39,0.149560138714539,1
631,734,39,0.113916189499406,1
631,735,39,0.116918124768467,1
631,738,39,0.139744932366864,1
632,733,39,0.129766698844209,1
632,734,39,0.117099370757266,1
632,735,39,0.131956242248466,1
632,736,39,0.156777733203643,1
632,738,39,0.137519504847735,1
633,734,39,0.123728098324218,1
633,735,39,0.136674149531168,1
633,736,39,0.129356357454493,1
633,737,39,0.120907055737935,1
634,735,39,0.120091437011472,1
634,747,39,0.124360798746715,1
634,748,39,0.143441196405361,1
634,749,39,0.1320972349046,1
634,750,39,0.125104083953802,1
634,751,39,0.125359512430154,1
634,752,39,0.119180990948959,1
635,737,39,0.121521925983237,1
635,738,39,0.128306143530053,1
635,746,39,0.134132312916454,1
635,747,39,0.21809090761773,1
635,748,39,0.251801106987847,1
635,749,39,0.217006375901778,1
635,750,39,0.204760459459877,1
635,751,39,0.20279028376409,1
635,752,39,0.160426442251707,1
635,753,39,0.115511142423969,1
635,755,39,0.133393373373426,1
636,746,39,0.169578775842687,1
636,747,39,0.240768514083437,3
636,748,39,0.288630386126737,3
636,749,39,0.247654000912754,1
636,750,39,0.223296424316951,1
636,751,39,0.220192607368287,1
636,752,39,0.18093189974626,1
636,753,39,0.143030584147696,1
636,754,39,0.172738839109902,1
636,755,39,0.234135688166641,1
636,756,39,0.185238099522632,1
637,746,39,0.17351688962946,1
637,747,39,0.23397790169764,3
637,748,39,0.290879367380602,3
637,749,39,0.226745185710835,1
637,750,39,0.17014163944169,1
637,751,39,0.154650147898611,1
637,752,39,0.150276678655832,1
637,753,39,0.174085535670341,1
637,754,39,0.25020706088207,1
637,755,39,0.303978423648402,1
637,756,39,0.202687683695577,1
638,747,39,0.213705461300837,1
638,748,39,0.279336153060836,1
638,749,39,0.214403075816269,1
638,750,39,0.153744200599433,1
638,751,39,0.131659194322834,1
638,752,39,0.14873586399056,1
638,753,39,0.203861295636303,1
638,754,39,0.252991818939992,1
638,755,39,0.237371900658261,1
638,756,39,0.144807595664907,1
639,748,39,0.172493138325996,1
639,749,39,0.170159104535997,1
639,752,39,0.197086523137116,1
639,753,39,0.2403572423212,1
639,754,39,0.22665530465908,1
639,755,39,0.173933095899125,1
640,753,39,0.235635071812511,1
640,754,39,0.204469358852266,1
594,745,40,0.135992516224755,1
594,746,40,0.138662862016192,1
594,747,40,0.135053829234293,1
595,744,40,0.151108043053966,1
595,745,40,0.248966956748183,1
595,746,40,0.224721001301297,1
595,747,40,0.168611930362347,1
595,748,40,0.135130449533391,1
596,744,40,0.149097602248647,1
596,745,40,0.24175817135587,1
596,746,40,0.210429702088594,1
596,747,40,0.158637512544719,1
596,748,40,0.136582819924726,1
597,744,40,0.141478051499393,1
597,745,40,0.169912508710171,1
597,746,40,0.137132458101675,1
597,747,40,0.118482457837873,1
597,748,40,0.121714866401332,1
598,743,40,0.115713892972583,1
598,744,40,0.174638059179795,1
598,745,40,0.170614551327733,1
599,744,40,0.147143784621635,1
599,745,40,0.139313993236121,1
625,752,40,0.114888676099215,1
630,731,40,0.117114268494487,1
630,732,40,0.128341756776975,1
630,752,40,0.120441798815681,1
631,731,40,0.147393183341894,1
631,732,40,0.165357569718113,1
631,733,40,0.125391627947467,1
631,751,40,0.120039395034571,1
631,752,40,0.147376872380589,1
632,732,40,0.133445344689123,1
632,733,40,0.114589049039629,1
632,736,40,0.114256140552861,1
633,734,40,0.118463603073216,1
633,735,40,0.122492563614869,1
634,734,40,0.125786270772981,1
634,748,40,0.115364072904273,1
634,749,40,0.138854306772132,1
634,750,40,0.141349365669659,1
634,751,40,0.132450046297221,1
634,752,40,0.119639770594161,1
635,735,40,0.11648550154569,1
635,747,40,0.141622235686584,1
635,748,40,0.192788437622362,1
635,749,40,0.242048753781317,1
635,750,40,0.24599452253188,1
635,751,40,0.214640120602659,1
635,752,40,0.161844377082857,1
635,753,40,0.124733324615311,1
635,754,40,0.115389393169115,1
635,755,40,0.122300824437245,1
636,737,40,0.155106336632992,1
636,738,40,0.118580782903531,1
636,746,40,0.120788144708116,1
636,747,40,0.162586637702482,1
636,748,40,0.222207016977909,1
636,749,40,0.259282621074676,1
636,750,40,0.250680467396544,1
636,751,40,0.224596873119234,1
636,752,40,0.190484788150173,1
636,753,40,0.176289965034952,1
636,754,40,0.189853701158505,1
636,755,40,0.201330894359804,1
636,756,40,0.157704973079023,1
637,747,40,0.168662241139744,1
637,748,40,0.224930700201658,1
637,749,40,0.21397489247249,1
637,750,40,0.180778470718185,1
637,751,40,0.16520636651797,1
637,752,40,0.173278019428628,1
637,753,40,0.216393248632847,1
637,754,40,0.278211061813668,1
637,755,40,0.274575472195852,1
637,756,40,0.178931975683501,1
638,748,40,0.222414690257082,1
638,749,40,0.184740785967401,1
638,750,40,0.145347623918083,1
638,751,40,0.134849217940635,1
638,752,40,0.153832809749513,1
638,753,40,0.203085082308055,1
638,754,40,0.255658219480861,1
638,755,40,0.226090980728523,1
638,756,40,0.142905714022989,1
639,752,40,0.188690676621543,1
639,753,40,0.227760799198947,1
639,754,40,0.218659989402704,1
639,755,40,0.168436737683375,1
640,752,40,0.226400429695494,1
640,753,40,0.265770615076576,1
640,754,40,0.225139786704915,1
641,753,40,0.184619896423865,1
594,745,41,0.125317928311476,1
594,746,41,0.13369744031201,1
595,744,41,0.135169960923412,1
595,745,41,0.199872541319846,1
595,746,41,0.191684921596212,1
595,747,41,0.146248318734414,1
596,744,41,0.143670574451094,1
596,745,41,0.200077223274708,1
596,746,41,0.17648647384386,1
596,747,41,0.133298934673999,1
596,748,41,0.120946885103375,1
596,749,41,0.114360719135092,1
597,744,41,0.137903925352373,1
597,745,41,0.147160755087513,1
597,746,41,0.120967211976452,1
598,743,41,0.116073169865389,1
598,744,41,0.139505261339051,1
598,745,41,0.124917573705289,1
625,752,41,0.118130824131988,1
625,753,41,0.130762892278031,1
626,753,41,0.128377511346305,1
629,753,41,0.116852421625419,1
630,731,41,0.114105573303556,1
630,753,41,0.1218407611135,1
631,731,41,0.14058170234712,1
631,732,41,0.13812697922033,1
631,752,41,0.114867607283493,1
631,753,41,0.122655802773462,1
632,731,41,0.120673909094643,1
632,732,41,0.120682082240597,1
634,733,41,0.119697924765226,1
634,734,41,0.116331624996655,1
634,749,41,0.137346349566819,1
634,750,41,0.15300819349638,1
634,751,41,0.137703671499642,1
635,748,41,0.145409252265021,1
635,749,41,0.243754138391193,1
635,750,41,0.265611862904451,1
635,751,41,0.210899010253223,1
635,752,41,0.164036688050945,1
635,753,41,0.150686666739526,1
635,754,41,0.140826967386934,1
636,736,41,0.139230636568888,1
636,737,41,0.131959316010849,1
636,748,41,0.162657428452233,1
636,749,41,0.243097931341429,1
636,750,41,0.255430784618243,1
636,751,41,0.214016252830688,1
636,752,41,0.190799136293969,1
636,753,41,0.208177117113315,1
636,754,41,0.209046956537141,1
636,755,41,0.168813444339887,1
637,737,41,0.169559532441407,1
637,747,41,0.117455444342148,1
637,748,41,0.159162195539714,1
637,749,41,0.189316958651324,1
637,750,41,0.184460084333676,1
637,751,41,0.17109573057467,1
637,752,41,0.184092940493468,1
637,753,41,0.238495201821589,1
637,754,41,0.269450061748471,1
637,755,41,0.217210940087967,1
637,756,41,0.146493960633984,1
638,750,41,0.138338527088868,1
638,751,41,0.138293150818897,1
638,752,41,0.156522186958617,1
638,753,41,0.198348732451054,1
638,754,41,0.233922950834499,1
638,755,41,0.199551150609363,1
639,753,41,0.208230536983697,1
639,754,41,0.202887654903492,1
640,752,41,0.212717970972,1
640,753,41,0.272265651645162,1
640,754,41,0.230446136942544,1
641,753,41,0.20034983420055,1
594,746,42,0.12189043594006,1
595,744,42,0.114582713084985,1
595,745,42,0.145714438006005,1
595,746,42,0.147921905802397,1
595,747,42,0.120527334203377,1
596,744,42,0.128582923466944,1
596,745,42,0.149270098024991,1
596,746,42,0.135584553762247,1
597,743,42,0.117014047353182,1
597,744,42,0.126758404066769,1
597,745,42,0.121751645558124,1
598,752,42,0.113815367737865,1
625,753,42,0.134055869270366,1
626,753,42,0.130417217667035,1
626,754,42,0.129392029585752,1
629,754,42,0.123118292131884,1
630,754,42,0.142458169509257,1
631,731,42,0.119035570190695,1
633,732,42,0.122207210118534,1
634,732,42,0.132852167433513,1
634,733,42,0.11622075756725,1
634,749,42,0.119230983750938,1
634,750,42,0.142344970260112,1
634,751,42,0.127064614395214,1
635,749,42,0.207162092468571,1
635,750,42,0.236748009332555,1
635,751,42,0.180099958281625,1
635,752,42,0.165131571633314,1
635,753,42,0.201203963283308,1
635,754,42,0.188783713873753,1
636,736,42,0.118548738047422,1
636,748,42,0.122417709845876,1
636,749,42,0.201445082865807,1
636,750,42,0.223051724566771,1
636,751,42,0.18265825895692,1
636,752,42,0.184027425780298,1
636,753,42,0.243079017692435,1
636,754,42,0.236121903955784,1
636,755,42,0.149219810801328,1
637,736,42,0.203214910493924,1
637,737,42,0.166926778410609,1
637,748,42,0.115990296049718,1
637,750,42,0.172142281893358,1
637,751,42,0.163865428845675,1
637,752,42,0.178262990732642,1
637,753,42,0.232455105639442,1
637,754,42,0.239404587966039,1
637,755,42,0.169281197958023,1
638,753,42,0.186201294174087,1
638,754,42,0.202183610218477,1
640,753,42,0.252198458492855,1
597,743,43,0.123244964117298,1
597,744,43,0.116636928506313,1
614,730,43,0.1150148534562,1
625,753,43,0.114673795377212,1
626,754,43,0.117469517698653,1
630,754,43,0.114315225096448,1
633,731,43,0.115842472810511,1
633,732,43,0.121372030015372,1
634,731,43,0.132641479276294,1
634,732,43,0.139196589645326,1
634,750,43,0.118654058572297,1
634,752,43,0.123027433600137,1
634,753,43,0.157605317227352,1
634,754,43,0.158726663430698,1
635,749,43,0.154996364245506,1
635,750,43,0.184291675130309,1
635,751,43,0.150725023996545,1
635,752,43,0.175064899960694,1
635,753,43,0.264730482150603,1
635,754,43,0.242360746551639,1
635,755,43,0.141541976335469,1
636,749,43,0.15665275708713,1
636,750,43,0.180092562408918,1
636,752,43,0.182481947475548,1
636,753,43,0.268042678990483,1
636,754,43,0.249638779924078,1
636,755,43,0.138015428732617,1
637,735,43,0.149599673658294,1
637,736,43,0.197425779355396,1
637,737,43,0.153153520039706,1
637,749,43,0.134927522331767,1
637,752,43,0.165412426366314,1
637,753,43,0.204167776832697,1
637,754,43,0.198847365015431,1
638,736,43,0.201546434586379,1
638,737,43,0.156891603734228,1
638,753,43,0.164982511823033,1
593,742,44,0.115861751542393,1
597,743,44,0.117989501723568,1
623,727,44,0.11569895990476,1
629,728,44,0.114631551753962,1
634,731,44,0.138223761516363,1
634,732,44,0.1299108830314,1
634,753,44,0.149919286061804,1
634,754,44,0.153303792867326,1
635,750,44,0.123882528386019,1
635,751,44,0.117147432152996,1
635,752,44,0.159399758508268,1
635,753,44,0.263175346814612,1
635,754,44,0.235428670435013,1
635,755,44,0.13396330309285,1
636,750,44,0.135107567080094,1
636,751,44,0.134651295907642,1
636,752,44,0.163817673648496,1
636,753,44,0.242986027547694,1
636,754,44,0.213824384107523,1
636,755,44,0.117810375570895,1
637,735,44,0.131806970454572,1
637,736,44,0.166256085813981,1
637,737,44,0.129178785848313,1
637,750,44,0.132542164953776,1
637,753,44,0.166315770977804,1
637,754,44,0.156113753421416,1
638,736,44,0.175102350398925,1
638,737,44,0.134573804120358,1
590,743,45,0.126251810340052,1
590,744,45,0.119977519373418,1
591,749,45,0.121526954705603,1
592,742,45,0.113988746779262,1
592,750,45,0.124769291168254,1
593,751,45,0.127519495897316,1
610,730,45,0.118226228534539,1
611,730,45,0.119489120906785,1
623,726,45,0.134144961272007,1
623,727,45,0.127005105884401,1
628,728,45,0.117818619378053,1
629,727,45,0.120796741821295,1
629,728,45,0.12723759302312,1
630,728,45,0.115281199088602,1
633,755,45,0.122149574129633,1
634,730,45,0.137172322797716,1
634,731,45,0.131343008987728,1
634,753,45,0.131570726495163,1
634,754,45,0.139341939742386,1
635,731,45,0.123125852880735,1
635,752,45,0.138177301774595,1
635,753,45,0.219230201766945,1
635,754,45,0.196650084209312,1
636,751,45,0.11768854387797,1
636,752,45,0.147642405409143,1
636,753,45,0.199730983374078,1
636,754,45,0.167016471032486,1
637,736,45,0.119358480117068,1
637,751,45,0.126211133040162,1
638,736,45,0.132053719379674,1
589,743,46,0.143505533431794,1
589,744,46,0.138403193867587,1
590,742,46,0.132747683066221,1
590,743,46,0.166152437604272,1
590,744,46,0.136946454258459,1
590,749,46,0.132797075247964,1
591,742,46,0.13152782336734,1
591,743,46,0.141372354114762,1
591,749,46,0.12085489599236,1
591,750,46,0.1432359727146,1
592,750,46,0.117605234318206,1
592,751,46,0.137390395050776,1
598,733,46,0.114497896086198,1
610,729,46,0.1174344932951,1
611,729,46,0.126901563666499,1
622,726,46,0.133765121968776,1
622,727,46,0.117322353964018,1
623,726,46,0.144696386706347,1
623,727,46,0.125652591551483,1
628,728,46,0.114949444734836,1
629,727,46,0.129610808450854,1
629,728,46,0.127196927500097,1
630,727,46,0.148014000905217,1
630,728,46,0.122039213105524,1
631,728,46,0.133199749897023,1
633,729,46,0.129525991452067,1
634,730,46,0.147245607416901,1
634,731,46,0.116204034415587,1
635,731,46,0.117226325387497,1
635,753,46,0.153888643877706,1
635,754,46,0.143397763318506,1
636,752,46,0.12266064306595,1
636,753,46,0.147154937315033,1
589,742,47,0.123464897115402,1
589,743,47,0.150504078187847,1
589,744,47,0.135589794468226,1
590,742,47,0.173569520449729,1
590,743,47,0.200010024469504,1
590,744,47,0.143671363501208,1
590,749,47,0.129906195838187,1
590,750,47,0.141762333300798,1
591,742,47,0.161481449361166,1
591,743,47,0.167107035142549,1
591,749,47,0.115038477852141,1
591,750,47,0.138367191984042,1
591,751,47,0.143187322475501,1
592,751,47,0.124682260118402,1
611,727,47,0.117358296963226,1
611,728,47,0.119910167468938,1
613,727,47,0.116508207345976,1
621,726,47,0.128991262789207,1
622,726,47,0.141497495107418,1
622,727,47,0.115702010113408,1
623,726,47,0.130578160336491,1
629,726,47,0.123402102858594,1
629,727,47,0.132305273266662,1
629,728,47,0.11809555241422,1
630,727,47,0.151165961687684,1
630,728,47,0.1267001792345,1
631,727,47,0.167086649385134,1
631,728,47,0.151684980009474,1
632,728,47,0.176188636868115,1
632,729,47,0.118010711861698,1
633,728,47,0.154262135449426,1
633,729,47,0.13741221758601,1
634,729,47,0.156740906939382,1
634,730,47,0.145806745092438,1
635,730,47,0.13423167434644,1
638,734,47,0.122794251626244,1
638,735,47,0.115403996484652,1
639,741,47,0.120145221964743,1
589,742,48,0.134367426296595,1
589,743,48,0.148154758024004,1
589,744,48,0.125974877303885,1
589,748,48,0.12461084519468,1
589,749,48,0.128676667331196,1
590,741,48,0.124735986187336,1
590,742,48,0.202590948507014,1
590,743,48,0.206798846771461,1
590,744,48,0.138036156019185,1
590,749,48,0.120609513183873,1
590,750,48,0.139607378556002,1
590,751,48,0.149568959588198,1
591,741,48,0.120622703275326,1
591,742,48,0.181133602153678,1
591,743,48,0.17724486877178,1
591,744,48,0.117031771538571,1
591,750,48,0.128014889823166,1
591,751,48,0.137552244539019,1
591,752,48,0.120211490397425,1
593,754,48,0.118286396549924,1
597,734,48,0.116525448679804,1
603,733,48,0.11549565584338,1
605,728,48,0.114668460456294,1
612,727,48,0.120591859659688,1
620,726,48,0.117751950531881,1
621,725,48,0.132918376981858,1
621,726,48,0.148059777588678,1
621,727,48,0.121893203503891,1
622,725,48,0.131000679007065,1
622,726,48,0.135749712550221,1
629,726,48,0.123781247326651,1
629,727,48,0.13470379718237,1
630,727,48,0.154607303655125,1
630,728,48,0.138136224061214,1
631,727,48,0.169101365193308,1
631,728,48,0.172838954259401,1
632,728,48,0.186960937449948,1
632,729,48,0.12900995267772,1
633,728,48,0.158967912558738,1
633,729,48,0.144005343682907,1
634,729,48,0.162824389100914,1
634,730,48,0.138992520087567,1
635,730,48,0.128780445086446,1
638,734,48,0.12733913317357,1
638,735,48,0.118615677761543,1
639,740,48,0.128898107768323,1
639,741,48,0.151515593326115,1
639,750,48,0.130587181416895,1
588,745,49,0.114666364173903,1
588,746,49,0.12789444780059,1
588,748,49,0.163894576592411,1
589,742,49,0.134495240638144,1
589,743,49,0.139690758776969,1
589,744,49,0.119011851579815,1
589,748,49,0.129304810106022,1
589,749,49,0.129482099067385,1
589,750,49,0.129337455582367,1
590,741,49,0.13485747352466,1
590,742,49,0.197851984185457,1
590,743,49,0.184150800242848,1
590,744,49,0.126337110190401,1
590,750,49,0.131223096924184,1
590,751,49,0.160608500844354,1
591,741,49,0.130764234840911,1
591,742,49,0.182390629645974,1
591,743,49,0.168520612532773,1
591,744,49,0.113929991987962,1
591,750,49,0.115387073126244,1
591,751,49,0.129762435618221,1
591,752,49,0.118208198150598,1
592,742,49,0.118588178776238,1
594,755,49,0.132832076097783,1
597,734,49,0.125743497190699,1
603,728,49,0.135969457118447,1
604,728,49,0.128087941731452,1
605,728,49,0.115990790678148,1
605,729,49,0.116416689309657,1
605,730,49,0.122450166892343,1
612,726,49,0.136296053204307,1
618,726,49,0.118409358822117,1
619,726,49,0.121531618345081,1
619,727,49,0.115163383307449,1
620,726,49,0.133927195217499,1
620,727,49,0.128668223317293,1
621,725,49,0.140182207452251,1
621,726,49,0.158667414010967,1
621,727,49,0.139728362314477,1
621,728,49,0.118196703928047,1
622,725,49,0.127438718364037,1
622,726,49,0.133041763221277,1
622,727,49,0.123078038799219,1
622,728,49,0.121215845200333,1
623,728,49,0.120619158438248,1
624,728,49,0.114810171501338,1
626,727,49,0.115242912492788,1
627,727,49,0.117365598620995,1
628,726,49,0.113759180303651,1
628,727,49,0.119705143984923,1
629,726,49,0.12826811602532,1
629,727,49,0.138975219869403,1
629,728,49,0.116349631826862,1
630,726,49,0.132028057585678,1
630,727,49,0.162837638076704,1
630,728,49,0.15866717847362,1
631,727,49,0.173977518242839,1
631,728,49,0.19530394116164,1
631,729,49,0.13782799988845,1
632,727,49,0.168404245306306,1
632,728,49,0.190593759503932,1
632,729,49,0.148393875539051,1
633,728,49,0.164447241424274,1
633,729,49,0.155293341509934,1
633,730,49,0.11749570945168,1
634,729,49,0.162730598129193,1
634,730,49,0.135340148433752,1
635,729,49,0.137694285336349,1
635,730,49,0.123012535862917,1
638,734,49,0.117358897583462,1
639,736,49,0.12625960662625,1
639,737,49,0.11670983909219,1
639,740,49,0.133716978134974,1
639,741,49,0.164933626046587,1
639,750,49,0.132874814349463,1
639,751,49,0.14817522621949,1
640,740,49,0.120851822229977,1
640,741,49,0.135870896515442,1
640,748,49,0.115034367725429,1
640,750,49,0.213051586070811,1
587,745,50,0.116116944481398,1
587,746,50,0.155531340222581,1
588,745,50,0.116175875925709,1
588,746,50,0.136420699568533,1
588,747,50,0.15076818621545,1
588,748,50,0.150102416349382,1
588,749,50,0.119289137922003,1
589,742,50,0.12459097761943,1
589,743,50,0.128620703657462,1
589,744,50,0.115224128389335,1
589,747,50,0.119490027725572,1
589,748,50,0.132928516864663,1
589,749,50,0.120387954978072,1
589,750,50,0.121569068783312,1
589,751,50,0.157782476643174,1
590,741,50,0.128259342259131,1
590,742,50,0.164318720470683,1
590,743,50,0.148901682283107,1
590,750,50,0.120233772230486,1
590,751,50,0.160612269441912,1
590,752,50,0.156097136261559,1
591,741,50,0.127389491058437,1
591,742,50,0.163227994122495,1
591,743,50,0.144172233670384,1
591,751,50,0.116511163339686,1
593,755,50,0.138641769646735,1
594,755,50,0.130473028241493,1
594,756,50,0.148297705640121,1
602,728,50,0.142509245783034,1
603,728,50,0.128771706650859,1
603,729,50,0.120592130527638,1
603,732,50,0.121785186076389,1
604,728,50,0.125099443868058,1
604,730,50,0.120899966063779,1
605,727,50,0.155377039706321,1
605,728,50,0.115697570234411,1
617,726,50,0.11707706537047,1
618,726,50,0.14224030923981,1
618,727,50,0.118894648195765,1
619,726,50,0.139555183479825,1
619,727,50,0.133072736382455,1
620,726,50,0.139273763457191,1
620,727,50,0.142752779623344,1
620,728,50,0.114177047111615,1
621,725,50,0.131953957536196,1
621,726,50,0.151637707663858,1
621,727,50,0.151054222770093,1
621,728,50,0.130746734416001,1
622,725,50,0.120973159294473,1
622,726,50,0.129960251659408,1
622,727,50,0.135878904785252,1
622,728,50,0.131347601966002,1
623,727,50,0.117332552731159,1
623,728,50,0.122227254346795,1
624,728,50,0.117596648981895,1
625,727,50,0.120940219396444,1
625,728,50,0.116958625415347,1
626,726,50,0.12145970879293,1
626,727,50,0.141146779997189,1
626,728,50,0.126136291048036,1
627,725,50,0.114298549052254,1
627,726,50,0.129246891472304,1
627,727,50,0.150480512676243,1
627,728,50,0.12845804156537,1
628,726,50,0.128834088717309,1
628,727,50,0.137206098853329,1
629,726,50,0.129899742114869,1
629,727,50,0.139705939159007,1
629,728,50,0.119075423109869,1
630,726,50,0.139832552260084,1
630,727,50,0.168853509242674,1
630,728,50,0.170905369290528,1
630,729,50,0.120696049605296,1
631,726,50,0.150225084199891,1
631,727,50,0.182006691992898,1
631,728,50,0.206595954900439,1
631,729,50,0.159890794993192,1
632,727,50,0.173119479240115,1
632,728,50,0.192261340369556,1
632,729,50,0.1693311554294,1
633,728,50,0.173077353385538,1
633,729,50,0.167401562818564,1
633,730,50,0.125443163519071,1
634,728,50,0.15795085051594,1
634,729,50,0.158750806008803,1
634,730,50,0.131671595364173,1
635,729,50,0.133251556336576,1
635,730,50,0.117751043713094,1
639,735,50,0.127207856433015,1
639,736,50,0.13092668494939,1
639,737,50,0.117874547721186,1
639,740,50,0.121795149306182,1
639,741,50,0.159060042992161,1
639,742,50,0.122365785637649,1
639,750,50,0.136762428928961,1
639,751,50,0.168282696258197,1
640,736,50,0.147898069422843,1
640,740,50,0.132775923994171,1
640,741,50,0.164204826386363,1
640,742,50,0.144650174278794,1
640,743,50,0.121460203421359,1
640,744,50,0.117800694985919,1
640,745,50,0.120820531093379,1
640,746,50,0.132534156683966,1
640,747,50,0.121426250712736,1
640,750,50,0.203998213496328,1
641,740,50,0.126617741162921,1
641,741,50,0.131604702757521,1
641,742,50,0.129376425236489,1
586,746,51,0.166715807608572,1
587,745,51,0.132679695210904,1
587,746,51,0.17327604091491,1
587,747,51,0.174243004163923,1
588,743,51,0.117792922253456,1
588,744,51,0.121112691619054,1
588,745,51,0.126579654773852,1
588,746,51,0.163333715060861,1
588,747,51,0.177254737786635,1
588,748,51,0.150498790374399,1
589,742,51,0.113763066669883,1
589,743,51,0.121674589514932,1
589,744,51,0.115494548817847,1
589,746,51,0.136830039924523,1
589,747,51,0.157478433258326,1
589,748,51,0.142930421890728,1
589,750,51,0.114430214429432,1
589,751,51,0.158886287091008,1
590,741,51,0.114933604848225,1
590,742,51,0.131932653183127,1
590,743,51,0.122384028005202,1
590,750,51,0.117868164659072,1
590,751,51,0.156835887374708,1
590,752,51,0.160129688747759,1
591,741,51,0.123807391972209,1
591,742,51,0.144254495088952,1
591,743,51,0.120302384259774,1
593,734,51,0.115488613276694,1
593,755,51,0.136655106336633,1
594,755,51,0.121329727507785,1
594,756,51,0.129815466851981,1
600,733,51,0.117507074128691,1
601,728,51,0.162246144913128,1
602,728,51,0.144809821492839,1
602,729,51,0.142017926653293,1
602,732,51,0.139375303607641,1
603,728,51,0.127344303218345,1
603,729,51,0.114196796918192,1
603,730,51,0.128992275599801,1
603,731,51,0.13756781355768,1
603,732,51,0.117532429724135,1
604,727,51,0.185923489649735,1
604,728,51,0.12575928996984,1
605,727,51,0.16717630667641,1
605,728,51,0.121482756122369,1
606,727,51,0.131461213405504,1
611,726,51,0.130241707012644,1
612,726,51,0.135906356663088,1
613,726,51,0.120746937449195,1
616,726,51,0.117867611146306,1
617,726,51,0.135791614644318,1
618,725,51,0.115204449243963,1
618,726,51,0.159627723329918,1
618,727,51,0.137190400289127,1
619,726,51,0.154837718065187,1
619,727,51,0.148840748771343,1
620,726,51,0.141216711035622,1
620,727,51,0.15475804755744,1
620,728,51,0.123090121865139,1
621,726,51,0.13592021803598,1
621,727,51,0.156803712973058,1
621,728,51,0.13727800840548,1
622,726,51,0.127954627592842,1
622,727,51,0.143394136043357,1
622,728,51,0.131644461461756,1
623,725,51,0.127435491502378,1
623,726,51,0.13024382684877,1
623,727,51,0.1306426504622,1
623,728,51,0.117991915981379,1
624,725,51,0.119693084472737,1
624,726,51,0.12360488873781,1
624,727,51,0.12636646992075,1
624,728,51,0.116669715305066,1
625,726,51,0.114714555115174,1
625,727,51,0.135064051555168,1
625,728,51,0.125560920415887,1
626,726,51,0.13498743125607,1
626,727,51,0.165986477989318,1
626,728,51,0.13832983576075,1
627,725,51,0.146284108634347,1
627,726,51,0.166022420988526,1
627,727,51,0.187819529965438,1
627,728,51,0.13964130771089,1
628,725,51,0.16438379943976,1
628,726,51,0.154347046663152,1
628,727,51,0.157100678460618,1
628,728,51,0.117007051893965,1
629,726,51,0.131875111409165,1
629,727,51,0.13840425378565,1
629,728,51,0.120755852537792,1
630,726,51,0.152674672612509,1
630,727,51,0.171008357995664,1
630,728,51,0.171689579111719,1
630,729,51,0.125031491343343,1
631,726,51,0.189577415850043,1
631,727,51,0.198336036988031,1
631,728,51,0.211908617538978,1
631,729,51,0.17762149299022,1
632,727,51,0.192053137131351,1
632,728,51,0.207859141694369,1
632,729,51,0.200368936279422,1
632,730,51,0.127695854486157,1
633,727,51,0.194584374565434,1
633,728,51,0.201658573917461,1
633,729,51,0.195028809986181,1
633,730,51,0.141666752245236,1
634,727,51,0.19641461752315,1
634,728,51,0.183335723252285,1
634,729,51,0.166466538433854,1
634,730,51,0.138139792452027,1
635,726,51,0.221645307511908,1
635,727,51,0.201895171182891,1
635,729,51,0.132738626655215,1
635,730,51,0.122119861093263,1
636,726,51,0.242661951711452,1
636,727,51,0.228113398607955,1
639,735,51,0.128441094653227,1
639,736,51,0.143478046223356,1
639,737,51,0.128048548110105,1
639,741,51,0.145358446859194,1
639,742,51,0.132321407574956,1
639,750,51,0.144020476957476,1
639,751,51,0.193999264463972,1
639,752,51,0.173662581255674,1
640,736,51,0.158298303433908,1
640,738,51,0.142314432843026,1
640,739,51,0.136419274567582,1
640,740,51,0.164611469839725,1
640,741,51,0.210269277601303,1
640,742,51,0.201570765594362,1
640,743,51,0.14978706717186,1
640,744,51,0.125317834096537,1
640,745,51,0.134600419840611,1
640,746,51,0.152510738618741,1
640,747,51,0.129892016489875,1
640,749,51,0.133512567048061,1
640,750,51,0.196395091477053,1
640,751,51,0.249321699547052,1
640,752,51,0.222545036625115,1
641,739,51,0.169389674683353,1
641,740,51,0.174163840061473,1
641,741,51,0.185884885078502,1
641,742,51,0.179720637160558,1
641,743,51,0.162663893952418,1
641,744,51,0.151846087555073,1
641,745,51,0.152480142317318,1
641,746,51,0.165311569274172,1
585,745,52,0.146488154638371,1
585,746,52,0.188941029268059,1
586,745,52,0.17086669405809,1
586,746,52,0.221887698996083,1
586,747,52,0.185430945725789,1
587,744,52,0.120808518688664,1
587,745,52,0.150653397089211,1
587,746,52,0.189774313295575,1
587,747,52,0.169610632268918,1
587,748,52,0.122731339600762,1
588,743,52,0.119246058141169,1
588,744,52,0.123835644677026,1
588,745,52,0.136284841626572,1
588,746,52,0.190232845626561,1
588,747,52,0.20516230972822,1
588,748,52,0.143761586082117,1
589,743,52,0.114075000555868,1
589,745,52,0.121105625498633,1
589,746,52,0.182509493568323,1
589,747,52,0.210181422170735,1
589,748,52,0.150499120126685,1
589,751,52,0.151300017768937,1
589,752,52,0.179004450525286,1
590,746,52,0.11890939283371,1
590,747,52,0.132695181791493,1
590,750,52,0.11819042685774,1
590,751,52,0.145166542805427,1
590,752,52,0.155375025862001,1
590,753,52,0.128990226424878,1
591,742,52,0.120811674889118,1
592,755,52,0.114706264200547,1
593,734,52,0.122159219384008,1
593,755,52,0.121293607855566,1
593,756,52,0.122450685074507,1
600,729,52,0.153919935014304,1
601,728,52,0.150166670937744,1
601,729,52,0.141247295560178,1
601,730,52,0.136662584647412,1
601,731,52,0.123739627877371,1
602,728,52,0.134985747164036,1
602,729,52,0.127665835251235,1
602,730,52,0.138095111017231,1
602,731,52,0.146699396308357,1
602,732,52,0.126637361423957,1
603,727,52,0.155016644011114,1
603,728,52,0.118839485349012,1
603,730,52,0.118464721875616,1
603,731,52,0.131787138209924,1
604,727,52,0.172835397645456,1
604,728,52,0.118461671666968,1
605,726,52,0.164529255528627,1
605,727,52,0.164756372415826,1
605,728,52,0.122470741079635,1
606,726,52,0.120171814131261,1
606,727,52,0.136480879360786,1
606,728,52,0.1164347550242,1
607,727,52,0.116323334082028,1
611,725,52,0.129775413726061,1
611,726,52,0.119922627394614,1
612,725,52,0.165910328764914,1
612,726,52,0.123937632348435,1
613,725,52,0.141755644040133,1
613,726,52,0.114198787208777,1
614,726,52,0.116203115819932,1
615,726,52,0.11916147667973,1
616,726,52,0.126757756339064,1
617,725,52,0.115155551690649,1
617,726,52,0.145134509726185,1
617,727,52,0.125686626698177,1
618,725,52,0.124049524365302,1
618,726,52,0.160754710652732,1
618,727,52,0.14520671370002,1
619,725,52,0.125446237281454,1
619,726,52,0.160447204868877,1
619,727,52,0.155098634561733,1
620,726,52,0.14540576631228,1
620,727,52,0.165549014474053,1
620,728,52,0.129060428331261,1
621,726,52,0.127678424722452,1
621,727,52,0.163914691481877,1
621,728,52,0.140496296504965,1
622,726,52,0.128470701697791,1
622,727,52,0.146226566860385,1
622,728,52,0.12576600278424,1
623,724,52,0.137129655207241,1
623,725,52,0.154194865983018,1
623,726,52,0.149674280113073,1
623,727,52,0.137114003750508,1
624,724,52,0.122318689945043,1
624,725,52,0.132511662867292,1
624,726,52,0.135591678767005,1
624,727,52,0.133966541731377,1
625,726,52,0.115305836295137,1
625,727,52,0.143917123169451,1
625,728,52,0.125326819846339,1
626,726,52,0.14710303666054,1
626,727,52,0.182221572714901,1
626,728,52,0.140376231342145,1
627,725,52,0.179727479520499,1
627,726,52,0.20452313202867,1
627,727,52,0.213026524897051,1
627,728,52,0.14024741596687,1
628,725,52,0.207681499426985,1
628,726,52,0.182064987486372,1
628,727,52,0.169076798647978,1
628,728,52,0.11674138931987,1
629,725,52,0.172581299955116,1
629,726,52,0.136916034610046,1
629,727,52,0.133423804798706,1
629,728,52,0.117608414072396,1
630,726,52,0.166567454410333,1
630,727,52,0.169706649068572,1
630,728,52,0.164095431065379,1
630,729,52,0.12500962170064,1
631,726,52,0.23340898478881,1
631,727,52,0.22295117367318,1
631,728,52,0.216166944349497,1
631,729,52,0.189338887178364,1
632,726,52,0.224360346515008,1
632,727,52,0.223525225296184,1
632,728,52,0.234104573683054,1
632,729,52,0.232560249511307,1
632,730,52,0.150974104741386,1
633,727,52,0.226304259796564,1
633,728,52,0.237779380269206,1
633,729,52,0.225883236788145,1
633,730,52,0.161015898017228,1
634,726,52,0.230492137386485,1
634,727,52,0.240550123854959,1
634,728,52,0.214570048241817,1
634,729,52,0.179493331843481,1
634,730,52,0.147622172751005,1
635,725,52,0.246864715261727,1
635,726,52,0.285499341060717,4
635,727,52,0.246836309457635,1
635,728,52,0.180150834348656,1
635,729,52,0.137951833648828,1
635,730,52,0.130502941484609,1
636,725,52,0.250444270544604,1
636,726,52,0.280873293343488,1
636,727,52,0.247354797820394,1
636,728,52,0.17342009555656,1
636,730,52,0.115049866082886,1
637,726,52,0.218248717640466,1
637,727,52,0.229650656659281,1
639,735,52,0.122459977022861,1
639,736,52,0.147249529113735,1
639,737,52,0.134875762999683,1
639,741,52,0.128334655325952,1
639,742,52,0.126014777330529,1
639,750,52,0.14282667946608,1
639,751,52,0.207433407939003,1
639,752,52,0.197422022534706,1
640,737,52,0.16656487527638,1
640,738,52,0.152669537898336,1
640,739,52,0.165741330718178,1
640,740,52,0.20133883196841,1
640,741,52,0.241897468143103,1
640,742,52,0.234252420475996,1
640,743,52,0.157867399633768,1
640,744,52,0.118915281267394,1
640,745,52,0.133252333609823,1
640,746,52,0.154063165275238,1
640,747,52,0.127976591450484,1
640,749,52,0.129419928984548,1
640,750,52,0.188314099510572,1
640,751,52,0.252798325009129,1
640,752,52,0.236215506497627,1
640,753,52,0.195984420335051,1
641,738,52,0.15746212229702,1
641,739,52,0.191117747663752,1
641,740,52,0.214662685080537,1
641,741,52,0.228793842450764,1
641,742,52,0.217826399176637,1
641,743,52,0.170969659209491,1
641,744,52,0.149940084009577,1
641,745,52,0.172288185503185,1
641,746,52,0.199057111023261,1
641,747,52,0.155266325376191,1
641,751,52,0.220740302362119,1
641,752,52,0.230978969529758,1
642,744,52,0.116245017914028,1
642,745,52,0.120443047163622,1
642,746,52,0.128778042605503,1
584,745,53,0.120887199939552,1
584,746,53,0.135876879164065,1
585,744,53,0.133439161833754,1
585,745,53,0.204920577748617,1
585,746,53,0.27070792539835,1
585,747,53,0.200959616839149,1
586,744,53,0.142089612444964,1
586,745,53,0.233901728919502,1
586,746,53,0.299380734627796,1
586,747,53,0.204493996058801,1
586,748,53,0.129017548757173,1
587,744,53,0.135157006369307,1
587,745,53,0.176672053719851,1
587,746,53,0.210244640394768,1
587,747,53,0.164839128462823,1
588,743,53,0.120990247529025,1
588,744,53,0.131817604965806,1
588,745,53,0.153869424030161,1
588,746,53,0.20999666667546,1
588,747,53,0.211022431823244,1
588,748,53,0.134233158231729,1
589,745,53,0.138257890877997,1
589,746,53,0.219203185633202,1
589,747,53,0.237630921079161,1
589,748,53,0.152371335839702,1
589,749,53,0.113840876432585,1
589,750,53,0.118580771126664,1
589,751,53,0.141131823375631,1
589,752,53,0.172129963290091,1
590,746,53,0.137643244393175,1
590,747,53,0.152512187173427,1
590,748,53,0.120725185575165,1
590,749,53,0.115881783993786,1
590,750,53,0.126762325763603,1
590,751,53,0.134625092377748,1
590,752,53,0.146137227544529,1
590,753,53,0.134810507377595,1
593,733,53,0.157798940703755,1
593,734,53,0.131647641215946,1
594,734,53,0.155789489155295,1
600,728,53,0.144867351489934,1
600,729,53,0.144155722502334,1
601,728,53,0.135032289343876,1
601,729,53,0.122554321507349,1
601,730,53,0.115926618527858,1
602,727,53,0.141058983450958,1
602,728,53,0.121975688682939,1
602,730,53,0.119295791852066,1
602,731,53,0.130063016604064,1
602,732,53,0.113803791077242,1
603,727,53,0.1346315696548,1
603,731,53,0.123855877335164,1
604,726,53,0.156611785365556,1
604,727,53,0.147930597130514,1
605,726,53,0.142845051379175,1
605,727,53,0.151952338452471,1
605,728,53,0.121183894559163,1
606,726,53,0.117544818988606,1
606,727,53,0.13685349944432,1
606,728,53,0.117860992546845,1
607,727,53,0.119044803254712,1
614,725,53,0.116103153769709,1
614,726,53,0.128959488801047,1
615,726,53,0.127930013940042,1
616,726,53,0.127722187561593,1
617,725,53,0.120340034904751,1
617,726,53,0.147160507773298,1
617,727,53,0.132010097862941,1
618,725,53,0.132166000033164,1
618,726,53,0.153559916178853,1
618,727,53,0.145202167829216,1
619,725,53,0.151280468169106,1
619,726,53,0.159408131860967,1
619,727,53,0.150685029754962,1
620,725,53,0.129243264197155,1
620,726,53,0.151210525353805,1
620,727,53,0.163927328060563,1
620,728,53,0.124383210125317,1
621,726,53,0.12932464235067,1
621,727,53,0.16066902216576,1
621,728,53,0.12973930585071,1
622,725,53,0.12087172513583,1
622,726,53,0.132202143239117,1
622,727,53,0.140964167891775,1
623,724,53,0.169540936767832,1
623,725,53,0.179575852353131,1
623,726,53,0.16177544707815,1
623,727,53,0.136315143506311,1
624,724,53,0.140620530678834,1
624,725,53,0.145679660916666,1
624,726,53,0.145748402491495,1
624,727,53,0.137273933609371,1
625,726,53,0.123784733279392,1
625,727,53,0.147633078130188,1
625,728,53,0.116769559586615,1
626,725,53,0.115168188269336,1
626,726,53,0.156411990810652,1
626,727,53,0.179112420845319,1
626,728,53,0.129401451079647,1
627,725,53,0.198314367552074,1
627,726,53,0.223455765332445,1
627,727,53,0.20727397270857,1
627,728,53,0.13029193535197,1
628,725,53,0.239105526196087,1
628,726,53,0.204920860393434,1
628,727,53,0.167013314832032,1
629,725,53,0.202455467424808,1
629,726,53,0.154446914498435,1
629,727,53,0.130288649605974,1
630,726,53,0.179438946269974,1
630,727,53,0.167678236763649,1
630,728,53,0.151447935223084,1
630,729,53,0.117981175478339,1
631,725,53,0.202983824802422,1
631,726,53,0.258965422928977,1
631,727,53,0.250590515683584,1
631,728,53,0.218957402411224,1
631,729,53,0.183641921803862,1
631,730,53,0.116103565960067,1
632,725,53,0.183277769287965,1
632,726,53,0.248415092743302,1
632,727,53,0.265825660154656,4
632,728,53,0.258230452190252,1
632,729,53,0.238935609553696,1
632,730,53,0.160412474887008,1
633,726,53,0.217502370447864,1
633,727,53,0.26032131722283,4
633,728,53,0.265541036824097,1
633,729,53,0.238195174348513,1
633,730,53,0.171186812866897,1
634,725,53,0.205618498462601,1
634,726,53,0.257318899102207,4
634,727,53,0.28043700751496,4
634,728,53,0.24459001332953,1
634,729,53,0.190392233749525,1
634,730,53,0.153922891008013,1
635,724,53,0.190183100138797,1
635,725,53,0.299615164949631,4
635,726,53,0.326891779445089,4
635,727,53,0.286533444230597,4
635,728,53,0.209228485170757,1
635,729,53,0.152182328895307,1
635,730,53,0.141207089334982,1
635,731,53,0.118699540834074,1
636,724,53,0.192652332366186,1
636,725,53,0.293041246923411,1
636,726,53,0.296611969555761,4
636,727,53,0.248902207531391,1
636,728,53,0.18029791564522,1
636,730,53,0.132079216297526,1
636,731,53,0.117916202501067,1
637,725,53,0.18813716385523,1
637,726,53,0.216030167811881,1
637,727,53,0.226752134062582,1
638,727,53,0.213331946175382,1
638,728,53,0.193006321445544,1
638,752,53,0.11995298815869,1
638,753,53,0.114952047422524,1
639,727,53,0.185360802703743,1
639,728,53,0.190170440006376,1
639,735,53,0.114121672281249,1
639,736,53,0.141397003098164,1
639,737,53,0.140654177188905,1
639,738,53,0.123167083693391,1
639,741,53,0.114218972759446,1
639,750,53,0.138266358445634,1
639,751,53,0.207299622725698,1
639,752,53,0.215805959810922,1
640,737,53,0.169725727593709,1
640,738,53,0.18022340340538,1
640,739,53,0.207501030711432,1
640,740,53,0.232778851723399,1
640,741,53,0.244914748670345,1
640,742,53,0.226531270691956,1
640,743,53,0.146373907248031,1
640,745,53,0.117603055597743,1
640,746,53,0.136214086207423,1
640,747,53,0.115141501887879,1
640,749,53,0.123699986941809,1
640,750,53,0.180813436237402,1
640,751,53,0.251421350122687,1
640,752,53,0.25173817140863,1
640,753,53,0.192815029788879,1
641,738,53,0.15727654242103,1
641,739,53,0.20828843206368,1
641,740,53,0.241298496668748,1
641,741,53,0.251011939105493,1
641,742,53,0.234621931466546,1
641,743,53,0.169910918833076,1
641,744,53,0.144529202297186,1
641,745,53,0.179341869552257,1
641,746,53,0.212358234781367,1
641,747,53,0.162600122215619,1
641,750,53,0.168285711136243,1
641,751,53,0.244282401553868,1
641,752,53,0.249322264836686,1
641,753,53,0.193069586777046,1
642,742,53,0.130217976624897,1
642,743,53,0.124048794199525,1
642,744,53,0.128399734295029,1
642,745,53,0.139465055113855,1
642,746,53,0.151629310757424,1
642,751,53,0.240999010931571,1
642,752,53,0.238055854007545,1
584,745,54,0.125081743236404,1
584,746,54,0.146458571147542,1
584,747,54,0.1180532616835,1
585,744,54,0.149696550169267,1
585,745,54,0.23975834150805,1
585,746,54,0.311959724432609,1
585,747,54,0.204740344570412,1
585,748,54,0.137311007187846,1
586,744,54,0.158952319986343,1
586,745,54,0.269545148175603,1
586,746,54,0.333350708138324,1
586,747,54,0.200890392412758,1
586,748,54,0.120132161418832,1
587,744,54,0.140936197831775,1
587,745,54,0.195531976644493,1
587,746,54,0.220339252920757,1
587,747,54,0.152537118801646,1
588,744,54,0.13018569623144,1
588,745,54,0.170713076600137,1
588,746,54,0.218629134010199,1
588,747,54,0.191715529674502,1
588,748,54,0.12049460628896,1
589,745,54,0.158804343647859,1
589,746,54,0.241155949466122,1
589,747,54,0.2310826059626,1
589,748,54,0.147089705246679,1
589,749,54,0.12522496172047,1
589,750,54,0.129048380595943,1
589,751,54,0.127294004217814,1
589,752,54,0.160901992156041,1
590,746,54,0.155412735391314,1
590,747,54,0.15855758294589,1
590,748,54,0.122400656941926,1
590,749,54,0.119905185854041,1
590,750,54,0.125616966527693,1
590,751,54,0.117834047074306,1
590,752,54,0.130155135260619,1
590,753,54,0.133134835804089,1
593,733,54,0.145320913982891,1
593,734,54,0.136090499761259,1
594,732,54,0.150025348529324,1
594,734,54,0.160072453172349,1
594,735,54,0.117830796658912,1
595,735,54,0.115921578028624,1
599,728,54,0.130863078088733,1
599,729,54,0.155430365361765,1
600,728,54,0.130070836443997,1
600,729,54,0.12982701995887,1
600,730,54,0.136426776432095,1
601,727,54,0.151907303711654,1
601,728,54,0.119289102591401,1
602,727,54,0.123667223696791,1
604,726,54,0.116299379933801,1
604,727,54,0.11855362544738,1
605,726,54,0.117884346074836,1
605,727,54,0.129890909464343,1
606,727,54,0.127494976459455,1
607,727,54,0.115434003942707,1
614,725,54,0.120233642684945,1
614,726,54,0.134266875403004,1
614,727,54,0.115339282598463,1
615,726,54,0.126939897369783,1
615,727,54,0.116498114570642,1
616,726,54,0.120334452669618,1
617,725,54,0.122108025341557,1
617,726,54,0.140496261174363,1
617,727,54,0.130522420423236,1
618,725,54,0.13705192788261,1
618,726,54,0.145817155843192,1
618,727,54,0.140640763336973,1
619,724,54,0.128683038616442,1
619,725,54,0.169118889171952,1
619,726,54,0.153937211678733,1
619,727,54,0.139330904817662,1
620,725,54,0.147951241979011,1
620,726,54,0.148724146007529,1
620,727,54,0.146782564545713,1
621,726,54,0.125833861094016,1
621,727,54,0.141902254262001,1
622,724,54,0.127596175080752,1
622,725,54,0.126271006633862,1
622,726,54,0.126826097500402,1
622,727,54,0.124505983967632,1
623,724,54,0.193676554744344,1
623,725,54,0.185111309768544,1
623,726,54,0.155029633895822,1
623,727,54,0.124154797782708,1
624,724,54,0.155266513806069,1
624,725,54,0.150273581339714,1
624,726,54,0.145702790684178,1
624,727,54,0.132164633916549,1
625,726,54,0.127768494204085,1
625,727,54,0.140513231640241,1
626,726,54,0.151138957330808,1
626,727,54,0.156412285232336,1
627,724,54,0.176309149551895,1
627,725,54,0.193491657926661,1
627,726,54,0.21286878553552,1
627,727,54,0.175820338894904,1
628,724,54,0.23629264497889,1
628,725,54,0.251672480042449,1
628,726,54,0.221659274876607,1
628,727,54,0.155171109403518,1
629,725,54,0.229842808027264,1
629,726,54,0.188734886981644,1
629,727,54,0.132375781371596,1
630,726,54,0.194186104464771,1
630,727,54,0.173059794076292,1
630,728,54,0.140695042918673,1
631,725,54,0.194159111884762,1
631,726,54,0.263946543197361,1
631,727,54,0.281542737592175,4
631,728,54,0.22026567105344,1
631,729,54,0.167870918090663,1
631,730,54,0.11460663190261,1
632,725,54,0.181967109941673,1
632,726,54,0.263076256252574,4
632,727,54,0.316611681258048,4
632,728,54,0.274691756984248,4
632,729,54,0.223240366428278,1
632,730,54,0.159327625195637,1
633,725,54,0.172124863906521,1
633,726,54,0.231309334213175,4
633,727,54,0.294011001289991,4
633,728,54,0.280843497869046,4
633,729,54,0.231416456598758,1
633,730,54,0.170727597477602,1
634,725,54,0.227274320361695,4
634,726,54,0.269340254237128,4
634,727,54,0.30881471200189,4
634,728,54,0.273036965796585,4
634,729,54,0.201229943052722,1
634,730,54,0.154262535862917,1
635,724,54,0.239146085727304,4
635,725,54,0.33042754833509,4
635,726,54,0.331818608354905,4
635,727,54,0.310988792379293,4
635,728,54,0.246976666162931,4
635,729,54,0.178254052090309,1
635,730,54,0.148785915676876,1
635,731,54,0.116893381570126,1
636,724,54,0.222012533790188,1
636,725,54,0.308351127394802,4
636,726,54,0.284770894706515,4
636,727,54,0.239716627843831,4
636,728,54,0.190636827507898,1
636,730,54,0.148900763687452,1
636,731,54,0.122397995369901,1
637,725,54,0.188428441115852,1
637,726,54,0.199964589315197,1
637,727,54,0.212895495470711,1
637,728,54,0.191043070547769,1
637,731,54,0.120600704087082,1
638,726,54,0.164879805762713,1
638,727,54,0.241760244084527,1
638,728,54,0.238019157288826,1
638,729,54,0.160543904726839,1
638,752,54,0.123322856318073,1
638,753,54,0.127941896799217,1
639,726,54,0.14120727776486,1
639,727,54,0.214456307256774,1
639,728,54,0.217463412570609,1
639,729,54,0.145799596533945,1
639,736,54,0.122131484861355,1
639,737,54,0.129784222822853,1
639,738,54,0.128334207804992,1
639,739,54,0.117432161475361,1
639,750,54,0.13074593358902,1
639,751,54,0.198132344290028,1
639,752,54,0.222038442898398,1
640,727,54,0.141311514817937,1
640,728,54,0.140770214663086,1
640,736,54,0.130085510420738,1
640,737,54,0.1580615177386,1
640,738,54,0.190116702160575,1
640,739,54,0.218027736501166,1
640,740,54,0.225769213158284,1
640,741,54,0.213355806108671,1
640,742,54,0.185481268280054,1
640,743,54,0.122186600600639,1
640,749,54,0.115941681141222,1
640,750,54,0.174012766406872,1
640,751,54,0.25357837759614,1
640,752,54,0.268159905928268,1
640,753,54,0.195576422541942,1
641,737,54,0.117940274417968,1
641,738,54,0.148095638149815,1
641,739,54,0.194999391371494,1
641,740,54,0.228011410936545,1
641,741,54,0.233661268841575,1
641,742,54,0.215001623323398,1
641,743,54,0.154455005206318,1
641,744,54,0.133441682083371,1
641,745,54,0.167776090754613,1
641,746,54,0.197252541636408,1
641,747,54,0.154688811354181,1
641,750,54,0.188309094341941,1
641,751,54,0.27858346991359,1
641,752,54,0.269652247007451,1
641,753,54,0.184019346849283,1
642,741,54,0.129870771021143,1
642,742,54,0.130775034228287,1
642,743,54,0.124448065333915,1
642,745,54,0.152479718350093,1
642,746,54,0.170514436178235,1
642,750,54,0.185681581017122,1
642,751,54,0.277126671420124,1
642,752,54,0.252467183052466,1
642,753,54,0.169204047699893,1
643,751,54,0.194504103437451,1
643,752,54,0.202389917381036,1
584,745,55,0.118216854148114,1
584,746,55,0.139609521945863,1
585,744,55,0.155750943468399,1
585,745,55,0.238753044555752,1
585,746,55,0.290600561822524,1
585,747,55,0.188892025722939,1
586,744,55,0.173033696538204,1
586,745,55,0.279923795188782,1
586,746,55,0.317820176279919,1
586,747,55,0.187375494958182,1
587,744,55,0.147824946853353,1
587,745,55,0.217416776175831,1
587,746,55,0.22936716390799,1
587,747,55,0.148860757669002,1
588,744,55,0.128083289868841,1
588,745,55,0.185802470560658,1
588,746,55,0.21378837044711,1
588,747,55,0.163539810239807,1
588,748,55,0.114486672731596,1
588,749,55,0.116531607981437,1
588,750,55,0.120864376370592,1
589,745,55,0.173775226992052,1
589,746,55,0.226696853447155,1
589,747,55,0.189788504420753,1
589,748,55,0.136018554878506,1
589,749,55,0.13679094072486,1
589,750,55,0.134279511981691,1
589,751,55,0.116622089653428,1
589,752,55,0.145595362100043,1
590,745,55,0.126308186204144,1
590,746,55,0.161237173578212,1
590,747,55,0.14572761632059,1
590,748,55,0.117339995711336,1
590,749,55,0.118049363540401,1
590,750,55,0.116123256882307,1
590,752,55,0.115012486305859,1
590,753,55,0.127149831807491,1
593,733,55,0.127889772384245,1
593,734,55,0.131740819790564,1
594,732,55,0.136211660172745,1
594,733,55,0.16258481228804,1
594,734,55,0.156519819808276,1
594,735,55,0.125776236881983,1
595,734,55,0.145206171964121,1
595,735,55,0.124113979160409,1
596,734,55,0.152957164330073,1
598,729,55,0.12115168482691,1
599,729,55,0.121992894686164,1
599,730,55,0.155411157291087,1
606,727,55,0.114865487447367,1
614,725,55,0.117417605267293,1
614,726,55,0.124655185100322,1
615,726,55,0.117718798650239,1
617,725,55,0.119307886694853,1
617,726,55,0.123539126710425,1
617,727,55,0.113982081072332,1
618,725,55,0.135183186345467,1
618,726,55,0.134034871115848,1
618,727,55,0.123627076355932,1
619,724,55,0.131549822555584,1
619,725,55,0.165038145744481,1
619,726,55,0.143666158125831,1
619,727,55,0.122111523071166,1
620,724,55,0.11956875608393,1
620,725,55,0.153857870923272,1
620,726,55,0.140387537134818,1
620,727,55,0.123659980923359,1
621,725,55,0.12275663631187,1
621,726,55,0.122672066627297,1
621,727,55,0.117522525378678,1
622,724,55,0.141062127874545,1
622,725,55,0.132314211908994,1
622,726,55,0.118976426762771,1
623,724,55,0.192897597405999,1
623,725,55,0.171247039766618,1
623,726,55,0.139630661422789,1
624,724,55,0.159994796508922,1
624,725,55,0.151504758608136,1
624,726,55,0.144187849796515,1
624,727,55,0.123713495008681,1
625,726,55,0.133164925700215,1
625,727,55,0.12783005188982,1
626,726,55,0.136135558055811,1
626,727,55,0.126752468525615,1
627,725,55,0.171512725894448,1
627,726,55,0.176253986705142,1
627,727,55,0.136670404487344,1
628,725,55,0.239158427884306,1
628,726,55,0.215896359044841,1
628,727,55,0.139914483926366,1
629,725,55,0.242897300628941,1
629,726,55,0.221078675315347,1
629,727,55,0.145063448108484,1
630,726,55,0.210956363597307,1
630,727,55,0.188954125144573,1
630,728,55,0.144677767479038,1
631,725,55,0.178484890467596,1
631,726,55,0.253002724319175,1
631,727,55,0.294731533589322,4
631,728,55,0.22024060987968,1
631,729,55,0.156005323803555,1
631,730,55,0.114192816337021,1
632,725,55,0.176474296563001,1
632,726,55,0.267005890694843,4
632,727,55,0.344409634118169,4
632,728,55,0.276079001299036,4
632,729,55,0.200730321231487,1
632,730,55,0.157090644569621,1
633,725,55,0.180217526748563,1
633,726,55,0.243184844622607,4
633,727,55,0.313892308367756,4
633,728,55,0.285567364246637,4
633,729,55,0.217754701608098,1
633,730,55,0.170703419568895,1
633,731,55,0.115758374200633,1
634,724,55,0.19222252381471,1
634,725,55,0.241677311384519,4
634,726,55,0.267211161493073,4
634,727,55,0.313805018226822,4
634,728,55,0.295673989177342,4
634,729,55,0.216778870377956,1
634,730,55,0.159536864798171,1
635,723,55,0.158163010781581,1
635,724,55,0.278117459271824,4
635,725,55,0.328708926526291,4
635,726,55,0.303757890030062,4
635,727,55,0.305659312374152,4
635,728,55,0.280206510666827,4
635,729,55,0.213038584409237,1
635,730,55,0.162143038439318,1
635,731,55,0.115689985931825,1
636,724,55,0.239347729250384,1
636,725,55,0.287949565424173,4
636,726,55,0.252588790984912,4
636,727,55,0.225354643873184,4
636,728,55,0.204901899636971,1
636,730,55,0.163763205636917,1
636,731,55,0.12598094239058,1
637,725,55,0.17960879225116,1
637,726,55,0.18273809434081,1
637,727,55,0.200258257279894,1
637,728,55,0.201487715125681,1
637,731,55,0.134151674086407,1
638,726,55,0.159083914702317,1
638,727,55,0.252809937000355,1
638,728,55,0.268015969055292,1
638,729,55,0.166953747436883,1
638,752,55,0.125165123457372,1
639,726,55,0.137098446508715,1
639,727,55,0.22751089407339,1
639,728,55,0.231999175996144,1
639,729,55,0.136216841994387,1
639,738,55,0.118093397247492,1
639,750,55,0.128582782144536,1
639,751,55,0.187900601920402,1
639,752,55,0.219421552307946,1
640,727,55,0.140326780276065,1
640,728,55,0.13360704107809,1
640,737,55,0.132329227414889,1
640,738,55,0.175013164182344,1
640,739,55,0.199142234220599,1
640,740,55,0.191210490494278,1
640,741,55,0.165703173667904,1
640,742,55,0.135513621690088,1
640,750,55,0.176080065927846,1
640,751,55,0.2562026640593,1
640,752,55,0.274932429045787,1
640,753,55,0.207033394861969,1
641,738,55,0.134916558068247,1
641,739,55,0.170077125762246,1
641,740,55,0.195092593499848,1
641,741,55,0.194373804176887,1
641,742,55,0.174229884733675,1
641,743,55,0.130331858932349,1
641,744,55,0.118805332433643,1
641,745,55,0.144840665108477,1
641,746,55,0.165475208846255,1
641,750,55,0.206239798877486,1
641,751,55,0.29343586619519,1
641,752,55,0.275233916850417,1
641,753,55,0.1799831788648,1
642,742,55,0.121907418182805,1
642,750,55,0.201792406238235,1
642,751,55,0.276522235479311,1
642,752,55,0.245401910565904,1
642,753,55,0.165822744202295,1
643,751,55,0.219172141810819,1
643,752,55,0.227331626598309,1
584,746,56,0.120554727196876,1
585,745,56,0.206281653864113,1
585,746,56,0.225997495955353,1
585,747,56,0.156196615460219,1
586,744,56,0.173041033526574,1
586,745,56,0.267718862245323,1
586,746,56,0.273254319660736,1
586,747,56,0.16995399861391,1
587,744,56,0.147556210516874,1
587,745,56,0.233544348102342,1
587,746,56,0.23601805553933,1
587,747,56,0.155525663772509,1
588,744,56,0.118982574287537,1
588,745,56,0.187987314994835,1
588,746,56,0.197547717040128,1
588,747,56,0.142823063967798,1
588,749,56,0.125781560026033,1
588,750,56,0.125975089287498,1
589,745,56,0.175743907025683,1
589,746,56,0.191943270735672,1
589,747,56,0.145845196564396,1
589,748,56,0.122040755875149,1
589,749,56,0.136050835271963,1
589,750,56,0.126360946569954,1
589,752,56,0.126690757740605,1
590,745,56,0.140842230207043,1
590,746,56,0.15345015577498,1
590,747,56,0.12280733572589,1
590,753,56,0.121600230374369,1
592,755,56,0.120792007520613,1
593,734,56,0.11488937093439,1
593,737,56,0.126710707753927,1
593,738,56,0.137625414215979,1
594,733,56,0.137588246422565,1
594,734,56,0.139288531648871,1
594,735,56,0.126316806871058,1
594,736,56,0.121881862380616,1
594,737,56,0.123560607716505,1
595,731,56,0.123205700041492,1
595,733,56,0.133995453940766,1
595,734,56,0.129978694233707,1
595,735,56,0.125018242367554,1
596,730,56,0.115462162432585,1
596,734,56,0.142235845807077,1
598,734,56,0.142847771835537,1
599,730,56,0.11400889699933,1
599,733,56,0.115858383358325,1
618,725,56,0.120417043840472,1
619,725,56,0.136635945373425,1
619,726,56,0.121047636203711,1
620,724,56,0.113901409530859,1
620,725,56,0.136395449964896,1
620,726,56,0.118670487302276,1
621,724,56,0.123029235460845,1
621,725,56,0.13146942188206,1
622,724,56,0.144626055254424,1
622,725,56,0.132282449697702,1
623,724,56,0.167543956921915,1
623,725,56,0.144644380060049,1
623,726,56,0.118432288382883,1
624,724,56,0.146425183728552,1
624,725,56,0.141641596856537,1
624,726,56,0.134895312599515,1
625,724,56,0.114035006314285,1
625,725,56,0.123048290432247,1
625,726,56,0.129704363885228,1
626,724,56,0.12445314116375,1
626,725,56,0.115789700667833,1
626,726,56,0.115484090959624,1
627,725,56,0.149377267518043,1
627,726,56,0.134030030823359,1
628,725,56,0.215594329504313,1
628,726,56,0.191013899247298,1
628,727,56,0.12514562096501,1
629,726,56,0.235366182376756,1
629,727,56,0.161274600462708,1
629,728,56,0.114532131439638,1
630,726,56,0.226256775467334,1
630,727,56,0.207468950524721,1
630,728,56,0.155125426934996,1
631,725,56,0.169482287968338,1
631,726,56,0.236899459846912,1
631,727,56,0.282459472501863,4
631,728,56,0.20944426093468,1
631,729,56,0.146518939369672,1
631,730,56,0.113997332115574,1
632,725,56,0.166307385848238,1
632,726,56,0.2606201199017,4
632,727,56,0.338259871747088,4
632,728,56,0.256684479257074,4
632,729,56,0.176016706381404,1
632,730,56,0.152464302430708,1
632,731,56,0.12030137144918,1
633,725,56,0.180720434315794,1
633,726,56,0.251543664667174,4
633,727,56,0.31693714676464,4
633,728,56,0.27501274728124,4
633,729,56,0.198233083613497,1
633,730,56,0.164140501136797,1
633,731,56,0.144308539133305,1
634,724,56,0.203953696937675,1
634,725,56,0.238765080514203,1
634,726,56,0.252614511663244,4
634,727,56,0.296321481345254,4
634,728,56,0.300598321391276,4
634,729,56,0.230621329621516,1
634,730,56,0.160688783749204,1
634,731,56,0.128260802590685,1
635,723,56,0.18850398972002,1
635,724,56,0.29575781691927,1
635,725,56,0.300189876077206,4
635,726,56,0.258043741734995,4
635,727,56,0.272826371854305,4
635,728,56,0.287704323938094,1
635,729,56,0.242200840246512,1
635,730,56,0.171793863272266,1
635,731,56,0.118720468327387,1
636,724,56,0.239359718101365,1
636,725,56,0.24519155216097,1
636,726,56,0.215511349696835,1
636,727,56,0.213768302665115,1
636,728,56,0.215259866471051,1
636,731,56,0.130590478939758,1
637,727,56,0.19823956089055,1
637,728,56,0.211098204187892,1
637,729,56,0.165990953198918,1
638,726,56,0.150787865360822,1
638,727,56,0.237354965522985,1
638,728,56,0.265052273274576,1
638,729,56,0.160201975159666,1
639,726,56,0.125887328071869,1
639,727,56,0.205286131711731,1
639,728,56,0.215110300255473,1
639,729,56,0.12117092822819,1
639,750,56,0.131236604991055,1
639,751,56,0.180017967731007,1
639,752,56,0.211092621952759,1
639,753,56,0.222288230255281,1
639,754,56,0.224566700785037,1
640,727,56,0.125144961460437,1
640,728,56,0.118091866254734,1
640,738,56,0.143267935132638,1
640,739,56,0.160918797745776,1
640,740,56,0.146055154555839,1
640,741,56,0.120055670665274,1
640,750,56,0.184861828610213,1
640,751,56,0.251297669461584,1
640,752,56,0.258416102727447,1
640,753,56,0.206425072554924,1
641,742,56,0.128809333742101,1
641,750,56,0.217684158172562,1
641,751,56,0.283295088349117,1
641,752,56,0.258614401620195,1
641,753,56,0.171321575560193,1
642,750,56,0.208404481314728,1
642,751,56,0.253572324286312,1
642,752,56,0.22712889960343,1
643,751,56,0.234997684196801,1
585,745,57,0.167055994199375,1
585,746,57,0.16426686692366,1
586,744,57,0.1574824845007,1
586,745,57,0.237947271290409,1
586,746,57,0.223489023205893,1
586,747,57,0.15449253808262,1
587,744,57,0.140021335443999,1
587,745,57,0.227863752573481,1
587,746,57,0.228249256549917,1
587,747,57,0.169688124056202,1
588,745,57,0.177000899187377,1
588,746,57,0.18030350965722,1
588,747,57,0.145012501380249,1
588,748,57,0.132190331041147,1
588,749,57,0.140097649544546,1
589,745,57,0.160580000825323,1
589,746,57,0.15544690008355,1
589,747,57,0.12187920080859,1
589,748,57,0.11721503137169,1
589,749,57,0.129642947521902,1
589,750,57,0.115854308562216,1
590,745,57,0.142323077063675,1
590,746,57,0.13824306380198,1
590,753,57,0.127917742444245,1
592,754,57,0.123356538158746,1
592,755,57,0.135162176414081,1
593,736,57,0.114820393822213,1
593,737,57,0.13785838420626,1
593,738,57,0.159230583808522,1
593,739,57,0.125842116678042,1
593,755,57,0.114974588346667,1
594,734,57,0.116011447303512,1
594,735,57,0.12088666998052,1
594,736,57,0.127562057495986,1
594,737,57,0.133898353669314,1
594,738,57,0.124064728301075,1
595,732,57,0.123404552447007,1
595,733,57,0.11948355044852,1
595,734,57,0.117329514299378,1
595,735,57,0.119352521022179,1
596,731,57,0.163891691259906,1
596,733,57,0.150666681395602,1
596,734,57,0.132378513604826,1
597,730,57,0.123560007096269,1
597,734,57,0.15707010571293,1
598,730,57,0.116879649742774,1
598,733,57,0.167864794119631,1
598,734,57,0.126148633205038,1
599,731,57,0.12304554642215,1
599,732,57,0.125518582577698,1
620,725,57,0.117404226745963,1
621,724,57,0.133495419929173,1
621,725,57,0.132139290097972,1
622,724,57,0.143640190133284,1
622,725,57,0.131056536688993,1
623,724,57,0.137572053229933,1
623,725,57,0.121856389016498,1
624,724,57,0.12830866377967,1
624,725,57,0.126880153321623,1
624,726,57,0.123818426896933,1
625,724,57,0.133225258591743,1
625,725,57,0.133251662328383,1
625,726,57,0.122557619030212,1
626,724,57,0.153830112846885,1
626,725,57,0.132528032712934,1
627,725,57,0.143552428917655,1
628,725,57,0.190536099961297,1
628,726,57,0.16743679920573,1
628,727,57,0.125789532965242,1
629,726,57,0.236752343219747,1
629,727,57,0.187153854314309,1
629,728,57,0.139126411292678,1
630,725,57,0.223316115239191,1
630,726,57,0.25032963451764,1
630,727,57,0.231125497313555,1
630,728,57,0.179203668013689,1
630,729,57,0.129456154628573,1
631,726,57,0.233102927559641,1
631,727,57,0.260709694754904,1
631,728,57,0.207598802264324,1
631,729,57,0.153321375730307,1
631,730,57,0.123909556296629,1
632,725,57,0.16872679014979,1
632,726,57,0.251789306566744,1
632,727,57,0.309666697694787,4
632,728,57,0.241233111501119,1
632,729,57,0.170768251223758,1
632,730,57,0.155779160842613,1
632,731,57,0.139745426995293,1
633,725,57,0.185064991349184,1
633,726,57,0.258335996475608,1
633,727,57,0.308140509898787,4
633,728,57,0.262885706538554,1
633,729,57,0.190637098375847,1
633,730,57,0.161214738645875,1
633,731,57,0.170053736903652,1
633,732,57,0.131096966674669,1
634,724,57,0.210388176854254,1
634,725,57,0.229944277516509,1
634,726,57,0.237833836503917,1
634,727,57,0.269903353373479,4
634,728,57,0.285305234732752,1
634,729,57,0.234982020963201,1
634,730,57,0.159868395391457,1
634,731,57,0.146617064228585,1
634,732,57,0.146911344590385,1
635,723,57,0.211088170296894,1
635,724,57,0.287184987640884,1
635,725,57,0.257086470847825,1
635,726,57,0.21816828163634,1
635,727,57,0.240221643470321,1
635,728,57,0.276024003328425,1
635,729,57,0.253813750067364,1
635,730,57,0.178842542152706,1
635,731,57,0.131114172677894,1
635,732,57,0.127407674541654,1
636,724,57,0.222977860054637,1
636,725,57,0.201771443414319,1
636,726,57,0.20165822061144,1
636,727,57,0.235140325614366,1
636,728,57,0.245030845028862,1
636,729,57,0.213911085405088,1
636,731,57,0.140086096437658,1
636,732,57,0.115296167487028,1
637,726,57,0.186209573311847,1
637,727,57,0.240143727715812,1
637,728,57,0.246424637281907,1
637,729,57,0.182579624813502,1
637,732,57,0.116326266522003,1
638,726,57,0.159365346501818,1
638,727,57,0.233598710122114,1
638,728,57,0.255316784542117,1
638,729,57,0.165113388150097,1
638,751,57,0.123882752146499,1
638,753,57,0.198424033741008,1
638,754,57,0.195308628354853,1
639,727,57,0.181014314264104,1
639,728,57,0.191319249864425,1
639,750,57,0.143083674265792,1
639,751,57,0.189295324545969,1
639,752,57,0.224840724934963,1
639,753,57,0.259473029466287,1
639,754,57,0.2587347612047,1
639,755,57,0.171621885678086,1
640,739,57,0.120466494906552,1
640,750,57,0.19804493638042,1
640,751,57,0.248330157975841,1
640,752,57,0.246304631003423,1
640,753,57,0.217167153695091,1
640,754,57,0.198865524944913,1
641,750,57,0.22153865620102,1
641,751,57,0.262549123669167,1
641,752,57,0.240922767492228,1
641,753,57,0.176615666078891,1
642,751,57,0.231873917234814,1
642,752,57,0.21982644100807,1
586,745,58,0.188207295100409,1
586,746,58,0.170623949267893,1
587,745,58,0.191686252382225,1
587,746,58,0.197555536880061,1
588,745,58,0.147487362950239,1
588,746,58,0.158091972717615,1
588,747,58,0.15572327960695,1
588,748,58,0.161545503742783,1
589,745,58,0.126051485826116,1
589,746,58,0.121546457197965,1
589,748,58,0.114087283828533,1
589,749,58,0.116485454438221,1
590,745,58,0.122832797313141,1
590,746,58,0.116721981042447,1
591,754,58,0.116650884094144,1
592,754,58,0.129512589377002,1
592,755,58,0.139247783687776,1
593,736,58,0.119315765419123,1
593,737,58,0.135365221384379,1
593,738,58,0.156706483156065,1
593,739,58,0.128643162143533,1
593,754,58,0.117346838071277,1
593,755,58,0.127019026141631,1
594,736,58,0.123610023451983,1
594,737,58,0.129584970003848,1
594,738,58,0.124182661850901,1
596,731,58,0.118744186938267,1
596,732,58,0.147913497119096,1
596,733,58,0.144547739086424,1
596,734,58,0.118850049199041,1
597,731,58,0.149367916685353,1
597,733,58,0.170551686409721,1
597,734,58,0.129978788448646,1
598,731,58,0.137210173649438,1
598,732,58,0.164888791512515,1
598,733,58,0.140916648231944,1
613,727,58,0.115939926387984,1
621,724,58,0.136271368890303,1
621,725,58,0.124388804137317,1
622,724,58,0.140000184190206,1
622,725,58,0.125072781040336,1
625,724,58,0.147617791756344,1
625,725,58,0.131008157317844,1
626,725,58,0.141098930585071,1
628,725,58,0.151076905016644,1
628,726,58,0.139907088053659,1
628,727,58,0.129520986283435,1
629,726,58,0.220304181409734,1
629,727,58,0.209934390600816,1
629,728,58,0.165412744341733,1
629,729,58,0.116244947252824,1
630,726,58,0.251864019013328,1
630,727,58,0.238483943136385,1
630,728,58,0.193394852076893,1
630,729,58,0.142874046026636,1
631,727,58,0.223951335911305,1
631,728,58,0.194504468520339,1
631,729,58,0.155537581962286,1
631,730,58,0.12822475359967,1
632,726,58,0.217171181383731,1
632,727,58,0.249512979426849,1
632,728,58,0.207435127361639,1
632,729,58,0.160623433912177,1
632,730,58,0.148986087091536,1
632,731,58,0.144555853348041,1
633,726,58,0.238343162463864,1
633,727,58,0.264370581083826,1
633,728,58,0.223387200410626,1
633,729,58,0.170345885652459,1
633,730,58,0.147428349067856,1
633,731,58,0.171148773585297,1
633,732,58,0.148550790519867,1
634,727,58,0.227058638812711,1
634,728,58,0.237060331855164,1
634,729,58,0.205948132980241,1
634,730,58,0.146649768589267,1
634,731,58,0.158328228453891,1
634,732,58,0.190973551699694,1
634,733,58,0.137210644724133,1
635,724,58,0.255152026167634,1
635,725,58,0.201601597433133,1
635,727,58,0.212663208538738,1
635,728,58,0.251616351492572,1
635,729,58,0.23678647258138,1
635,730,58,0.16845103480036,1
635,731,58,0.152539403513916,1
635,732,58,0.193354115892666,1
635,733,58,0.168846796428274,1
636,726,58,0.190941235975635,1
636,727,58,0.266540892863671,1
636,728,58,0.285226895011018,1
636,729,58,0.237884288603723,1
636,731,58,0.148333990168483,1
636,732,58,0.157429088184052,1
636,733,58,0.136689977640911,1
637,726,58,0.20686512698101,1
637,727,58,0.287623322644334,1
637,728,58,0.284948089452939,1
637,729,58,0.213058934836049,1
637,732,58,0.120864823891552,1
637,752,58,0.118381777398741,1
638,726,58,0.16448382037432,1
638,727,58,0.221177059265342,1
638,728,58,0.227443506838309,1
638,729,58,0.166619413949162,1
638,752,58,0.195211151223645,1
638,753,58,0.213828482457367,1
638,754,58,0.196259009774611,1
639,727,58,0.147886634084628,1
639,728,58,0.153328218090248,1
639,751,58,0.193143133313762,1
639,752,58,0.23530195134213,1
639,753,58,0.271033814872167,1
639,754,58,0.257743243187224,1
639,755,58,0.1746252812787,1
640,751,58,0.226867217610506,1
640,752,58,0.229595234721446,1
640,753,58,0.219570623895094,1
640,754,58,0.201251047199046,1
641,751,58,0.229883956401849,1
641,752,58,0.218105346057124,1
641,753,58,0.185424032704643,1
588,745,59,0.115779490123825,1
588,746,59,0.140274043463989,1
588,747,59,0.170209886388089,1
589,747,59,0.116127096141069,1
589,748,59,0.11664074421134,1
592,754,59,0.135456786528168,1
593,737,59,0.117357390144439,1
593,738,59,0.128232208356714,1
593,754,59,0.125096405436277,1
593,755,59,0.135934479822363,1
594,737,59,0.113893589690926,1
596,732,59,0.121466986896963,1
596,733,59,0.135451062970627,1
597,732,59,0.146861752201897,1
597,733,59,0.149912926553425,1
598,732,59,0.130908183490754,1
598,733,59,0.118950647200102,1
613,727,59,0.123705380747064,1
621,725,59,0.116042396910956,1
622,725,59,0.119439493187695,1
625,725,59,0.127893835403487,1
628,726,59,0.14157316148026,1
628,727,59,0.155850257790916,1
628,728,59,0.126365292234013,1
629,726,59,0.213529279365006,1
629,727,59,0.238764091257344,1
629,728,59,0.190375545928464,1
629,729,59,0.134574216310716,1
630,727,59,0.232300334048488,1
630,728,59,0.197797056876051,1
630,729,59,0.152246901459088,1
630,730,59,0.115952657181609,1
631,727,59,0.189461649243812,1
631,728,59,0.183659398675036,1
631,729,59,0.160784565011511,1
631,730,59,0.131065428223856,1
632,728,59,0.179227221748426,1
632,729,59,0.157170656606521,1
632,730,59,0.135913116584957,1
632,731,59,0.129512695368808,1
633,729,59,0.147410471783191,1
633,730,59,0.125494922851155,1
633,731,59,0.143485194781849,1
633,732,59,0.140342785038818,1
634,730,59,0.124327905956155,1
634,731,59,0.15638572839642,1
634,732,59,0.212890431417743,1
634,733,59,0.16490380701841,1
635,727,59,0.201453138243087,1
635,728,59,0.227555716830594,1
635,729,59,0.205675357178255,1
635,730,59,0.148747617304194,1
635,731,59,0.176489665374917,1
635,732,59,0.267431247590453,1
635,733,59,0.237297188211676,1
635,734,59,0.127379704481654,1
636,726,59,0.186269234921935,1
636,727,59,0.275857337101428,1
636,728,59,0.306832735885,1
636,729,59,0.266432357254004,1
636,730,59,0.170685424515556,1
636,731,59,0.154344420421729,1
636,732,59,0.20587532838617,1
636,733,59,0.191199844206177,1
636,734,59,0.125908809077949,1
637,726,59,0.21391676185516,1
637,727,59,0.291887655657211,1
637,728,59,0.292635981363531,1
637,729,59,0.247288682486988,1
637,732,59,0.118009852150381,1
637,751,59,0.121687920928793,1
637,752,59,0.135546832456067,1
638,727,59,0.197840890376396,1
638,728,59,0.190187210265509,1
638,750,59,0.123511604171385,1
638,751,59,0.181501122853642,1
638,752,59,0.209337491855119,1
638,753,59,0.207212356138499,1
639,751,59,0.197561908165307,1
639,752,59,0.241808152380981,1
639,753,59,0.256787032218117,1
639,754,59,0.228552393115978,1
640,752,59,0.221101640206715,1
640,753,59,0.220435823233178,1
589,747,60,0.119387050797303,1
592,753,60,0.117030558521232,1
592,754,60,0.139074216216501,1
593,754,60,0.126924811202684,1
593,755,60,0.131605974659196,1
594,755,60,0.11869002512524,1
596,733,60,0.122224310129953,1
597,732,60,0.115808649647429,1
597,733,60,0.129232453032911,1
628,726,60,0.148611724031631,1
628,727,60,0.17349053300029,1
628,728,60,0.132827848202398,1
629,727,60,0.245104097143893,1
629,728,60,0.190909721078558,1
629,729,60,0.140834174829763,1
630,728,60,0.184131391965425,1
630,729,60,0.153764244827694,1
630,730,60,0.123264148634241,1
631,728,60,0.16560921782004,1
631,729,60,0.160979648819468,1
631,730,60,0.128945851188635,1
632,729,60,0.14653076334451,1
632,730,60,0.116365459936605,1
634,731,60,0.137520800303146,1
634,732,60,0.192703267317554,1
634,733,60,0.159232350338627,1
635,728,60,0.194193406122539,1
635,731,60,0.180634757605689,1
635,732,60,0.285133975527481,1
635,733,60,0.254589091907427,1
635,734,60,0.138409317838619,1
636,727,60,0.242425377999757,1
636,728,60,0.280716920098571,1
636,729,60,0.265090406771115,1
636,732,60,0.217436749742887,1
636,733,60,0.214303514179537,1
636,734,60,0.14542997955159,1
637,727,60,0.249678986149273,1
637,728,60,0.261467724599935,1
637,729,60,0.251416050532371,1
637,751,60,0.144783935938364,1
638,728,60,0.153586060824411,1
639,752,60,0.225823480963118,1
639,753,60,0.222251910396317,1
592,753,61,0.129230215428111,1
593,753,61,0.12376662045738,1
593,754,61,0.129630369827553,1
594,754,61,0.121702017839033,1
628,727,61,0.169010718645174,1
628,728,61,0.126105317886857,1
629,728,61,0.167713579142621,1
629,729,61,0.132727850821573,1
630,728,61,0.15701617943725,1
630,729,61,0.143935777727362,1
630,730,61,0.120852246197202,1
631,729,61,0.149907933161661,1
631,730,61,0.120810249888167,1
634,731,61,0.122679674483617,1
634,732,61,0.154135369249073,1
634,733,61,0.133250578856585,1
635,732,61,0.241631310940578,1
635,733,61,0.218863705654441,1
635,734,61,0.130181197468105,1
636,728,61,0.217314081892379,1
636,733,61,0.201185002526845,1
636,734,61,0.148354929438664,1
637,728,61,0.204314516600107,1
593,753,62,0.1457283347095,1
594,753,62,0.124725245684296,1
629,729,62,0.115705425404945,1
630,729,62,0.12561796756142,1
635,733,62,0.157171186565553,1
638,742,62,0.113907474617553,1
629,756,63,0.115363872697528,1
630,755,63,0.117563579538324,1
635,751,63,0.129985689692923,1
635,752,63,0.127819499816658,1
636,738,63,0.115300430713015,1
636,750,63,0.123865581473876,1
636,751,63,0.154281437735043,1
638,742,63,0.148658513525685,1
638,743,63,0.124530232537544,1
629,755,64,0.134136741018584,1
631,754,64,0.137103487007948,1
635,750,64,0.138934483685176,1
635,751,64,0.153981386708232,1
636,737,64,0.120308260916591,1
636,738,64,0.128495503780469,1
636,739,64,0.114053307566176,1
636,744,64,0.12570429199923,1
636,745,64,0.14513632336376,1
636,749,64,0.12525584066671,1
636,750,64,0.155976635354646,1
637,738,64,0.121305632037149,1
637,739,64,0.123861942421859,1
637,740,64,0.116337030578777,1
637,744,64,0.116612303076645,1
637,745,64,0.120472442224573,1
600,733,65,0.133165055245756,1
601,733,65,0.135950849668005,1
609,732,65,0.142461325709712,1
629,755,65,0.157752516292589,1
630,754,65,0.157748370835276,1
631,753,65,0.132392787168076,1
631,754,65,0.192584097196653,1
631,755,65,0.167639961944702,1
632,753,65,0.154077120863069,1
632,754,65,0.188762550843092,1
633,753,65,0.126116211489173,1
635,744,65,0.130996521772884,1
635,745,65,0.130205198723802,1
635,747,65,0.119470937423568,1
635,748,65,0.134700652758783,1
635,749,65,0.156895855183348,1
635,750,65,0.182233620450219,1
635,751,65,0.162838168035735,1
636,738,65,0.130121688957293,1
636,739,65,0.12189911549131,1
636,744,65,0.156063336652212,1
636,745,65,0.16015000384397,1
636,748,65,0.12555732847134,1
636,749,65,0.162367034456664,1
636,750,65,0.190925466750229,1
637,744,65,0.139832234284666,1
637,745,65,0.131454217946288,1
637,749,65,0.139992258358467,1
595,749,66,0.118987014166535,1
600,733,66,0.141436432050113,1
600,734,66,0.115335737761385,1
601,732,66,0.120492451122232,1
601,733,66,0.150463271342416,1
601,734,66,0.118683347641442,1
602,733,66,0.1236824865169,1
604,753,66,0.121230389631533,1
609,732,66,0.153232907902636,1
628,755,66,0.119083325387873,1
629,754,66,0.126516872293911,1
630,753,66,0.11386640868104,1
630,754,66,0.182358749666008,1
631,753,66,0.158509368450884,1
631,754,66,0.22131767506172,1
632,753,66,0.174484312176301,1
634,744,66,0.122087062517642,1
634,745,66,0.135175731588422,1
634,746,66,0.123513853553053,1
634,749,66,0.119619196406868,1
634,750,66,0.130150153645722,1
635,743,66,0.11511366137342,1
635,744,66,0.157345613748145,1
635,745,66,0.150364004127368,1
635,746,66,0.119334843944259,1
635,747,66,0.11477776156234,1
635,748,66,0.141787677119374,1
635,749,66,0.188015614807121,1
635,750,66,0.202263316056826,1
636,743,66,0.12756968890604,1
636,744,66,0.159102757690106,1
636,745,66,0.143781465434235,1
636,748,66,0.14898217717157,1
636,749,66,0.189888878661334,1
637,744,66,0.144164755359605,1
595,749,67,0.120395986801618,1
595,750,67,0.126508604933019,1
596,750,67,0.114728781570955,1
600,732,67,0.11869176810161,1
600,733,67,0.127717571029585,1
600,734,67,0.118014939757084,1
601,732,67,0.125604907015508,1
601,733,67,0.141307145600144,1
601,734,67,0.129358394852548,1
602,732,67,0.114942449275619,1
602,733,67,0.130332930627279,1
602,734,67,0.117612877505128,1
603,732,67,0.118357069531002,1
603,733,67,0.134286283680427,1
604,733,67,0.116637364250405,1
609,732,67,0.13670640637089,1
630,753,67,0.130617836602655,1
631,753,67,0.173102791419054,1
634,744,67,0.148189735320088,1
634,745,67,0.176730596527539,1
634,746,67,0.137140784346904,1
634,749,67,0.131327840382558,1
634,750,67,0.136784769646359,1
635,743,67,0.119389264848369,1
635,744,67,0.163540092884624,1
635,745,67,0.164768325936204,1
635,746,67,0.120161085405088,1
635,748,67,0.136399560091607,1
635,749,67,0.193569868102854,1
636,743,67,0.130266556202791,1
636,744,67,0.140570655645529,1
596,750,68,0.118820029964119,1
600,732,68,0.130230142128888,1
601,732,68,0.13259168668106,1
601,733,68,0.130339113482648,1
601,734,68,0.128578719125293,1
602,732,68,0.134503190023618,1
602,733,68,0.144331916215032,1
602,734,68,0.123802975646946,1
603,732,68,0.144893978987054,1
603,733,68,0.17149361203871,1
603,734,68,0.123220114927151,1
604,729,68,0.116777720955701,1
604,732,68,0.124332887571052,1
604,733,68,0.145896084408294,1
625,734,68,0.115617299106428,1
633,745,68,0.116736666796055,1
634,744,68,0.15407573119272,1
634,745,68,0.190408627148901,1
634,746,68,0.137810534794142,1
635,743,68,0.114935771791821,1
635,744,68,0.153144027884607,1
600,732,69,0.141205228589938,1
601,731,69,0.12077506060847,1
601,732,69,0.14539462539575,1
601,733,69,0.131605892221125,1
601,734,69,0.126729362311839,1
601,735,69,0.114498178731015,1
602,731,69,0.121405405657494,1
602,732,69,0.163902302217405,1
602,733,69,0.164543529091877,1
602,734,69,0.130072767850245,1
603,732,69,0.17376154227217,1
603,733,69,0.196510175024976,1
603,734,69,0.131915682717249,1
604,732,69,0.136520626288154,1
604,733,69,0.162366151191612,1
625,734,69,0.124094476668047,1
634,744,69,0.140078017506643,1
600,735,70,0.117045220721106,1
601,732,70,0.147794998279635,1
601,733,70,0.136024796618211,1
601,734,70,0.127007402373538,1
601,735,70,0.120942327455703,1
602,732,70,0.171589829045109,1
602,733,70,0.170134714643677,1
602,734,70,0.134408197811425,1
603,732,70,0.17622727676995,1
603,733,70,0.190638134740176,1
603,734,70,0.135172575387968,1
604,732,70,0.138591093786449,1
604,733,70,0.157591267424582,1
604,734,70,0.120027582836601,1
605,738,70,0.115427314682042,1
618,730,70,0.113828086754623,1
618,731,70,0.120178550499396,1
618,732,70,0.115373883034791,1
619,731,70,0.126390153201028,1
619,732,70,0.128398921691181,1
619,744,70,0.119006540212632,1
620,731,70,0.129310086142603,1
620,732,70,0.139792640456573,1
620,733,70,0.119087270638442,1
621,731,70,0.119357785281893,1
621,732,70,0.126435081950038,1
621,733,70,0.115431330593814,1
624,730,70,0.116001696057331,1
624,731,70,0.118752560290966,1
624,732,70,0.125289322300638,1
624,733,70,0.119184806653987,1
625,731,70,0.122172703897144,1
625,732,70,0.127534075659118,1
625,733,70,0.125318152071956,1
625,734,70,0.122496979940132,1
626,732,70,0.120761952955089,1
626,733,70,0.117233980351286,1
629,733,70,0.114184101455169,1
