x,y,z,signal,mito.p
85,77,43,0.165459592720125,1
85,78,43,0.194032910974043,1
86,76,43,0.15093837372579,1
86,77,43,0.22324460610053,1
86,78,43,0.234400055285326,1
86,79,43,0.161357886468737,1
87,76,43,0.133275439823599,1
87,77,43,0.152020432299594,1
87,78,43,0.142774449059302,1
104,84,43,0.133987798976977,1
104,85,43,0.1364856018846,1
74,77,44,0.116335617354693,1
83,74,44,0.131621001941958,1
84,74,44,0.135727890014988,1
85,77,44,0.12763990258929,1
85,78,44,0.142567765036987,1
86,76,44,0.136033417285125,1
86,77,44,0.185370848371608,1
86,78,44,0.183283316192495,1
86,79,44,0.124252969749091,1
87,76,44,0.126479963591579,1
87,77,44,0.136330712524972,1
87,78,44,0.12099134277769,1
103,84,44,0.121773962721787,1
103,85,44,0.120561640218021,1
104,83,44,0.14426699034523,1
104,84,44,0.144477501849439,1
104,85,44,0.151075315139549,1
104,86,44,0.119791126893579,1
105,85,44,0.115992710307529,1
105,86,44,0.12176808606497,1
105,87,44,0.160157305501738,1
105,88,44,0.141025066072937,1
66,78,45,0.161572001694361,1
67,77,45,0.140120131584352,1
67,78,45,0.115981757820876,1
72,76,45,0.118863333505433,1
72,79,45,0.120242298682461,1
73,76,45,0.143455764390296,1
73,77,45,0.126481953882164,1
74,76,45,0.128214707931805,1
74,77,45,0.123476673982771,1
79,77,45,0.122368506094011,1
83,73,45,0.11845342785981,1
84,73,45,0.117979338287029,1
86,77,45,0.132897355273606,1
86,78,45,0.121839230120742,1
103,83,45,0.15692117544819,1
103,84,45,0.125178431317498,1
103,85,45,0.120162804827724,1
104,82,45,0.158812151710924,1
104,83,45,0.157765329524286,1
104,84,45,0.144885476088814,1
104,85,45,0.159471232316327,1
104,86,45,0.136046030310076,1
104,87,45,0.147594485335822,1
104,88,45,0.13839758807872,1
104,89,45,0.11761828308725,1
105,83,45,0.118688600124288,1
105,85,45,0.124395340298707,1
105,86,45,0.134350985789749,1
105,87,45,0.176467065566437,1
105,88,45,0.161171694195644,1
105,89,45,0.128188186426491,1
106,87,45,0.132321336913752,1
106,88,45,0.123681944781001,1
66,77,46,0.167252573669487,1
67,76,46,0.128986398942984,1
67,77,46,0.144091691674452,1
67,78,46,0.124145423396283,1
72,75,46,0.115940538785087,1
72,76,46,0.14868086601995,1
72,77,46,0.125161484405355,1
73,75,46,0.123177353121737,1
73,76,46,0.169360150076861,1
73,77,46,0.137782918040163,1
74,76,46,0.133053610749849,1
74,77,46,0.118098743945277,1
78,77,46,0.138530030729144,1
78,78,46,0.115224505249091,1
79,76,46,0.134051299845827,1
79,77,46,0.14868578875051,1
80,73,46,0.139129944352888,1
80,74,46,0.149678531562193,1
80,75,46,0.129843825548604,1
80,76,46,0.121570635106672,1
81,73,46,0.115773954996162,1
81,74,46,0.130427381103573,1
81,75,46,0.118091171419559,1
97,79,46,0.128914183192281,1
97,80,46,0.134626552709301,1
98,79,46,0.121758358372524,1
98,80,46,0.125372773182811,1
99,80,46,0.135360086670207,1
99,81,46,0.124695615085998,1
100,81,46,0.155913134485796,1
100,82,46,0.132417589250754,1
101,82,46,0.121089208545521,1
102,83,46,0.123118009487067,1
103,83,46,0.17244201494475,1
103,84,46,0.129991978540098,1
103,85,46,0.119475424410035,1
104,82,46,0.154632682804304,1
104,83,46,0.169759927616547,1
104,84,46,0.14120230792683,1
104,85,46,0.151067813275036,1
104,86,46,0.150999813642851,1
104,87,46,0.153490538653186,1
104,88,46,0.140894802142975,1
104,89,46,0.117523361536261,1
104,90,46,0.114849706445093,1
105,83,46,0.125948744435195,1
105,84,46,0.113895568204644,1
105,85,46,0.126318549847428,1
105,86,46,0.141284922651419,1
105,87,46,0.168304636562104,1
105,88,46,0.166263729000903,1
105,89,46,0.137476637050515,1
106,87,46,0.120707272959898,1
106,88,46,0.126581268204682,1
66,77,47,0.178845804344967,1
67,77,47,0.13648811035735,1
67,78,47,0.13074262428929,1
67,79,47,0.120311923522342,1
72,75,47,0.121435919520845,1
72,76,47,0.171835482721545,1
72,77,47,0.149521392820897,1
73,75,47,0.124573700955,1
73,76,47,0.169212809689215,1
73,77,47,0.138737609793379,1
74,76,47,0.12458063752988,1
78,76,47,0.132110943178217,1
78,77,47,0.151964433295258,1
78,78,47,0.117300920065408,1
79,74,47,0.140298127157758,1
79,75,47,0.143488716065192,1
79,76,47,0.155807495985501,1
79,77,47,0.154803600480421,1
80,74,47,0.198279814223215,1
80,75,47,0.166551072787824,1
80,76,47,0.136163645884484,1
81,73,47,0.160678808742543,1
81,74,47,0.175227809367,1
81,75,47,0.140175824390137,1
82,73,47,0.119342981759611,1
82,74,47,0.120785565574163,1
96,80,47,0.114096599330622,1
97,79,47,0.147360078567722,1
97,80,47,0.173506843961595,1
98,79,47,0.137348339857404,1
98,80,47,0.16268098218697,1
98,81,47,0.125499727813041,1
99,80,47,0.167462990958758,1
99,81,47,0.167399160337621,1
99,82,47,0.11929720507615,1
100,80,47,0.207991301699977,1
100,81,47,0.225559938225149,1
100,82,47,0.1595250526002,1
103,83,47,0.167215488314144,1
103,84,47,0.130744202389517,1
103,85,47,0.117861310522264,1
103,86,47,0.126032548623388,1
103,87,47,0.115805387455168,1
104,82,47,0.151139817042126,1
104,83,47,0.172389066149062,1
104,84,47,0.138673178552007,1
104,85,47,0.137751780002842,1
104,86,47,0.156223831800708,1
104,87,47,0.150085351668565,1
104,88,47,0.131556358716973,1
105,83,47,0.144117742105071,1
105,84,47,0.125479200733218,1
105,85,47,0.125127201944446,1
105,86,47,0.137750272563818,1
105,87,47,0.144316700502392,1
105,88,47,0.146908435704145,1
53,82,48,0.16265865324644,1
62,77,48,0.11608296821904,1
63,77,48,0.114230572973804,1
65,76,48,0.146258046426861,1
66,76,48,0.130083720336898,1
66,77,48,0.194855006977558,1
66,80,48,0.139001812035921,1
67,77,48,0.132526878579932,1
67,78,48,0.144370520786265,1
67,79,48,0.157258394268415,1
71,76,48,0.145957347672345,1
71,77,48,0.139231767148155,1
72,75,48,0.127178908893023,1
72,76,48,0.189804261869292,1
72,77,48,0.171412434091939,1
73,75,48,0.120618557818012,1
73,76,48,0.160055612252012,1
73,77,48,0.139322449026892,1
74,76,48,0.120659823961271,1
78,75,48,0.139110712728476,1
78,76,48,0.150468853577548,1
78,77,48,0.14913643058036,1
79,73,48,0.121756214982663,1
79,74,48,0.179200182060948,1
79,75,48,0.194863851404952,1
79,76,48,0.171113172115242,1
79,77,48,0.144931323433479,1
80,73,48,0.191406634220298,1
80,74,48,0.236153725051413,1
80,75,48,0.19746885913623,1
80,76,48,0.144184834918468,1
81,72,48,0.125719601926809,1
81,73,48,0.214527580858087,1
81,74,48,0.216175023280511,1
81,75,48,0.154254857345392,1
81,76,48,0.115432673156694,1
82,72,48,0.121237008230994,1
82,73,48,0.160160037734967,1
82,74,48,0.142301843371809,1
86,73,48,0.116462842852874,1
87,73,48,0.121365847160004,1
96,80,48,0.115609114183607,1
97,79,48,0.161720437330672,1
97,80,48,0.202000762575716,1
97,81,48,0.129566633421355,1
98,79,48,0.151940455593296,1
98,80,48,0.209832991772775,1
98,81,48,0.167786501505366,1
99,79,48,0.124872362311462,1
99,80,48,0.199190825575361,1
99,81,48,0.206247265411397,1
99,82,48,0.141734375017665,1
100,79,48,0.138698604808655,1
100,80,48,0.251492882815082,1
100,81,48,0.266822430654978,1
100,82,48,0.165587041978785,1
101,80,48,0.210960367732212,1
101,81,48,0.20580954280505,1
101,82,48,0.142019457646051,1
102,83,48,0.147351563892615,1
102,84,48,0.122853395054168,1
103,84,48,0.127780506608801,1
103,85,48,0.114566272578139,1
103,86,48,0.130517438808339,1
103,87,48,0.122661891413891,1
104,83,48,0.176855855288869,1
104,84,48,0.137867193303051,1
104,85,48,0.128568803002969,1
104,86,48,0.153763856191071,1
104,87,48,0.149056783626348,1
104,88,48,0.124480699033392,1
105,84,48,0.14485206511609,1
105,85,48,0.127016470561412,1
105,86,48,0.13368396757574,1
105,87,48,0.130995402970484,1
106,85,48,0.1167916883204,1
49,85,49,0.116166348440008,1
50,85,49,0.114775194205254,1
51,84,49,0.148616187464363,1
52,83,49,0.164794600127303,1
53,82,49,0.133028938212712,1
53,83,49,0.149728913000795,1
61,79,49,0.113834022295777,1
62,81,49,0.114606726117549,1
63,78,49,0.13832267542539,1
64,76,49,0.119342074940824,1
64,77,49,0.181706994272109,1
65,76,49,0.163814105257684,1
66,76,49,0.139698260641483,1
67,77,49,0.146811794730521,1
67,80,49,0.122220800623477,1
68,77,49,0.119329143940453,1
68,78,49,0.119209797166542,1
69,77,49,0.114185196703834,1
70,76,49,0.134240389228293,1
70,77,49,0.141054390472684,1
71,75,49,0.113875194224097,1
71,76,49,0.182608372146748,1
71,77,49,0.176710269654461,1
72,75,49,0.133136201920703,1
72,76,49,0.201583013536426,1
72,77,49,0.191555328947691,1
72,78,49,0.119330333404057,1
73,75,49,0.122494271260637,1
73,76,49,0.160775649922913,1
73,77,49,0.151569507824928,1
74,75,49,0.117127034618714,1
74,76,49,0.135193538211883,1
75,76,49,0.133111411614893,1
76,76,49,0.123567579621987,1
76,77,49,0.12140528788882,1
77,76,49,0.127808500222536,1
77,77,49,0.126605234129776,1
78,74,49,0.130776953857668,1
78,75,49,0.170224654579769,1
78,76,49,0.15984762099742,1
78,77,49,0.135981175101479,1
79,73,49,0.130649257284793,1
79,74,49,0.233678745712749,1
79,75,49,0.248336588145424,1
79,76,49,0.180243494741111,1
79,77,49,0.1306292248334,1
80,73,49,0.198859071221595,1
80,74,49,0.263405890770215,1
80,75,49,0.220515646840201,1
80,76,49,0.152082037092798,1
81,73,49,0.257356090449356,1
81,74,49,0.238713262297782,1
81,75,49,0.163998778314887,1
81,76,49,0.123812832884933,1
82,73,49,0.211051921099134,1
82,74,49,0.168063246111655,1
82,75,49,0.126857471075072,1
83,73,49,0.121810565225568,1
83,74,49,0.119966460894959,1
83,75,49,0.12517555776186,1
84,75,49,0.124389710956105,1
85,73,49,0.135755094578609,1
85,74,49,0.115016302010886,1
86,73,49,0.163414009742578,1
97,79,49,0.159984633072383,1
97,80,49,0.204743053249907,1
97,81,49,0.140456149164106,1
98,79,49,0.161847651051985,1
98,80,49,0.256343444731821,1
98,81,49,0.225230868997142,1
98,82,49,0.1426009993567,1
99,79,49,0.133361587608399,1
99,80,49,0.242422527997853,1
99,81,49,0.261501500655548,1
99,82,49,0.173042446750659,1
100,79,49,0.140706183835204,1
100,80,49,0.262085421293405,1
100,81,49,0.276174464585923,1
100,82,49,0.163348789451092,1
101,80,49,0.223531490589623,1
101,81,49,0.217267421943865,1
101,82,49,0.140938211676095,1
102,83,49,0.148476301833762,1
102,84,49,0.129384080200278,1
103,84,49,0.12932021424854,1
103,86,49,0.12435294357618,1
103,87,49,0.122342173018575,1
104,85,49,0.120568541462299,1
104,86,49,0.141647049546129,1
104,87,49,0.145189248605713,1
104,88,49,0.121229600581419,1
105,85,49,0.119048359868657,1
60,80,50,0.118144308645125,1
60,81,50,0.151260329725906,1
61,80,50,0.156110491229154,1
61,81,50,0.169108666851077,1
62,79,50,0.142030845876796,1
62,80,50,0.161789002252491,1
62,81,50,0.125883889226597,1
63,78,50,0.127521497964769,1
63,79,50,0.183046141860564,1
63,80,50,0.166323649702074,1
64,77,50,0.161555549410648,1
64,80,50,0.163557310664717,1
65,76,50,0.158001443938154,1
66,76,50,0.146301997695879,1
67,76,50,0.116778674881958,1
67,77,50,0.183648281312241,1
67,80,50,0.132468194449836,1
68,77,50,0.142645822113904,1
68,78,50,0.141512710820058,1
68,79,50,0.118773075593922,1
69,77,50,0.139992964970509,1
69,78,50,0.118147500176182,1
70,76,50,0.164955860772178,1
70,77,50,0.186623612637917,1
70,78,50,0.127968877602358,1
71,75,50,0.121009102293682,1
71,76,50,0.20752578568664,1
71,78,50,0.133454542422537,1
72,75,50,0.133728213266443,1
72,76,50,0.206092540927912,1
72,77,50,0.214454163866913,1
72,78,50,0.133014205351635,1
73,75,50,0.129458097811688,1
73,76,50,0.167016329710078,1
73,77,50,0.168704202118178,1
73,78,50,0.115302432780468,1
74,75,50,0.141033133227084,1
74,76,50,0.153385288789515,1
74,77,50,0.130836379930409,1
75,75,50,0.135408725132438,1
75,76,50,0.165903486404973,1
75,77,50,0.142625942761787,1
76,75,50,0.11603378802091,1
76,76,50,0.1701183212443,1
76,77,50,0.161325712067087,1
77,75,50,0.117622016354206,1
77,76,50,0.155899755964465,1
77,77,50,0.142821179669019,1
78,74,50,0.137232102176478,1
78,75,50,0.175216856880347,1
78,76,50,0.159150147804396,1
78,77,50,0.122993115808626,1
79,73,50,0.133651357429997,1
79,74,50,0.251692382948302,1
79,75,50,0.26082718078377,1
79,76,50,0.179452371898774,1
79,77,50,0.120914074750886,1
80,73,50,0.19082830759444,1
80,74,50,0.26000108064535,1
80,75,50,0.225982657102469,1
80,76,50,0.161201925414178,1
80,77,50,0.117790413780706,1
81,72,50,0.201925484839497,1
81,73,50,0.261374569579051,1
81,74,50,0.228463595536021,1
81,75,50,0.166159020873131,1
81,76,50,0.132877146169202,1
82,73,50,0.23919027253367,1
82,74,50,0.181272628072962,1
82,75,50,0.135704936900487,1
83,73,50,0.137984514455775,1
83,74,50,0.139415533386571,1
83,75,50,0.136783050223723,1
83,76,50,0.114939187083358,1
84,74,50,0.114380669148414,1
84,75,50,0.127779116938452,1
84,76,50,0.117097792657038,1
85,74,50,0.114399323706325,1
86,74,50,0.122891752311187,1
88,77,50,0.118780742334578,1
97,79,50,0.137657741716905,1
97,80,50,0.177633634940477,1
97,81,50,0.133806600095647,1
98,79,50,0.154625169162923,1
98,80,50,0.261091029720291,1
98,81,50,0.249924510280169,1
98,82,50,0.155799593707497,1
99,79,50,0.141883564373488,1
99,80,50,0.264498218772364,1
99,81,50,0.298556589449359,1
99,82,50,0.19280576139426,1
100,79,50,0.136676858210662,1
100,80,50,0.231893584603319,1
100,81,50,0.253462351898827,1
100,82,50,0.159389642179199,1
101,80,50,0.199893692573639,1
101,81,50,0.20455172626264,1
101,82,50,0.141035995005855,1
102,82,50,0.142246833624332,1
102,83,50,0.141246624278738,1
102,84,50,0.132311632775041,1
103,84,50,0.141805919486928,1
103,85,50,0.132730830369017,1
103,86,50,0.130816794999976,1
103,87,50,0.122930592419768,1
104,85,50,0.125841680933949,1
104,86,50,0.137249319956571,1
104,87,50,0.145375617531817,1
104,88,50,0.128730098978446,1
60,81,51,0.132000947236996,1
60,82,51,0.118231787215937,1
61,80,51,0.138118417437753,1
61,81,51,0.155320180990666,1
62,79,51,0.136371637139077,1
62,80,51,0.168429695116689,1
62,81,51,0.138267489024902,1
63,78,51,0.116241484853818,1
63,79,51,0.178135117506756,1
63,80,51,0.191622221554343,1
63,81,51,0.12773611959569,1
64,77,51,0.135193891517904,1
64,80,51,0.192392982193,1
64,81,51,0.117097780880171,1
66,76,51,0.145816519892354,1
67,76,51,0.127746695222587,1
67,77,51,0.219453232081167,1
67,80,51,0.143474100972788,1
68,77,51,0.167288646214236,1
68,78,51,0.170039227803055,1
68,79,51,0.146342062598667,1
69,76,51,0.128081016933439,1
69,77,51,0.171599486076351,1
69,78,51,0.154146769256686,1
69,79,51,0.116484253197749,1
70,76,51,0.180670347298877,1
71,75,51,0.117811729910643,1
72,75,51,0.130546916307362,1
72,76,51,0.202100394873652,1
72,78,51,0.149873956899303,1
73,74,51,0.118863486604708,1
73,75,51,0.139479740867463,1
73,76,51,0.175747699176976,1
73,77,51,0.181063270701754,1
73,78,51,0.120906937969261,1
74,74,51,0.137424724619155,1
74,75,51,0.159903926200308,1
74,76,51,0.172395378549972,1
74,77,51,0.151930362817961,1
75,74,51,0.115688996674966,1
75,75,51,0.152512387380173,1
75,76,51,0.197756261807487,1
75,77,51,0.172997812423333,1
76,75,51,0.138441927984362,1
76,76,51,0.214489141162997,1
76,77,51,0.187515286373844,1
77,75,51,0.130778296420548,1
77,76,51,0.180993068795372,1
77,77,51,0.148858873370223,1
78,74,51,0.131795158256602,1
78,75,51,0.16355948938518,1
78,76,51,0.159763145527786,1
78,77,51,0.116824216028072,1
79,73,51,0.131099687131031,1
79,74,51,0.233371251705761,1
79,75,51,0.246439099275035,1
79,76,51,0.183350538551434,1
79,77,51,0.119820039102968,1
80,73,51,0.171769084743323,1
80,74,51,0.244055743964497,1
80,75,51,0.241447309164815,1
80,76,51,0.187690561490887,1
80,77,51,0.129140475698764,1
81,72,51,0.21632414197513,1
81,73,51,0.229572246276343,1
81,74,51,0.208518599159527,1
81,75,51,0.178462043344902,1
81,76,51,0.152074853203704,1
82,72,51,0.253655869383424,1
82,73,51,0.234345551943145,1
82,74,51,0.186862777260433,1
82,75,51,0.143501870826043,1
82,76,51,0.114365582981315,1
83,73,51,0.153761971892292,1
83,74,51,0.16355407202619,1
83,75,51,0.143335298813985,1
84,74,51,0.122767847889604,1
84,75,51,0.128092499379124,1
84,76,51,0.117959835794667,1
86,73,51,0.215545267074856,1
86,74,51,0.130702017650604,1
88,77,51,0.134179950344959,1
89,77,51,0.123478581835284,1
97,80,51,0.144291898419714,1
97,81,51,0.122134028664707,1
98,79,51,0.140323423868865,1
98,80,51,0.232558082567711,1
98,81,51,0.239540210370653,1
98,82,51,0.151258374765923,1
99,79,51,0.151021471301941,1
99,80,51,0.261907849687225,1
99,81,51,0.304376575980391,1
99,82,51,0.200521917786537,1
100,80,51,0.191761047266881,1
100,81,51,0.219329527866329,1
100,82,51,0.158329500355567,1
101,81,51,0.174643017240957,1
101,82,51,0.136167873779869,1
102,82,51,0.149400397285555,1
102,83,51,0.12991016464249,1
102,84,51,0.133450738494377,1
102,85,51,0.137687760951827,1
102,86,51,0.115981863812683,1
103,83,51,0.149273242448578,1
103,84,51,0.165909386615524,1
103,85,51,0.183768841103491,1
103,86,51,0.166955843719274,1
103,87,51,0.129434473415748,1
104,85,51,0.151568471460599,1
104,86,51,0.150640265882095,1
104,87,51,0.149791436389653,1
104,88,51,0.140322823248629,1
60,82,52,0.114220268214857,1
61,81,52,0.131218916136268,1
62,79,52,0.12058495841541,1
62,80,52,0.16664981004384,1
62,81,52,0.148130321024214,1
63,79,52,0.164933543608515,1
63,80,52,0.219475231269411,1
63,81,52,0.167186470112949,1
64,78,52,0.145418532436508,1
64,80,52,0.225915623173408,1
64,81,52,0.1568088947947,1
65,77,52,0.192864292425081,1
65,81,52,0.140041191242382,1
67,76,52,0.128877415812357,1
67,80,52,0.159886837965756,1
68,76,52,0.117510159667941,1
68,77,52,0.189146759364117,1
68,80,52,0.128712033263903,1
69,76,52,0.1415570507257,1
69,79,52,0.159185231092287,1
71,75,52,0.114781165077009,1
71,79,52,0.116663508895963,1
72,75,52,0.132369292317676,1
73,74,52,0.139173471654682,1
73,75,52,0.16059370909894,1
73,76,52,0.195728202808585,1
73,78,52,0.136075814007651,1
74,74,52,0.164129030467981,1
74,75,52,0.180244507551704,1
74,76,52,0.199870468591189,1
74,77,52,0.192024436905574,1
74,78,52,0.118090358815711,1
75,74,52,0.127900689540295,1
75,75,52,0.165928936215356,1
75,76,52,0.22628937383621,1
75,77,52,0.207566580755204,1
75,78,52,0.114450953492868,1
75,109,52,0.115967072067268,1
76,75,52,0.157247359343691,1
76,76,52,0.241677122954641,1
76,77,52,0.200786190690283,1
76,109,52,0.114789679752117,1
77,75,52,0.143141604676377,1
77,76,52,0.19508989659722,1
77,77,52,0.150355371683587,1
78,74,52,0.124906538780565,1
78,75,52,0.1542723224397,1
78,76,52,0.161882227934579,1
78,77,52,0.11784910968767,1
79,73,52,0.123521555624312,1
79,74,52,0.193185777350503,1
79,75,52,0.22280224340844,1
79,76,52,0.186884399588921,1
79,77,52,0.124022272694212,1
80,73,52,0.158849790579034,1
80,74,52,0.226264336216185,1
80,75,52,0.262764640342008,1
80,76,52,0.212658780436607,1
80,77,52,0.138937969637917,1
81,72,52,0.208806520012949,1
81,73,52,0.207168781729236,1
81,74,52,0.205816679586675,1
81,75,52,0.207750064348803,1
81,76,52,0.174789262379937,1
81,77,52,0.126497193148539,1
82,71,52,0.144638114766609,1
82,72,52,0.255230295228164,1
82,73,52,0.233018581635549,1
82,74,52,0.197386762593805,1
82,75,52,0.158908851568886,1
82,76,52,0.125822284433393,1
83,72,52,0.160040537861781,1
83,73,52,0.181035606840306,1
83,74,52,0.185300293159204,1
83,75,52,0.147116038322115,1
84,73,52,0.114743326002155,1
84,74,52,0.135130979492423,1
84,75,52,0.128421768813875,1
85,73,52,0.126359486238401,1
86,72,52,0.150717628123838,1
86,73,52,0.204885741774942,1
86,74,52,0.129505228834897,1
87,73,52,0.172785758149498,1
87,77,52,0.117240752050023,1
88,77,52,0.142309439451262,1
89,76,52,0.12955435014869,1
89,77,52,0.150504031080378,1
90,76,52,0.12789355275867,1
90,77,52,0.13843159967168,1
91,77,52,0.124765911207319,1
97,80,52,0.129319166107344,1
97,81,52,0.121682326916794,1
98,79,52,0.128390925198238,1
98,80,52,0.198356434522313,1
98,81,52,0.215926955346264,1
98,82,52,0.145858304217777,1
99,79,52,0.156274719644606,1
99,80,52,0.239540092601979,1
99,81,52,0.279810336848555,1
99,82,52,0.201136858693043,1
100,80,52,0.167234708161689,1
100,81,52,0.198194431934794,1
100,82,52,0.169435510251151,1
101,81,52,0.153924940182935,1
101,82,52,0.136698468762283,1
102,82,52,0.149650643940265,1
102,83,52,0.119273792663822,1
102,84,52,0.12361401581002,1
102,85,52,0.148333483763186,1
102,86,52,0.129531444141659,1
103,83,52,0.14488809055337,1
103,84,52,0.172969877693935,1
103,85,52,0.21973922152834,1
103,86,52,0.197766107268607,1
103,87,52,0.136472317578209,1
104,85,52,0.175976971230903,1
104,86,52,0.161734510687177,1
104,87,52,0.151041103339844,1
104,88,52,0.1543075823806,1
104,89,52,0.129309968373929,1
105,88,52,0.145790292808724,1
105,89,52,0.126161846850225,1
62,80,53,0.150941188397091,1
62,81,53,0.15187680162517,1
63,79,53,0.145686691706485,1
63,80,53,0.229189827839158,1
63,81,53,0.210315207384039,1
63,82,53,0.123567732721263,1
64,78,53,0.129132514536423,1
64,79,53,0.186888285955153,1
64,80,53,0.248877099250162,1
64,81,53,0.208242478727209,1
64,82,53,0.115443131014917,1
65,77,53,0.167919144362536,1
65,80,53,0.243521686583077,1
65,81,53,0.17355537643202,1
66,81,53,0.133302573726016,1
67,76,53,0.120125095298411,1
68,76,53,0.119405434487265,1
69,80,53,0.136638359631235,1
72,75,53,0.12984129352212,1
73,74,53,0.151329130185072,1
73,75,53,0.170799083062528,1
74,74,53,0.173686370527758,1
74,75,53,0.186948347978732,1
74,76,53,0.21946548002323,1
74,78,53,0.147855460716704,1
75,74,53,0.132485129585111,1
75,75,53,0.171920370381537,1
75,76,53,0.230919402134609,1
75,77,53,0.222669777204281,1
75,78,53,0.128445145895602,1
75,108,53,0.124073443182927,1
75,109,53,0.145281649907085,1
76,75,53,0.164018104154238,1
76,76,53,0.233193256132356,1
76,77,53,0.19498634260245,1
76,108,53,0.126450050348463,1
76,109,53,0.154409428729602,1
77,75,53,0.146687442787978,1
77,76,53,0.189339664451611,1
77,77,53,0.148184789035793,1
78,74,53,0.121075288288292,1
78,75,53,0.147615200845523,1
78,76,53,0.160490284649711,1
78,77,53,0.120474538506965,1
79,74,53,0.156447863148656,1
79,75,53,0.194882376417322,1
79,76,53,0.182442930713957,1
79,77,53,0.125897738822622,1
80,73,53,0.144071199925231,1
80,74,53,0.199741323463628,1
80,75,53,0.25342626757721,1
80,76,53,0.214752142165067,1
80,77,53,0.141786558316974,1
81,73,53,0.195759705928795,1
81,74,53,0.212733704866805,1
81,75,53,0.234319807711078,1
81,76,53,0.195070087906307,1
81,77,53,0.139048236447087,1
82,72,53,0.223975878902901,1
82,73,53,0.236359184279521,1
82,74,53,0.211153555464523,1
82,75,53,0.188427970041157,1
82,76,53,0.15348886633802,1
82,77,53,0.115026830530313,1
83,73,53,0.20311235753288,1
83,74,53,0.192215151495738,1
83,75,53,0.161524470257663,1
83,76,53,0.129460335416488,1
84,73,53,0.13315599883475,1
84,74,53,0.144808632029235,1
84,75,53,0.139125916664248,1
84,76,53,0.117417911465845,1
85,73,53,0.124948275998518,1
85,74,53,0.121458048254631,1
85,75,53,0.118828968606452,1
86,73,53,0.177135932748623,1
86,74,53,0.12772068012257,1
87,73,53,0.171142838044143,1
87,74,53,0.120165348631076,1
87,77,53,0.116521774297185,1
88,77,53,0.138457814978442,1
89,76,53,0.134408068265884,1
89,77,53,0.170206317997277,1
89,78,53,0.126901999410591,1
90,76,53,0.142134435202168,1
90,77,53,0.177076883535638,1
90,78,53,0.13846784886944,1
91,76,53,0.128399534088284,1
91,77,53,0.153285727152783,1
91,78,53,0.134568763621125,1
92,77,53,0.128063233863713,1
92,78,53,0.121569068783312,1
96,80,53,0.121769781933871,1
97,80,53,0.126489926821373,1
97,81,53,0.129564136725473,1
98,79,53,0.118804873135816,1
98,80,53,0.164876472909248,1
98,81,53,0.185315756186059,1
98,82,53,0.136118399160055,1
99,79,53,0.152364823232047,1
99,80,53,0.20049120371644,1
99,81,53,0.229685351310549,1
99,82,53,0.183921410420248,1
100,80,53,0.155529844560425,1
100,81,53,0.184287093928902,1
100,82,53,0.17747050177369,1
100,83,53,0.118679025531118,1
101,81,53,0.146683367991869,1
101,82,53,0.143774575966824,1
102,82,53,0.14506454335715,1
102,83,53,0.118075649508368,1
102,84,53,0.116480731914406,1
102,85,53,0.141837799466894,1
102,86,53,0.13295045716857,1
103,84,53,0.168588694603029,1
103,85,53,0.220497816663005,1
103,86,53,0.205491449617431,1
103,87,53,0.140147018172554,1
103,88,53,0.119576446378321,1
104,85,53,0.191734137124944,1
104,86,53,0.173126545360536,1
104,87,53,0.151598408257449,1
104,88,53,0.16198094163686,1
104,89,53,0.158009664191577,1
104,90,53,0.133395987837982,1
104,91,53,0.114073716877325,1
105,88,53,0.146029751852925,1
105,89,53,0.14367386019709,1
105,90,53,0.131088075139806,1
62,80,54,0.13107046872309,1
62,81,54,0.158555451332896,1
62,82,54,0.136010935245319,1
63,79,54,0.124690409710621,1
63,80,54,0.220302273557221,1
63,81,54,0.257784085363257,1
63,82,54,0.18080641722445,1
64,79,54,0.167343903275929,1
64,80,54,0.255313746110336,1
64,81,54,0.264929134349372,1
64,82,54,0.163689411785987,1
65,77,54,0.139453301800221,1
65,80,54,0.244626969139331,1
65,81,54,0.210457966570279,1
65,82,54,0.120065845878681,1
66,81,54,0.163306416282301,1
67,81,54,0.133830106722914,1
68,76,54,0.115842920331471,1
68,81,54,0.125010822941112,1
72,75,54,0.127761039447041,1
72,79,54,0.116696966976156,1
73,74,54,0.157529568416439,1
73,75,54,0.169302455203623,1
74,74,54,0.173684851311868,1
74,75,54,0.183527627306052,1
74,109,54,0.117731164360976,1
75,74,54,0.134873501841148,1
75,75,54,0.172185632542141,1
75,76,54,0.21704964411249,1
75,78,54,0.145781424827596,1
75,108,54,0.125736148425461,1
75,109,54,0.157569150467664,1
76,75,54,0.158446951053832,1
76,76,54,0.205489800855999,1
76,77,54,0.18876878080593,1
76,78,54,0.124045096263172,1
76,108,54,0.132061527442739,1
76,109,54,0.179944868715251,1
77,75,54,0.138911071272848,1
77,76,54,0.171888596393377,1
77,77,54,0.1493301129411,1
78,74,54,0.114961669123164,1
78,75,54,0.136975825765675,1
78,76,54,0.152681008567153,1
78,77,54,0.123043885883851,1
79,74,54,0.128062609689743,1
79,75,54,0.162808584544906,1
79,76,54,0.168462057948217,1
79,77,54,0.125992719257948,1
80,73,54,0.126597802926467,1
80,74,54,0.168131281074442,1
80,75,54,0.213111553879451,1
80,76,54,0.196933247208317,1
80,77,54,0.141561808580117,1
81,73,54,0.189641046264434,1
81,74,54,0.218986137967603,1
81,75,54,0.237654145061611,1
81,76,54,0.206935010911974,1
81,77,54,0.151746785009423,1
82,72,54,0.188948295595225,1
82,73,54,0.248523863890316,1
82,74,54,0.236739176682029,1
82,75,54,0.218989411936731,1
82,76,54,0.195931389101291,1
82,77,54,0.144018286460145,1
83,73,54,0.212569158475934,1
83,74,54,0.194177789996409,1
83,75,54,0.182006856869042,1
83,76,54,0.168731300689993,1
83,77,54,0.11884101634177,1
84,73,54,0.147651179175333,1
84,74,54,0.150586881342314,1
84,75,54,0.152238057031694,1
84,76,54,0.13443833481502,1
85,73,54,0.130157266873613,1
85,74,54,0.135835589467071,1
85,75,54,0.131080208192403,1
86,73,54,0.147708344089539,1
86,74,54,0.1377186281212,1
87,73,54,0.161747241480803,1
87,74,54,0.143126895369034,1
88,77,54,0.12642191541232,1
89,76,54,0.127371496005098,1
89,77,54,0.179941736068531,1
89,78,54,0.137798063091599,1
90,76,54,0.146654078922724,1
90,77,54,0.22099162071176,1
90,78,54,0.179092659261875,1
91,76,54,0.139417123263666,1
91,77,54,0.190779539586668,1
91,78,54,0.172173926335977,1
92,76,54,0.134266592758188,1
92,77,54,0.158603159422606,1
92,78,54,0.148903201498997,1
93,76,54,0.126013705635598,1
93,77,54,0.142106630018312,1
93,78,54,0.12612248855948,1
94,77,54,0.125191939384369,1
94,78,54,0.12395331913577,1
95,77,54,0.121299331413107,1
95,78,54,0.131966711883556,1
95,79,54,0.126596507471056,1
95,80,54,0.115681565471657,1
96,79,54,0.114965673258069,1
96,80,54,0.1326337536513,1
96,81,54,0.120115084961148,1
97,80,54,0.127665929466174,1
97,81,54,0.147343096324977,1
97,82,54,0.116927346055616,1
98,80,54,0.137963292540777,1
98,81,54,0.16353594742731,1
98,82,54,0.136604053616591,1
99,79,54,0.13849599558245,1
99,80,54,0.16017031894018,1
99,81,54,0.179317043915844,1
99,82,54,0.160852965057187,1
100,80,54,0.142384893840491,1
100,81,54,0.164134930678532,1
100,82,54,0.170725512972078,1
100,83,54,0.129995499823441,1
101,81,54,0.137714364895212,1
101,82,54,0.147791582988098,1
101,83,54,0.131176802058559,1
102,83,54,0.129520055910913,1
102,84,54,0.122165955752142,1
102,85,54,0.141162219470309,1
102,86,54,0.147871041512233,1
102,87,54,0.120380971295723,1
103,84,54,0.165868120472266,1
103,85,54,0.208092888957896,1
103,86,54,0.203238605551069,1
103,87,54,0.155296792132073,1
103,88,54,0.129310616101635,1
103,89,54,0.123329215826452,1
104,86,54,0.189404307676596,1
104,87,54,0.160648718846417,1
104,88,54,0.164285580365908,1
104,89,54,0.184830714126626,1
104,90,54,0.163175563508971,1
104,91,54,0.12772806421841,1
105,88,54,0.14563592163126,1
105,89,54,0.165598124010979,1
105,90,54,0.159320205769195,1
62,81,55,0.158726816529973,1
62,82,55,0.171592184418583,1
62,83,55,0.132455169234526,1
63,80,55,0.192485053742085,1
63,81,55,0.280144870543021,1
63,82,55,0.244083419602812,1
63,83,55,0.141210516403386,1
64,79,55,0.145416895451943,1
64,80,55,0.237851360482561,1
64,81,55,0.290889024411844,1
64,82,55,0.205415182624353,1
65,78,55,0.162640140010936,1
65,79,55,0.185929354529685,1
65,80,55,0.228245817704645,1
65,81,55,0.230096623072786,1
65,82,55,0.145227158341772,1
66,77,55,0.165581224206305,1
66,80,55,0.211899808442186,1
66,81,55,0.189893035895515,1
66,82,55,0.117776399308538,1
67,81,55,0.167515551117823,1
72,75,55,0.13173627391976,1
73,75,55,0.162352172050045,1
73,79,55,0.136174845685351,1
74,74,55,0.174592317826936,1
74,75,55,0.173122435233825,1
74,79,55,0.127029166024435,1
74,108,55,0.118087155507786,1
74,109,55,0.128854144722437,1
75,74,55,0.138051253963151,1
75,75,55,0.163420498796498,1
75,76,55,0.1945054931078,1
75,78,55,0.172156437687935,1
75,108,55,0.116619157213454,1
75,109,55,0.152236879344957,1
76,75,55,0.146032542970492,1
76,76,55,0.177303647116816,1
76,77,55,0.185423903159102,1
76,78,55,0.143396232325749,1
76,108,55,0.118917565979664,1
76,109,55,0.173685275279093,1
77,75,55,0.132502170712193,1
77,76,55,0.162762360340485,1
77,77,55,0.157717244574821,1
77,78,55,0.117352691174359,1
78,75,55,0.132631669145776,1
78,76,55,0.154004139615987,1
78,77,55,0.136081584672661,1
79,75,55,0.14030751332105,1
79,76,55,0.155697782689098,1
79,77,55,0.129816832968596,1
80,74,55,0.138057578140928,1
80,75,55,0.167507071773317,1
80,76,55,0.17505891731207,1
80,77,55,0.144305901115015,1
81,73,55,0.171997155556778,1
81,74,55,0.214910117063946,1
81,75,55,0.216885639457518,1
81,76,55,0.216045053772234,1
81,77,55,0.176924055127799,1
82,72,55,0.152014202336757,1
82,73,55,0.246501257581005,1
82,74,55,0.264609910582486,1
82,75,55,0.235174784728286,1
82,76,55,0.239934170137859,1
82,77,55,0.185817627388961,1
83,73,55,0.199738120155703,1
83,74,55,0.19541818855198,1
83,75,55,0.197685906801829,1
83,76,55,0.212338543859127,1
83,77,55,0.145845526316682,1
84,73,55,0.153202876890847,1
84,74,55,0.150533143496512,1
84,75,55,0.167490089530572,1
84,76,55,0.164159862306751,1
85,73,55,0.135561282672328,1
85,74,55,0.142984736803031,1
85,75,55,0.145129775425503,1
85,76,55,0.128082206397044,1
86,73,55,0.129692869662677,1
86,74,55,0.149612428005654,1
86,75,55,0.1386322186073,1
87,73,55,0.142757831899445,1
87,74,55,0.162419041102963,1
87,75,55,0.142363848578504,1
88,74,55,0.131557842602262,1
89,77,55,0.167191110198692,1
89,78,55,0.134855695217687,1
90,76,55,0.130253472103145,1
90,77,55,0.226496646701893,1
90,78,55,0.193777517828293,1
91,76,55,0.131808195248778,1
91,77,55,0.206262740215119,1
91,78,55,0.193219682951656,1
91,79,55,0.117887490498423,1
92,76,55,0.142585913189602,1
92,77,55,0.175649538987461,1
92,78,55,0.163913819993691,1
92,79,55,0.123372978665592,1
93,76,55,0.145042520615171,1
93,77,55,0.165063831092211,1
93,78,55,0.137879794551136,1
94,77,55,0.14819509379474,1
94,78,55,0.131946502779152,1
95,77,55,0.156091353819681,1
95,78,55,0.150240853425297,1
95,79,55,0.12125125824051,1
96,77,55,0.129848866047838,1
96,78,55,0.128611305717302,1
96,79,55,0.117168630514259,1
96,80,55,0.133365544635835,1
96,81,55,0.13466468620584,1
97,80,55,0.133506973036061,1
97,81,55,0.169837030767207,1
97,82,55,0.150054896689551,1
98,80,55,0.127665847028103,1
98,81,55,0.160806434654214,1
98,82,55,0.154406802488179,1
99,80,55,0.136124676230362,1
99,81,55,0.150580592495139,1
99,82,55,0.147893817973723,1
99,83,55,0.11508618594185,1
100,81,55,0.143408916011904,1
100,82,55,0.151549263389921,1
100,83,55,0.133825301761028,1
101,82,55,0.151207981550454,1
101,83,55,0.150375886986543,1
101,86,55,0.115078154118305,1
102,83,55,0.156975113500737,1
102,84,55,0.131393013566574,1
102,85,55,0.14056268270632,1
102,86,55,0.178294529183454,1
102,87,55,0.163283215853585,1
103,84,55,0.153322730070054,1
103,85,55,0.180342196666525,1
103,86,55,0.19552738366622,1
103,87,55,0.174588867204797,1
103,88,55,0.136419898741552,1
103,89,55,0.130750102600069,1
103,90,55,0.121583071478613,1
104,86,55,0.192696625164358,1
104,87,55,0.169569024596506,1
104,88,55,0.163341205148507,1
104,89,55,0.197333495822698,1
104,90,55,0.187300523420515,1
53,108,56,0.13513994168849,1
62,81,56,0.154815907306821,1
62,82,56,0.204625166807549,1
62,83,56,0.158389762585891,1
63,80,56,0.159424089516252,1
63,81,56,0.267056272133445,1
63,82,56,0.287479597754971,1
63,83,56,0.173811228875597,1
64,79,56,0.122018862678712,1
64,80,56,0.204464035708216,1
64,81,56,0.272939382673571,1
64,82,56,0.226973421400433,1
64,83,56,0.122196469615494,1
65,78,56,0.130443668511144,1
65,79,56,0.152005628777312,1
65,80,56,0.196591812269574,1
65,81,56,0.220710836639964,1
65,82,56,0.161924389119757,1
66,78,56,0.202020618374099,1
66,79,56,0.185017165490801,1
66,80,56,0.188445623565342,1
66,81,56,0.201694187164383,1
66,82,56,0.147755757757564,1
67,77,56,0.140917119306638,1
67,81,56,0.195863801659464,1
67,82,56,0.129738693453607,1
72,75,56,0.132475931851697,1
73,75,56,0.15029986730768,1
74,75,56,0.154822961650374,1
74,108,56,0.117020371530959,1
74,109,56,0.131726487342977,1
75,75,56,0.144143627659546,1
75,76,56,0.172114936007329,1
75,79,56,0.146111294882584,1
75,109,56,0.145894812506619,1
76,75,56,0.132357491896573,1
76,76,56,0.159254396634341,1
76,77,56,0.181488957349651,1
76,78,56,0.157044019951709,1
77,75,56,0.133931069806863,1
77,76,56,0.16251840253295,1
77,77,56,0.163715733084556,1
77,78,56,0.13258519762714,1
78,75,56,0.131594421552308,1
78,76,56,0.1539153891435,1
78,77,56,0.147385917014728,1
78,78,56,0.130605859528541,1
79,75,56,0.121241954515289,1
79,76,56,0.137829648649881,1
79,77,56,0.12869083490264,1
80,75,56,0.132509790345381,1
80,76,56,0.151502261912254,1
80,77,56,0.146929751834082,1
81,73,56,0.144142473526544,1
81,74,56,0.194900100602712,1
81,75,56,0.18756847070688,1
81,76,56,0.209985101791704,1
81,77,56,0.206442620087303,1
81,78,56,0.145087896885141,1
82,73,56,0.219618626406488,1
82,74,56,0.276217026184593,1
82,75,56,0.237736229827168,1
82,76,56,0.254528017073254,1
82,77,56,0.221175504718849,1
82,78,56,0.137528019522843,1
83,73,56,0.180515116410094,1
83,74,56,0.207277411553842,1
83,75,56,0.210362008654961,1
83,76,56,0.234420052406118,1
83,77,56,0.164866132819699,1
84,73,56,0.148711368106434,1
84,74,56,0.150483633546096,1
84,75,56,0.182878910343934,1
84,76,56,0.199946500046919,1
84,77,56,0.125880886125418,1
85,73,56,0.128954836938437,1
85,74,56,0.140719727232677,1
85,75,56,0.166104281993603,1
85,76,56,0.165780335702902,1
86,74,56,0.147751942052537,1
86,75,56,0.165435603241295,1
86,76,56,0.133946579941187,1
87,74,56,0.1563602197017,1
87,75,56,0.168220761712707,1
87,76,56,0.120616602858029,1
88,74,56,0.130340526706732,1
88,75,56,0.127302401124248,1
89,77,56,0.144101136722081,1
89,78,56,0.127721021651724,1
90,77,56,0.200233196106134,1
90,78,56,0.186544719403416,1
91,76,56,0.124060688835567,1
91,77,56,0.208088295979622,1
91,78,56,0.202121239928894,1
91,79,56,0.122692687922059,1
92,76,56,0.142765310210224,1
92,77,56,0.192704927855853,1
92,78,56,0.178026157929864,1
92,79,56,0.126886324400124,1
93,76,56,0.147456366235326,1
93,77,56,0.17895417507849,1
93,78,56,0.147978976501664,1
93,79,56,0.115886341641458,1
94,77,56,0.155481429858674,1
94,78,56,0.130962404188118,1
95,77,56,0.166773184506391,1
95,78,56,0.148789154315402,1
96,78,56,0.142322182021755,1
96,80,56,0.122585471321538,1
96,81,56,0.139754636505575,1
96,82,56,0.119157331222416,1
97,80,56,0.133757702542334,1
97,81,56,0.182608124832533,1
97,82,56,0.176115113885134,1
98,80,56,0.123648651576951,1
98,81,56,0.165147034660169,1
98,82,56,0.178214740907034,1
98,83,56,0.138658363252857,1
99,80,56,0.122264539908883,1
99,81,56,0.137010449755738,1
99,82,56,0.145588425525163,1
99,83,56,0.141345950378122,1
99,84,56,0.117445834418375,1
100,81,56,0.123543813903638,1
100,82,56,0.128075693789389,1
100,83,56,0.135149610496599,1
100,84,56,0.123181404364111,1
101,82,56,0.139929899845751,1
101,83,56,0.150373354960059,1
101,84,56,0.122849744225284,1
101,86,56,0.133608583847715,1
101,87,56,0.120083840932019,1
102,84,56,0.139596449623084,1
102,85,56,0.143477257173243,1
102,86,56,0.205504757477557,1
102,87,56,0.200910860608244,1
102,88,56,0.12479736722006,1
103,85,56,0.153505636597152,1
103,86,56,0.188346179697284,1
103,87,56,0.189810727369477,1
103,88,56,0.142568754293846,1
103,89,56,0.134513459451963,1
103,90,56,0.142946673967696,1
103,91,56,0.136596999273038,1
104,88,56,0.155719193033974,1
104,89,56,0.186207147277169,1
104,90,56,0.193299506558679,1
53,107,57,0.114037526563902,1
53,108,57,0.154185397381654,1
53,109,57,0.125444035007256,1
62,81,57,0.150427799417902,1
62,82,57,0.213827917167733,1
62,83,57,0.167275550337723,1
63,80,57,0.136784969853104,1
63,81,57,0.230250075654596,1
63,82,57,0.285869888415595,1
63,83,57,0.190007318616457,1
64,80,57,0.172097105830133,1
64,81,57,0.227996077455232,1
64,82,57,0.222860797992996,1
64,83,57,0.14019769403284,1
65,79,57,0.128008000355756,1
65,80,57,0.165627625063736,1
65,81,57,0.193961978901883,1
65,82,57,0.171573023455374,1
66,78,57,0.151890333245776,1
66,79,57,0.152299320295744,1
66,80,57,0.166509688875891,1
66,81,57,0.198648029758354,1
66,82,57,0.175827982081826,1
67,78,57,0.171639727632149,1
67,81,57,0.224512621410081,1
67,82,57,0.169237800201771,1
68,77,57,0.14092252488876,1
68,82,57,0.130116389366977,1
70,81,57,0.132007212530436,1
72,76,57,0.184470871944186,1
73,75,57,0.142380807267514,1
73,76,57,0.19181837705723,1
73,80,57,0.114006506295254,1
74,75,57,0.136985011722223,1
74,80,57,0.131756906991389,1
74,109,57,0.117843421460731,1
75,75,57,0.126180348308861,1
75,76,57,0.158517859572257,1
75,109,57,0.130081506285832,1
76,75,57,0.123582583351014,1
76,76,57,0.151753615592497,1
76,77,57,0.181439400291765,1
76,79,57,0.129395833513912,1
76,109,57,0.128472574219702,1
77,75,57,0.137323949965084,1
77,76,57,0.163632505962863,1
77,77,57,0.168647991130229,1
77,78,57,0.14823559444162,1
78,75,57,0.129388272765061,1
78,76,57,0.148373949079464,1
78,77,57,0.15646645882223,1
78,78,57,0.159107444883319,1
78,79,57,0.124115239285218,1
79,76,57,0.121066432084031,1
79,77,57,0.126657747181372,1
79,78,57,0.126552732855048,1
80,76,57,0.131784123331877,1
80,77,57,0.145733069010182,1
80,78,57,0.128303682164773,1
81,74,57,0.160320391561055,1
81,75,57,0.164644963250521,1
81,76,57,0.19188254920752,1
81,77,57,0.220138834191883,1
81,78,57,0.180325944589556,1
82,73,57,0.171833009579398,1
82,74,57,0.249010460496241,1
82,75,57,0.22794256336991,1
82,76,57,0.233623606419731,1
82,77,57,0.226291776317153,1
82,78,57,0.164792963142739,1
83,73,57,0.158815802539809,1
83,74,57,0.211067678547673,1
83,75,57,0.210035860090062,1
83,76,57,0.215182657328584,1
83,77,57,0.161491306599154,1
84,73,57,0.138128015584658,1
84,74,57,0.152572378742547,1
84,75,57,0.18902238386784,1
84,76,57,0.208457524325355,1
84,77,57,0.133555187531067,1
85,73,57,0.119209856050879,1
85,74,57,0.139715831727597,1
85,75,57,0.196119065259673,1
85,76,57,0.205531608735157,1
85,77,57,0.128148816358879,1
86,74,57,0.142099010385124,1
86,75,57,0.192415499563408,1
86,76,57,0.163771308121667,1
87,74,57,0.13773603433117,1
87,75,57,0.172180533158571,1
87,76,57,0.126377328192464,1
88,74,57,0.116716928766346,1
88,75,57,0.128783094881604,1
89,77,57,0.117482189607941,1
89,78,57,0.121727173227732,1
90,77,57,0.151908964249953,1
90,78,57,0.163149124441729,1
91,77,57,0.181920650199905,1
91,78,57,0.188876421373676,1
91,79,57,0.119361177019695,1
92,76,57,0.128066825808261,1
92,77,57,0.196142913416094,1
92,78,57,0.185042733069858,1
92,79,57,0.120129523400541,1
93,76,57,0.128544471994986,1
93,77,57,0.176748026291244,1
93,78,57,0.153231989306981,1
94,77,57,0.144312837689895,1
94,78,57,0.124806977143833,1
95,77,57,0.148076453632872,1
95,78,57,0.134014732672648,1
96,78,57,0.144826603528839,1
96,81,57,0.138629462820336,1
96,82,57,0.127585210817232,1
97,80,57,0.13426416672351,1
97,81,57,0.184195257917164,1
97,82,57,0.18529082455784,1
97,83,57,0.127594173013299,1
98,80,57,0.128756832467372,1
98,81,57,0.17387543635649,1
98,82,57,0.194315084716189,1
98,83,57,0.171890822221309,1
98,84,57,0.116040182859891,1
99,81,57,0.134850548726647,1
99,82,57,0.148905804186686,1
99,83,57,0.166040074512711,1
99,84,57,0.156967540975019,1
100,82,57,0.117448107353777,1
100,83,57,0.135879952926448,1
100,84,57,0.151111634998513,1
100,85,57,0.131251526282011,1
101,83,57,0.137814067854353,1
101,84,57,0.130886490501061,1
101,85,57,0.127473707436988,1
101,86,57,0.144832692169269,1
101,87,57,0.128261662302003,1
102,84,57,0.151413994291328,1
102,85,57,0.153910996371971,1
102,86,57,0.215007582418286,1
102,87,57,0.211652023152756,1
102,88,57,0.13854763714586,1
102,90,57,0.121120217037302,1
102,91,57,0.128191849032243,1
103,86,57,0.192419491921446,1
103,87,57,0.199430131520286,1
103,88,57,0.148842915714939,1
103,89,57,0.137765087862968,1
103,90,57,0.162124195451529,1
53,108,58,0.142571769171892,1
53,109,58,0.122771274958008,1
62,81,58,0.141031955540347,1
62,82,58,0.188843893666005,1
62,83,58,0.157772925603739,1
63,80,58,0.120057036781889,1
63,81,58,0.184792109555392,1
63,82,58,0.238125832153448,1
63,83,58,0.185433948826967,1
64,80,58,0.135864254362246,1
64,81,58,0.174112457589145,1
64,82,58,0.195499602036098,1
64,83,58,0.152585615941469,1
65,80,58,0.128357761539728,1
65,81,58,0.156010646947606,1
65,82,58,0.167306782589984,1
65,83,58,0.12768554972721,1
66,79,58,0.119578118693488,1
66,80,58,0.14030303811145,1
66,81,58,0.176815896377888,1
66,82,58,0.182690798441459,1
66,83,58,0.125086230222871,1
67,78,58,0.128923145388348,1
67,79,58,0.160558201843824,1
67,81,58,0.228038427070288,1
67,82,58,0.191375319529965,1
68,77,58,0.114100886110344,1
68,78,58,0.16357515261878,1
68,82,58,0.153552979603973,1
69,77,58,0.165339445119233,1
70,76,58,0.132540469084875,1
71,76,58,0.162636100545429,1
71,81,58,0.1215543123685,1
72,76,58,0.178619688491494,1
72,77,58,0.201098112799401,1
72,80,58,0.140475215912376,1
73,76,58,0.173362483121394,1
73,77,58,0.192070001605423,1
73,80,58,0.128015396228463,1
74,75,58,0.124894561706451,1
74,76,58,0.153772618180393,1
75,75,58,0.114539633304152,1
75,76,58,0.14302931224602,1
76,75,58,0.119470537010078,1
76,76,58,0.143915615730428,1
76,77,58,0.174379580494794,1
77,75,58,0.135488784276808,1
77,76,58,0.158825918868878,1
77,77,58,0.170779780776911,1
77,78,58,0.162288706511797,1
77,79,58,0.128548782328443,1
78,75,58,0.120837277798777,1
78,76,58,0.138664816976175,1
78,77,58,0.159928245431423,1
78,78,58,0.169485161523976,1
78,79,58,0.134811767502403,1
79,77,58,0.122562741967517,1
79,78,58,0.132569852368959,1
80,77,58,0.136801469244287,1
80,78,58,0.137429388258633,1
81,74,58,0.12113651622174,1
81,75,58,0.142979755188134,1
81,76,58,0.1623564470529,1
81,77,58,0.20218203211825,1
81,78,58,0.19137937077234,1
82,74,58,0.193544276970063,1
82,75,58,0.206634936331429,1
82,76,58,0.195331298824537,1
82,77,58,0.202781992849463,1
82,78,58,0.175262009389838,1
83,74,58,0.193958999354439,1
83,75,58,0.19838844404782,1
83,76,58,0.178849808479872,1
83,77,58,0.146833487720213,1
84,74,58,0.149696597276736,1
84,75,58,0.183907501939886,1
84,76,58,0.191020953590852,1
84,77,58,0.130351055226159,1
85,74,58,0.139062863316358,1
85,75,58,0.223443423175443,1
85,76,58,0.23553944364948,1
85,77,58,0.140994210680432,1
86,74,58,0.134467835867778,1
86,75,58,0.220554392733842,1
86,76,58,0.212562257231656,1
86,77,58,0.124538982749998,1
87,74,58,0.11558354660455,1
87,75,58,0.163945994395342,1
87,76,58,0.143449134013967,1
88,75,58,0.117837344597169,1
90,78,58,0.135516907436084,1
91,77,58,0.141734928530432,1
91,78,58,0.158280861893336,1
92,77,58,0.174064278424741,1
92,78,58,0.173929021103016,1
93,77,58,0.157399363370815,1
93,78,58,0.149198459340789,1
94,77,58,0.119908294947027,1
96,78,58,0.128937171637384,1
96,81,58,0.126565534309877,1
96,82,58,0.125735477144021,1
97,80,58,0.129275450375673,1
97,81,58,0.171815485600754,1
97,82,58,0.179087559878304,1
97,83,58,0.1435358470884,1
98,80,58,0.12985874683956,1
98,81,58,0.171115951455941,1
98,82,58,0.190850130129674,1
98,83,58,0.188671974956162,1
98,84,58,0.135797526631737,1
99,81,58,0.129087173597055,1
99,82,58,0.143685896155541,1
99,83,58,0.173743759202444,1
99,84,58,0.175096662171986,1
99,85,58,0.131231222962668,1
100,83,58,0.131900690765089,1
100,84,58,0.164861316080945,1
100,85,58,0.1654244858785,1
100,86,58,0.128580320779256,1
101,83,58,0.122847129760728,1
101,84,58,0.136963153856387,1
101,85,58,0.146400782059365,1
101,86,58,0.152035671565969,1
101,87,58,0.128882668295203,1
102,85,58,0.156571367156748,1
102,86,58,0.1929843222573,1
102,87,58,0.190127654647227,1
102,88,58,0.14338450256585,1
102,89,58,0.119075270010594,1
102,90,58,0.1333230065909,1
102,91,58,0.159362213855098,1
102,92,58,0.140714415865494,1
103,87,58,0.188916003424901,1
103,88,58,0.154937562346736,1
103,90,58,0.164650510155051,1
103,91,58,0.179434376845435,1
57,88,59,0.122582138468073,1
57,89,59,0.120544964173827,1
62,81,59,0.132100332220718,1
62,82,59,0.147871759901142,1
62,83,59,0.134175004060664,1
63,80,59,0.114638924072934,1
63,81,59,0.152577501679852,1
63,82,59,0.178280726694899,1
63,83,59,0.163837588331216,1
64,81,59,0.135023103387329,1
64,82,59,0.161778426625594,1
64,83,59,0.155623411771667,1
65,81,59,0.129421825060194,1
65,82,59,0.157179748348129,1
65,83,59,0.139823672502089,1
66,80,59,0.123388959874611,1
66,81,59,0.15427249909271,1
66,82,59,0.171994140678732,1
66,83,59,0.13304702748099,1
67,79,59,0.141363615679175,1
67,80,59,0.181135262691977,1
67,81,59,0.208671227360621,1
67,82,59,0.187425546644497,1
67,83,59,0.123329015619706,1
68,78,59,0.137432226483669,1
68,79,59,0.173605239688458,1
68,81,59,0.219582730514749,1
68,82,59,0.161179726019189,1
69,77,59,0.135746874325186,1
69,78,59,0.188181221116055,1
69,81,59,0.184956408632048,1
69,82,59,0.11918967050021,1
70,76,59,0.118853735358527,1
70,77,59,0.169801205536673,1
70,81,59,0.175510913481668,1
71,76,59,0.156399307124496,1
71,77,59,0.195707746389966,1
71,80,59,0.235785627284948,1
71,81,59,0.15285926323164,1
72,76,59,0.174522068813084,1
72,77,59,0.197936447878223,1
72,78,59,0.212556274583033,1
72,79,59,0.209378993535725,1
72,80,59,0.169914970075451,1
72,107,59,0.114171665083228,1
73,76,59,0.157995755711215,1
73,77,59,0.181456488526316,1
73,78,59,0.216340064299812,1
73,79,59,0.204349211251374,1
73,80,59,0.140577757096552,1
74,75,59,0.125816195792964,1
74,76,59,0.13850400385226,1
74,77,59,0.194297077885983,1
74,80,59,0.167371296269428,1
75,75,59,0.124220053404796,1
75,76,59,0.140587673218876,1
75,77,59,0.199722103616082,1
75,80,59,0.166347297651749,1
76,75,59,0.127235779385545,1
76,76,59,0.143278522536402,1
76,77,59,0.172248473906419,1
76,78,59,0.201707801223061,1
76,79,59,0.192167620059039,1
76,80,59,0.125789108998017,1
77,75,59,0.12723799343661,1
77,76,59,0.148003071972299,1
77,77,59,0.170005475301177,1
77,78,59,0.17408522947179,1
77,79,59,0.147501671844092,1
78,76,59,0.128968627650125,1
78,77,59,0.154319335694234,1
78,78,59,0.157931983974416,1
78,79,59,0.129541442702054,1
79,77,59,0.11945334278372,1
79,78,59,0.128927973903969,1
79,79,59,0.115543187280079,1
80,77,59,0.126727949087754,1
80,78,59,0.142544011095505,1
80,79,59,0.1192762186985,1
81,75,59,0.123674760891906,1
81,76,59,0.137481288913125,1
81,77,59,0.168068157065348,1
81,78,59,0.177586833669555,1
81,79,59,0.119230453791906,1
82,74,59,0.141089473760574,1
82,75,59,0.174451431162609,1
82,76,59,0.161005628588883,1
82,77,59,0.165731202612241,1
82,78,59,0.157441524555993,1
83,74,59,0.158095034703131,1
83,75,59,0.174100998697196,1
83,76,59,0.147606921707763,1
83,77,59,0.12913342135521,1
84,74,59,0.140187766133649,1
84,75,59,0.168335515508344,1
84,76,59,0.161915167832608,1
84,77,59,0.121423176950353,1
85,74,59,0.133315752040601,1
85,75,59,0.217251476065448,1
85,76,59,0.237210274930498,1
85,77,59,0.152257689069597,1
86,74,59,0.121637150853569,1
86,75,59,0.222824784332583,1
86,76,59,0.261546747379977,1
86,77,59,0.170070118526162,1
87,75,59,0.147492768532361,1
87,76,59,0.17005571541737,1
87,77,59,0.124979296267166,1
91,78,59,0.121924082450131,1
92,77,59,0.130864220444868,1
92,78,59,0.142053728330093,1
93,77,59,0.125687121326607,1
93,78,59,0.133639439240221,1
96,81,59,0.114940199893952,1
96,82,59,0.121566336550083,1
97,80,59,0.121193645805344,1
97,81,59,0.153349593104522,1
97,82,59,0.168109058125718,1
97,83,59,0.155021166328184,1
98,80,59,0.125819387324021,1
98,81,59,0.157866610583654,1
98,82,59,0.176268107169116,1
98,83,59,0.186099047411595,1
98,84,59,0.145491101493231,1
99,81,59,0.125093131467149,1
99,82,59,0.137500049462843,1
99,83,59,0.163412313873677,1
99,84,59,0.165475467937337,1
99,85,59,0.135175837580229,1
100,83,59,0.128436101261463,1
100,84,59,0.160590894427639,1
100,85,59,0.174926745529595,1
100,86,59,0.145910499293953,1
101,83,59,0.114221163256777,1
101,84,59,0.138423084996572,1
101,85,59,0.152603033928307,1
101,86,59,0.14611873786276,1
101,87,59,0.119083643363292,1
101,92,59,0.122437812958473,1
102,84,59,0.142701844671976,1
102,85,59,0.145152893416147,1
102,86,59,0.151140629645974,1
102,87,59,0.149485614697832,1
102,88,59,0.13755488255731,1
102,89,59,0.122163824139149,1
102,90,59,0.13547024748757,1
102,91,59,0.191022731897824,1
103,86,59,0.148441018339126,1
103,87,59,0.163586623287596,1
103,88,59,0.165893629166985,1
103,89,59,0.155258305329513,1
103,90,59,0.159711056443416,1
57,88,60,0.115793457488524,1
57,89,60,0.121590172929636,1
63,81,60,0.12714925474099,1
63,82,60,0.130655086834141,1
63,83,60,0.13261858504613,1
64,82,60,0.129505264165499,1
64,83,60,0.144916884994085,1
64,84,60,0.114153328500735,1
65,82,60,0.133517030480794,1
65,83,60,0.136982597464412,1
66,81,60,0.127744916915614,1
66,82,60,0.147094368886157,1
66,83,60,0.128743618822185,1
67,79,60,0.115810286631993,1
67,80,60,0.147899235332713,1
67,81,60,0.169875870875788,1
67,82,60,0.16192768664262,1
67,83,60,0.120555610461928,1
68,79,60,0.13730105573492,1
68,80,60,0.165462124746609,1
68,81,60,0.176964496890342,1
68,82,60,0.148705232358535,1
69,78,60,0.136816767394998,1
69,79,60,0.156547778091409,1
69,80,60,0.166981870596158,1
69,81,60,0.155077094671316,1
69,82,60,0.121026779371601,1
70,77,60,0.126538789044084,1
70,78,60,0.16109661666617,1
70,79,60,0.194409864944769,1
70,80,60,0.206181197185461,1
70,81,60,0.161401366663061,1
71,76,60,0.136777032244498,1
71,77,60,0.164412099252046,1
71,78,60,0.186520812362658,1
71,79,60,0.219810377360979,1
71,80,60,0.226931896166093,1
71,81,60,0.159771554211087,1
72,76,60,0.159945474988383,1
72,77,60,0.188488067395338,1
72,78,60,0.197505143664592,1
72,79,60,0.201359253056427,1
72,80,60,0.17760363925929,1
72,81,60,0.115507609363759,1
72,107,60,0.116502271804823,1
73,76,60,0.134903674175346,1
73,77,60,0.164714246561249,1
73,78,60,0.193071824381846,1
73,79,60,0.187542443829996,1
73,80,60,0.139985310006719,1
74,76,60,0.119336386713885,1
74,77,60,0.156900083078733,1
74,78,60,0.217330263308143,1
74,79,60,0.220172516032556,1
74,80,60,0.153759310320267,1
75,75,60,0.12912966453452,1
75,76,60,0.130764223064043,1
75,77,60,0.164562654724483,1
75,78,60,0.227209429822495,1
75,79,60,0.234900336611134,1
75,80,60,0.161657242660374,1
76,75,60,0.123770106410121,1
76,76,60,0.131910701102352,1
76,77,60,0.161623466604761,1
76,78,60,0.210123739074365,1
76,79,60,0.205225904812009,1
76,80,60,0.135076747018191,1
77,76,60,0.123599801131107,1
77,77,60,0.154469372984507,1
77,78,60,0.177413584173699,1
77,79,60,0.154118080807776,1
78,77,60,0.129975490925782,1
78,78,60,0.131002421983436,1
80,78,60,0.129357970885323,1
80,79,60,0.124843261672195,1
81,77,60,0.126348050900186,1
81,78,60,0.142081992811777,1
81,79,60,0.115085161354389,1
82,75,60,0.127146428292822,1
82,76,60,0.12484995093286,1
82,77,60,0.126197660303892,1
82,78,60,0.121469306939835,1
83,74,60,0.114487603104118,1
83,75,60,0.135863312212856,1
83,76,60,0.121317503119457,1
84,74,60,0.119730994208796,1
84,75,60,0.141950221442793,1
84,76,60,0.134529958843146,1
85,74,60,0.118054345155298,1
85,75,60,0.178944812468933,1
85,76,60,0.208484328475485,1
85,77,60,0.152732603023094,1
86,75,60,0.193640764844412,1
86,76,60,0.270896849904673,1
86,77,60,0.206015590876527,1
87,75,60,0.128440034735164,1
87,76,60,0.181798453424091,1
87,77,60,0.15173189904907,1
97,81,60,0.125633524803213,1
97,82,60,0.148235924193906,1
97,83,60,0.15463619231078,1
97,84,60,0.124045567337866,1
98,81,60,0.130667087461989,1
98,82,60,0.151795435248522,1
98,83,60,0.167463944885014,1
98,84,60,0.142450267231253,1
99,81,60,0.114315154435244,1
99,82,60,0.124358820232997,1
99,83,60,0.141265879456885,1
99,84,60,0.142798697629213,1
99,85,60,0.125388989929177,1
100,83,60,0.119075870630829,1
100,84,60,0.144450250178349,1
100,85,60,0.160080096359271,1
100,86,60,0.142200020576543,1
101,84,60,0.139188063193351,1
101,85,60,0.148952311035923,1
101,86,60,0.135804710520831,1
101,91,60,0.123118527669232,1
101,92,60,0.141401066117406,1
102,84,60,0.124658046879092,1
102,85,60,0.124939537562931,1
102,86,60,0.120011542743245,1
102,87,60,0.124009235702035,1
102,88,60,0.130064253175138,1
102,89,60,0.119894480681604,1
102,90,60,0.132075883444061,1
102,91,60,0.200523778531581,1
103,87,60,0.134990775886402,1
103,88,60,0.162187531444236,1
103,89,60,0.155985350236498,1
64,83,61,0.121035659129597,1
65,83,61,0.120984476864014,1
66,82,61,0.119513746336452,1
66,83,61,0.115610833606243,1
67,80,61,0.115187961629647,1
67,81,61,0.127885756472472,1
67,82,61,0.126876690922617,1
68,80,61,0.127494222739944,1
68,81,61,0.133030504536072,1
68,82,61,0.121389012258117,1
69,79,61,0.123395060291908,1
69,80,61,0.133649390693147,1
69,81,61,0.130899021087941,1
69,82,61,0.1148694091442,1
70,78,61,0.123987142298852,1
70,79,61,0.147329211398349,1
70,80,61,0.157269758945426,1
70,81,61,0.137183958342676,1
71,77,61,0.144320751744766,1
71,78,61,0.161283774642388,1
71,79,61,0.180506872602936,1
71,80,61,0.181601273333743,1
71,81,61,0.139865609926787,1
71,93,61,0.114562327327571,1
72,76,61,0.143448580501201,1
72,77,61,0.184919535260318,1
72,78,61,0.188008949100191,1
72,79,61,0.183786447520206,1
72,80,61,0.162721094197227,1
72,81,61,0.115908046408018,1
72,93,61,0.113813777860771,1
73,76,61,0.123234565143412,1
73,77,61,0.160532763810308,1
73,78,61,0.176552271201847,1
73,79,61,0.169622809549777,1
73,80,61,0.135357907949743,1
74,77,61,0.131580995923508,1
74,78,61,0.163849129661237,1
74,79,61,0.168919271270059,1
74,80,61,0.13371372771958,1
75,76,61,0.122781085088526,1
75,77,61,0.133660413841004,1
75,78,61,0.17487306656813,1
75,79,61,0.182679681078663,1
75,80,61,0.13862702500879,1
76,76,61,0.121225219586758,1
76,77,61,0.14580521409968,1
76,78,61,0.199320535992556,1
76,79,61,0.189943676425199,1
76,80,61,0.128604098274472,1
77,77,61,0.135323013091731,1
77,78,61,0.172870221842264,1
77,79,61,0.153254212255705,1
77,96,61,0.116849524516046,1
77,97,61,0.11518096617043,1
78,78,61,0.117323755411235,1
80,78,61,0.115125826877412,1
80,79,61,0.123773168395636,1
81,78,61,0.120148755024954,1
81,79,61,0.117769933808352,1
85,75,61,0.132239911652767,1
85,76,61,0.163995209924074,1
85,77,61,0.14639588288254,1
86,75,61,0.152532066525545,1
86,76,61,0.233670313475713,1
86,77,61,0.215114304390378,1
86,78,61,0.119573537492081,1
87,75,61,0.118480385109216,1
87,76,61,0.178420824309112,1
87,77,61,0.171769520487415,1
97,82,61,0.119722479533689,1
97,83,61,0.133652476232397,1
97,84,61,0.119008200750931,1
98,82,61,0.120154843665383,1
98,83,61,0.134332307678103,1
98,84,61,0.123493244035158,1
100,84,61,0.117385525080582,1
100,85,61,0.124481205438689,1
100,86,61,0.115988670842022,1
101,84,61,0.128562773246877,1
101,85,61,0.129656019844681,1
101,86,61,0.117259430161669,1
101,91,61,0.117908783074625,1
102,88,61,0.114906529830146,1
71,77,62,0.118080725338203,1
71,78,62,0.129881311317438,1
71,79,62,0.13313648456552,1
71,80,62,0.125333155800983,1
71,93,62,0.126908158712225,1
71,94,62,0.141008837549703,1
71,95,62,0.146505713947617,1
71,96,62,0.144211297539445,1
71,97,62,0.131638643689276,1
72,76,62,0.116580411319812,1
72,77,62,0.16297307205144,1
72,78,62,0.164938419231606,1
72,79,62,0.15052169638143,1
72,80,62,0.129573675988041,1
72,93,62,0.140009217047477,1
72,94,62,0.156507312775131,1
72,95,62,0.149226723822473,1
72,96,62,0.12728458272392,1
73,77,62,0.146753687666925,1
73,78,62,0.151813877822821,1
73,79,62,0.140366103236208,1
73,80,62,0.119965718952315,1
74,78,62,0.12088062844756,1
74,79,62,0.125649223367415,1
75,78,62,0.133139417005495,1
75,79,62,0.13815758729862,1
75,80,62,0.115173900050009,1
75,99,62,0.11901854084048,1
75,100,62,0.123379385281441,1
76,77,62,0.130516743973165,1
76,78,62,0.173753286688145,1
76,79,62,0.163613156569777,1
76,80,62,0.11810723506665,1
76,99,62,0.122197034905127,1
76,100,62,0.125385032901741,1
77,77,62,0.119067791699815,1
77,78,62,0.157636914562502,1
77,79,62,0.147903168806414,1
77,96,62,0.120101423795,1
77,97,62,0.124484349862277,1
78,95,62,0.129453787478232,1
78,96,62,0.150009909056204,1
78,97,62,0.138912413835728,1
79,95,62,0.120728094461405,1
79,96,62,0.123078074129821,1
80,79,62,0.116110172782661,1
81,79,62,0.121874972913205,1
85,76,62,0.1210340339219,1
85,77,62,0.127554320094124,1
86,76,62,0.172229265835741,1
86,77,62,0.185998814493423,1
86,78,62,0.119106349163579,1
87,76,62,0.153917461872156,1
87,77,62,0.167467477945225,1
70,96,63,0.13094838971595,1
70,97,63,0.144638597618171,1
70,98,63,0.129433519489491,1
71,93,63,0.123350072658561,1
71,94,63,0.165322780851907,1
71,95,63,0.188433163639666,1
71,96,63,0.18975432795165,1
71,97,63,0.17575184463429,1
71,98,63,0.135984484401209,1
72,77,63,0.137421544864965,1
72,78,63,0.140413069383273,1
72,79,63,0.121844023305761,1
72,93,63,0.148543512415833,1
72,94,63,0.202296974343765,1
72,95,63,0.199850259486785,1
72,96,63,0.157334095971859,1
72,97,63,0.12516347469594,1
73,77,63,0.138006749181366,1
73,78,63,0.136740241310839,1
73,79,63,0.11889104447435,1
73,93,63,0.115991473736455,1
73,94,63,0.129408187447781,1
73,95,63,0.116116885597061,1
75,99,63,0.125579233444645,1
75,100,63,0.144311612895689,1
75,101,63,0.132138289064246,1
76,78,63,0.13891956239422,1
76,79,63,0.134590173966,1
76,98,63,0.116681963247129,1
76,99,63,0.144736227848655,1
76,100,63,0.148158726828307,1
77,78,63,0.134327278955737,1
77,79,63,0.136262406694235,1
77,93,63,0.122322493873203,1
77,97,63,0.122174988609414,1
77,98,63,0.123887250909834,1
77,99,63,0.121409080040113,1
78,79,63,0.114168591320844,1
78,94,63,0.119859986237082,1
78,95,63,0.150893998489546,1
78,96,63,0.16966790317493,1
78,97,63,0.148285858111548,1
78,98,63,0.119413207219728,1
79,94,63,0.115003323903046,1
79,95,63,0.147410083146568,1
79,96,63,0.146660344216164,1
79,97,63,0.117407488938224,1
81,79,63,0.125248268140992,1
81,93,63,0.118361662509275,1
86,77,63,0.131084777616942,1
87,76,63,0.113904188871558,1
87,77,63,0.133245868109638,1
70,95,64,0.11404554661058,1
70,96,64,0.140856915960651,1
70,97,64,0.161777307823194,1
70,98,64,0.140743445843557,1
70,99,64,0.114482868803436,1
71,94,64,0.175845341184327,1
71,95,64,0.214729507025985,1
71,96,64,0.224477738328936,1
71,97,64,0.211118625275908,1
71,98,64,0.153712827024764,1
72,93,64,0.13885113879481,1
72,94,64,0.219023706174508,1
72,95,64,0.227982062983064,1
72,96,64,0.180569019132039,1
72,97,64,0.139049873431651,1
73,93,64,0.116297495635022,1
73,94,64,0.142622763007597,1
73,95,64,0.131466383450279,1
74,101,64,0.122295760384276,1
74,102,64,0.124691446074949,1
75,99,64,0.116801745765133,1
75,100,64,0.147166996827218,1
75,101,64,0.152053442858828,1
75,102,64,0.116396009130558,1
76,98,64,0.121485276371986,1
76,99,64,0.157383335054326,1
76,100,64,0.163393247125408,1
76,101,64,0.127654776772777,1
77,92,64,0.120442599642662,1
77,93,64,0.124883208806308,1
77,97,64,0.120108419254217,1
77,98,64,0.145093172921722,1
77,99,64,0.157443750383926,1
77,100,64,0.130725371178595,1
78,92,64,0.114437857616355,1
78,93,64,0.123147110126335,1
78,94,64,0.125635220672114,1
78,95,64,0.156428360656294,1
78,96,64,0.167929543336422,1
78,97,64,0.143803193754529,1
78,98,64,0.134166854468445,1
78,99,64,0.12118328216206,1
79,94,64,0.126039226107186,1
79,95,64,0.161027733768933,1
79,96,64,0.15714663179709,1
79,97,64,0.122174482204117,1
80,92,64,0.123723646668352,1
80,93,64,0.126526211349735,1
80,94,64,0.122679250516392,1
80,95,64,0.117411599064936,1
81,92,64,0.137608573295642,1
81,93,64,0.147219109465323,1
81,94,64,0.133403466148761,1
82,79,64,0.123874967637168,1
82,80,64,0.115541444303708,1
82,92,64,0.113970834163995,1
82,93,64,0.124738270899606,1
82,94,64,0.123315660652111,1
83,79,64,0.115281116650531,1
86,92,64,0.121614927904844,1
87,91,64,0.126712179862348,1
87,92,64,0.133615803067412,1
70,96,65,0.127559077948541,1
70,97,65,0.146409520494953,1
70,98,65,0.125623750003298,1
71,94,65,0.159814257132165,1
71,95,65,0.199413502583562,1
71,96,65,0.216811186102015,1
71,97,65,0.205722488201463,1
71,98,65,0.144930204631079,1
72,93,65,0.118283923407777,1
72,94,65,0.187808506817581,1
72,95,65,0.208767844780511,1
72,96,65,0.182444756128399,1
72,97,65,0.143958424643312,1
73,89,65,0.123010298258117,1
73,94,65,0.132832959362836,1
73,95,65,0.130385702769957,1
74,88,65,0.141893692479424,1
74,89,65,0.152694599072096,1
74,90,65,0.130527767121021,1
74,101,65,0.117705255252765,1
74,102,65,0.13431889382617,1
75,89,65,0.125102034778879,1
75,90,65,0.133693353739033,1
75,91,65,0.125656572132653,1
75,100,65,0.131124771858525,1
75,101,65,0.154566025734999,1
75,102,65,0.13535237282208,1
76,90,65,0.123941035863105,1
76,91,65,0.125791876561848,1
76,98,65,0.120773824037397,1
76,99,65,0.153510052922416,1
76,100,65,0.164871503071219,1
76,101,65,0.139200876425048,1
77,91,65,0.12388310545252,1
77,92,65,0.117620108501692,1
77,97,65,0.114140656591447,1
77,98,65,0.161134361526086,1
77,99,65,0.185910923732253,1
77,100,65,0.152046824259367,1
78,92,65,0.123601061255915,1
78,93,65,0.120778935197834,1
78,94,65,0.11770371248314,1
78,95,65,0.132585598040631,1
78,96,65,0.136203275043179,1
78,97,65,0.125497207563425,1
78,98,65,0.143060038092984,1
78,99,65,0.145067758441941,1
79,92,65,0.12827599474959,1
79,93,65,0.132255621993837,1
79,94,65,0.129691809744613,1
79,95,65,0.142275486742639,1
79,96,65,0.138183237315749,1
79,97,65,0.11477525308959,1
80,91,65,0.116473006289412,1
80,92,65,0.138085312663581,1
80,93,65,0.14362356119656,1
80,94,65,0.127514561389889,1
81,91,65,0.12307123176988,1
81,92,65,0.155708546745873,1
81,93,65,0.165973605873284,1
81,94,65,0.141179908325096,1
82,79,65,0.114642457133145,1
82,91,65,0.125575829929976,1
82,92,65,0.168625591528494,1
82,93,65,0.183212808087561,1
82,94,65,0.166819644248159,1
82,95,65,0.131728100773806,1
83,79,65,0.132673830330954,1
83,92,65,0.129145268883783,1
83,93,65,0.1414054353352,1
83,94,65,0.153755412177168,1
83,95,65,0.142460312899118,1
86,90,65,0.119849869908012,1
86,91,65,0.120442305220977,1
86,92,65,0.133675629553644,1
86,93,65,0.123242255437804,1
87,90,65,0.125262306166895,1
87,91,65,0.135541886171772,1
87,92,65,0.13987119216192,1
88,91,65,0.116308554113481,1
88,92,65,0.118392364802505,1
71,94,66,0.120898199533674,1
71,95,66,0.154514855246284,1
71,96,66,0.174033034395613,1
71,97,66,0.163417095281829,1
71,98,66,0.114035112306092,1
72,94,66,0.130739338543294,1
72,95,66,0.159996209733006,1
72,96,66,0.160744135025836,1
72,97,66,0.134097465165911,1
73,88,66,0.117269946904229,1
73,89,66,0.133602189008734,1
73,95,66,0.116461370744453,1
74,88,66,0.157798269422315,1
74,89,66,0.177846537148762,1
74,90,66,0.142962549184909,1
74,102,66,0.121821011306923,1
75,88,66,0.117452029050611,1
75,89,66,0.142718155633281,1
75,90,66,0.149731315481738,1
75,91,66,0.133546696409695,1
75,101,66,0.140261948621202,1
75,102,66,0.145277233581822,1
76,90,66,0.142834181330594,1
76,91,66,0.146014277049203,1
76,92,66,0.115753522131278,1
76,99,66,0.131355421805935,1
76,100,66,0.145866018065903,1
76,101,66,0.142183097218134,1
76,102,66,0.11480483658042,1
77,90,66,0.11734570749201,1
77,91,66,0.131825201045258,1
77,98,66,0.155673322135574,1
77,99,66,0.182389899480197,1
77,100,66,0.153518461605716,1
78,91,66,0.117378270530283,1
78,92,66,0.120895502631046,1
78,98,66,0.136494717179943,1
78,99,66,0.14960653957197,1
79,91,66,0.126090243496625,1
79,92,66,0.149707514432786,1
79,93,66,0.139705962712742,1
80,91,66,0.120792372603502,1
80,92,66,0.148016285617487,1
80,93,66,0.144098828456077,1
81,91,66,0.117748441025405,1
81,92,66,0.15185196421189,1
81,93,66,0.163715203125524,1
81,94,66,0.132086011549998,1
82,91,66,0.140284713305825,1
82,92,66,0.193704524804344,1
82,93,66,0.224384206448297,1
82,94,66,0.188135385548257,1
82,95,66,0.128999753910579,1
83,79,66,0.125859876194033,1
83,91,66,0.13003989861342,1
83,92,66,0.160069932922732,1
83,93,66,0.189237464796588,1
83,94,66,0.186937866566774,1
83,95,66,0.150115794870713,1
84,93,66,0.115348445001276,1
84,94,66,0.125196061287948,1
84,95,66,0.121551167944912,1
85,93,66,0.118360437715069,1
86,89,66,0.139796573930274,1
86,90,66,0.144672844748478,1
86,91,66,0.119633740838068,1
86,92,66,0.124879381324413,1
86,93,66,0.140924727162958,1
87,89,66,0.153994623907154,1
87,90,66,0.156995887894775,1
87,91,66,0.130576099384701,1
87,92,66,0.125446649471812,1
87,93,66,0.121078350273807,1
88,92,66,0.116799472829731,1
71,96,67,0.119943672656601,1
72,96,67,0.121608568396466,1
74,89,67,0.172529128432674,1
75,90,67,0.155937665700524,1
75,102,67,0.133533906731733,1
76,90,67,0.155143233558457,1
76,91,67,0.164937724396431,1
76,100,67,0.120453399030038,1
76,101,67,0.132837411018701,1
77,98,67,0.142744559369921,1
77,99,67,0.157813532242425,1
77,100,67,0.136982644571882,1
78,98,67,0.129154784592616,1
78,99,67,0.141271803221171,1
79,92,67,0.164478885866892,1
80,91,67,0.135733401588916,1
80,92,67,0.165314266176799,1
80,93,67,0.146206746392604,1
81,91,67,0.116195531517347,1
81,92,67,0.1477916183187,1
81,93,67,0.157304677357173,1
82,91,67,0.140037823058315,1
82,92,67,0.189924715668736,1
82,93,67,0.230648604846341,1
82,94,67,0.180429993212756,1
83,92,67,0.173339306246413,1
83,93,67,0.212405601341922,1
83,94,67,0.185753561230477,1
83,95,67,0.131646180884392,1
86,90,67,0.151556824138772,1
86,91,67,0.119993783227254,1
86,92,67,0.116644854338051,1
86,93,67,0.141143694457938,1
87,90,67,0.168122483754518,1
87,91,67,0.126416945574291,1
87,92,67,0.117157442490259,1
