x,y,z,signal,mito.p
477,1009,38,0.201637493324872,1
478,1008,38,0.150421086603502,1
478,1009,38,0.157988383392243,1
479,1020,38,0.132857690784309,1
479,1021,38,0.178356534390149,1
460,997,39,0.208983526329495,1
463,1001,39,0.182836572505744,1
463,1002,39,0.131556511816249,1
464,1001,39,0.271702081434117,1
464,1002,39,0.175706444810585,1
465,1001,39,0.19534623189236,1
465,1002,39,0.128231360422264,1
466,1001,39,0.126376751125963,1
468,1002,39,0.114107021858243,1
475,1004,39,0.123646037112395,1
475,1005,39,0.124729096719926,1
476,1005,39,0.119272402993472,1
477,1008,39,0.143240377262996,1
477,1009,39,0.15420250916994,1
477,1010,39,0.141741017170861,1
478,1007,39,0.134353882899122,1
478,1008,39,0.121547576000365,1
478,1009,39,0.119207606669212,1
478,1010,39,0.128208737060049,1
479,1015,39,0.116038757858939,1
479,1021,39,0.155168047418002,1
480,1013,39,0.127476828306841,1
480,1014,39,0.129649460129557,1
480,1015,39,0.139810765055453,1
480,1016,39,0.142114296758968,1
480,1017,39,0.117577075828328,1
480,1020,39,0.169841753291022,1
480,1021,39,0.218137779549856,1
459,997,40,0.199181804494957,1
460,996,40,0.217916586426944,1
460,997,40,0.270284335032845,1
460,998,40,0.191805764032279,1
461,997,40,0.188634866047084,1
463,1000,40,0.174498997929909,1
463,1001,40,0.185942026438973,1
464,999,40,0.119429365081758,1
464,1000,40,0.231133482029631,1
464,1001,40,0.264041229211003,1
464,1002,40,0.139143134444341,1
465,999,40,0.113864465497924,1
465,1000,40,0.168863660902345,1
465,1001,40,0.180770603770783,1
466,1000,40,0.130233262998741,1
466,1001,40,0.1157533337014,1
467,1001,40,0.115729320668836,1
476,1004,40,0.114167048551219,1
479,1006,40,0.126857741943021,1
479,1021,40,0.116994745067565,1
480,1007,40,0.121015815108081,1
480,1020,40,0.12919137531953,1
480,1021,40,0.163307028679404,1
481,1014,40,0.117717726955309,1
481,1015,40,0.13485210327314,1
481,1016,40,0.134553889437639,1
481,1017,40,0.125942844224643,1
459,997,41,0.23544506383439,1
460,996,41,0.228422305839027,1
460,997,41,0.293016138642182,1
460,998,41,0.208163785699454,1
460,999,41,0.132431438846779,1
461,997,41,0.187778793781211,1
461,999,41,0.123374191682931,1
462,999,41,0.1258845016237,1
462,1000,41,0.131594080023154,1
463,999,41,0.140495637000392,1
463,1000,41,0.203330818422563,1
463,1001,41,0.165836205161697,1
464,999,41,0.138552854298104,1
464,1000,41,0.236955682611729,1
464,1001,41,0.211704736411097,1
465,1000,41,0.157388987950663,1
465,1001,41,0.142707945089272,1
479,1005,41,0.120076562827986,1
480,1005,41,0.171347378676597,1
480,1006,41,0.132008413770908,1
481,1008,41,0.127946089364,1
482,1012,41,0.114828319653952,1
482,1014,41,0.117191536521291,1
482,1015,41,0.131291909160217,1
482,1016,41,0.118758590047058,1
458,997,42,0.136373650983397,1
459,996,42,0.190696029820159,1
459,997,42,0.248167966958444,1
459,998,42,0.188888539770198,1
459,999,42,0.120026193166251,1
460,996,42,0.220210602421625,1
460,997,42,0.287383828269532,1
460,998,42,0.212866971897945,1
460,999,42,0.133543634424179,1
461,997,42,0.182110646401159,1
461,998,42,0.15602991390262,1
461,999,42,0.126756048693295,1
462,998,42,0.114388536095816,1
462,999,42,0.147782126163602,1
462,1000,42,0.141500309778719,1
463,999,42,0.176800527565972,1
463,1000,42,0.214653758215072,1
463,1001,42,0.134784374508905,1
464,999,42,0.155930894001787,1
464,1000,42,0.219859934418865,1
464,1001,42,0.151174358594117,1
465,999,42,0.121153015612923,1
465,1000,42,0.136462271910344,1
480,1005,42,0.15709516688669,1
481,1005,42,0.221023300484981,1
481,1007,42,0.139597745078494,1
482,1009,42,0.134910304551674,1
483,1012,42,0.124488660195733,1
458,997,43,0.145731172934535,1
458,998,43,0.129112305432019,1
459,996,43,0.203107387694851,1
459,997,43,0.243886416165475,1
459,998,43,0.187085124516348,1
459,999,43,0.129982875021622,1
459,1000,43,0.117158938152415,1
460,996,43,0.211794452586709,1
460,997,43,0.260225783274738,1
460,998,43,0.203251465890235,1
460,999,43,0.135381037717255,1
460,1000,43,0.116404406036992,1
461,997,43,0.170108593551854,1
461,998,43,0.159468853389119,1
461,999,43,0.129690608504142,1
462,998,43,0.131421466478136,1
462,999,43,0.163119552727767,1
462,1000,43,0.135310258744371,1
463,998,43,0.116486267042069,1
463,999,43,0.195552751038531,1
463,1000,43,0.191482783444702,1
464,999,43,0.158417968183238,1
464,1000,43,0.174147317116556,1
465,999,43,0.118512512403397,1
480,1004,43,0.167542520144096,1
480,1005,43,0.133325279526302,1
481,1005,43,0.214364471245035,1
481,1006,43,0.172287337568735,1
482,1005,43,0.24132520660394,1
482,1008,43,0.146624365886353,1
483,1010,43,0.125140556912041,1
483,1011,43,0.11874390429345,1
457,999,44,0.114163739251489,1
458,997,44,0.151979731445969,1
458,998,44,0.138946496089892,1
458,999,44,0.127910440786476,1
459,996,44,0.208198268367108,1
459,997,44,0.226603745533741,1
459,998,44,0.175734085118298,1
459,999,44,0.136572927356137,1
459,1000,44,0.11673373435608,1
460,996,44,0.208803387366229,1
460,997,44,0.223241402792606,1
460,998,44,0.17747967595337,1
460,999,44,0.131023090385667,1
461,997,44,0.156224597297086,1
461,998,44,0.155443955866708,1
461,999,44,0.126679946576361,1
462,998,44,0.151488965828995,1
462,999,44,0.162442535953363,1
463,998,44,0.13614281260611,1
463,999,44,0.183759019196105,1
463,1000,44,0.14503187432707,1
464,999,44,0.139353551733611,1
464,1000,44,0.119947017286934,1
480,1004,44,0.129598195425902,1
481,1004,44,0.17865233396784,1
481,1005,44,0.17831951969601,1
481,1006,44,0.137834465388635,1
482,1004,44,0.163873637322231,1
482,1005,44,0.203656448805298,1
482,1006,44,0.201024507378349,1
482,1007,44,0.147728211664789,1
483,1005,44,0.168819898063205,1
483,1009,44,0.119198255836521,1
484,1010,44,0.161378978838194,1
484,1011,44,0.152033940366466,1
457,999,45,0.13878070135108,1
457,1000,45,0.123792635557396,1
458,998,45,0.154815671769473,1
458,999,45,0.146455238294076,1
458,1000,45,0.127732456989938,1
459,997,45,0.19815323645274,1
459,998,45,0.165531502272276,1
459,999,45,0.141022687145728,1
459,1000,45,0.115309228032939,1
460,997,45,0.178200102260895,1
460,998,45,0.149810750452137,1
460,999,45,0.123729099357944,1
461,997,45,0.13621615893608,1
461,998,45,0.142882537148008,1
461,999,45,0.119059088594829,1
462,997,45,0.11688074499144,1
462,998,45,0.160754969743815,1
462,999,45,0.146022662178769,1
463,998,45,0.147824652431669,1
463,999,45,0.150684205374246,1
464,998,45,0.114313340797669,1
464,999,45,0.11399054863997,1
481,1004,45,0.139227645244576,1
481,1005,45,0.137994936983396,1
482,1004,45,0.140866596545628,1
482,1005,45,0.161955586041416,1
482,1006,45,0.147034000664027,1
483,1004,45,0.140213157059695,1
483,1005,45,0.165108512527007,1
483,1008,45,0.120485973845179,1
484,1010,45,0.115904737108287,1
453,1001,46,0.12945079615392,1
453,1002,46,0.122567064077841,1
455,999,46,0.128002111922071,1
456,999,46,0.138155290809483,1
456,1000,46,0.118296230234177,1
457,998,46,0.162850557300207,1
457,999,46,0.149647405301738,1
457,1000,46,0.12995446921753,1
458,998,46,0.168575280751097,1
458,999,46,0.151998857078576,1
458,1000,46,0.127983893108253,1
459,997,46,0.172000759278193,1
459,998,46,0.155950066741863,1
459,999,46,0.135674776343156,1
460,997,46,0.148509877682629,1
460,998,46,0.130927733090585,1
461,996,46,0.12994793305614,1
461,997,46,0.129322027886114,1
461,998,46,0.130346226710538,1
462,997,46,0.134678323818253,1
462,998,46,0.154401867980752,1
462,999,46,0.119426538633589,1
463,997,46,0.130518816701821,1
463,998,46,0.147426099686189,1
463,999,46,0.114314895344162,1
464,998,46,0.114999649520427,1
482,1004,46,0.12255820787358,1
482,1005,46,0.12548214495006,1
483,1004,46,0.154113417168298,1
483,1005,46,0.158698799362504,1
483,1006,46,0.13322616541053,1
484,1009,46,0.115937971428001,1
452,1001,47,0.147691008540773,1
452,1002,47,0.12897084170119,1
453,1000,47,0.120054822730824,1
453,1001,47,0.167188483957269,1
453,1002,47,0.155937606816187,1
454,999,47,0.115636601392045,1
454,1001,47,0.118047502795357,1
455,999,47,0.154657261126502,1
455,1000,47,0.128660215047482,1
456,998,47,0.168488544122929,1
456,999,47,0.157521041964464,1
456,1000,47,0.13306269071459,1
457,997,47,0.179390920204846,1
457,998,47,0.181083185384474,1
457,999,47,0.158779482680845,1
457,1000,47,0.13443815816201,1
458,997,47,0.179829561406848,1
458,998,47,0.178120561298689,1
458,999,47,0.154001796019381,1
458,1000,47,0.123823797148453,1
459,997,47,0.157872510794206,1
459,998,47,0.15177016209115,1
459,999,47,0.130152567903533,1
460,996,47,0.153669287946103,1
460,997,47,0.142293364027304,1
460,998,47,0.127309808773823,1
461,996,47,0.142974644027696,1
461,997,47,0.149701272693081,1
461,998,47,0.131558949627794,1
462,997,47,0.168232138166585,1
462,998,47,0.149278754022507,1
463,997,47,0.160752755692749,1
463,998,47,0.14220406004205,1
464,997,47,0.122779165459145,1
482,1004,47,0.118207915505782,1
483,1004,47,0.172149736650403,1
483,1005,47,0.162266000711511,1
484,1004,47,0.223176771344489,1
484,1008,47,0.118886757694628,1
485,1009,47,0.128239651336891,1
452,1001,48,0.162258581285069,1
452,1002,48,0.135160221454098,1
453,1000,48,0.119911074287726,1
453,1001,48,0.186570122106329,1
453,1002,48,0.169087515597283,1
454,999,48,0.119441141949126,1
454,1000,48,0.115237200712114,1
454,1001,48,0.124794163912136,1
455,998,48,0.170745027241307,1
455,999,48,0.167510451734252,1
455,1000,48,0.138001426037316,1
456,997,48,0.171132003326164,1
456,998,48,0.18831724393416,1
456,999,48,0.171888596393377,1
456,1000,48,0.140299881910996,1
457,996,48,0.161555372757637,1
457,997,48,0.199658673408436,1
457,998,48,0.195437667490608,1
457,999,48,0.167257143094026,1
457,1000,48,0.133483525293131,1
458,996,48,0.168434252764361,1
458,997,48,0.187816126450769,1
458,998,48,0.182926218020152,1
458,999,48,0.154060892339836,1
458,1000,48,0.116004840480918,1
459,997,48,0.150717863661185,1
459,998,48,0.148151766699692,1
459,999,48,0.123914019729362,1
460,996,48,0.14922257836516,1
460,997,48,0.14721912124219,1
460,998,48,0.126164166893097,1
461,996,48,0.176858140001138,1
461,997,48,0.1869813820917,1
461,998,48,0.136109743162539,1
462,997,48,0.211665307459147,1
462,998,48,0.145806014926661,1
463,998,48,0.132280730275066,1
464,997,48,0.124688007229678,1
482,1004,48,0.115671048729097,1
483,1004,48,0.18400459043447,1
483,1005,48,0.166229705631076,1
484,1003,48,0.121039781033176,1
484,1004,48,0.224023151248518,1
484,1007,48,0.113817982202421,1
485,1008,48,0.141945769786927,1
452,1001,49,0.154755468423486,1
452,1002,49,0.128345301614053,1
453,1000,49,0.115317954691659,1
453,1001,49,0.177676797159382,1
453,1002,49,0.157344165193459,1
454,999,49,0.116701501070093,1
454,1000,49,0.114320501133029,1
454,1001,49,0.122880858708871,1
455,997,49,0.145428130583413,1
455,998,49,0.169976563091788,1
455,999,49,0.16307416468093,1
455,1000,49,0.13590455480238,1
456,996,49,0.143468801382472,1
456,997,49,0.182647589115084,1
456,998,49,0.192464679761538,1
456,999,49,0.172844124304176,1
456,1000,49,0.138957283700401,1
457,996,49,0.174991235655304,1
457,997,49,0.205695943142415,1
457,998,49,0.197415191951632,1
457,999,49,0.168107762670308,1
457,1000,49,0.129970214889201,1
458,996,49,0.178758043129338,1
458,997,49,0.189027047507318,1
458,998,49,0.180624181978793,1
458,999,49,0.151558885090561,1
459,996,49,0.156865847725293,1
459,997,49,0.151820048901322,1
459,998,49,0.146967826446284,1
459,999,49,0.121686272167362,1
460,996,49,0.144089889813745,1
460,997,49,0.146060713237237,1
460,998,49,0.123089238600087,1
461,996,49,0.193371051027942,1
461,997,49,0.194649112005357,1
461,998,49,0.129626224370239,1
462,997,49,0.219391050221462,1
462,998,49,0.132829720724309,1
463,998,49,0.116634349372359,1
464,997,49,0.119529032710296,1
483,1004,49,0.175696198935974,1
483,1005,49,0.156460817702761,1
484,1004,49,0.197742789071218,1
485,1008,49,0.113919227931187,1
486,1009,49,0.132734610743443,1
446,1014,50,0.131428320614945,1
446,1015,50,0.168022721911041,1
452,1001,50,0.128879500317881,1
452,1020,50,0.132305073059917,1
452,1021,50,0.14686017410167,1
453,1001,50,0.145562928607311,1
453,1002,50,0.125956599605729,1
453,1021,50,0.11810741171966,1
455,997,50,0.141153916778814,1
455,998,50,0.153404579298265,1
455,999,50,0.142783705677053,1
455,1000,50,0.120063525835809,1
456,996,50,0.146767878792104,1
456,997,50,0.17640261077133,1
456,998,50,0.180831631497486,1
456,999,50,0.158492445092476,1
456,1000,50,0.123695511732209,1
457,996,50,0.17113949341381,1
457,997,50,0.192044080720345,1
457,998,50,0.184505425273044,1
457,999,50,0.154663691296085,1
457,1000,50,0.11546611946002,1
458,996,50,0.173833157402637,1
458,997,50,0.177460326560284,1
458,998,50,0.166343823475876,1
458,999,50,0.136966745800934,1
459,996,50,0.156122268096523,1
459,997,50,0.147501506967948,1
459,998,50,0.135408972446653,1
460,996,50,0.138509586087393,1
460,997,50,0.135467515254341,1
461,995,50,0.117253612389189,1
461,996,50,0.183593789746927,1
461,997,50,0.170812390922654,1
462,996,50,0.230271038478512,1
462,997,50,0.193803886234331,1
463,997,50,0.158811103569729,1
483,1004,50,0.150836739360401,1
483,1005,50,0.129173710018477,1
484,1003,50,0.113887453943027,1
484,1004,50,0.169884644641978,1
484,1005,50,0.171452911185084,1
485,1004,50,0.185997471930543,1
485,1007,50,0.135289978978763,1
486,1008,50,0.131461460719719,1
445,1014,51,0.141660369183123,1
445,1015,51,0.18432218899366,1
445,1016,51,0.150636403069598,1
446,1014,51,0.173226931377984,1
446,1015,51,0.222985891878182,1
446,1016,51,0.158889478622065,1
452,1020,51,0.159605052860234,1
452,1021,51,0.160265923549476,1
455,997,51,0.144520087001843,1
455,998,51,0.14770892115604,1
455,999,51,0.13207732022188,1
456,996,51,0.155654750015734,1
456,997,51,0.177396649038424,1
456,998,51,0.178656726739368,1
456,999,51,0.151981615744748,1
456,1000,51,0.114061504265864,1
457,995,51,0.155954636166402,1
457,996,51,0.171232624880959,1
457,997,51,0.184967961738936,1
457,998,51,0.180799374657764,1
457,999,51,0.14908053756783,1
458,996,51,0.167760521735952,1
458,997,51,0.16869667669993,1
458,998,51,0.157517850433408,1
458,999,51,0.126695291834542,1
459,996,51,0.15635333023429,1
459,997,51,0.14486101553529,1
459,998,51,0.125817832777528,1
460,995,51,0.133498481914689,1
460,996,51,0.139459649531733,1
460,997,51,0.12768286460145,1
461,995,51,0.128588340825933,1
461,996,51,0.165798542739853,1
461,997,51,0.144669252803931,1
462,996,51,0.205403806170476,1
462,997,51,0.163884931338037,1
463,997,51,0.142584499965517,1
464,996,51,0.122728925342952,1
483,1004,51,0.123039822864609,1
484,1002,51,0.123848033941497,1
484,1003,51,0.139714065197491,1
484,1004,51,0.158497768236526,1
484,1005,51,0.146908612357156,1
485,1003,51,0.149876854008676,1
485,1004,51,0.203602086785526,1
485,1006,51,0.165665911659551,1
445,1014,52,0.139912670288791,1
445,1015,52,0.189380541958246,1
445,1016,52,0.172712235166517,1
445,1017,52,0.130236195438716,1
446,1014,52,0.176760874853543,1
446,1015,52,0.232577443737665,1
446,1016,52,0.176408298998269,1
446,1017,52,0.121969788472388,1
452,1020,52,0.150648003283956,1
452,1021,52,0.144102773706646,1
455,996,52,0.123867159574103,1
455,997,52,0.140303285425665,1
455,998,52,0.1395491655006,1
455,999,52,0.120162840158326,1
456,995,52,0.132187327939968,1
456,996,52,0.154915904687645,1
456,997,52,0.168405140348226,1
456,998,52,0.165097112519394,1
456,999,52,0.13663453214934,1
457,995,52,0.155911214856415,1
457,996,52,0.166240446134116,1
457,997,52,0.174150308440867,1
457,998,52,0.167461130213713,1
457,999,52,0.134815594984298,1
458,995,52,0.147030538265021,1
458,996,52,0.15957432701327,1
458,997,52,0.161301004199348,1
458,998,52,0.14538607539004,1
459,995,52,0.145064001621251,1
459,996,52,0.148137516690176,1
459,997,52,0.13681953495883,1
460,995,52,0.151134140592054,1
460,996,52,0.138226517303327,1
460,997,52,0.116622266306439,1
461,995,52,0.151067471745882,1
461,996,52,0.149759697732096,1
461,997,52,0.121224253883634,1
462,995,52,0.160894619837068,1
462,996,52,0.173732889153863,1
462,997,52,0.133638026016136,1
463,996,52,0.166740091509086,1
463,997,52,0.122562318000292,1
484,1002,52,0.154179567832306,1
484,1003,52,0.165665605460999,1
484,1004,52,0.147869051221647,1
484,1005,52,0.121420786246277,1
485,1003,52,0.169717189364867,1
485,1004,52,0.212394554640331,1
485,1006,52,0.140575013086455,1
445,1014,53,0.119989849753553,1
445,1015,53,0.167222754641311,1
445,1016,53,0.172360954766654,1
445,1017,53,0.135097038560667,1
446,1014,53,0.144052686689728,1
446,1015,53,0.191250296305983,1
446,1016,53,0.166311142668928,1
446,1017,53,0.131611321356982,1
452,1020,53,0.116846827613419,1
455,996,53,0.127319006507237,1
455,997,53,0.14313890777375,1
455,998,53,0.145756870059133,1
455,999,53,0.121444351757881,1
456,995,53,0.132449386792648,1
456,996,53,0.156646727331038,1
456,997,53,0.166299566008305,1
456,998,53,0.161820128512945,1
456,999,53,0.130798128665197,1
457,995,53,0.15590353633889,1
457,996,53,0.169229379741602,1
457,997,53,0.171896875531137,1
457,998,53,0.159207018296918,1
457,999,53,0.125909103499633,1
458,995,53,0.142431129821779,1
458,996,53,0.15823555628457,1
458,997,53,0.158900148463901,1
458,998,53,0.136946159836774,1
459,995,53,0.141394612394088,1
459,996,53,0.140232765543863,1
459,997,53,0.128754759738716,1
460,995,53,0.170274835811626,1
460,996,53,0.138178302808321,1
461,994,53,0.149378091898759,1
461,995,53,0.180454500873749,1
461,996,53,0.143790368745965,1
462,995,53,0.168050986392725,1
462,996,53,0.143693268474513,1
463,996,53,0.140069714815148,1
484,1003,53,0.17757853097806,1
484,1004,53,0.139589100857846,1
485,1003,53,0.186654503361024,1
485,1004,53,0.20788853675532,1
485,1005,53,0.195124779678365,1
485,1006,53,0.132989014632334,1
445,1015,54,0.133811887909095,1
445,1016,54,0.14839683153276,1
445,1017,54,0.119384683646962,1
446,1015,54,0.128308793325211,1
446,1016,54,0.13229624040939,1
446,1017,54,0.120183461453088,1
455,996,54,0.131452074556427,1
455,997,54,0.146826268500516,1
455,998,54,0.152057835630356,1
455,999,54,0.121227410084089,1
456,995,54,0.135940568462793,1
456,996,54,0.156966269073343,1
456,997,54,0.164251144805723,1
456,998,54,0.156869321901167,1
456,999,54,0.124190611236375,1
457,994,54,0.151309085956811,1
457,995,54,0.15509377071551,1
457,996,54,0.173350612039086,1
457,997,54,0.170887668658873,1
457,998,54,0.149018449923064,1
457,999,54,0.11721503137169,1
458,995,54,0.141406118393507,1
458,996,54,0.160648271325457,1
458,997,54,0.156703692038498,1
458,998,54,0.125652273576064,1
459,995,54,0.139176663185739,1
459,996,54,0.135470836330939,1
459,997,54,0.120388060969879,1
460,994,54,0.168772825924333,1
460,995,54,0.185105221128115,1
460,996,54,0.140251325886836,1
461,994,54,0.181271862576583,1
461,995,54,0.209682294977929,1
461,996,54,0.146278326192469,1
462,994,54,0.154259473877401,1
462,995,54,0.1713144270017,1
462,996,54,0.124299347052787,1
463,995,54,0.157938802780622,1
464,995,54,0.130507981983843,1
483,1002,54,0.115849220955513,1
484,1002,54,0.184225595127505,1
484,1003,54,0.174828597116948,1
484,1004,54,0.132348305940026,1
485,1002,54,0.181657660974703,1
485,1003,54,0.204315647179374,1
485,1004,54,0.190531907396513,1
485,1005,54,0.160846381788328,1
485,1006,54,0.124438961815439,1
486,1004,54,0.206882839389532,1
486,1005,54,0.182187466907003,1
444,1020,55,0.114836057055813,1
454,998,55,0.118458703896391,1
455,996,55,0.132540139332589,1
455,997,55,0.146988824600802,1
455,998,55,0.156012813891201,1
455,999,55,0.122464405124991,1
456,995,55,0.140853112032491,1
456,996,55,0.157133618358648,1
456,997,55,0.164535332392189,1
456,998,55,0.157192702902235,1
456,999,55,0.121445600105822,1
457,994,55,0.139748912948034,1
457,995,55,0.161817773139472,1
457,996,55,0.182251815710303,1
457,997,55,0.174694458597622,1
457,998,55,0.146788959384694,1
458,995,55,0.151474386067193,1
458,996,55,0.169415972428187,1
458,997,55,0.157010255672964,1
458,998,55,0.119839376719187,1
459,994,55,0.134548589847323,1
459,995,55,0.138706624855333,1
459,996,55,0.13407518333285,1
459,997,55,0.116147069708126,1
460,994,55,0.158666636737721,1
460,995,55,0.173804044986503,1
460,996,55,0.133647895030991,1
461,994,55,0.190732255464184,1
461,995,55,0.206932796860909,1
461,996,55,0.139934881460648,1
462,994,55,0.170617542652045,1
462,995,55,0.164298758680493,1
463,995,55,0.138650472751721,1
464,995,55,0.118675763338857,1
483,1001,55,0.124608218953257,1
484,1001,55,0.183379804066844,1
484,1002,55,0.1788021592745,1
484,1003,55,0.164266160311618,1
484,1004,55,0.123413208444523,1
485,1002,55,0.195549512400005,1
485,1003,55,0.223061405151748,1
485,1004,55,0.176748250051724,1
485,1005,55,0.131606775486177,1
486,1004,55,0.187023048648449,1
486,1007,55,0.117788482374458,1
443,1013,56,0.116360395883636,1
444,1020,56,0.124849856717921,1
454,997,56,0.114389030724245,1
454,998,56,0.119507952117707,1
455,996,56,0.130286765307195,1
455,997,56,0.140484107447239,1
455,998,56,0.145633448489113,1
455,999,56,0.117662293240606,1
456,995,56,0.144714417090288,1
456,996,56,0.151354132474495,1
456,997,56,0.158770131848154,1
456,998,56,0.149818275870386,1
456,999,56,0.114226274417215,1
457,994,56,0.135317207096118,1
457,995,56,0.170796127068819,1
457,996,56,0.179648303641181,1
457,997,56,0.170705869157308,1
457,998,56,0.142859360273027,1
458,994,56,0.141698632225202,1
458,995,56,0.169395421794629,1
458,996,56,0.168750355661395,1
458,997,56,0.148021644092139,1
459,994,56,0.135090631944819,1
459,995,56,0.142429622382756,1
459,996,56,0.130132759212619,1
460,994,56,0.146505560848341,1
460,995,56,0.152280112225067,1
460,996,56,0.120694447951334,1
461,993,56,0.11811103899481,1
461,994,56,0.181741877353254,1
461,995,56,0.183559401294212,1
461,996,56,0.125232993544016,1
462,994,56,0.174570660167846,1
462,995,56,0.156387259389178,1
463,994,56,0.153092268552523,1
463,995,56,0.126508334065069,1
483,1001,56,0.124477472171733,1
484,1001,56,0.17647976102946,1
484,1002,56,0.177774768919019,1
484,1003,56,0.163439188685012,1
484,1004,56,0.119322207365573,1
485,1002,56,0.213544188879095,1
485,1003,56,0.243747354915589,1
485,1004,56,0.174827125008526,1
485,1005,56,0.117434952592927,1
486,1004,56,0.176975225616514,1
441,1013,57,0.248978498078204,1
442,1012,57,0.216650431862437,1
442,1013,57,0.225066181283863,1
442,1014,57,0.163887451587654,1
443,1011,57,0.13838505749184,1
443,1012,57,0.148106037123701,1
443,1013,57,0.131506919427761,1
443,1021,57,0.130863490279091,1
444,1020,57,0.117096909391986,1
444,1021,57,0.117098122409325,1
454,997,57,0.115112106826928,1
454,998,57,0.120246467693509,1
455,996,57,0.132843311229252,1
455,997,57,0.135509794208193,1
455,998,57,0.132625604059081,1
456,995,57,0.148524881411656,1
456,996,57,0.150199905257457,1
456,997,57,0.155601860104383,1
456,998,57,0.14417927623707,1
457,995,57,0.175906922423796,1
457,996,57,0.16972523296528,1
457,997,57,0.164818954689021,1
457,998,57,0.141925313368308,1
458,994,57,0.152633170931903,1
458,995,57,0.18706636396663,1
458,996,57,0.159954272308307,1
458,997,57,0.134673671955642,1
459,994,57,0.142813724911975,1
459,995,57,0.150931390043441,1
459,996,57,0.125360937431105,1
460,994,57,0.138011306829038,1
460,995,57,0.13213030434817,1
461,993,57,0.132541364126795,1
461,994,57,0.162701203068241,1
461,995,57,0.153145335116885,1
462,993,57,0.12696179056622,1
462,994,57,0.167859635851724,1
462,995,57,0.151702692417996,1
463,994,57,0.141806202131745,1
463,995,57,0.126445716461272,1
464,995,57,0.115534130869073,1
483,1001,57,0.132216428579235,1
483,1002,57,0.117192619993088,1
484,1001,57,0.168665479778271,1
484,1002,57,0.187597088494585,1
484,1003,57,0.181337871918182,1
484,1004,57,0.131586260183222,1
485,1002,57,0.233016084939667,1
485,1003,57,0.268321013473867,1
485,1004,57,0.194964484736615,1
485,1005,57,0.125603576229496,1
486,1004,57,0.173947063263824,1
440,1013,58,0.175721578085153,1
441,1012,58,0.229575496691737,1
441,1013,58,0.279869951351174,1
441,1014,58,0.234906554797104,1
442,1011,58,0.21057587656637,1
442,1012,58,0.282787010737111,1
442,1013,58,0.247163447279393,1
442,1014,58,0.159431697372571,1
442,1021,58,0.120774036021009,1
443,1010,58,0.116876846848341,1
443,1011,58,0.165244040716682,1
443,1012,58,0.187584546130837,1
443,1013,58,0.14436025135792,1
443,1020,58,0.137361035320427,1
443,1021,58,0.150240087928918,1
453,998,58,0.118173479945597,1
453,999,58,0.122111711501044,1
454,997,58,0.115074173537134,1
454,998,58,0.125289663829792,1
454,999,58,0.120302101614957,1
455,995,58,0.143862148752575,1
455,996,58,0.139456516885013,1
455,997,58,0.130314629375389,1
455,998,58,0.121908419216531,1
456,995,58,0.155629877271852,1
456,996,58,0.153997709446404,1
456,997,58,0.147613516753489,1
456,998,58,0.132540728175957,1
457,995,58,0.172101675254672,1
457,996,58,0.15691602895715,1
457,997,58,0.151576197085593,1
457,998,58,0.133511683783009,1
458,994,58,0.158047609258238,1
458,995,58,0.191059687707626,1
458,996,58,0.14886649300341,1
458,997,58,0.119780669035356,1
459,994,58,0.147776367275458,1
459,995,58,0.154796946550358,1
459,996,58,0.120991024802271,1
460,994,58,0.135179335309837,1
460,995,58,0.118431923299995,1
461,993,58,0.157200475634698,1
461,994,58,0.153628433993202,1
461,995,58,0.129290489435302,1
462,993,58,0.14280676478336,1
462,994,58,0.159654185950894,1
462,995,58,0.142765086449744,1
463,994,58,0.131893765967077,1
463,995,58,0.12356282176757,1
464,995,58,0.116410318024411,1
465,995,58,0.116649659299938,1
482,1000,58,0.118349673658294,1
483,1000,58,0.128496057293235,1
483,1001,58,0.144521641548336,1
483,1002,58,0.132204251298376,1
484,1001,58,0.160408046784878,1
484,1002,58,0.196501248159511,1
484,1003,58,0.199498413797288,1
484,1004,58,0.150729605197951,1
485,1002,58,0.234002845102726,1
485,1003,58,0.269818630589631,1
485,1004,58,0.216289729968679,1
485,1005,58,0.145454228121501,1
486,1004,58,0.169253663642116,1
440,1013,59,0.192290452785691,1
441,1011,59,0.168827529473259,1
441,1012,59,0.2512582169559,1
441,1013,59,0.272374116593625,1
441,1014,59,0.242765376160681,1
441,1015,59,0.179345744141621,1
441,1016,59,0.151532599122595,1
441,1017,59,0.143634431245141,1
441,1021,59,0.12586083012029,1
442,1010,59,0.135167134475244,1
442,1011,59,0.241573533629269,1
442,1012,59,0.322621251799976,1
442,1013,59,0.249114897756064,1
442,1014,59,0.158291378635896,1
442,1015,59,0.115470747768896,1
442,1016,59,0.116801239359836,1
442,1020,59,0.162055065240077,1
442,1021,59,0.166701310284842,1
443,1010,59,0.119218688701405,1
443,1011,59,0.180978983661999,1
443,1012,59,0.219132335999114,1
443,1013,59,0.163645472293836,1
443,1014,59,0.116282268145515,1
443,1019,59,0.117444009003933,1
443,1020,59,0.161442927228004,1
443,1021,59,0.147139486065045,1
453,998,59,0.135120309650587,1
453,999,59,0.128901099092635,1
454,997,59,0.115564892046639,1
454,998,59,0.134870027665275,1
454,999,59,0.122739041672021,1
455,995,59,0.146763191598892,1
455,996,59,0.141184925270595,1
455,997,59,0.126161917511429,1
455,998,59,0.119075069803848,1
456,995,59,0.162440639877717,1
456,996,59,0.156525743572563,1
456,997,59,0.138513378238686,1
456,998,59,0.122177968156858,1
457,995,59,0.158731315293308,1
457,996,59,0.146030246481355,1
457,997,59,0.138380923811394,1
457,998,59,0.122408276575114,1
458,994,59,0.156355414739814,1
458,995,59,0.173570509706588,1
458,996,59,0.138883101212848,1
459,994,59,0.152677133977789,1
459,995,59,0.147718283765598,1
459,996,59,0.117315464496608,1
461,994,59,0.149211849638987,1
462,993,59,0.153755058871147,1
462,994,59,0.151084347996821,1
462,995,59,0.126644674858593,1
463,993,59,0.12146261767917,1
463,994,59,0.129109690967463,1
463,995,59,0.117162376997686,1
464,994,59,0.134761539163077,1
464,995,59,0.114481879546577,1
465,994,59,0.140952296809468,1
465,995,59,0.118215523362102,1
482,999,59,0.115455732263001,1
482,1000,59,0.12257163350238,1
482,1001,59,0.119951092083043,1
483,1000,59,0.129141500286225,1
483,1001,59,0.157073356128324,1
483,1002,59,0.153415178478896,1
483,1003,59,0.115920694763571,1
484,1001,59,0.15800361088175,1
484,1002,59,0.204394976157968,1
484,1003,59,0.202186530881584,1
484,1004,59,0.159466415577573,1
485,1003,59,0.239336588333854,1
485,1004,59,0.218703186952211,1
485,1005,59,0.156051230032557,1
486,1005,59,0.127941319732716,1
440,1013,60,0.198055841759603,1
440,1015,60,0.241230709020176,1
440,1016,60,0.199332147983781,1
440,1017,60,0.159337576648564,1
441,1011,60,0.191157247276906,1
441,1012,60,0.263667737639283,1
441,1013,60,0.251093340812743,1
441,1014,60,0.227505618036809,1
441,1015,60,0.202252975967277,1
441,1016,60,0.17813384560508,1
441,1017,60,0.150780069074625,1
441,1020,60,0.116963241947355,1
441,1021,60,0.158866160424676,1
441,1022,60,0.131507414056191,1
442,1010,60,0.144393285470888,1
442,1011,60,0.242826592317262,1
442,1012,60,0.314380483073909,1
442,1013,60,0.244349199945581,1
442,1014,60,0.169221230149383,1
442,1015,60,0.138753579225531,1
442,1016,60,0.138653004778205,1
442,1017,60,0.132383083029365,1
442,1018,60,0.122636064743752,1
442,1019,60,0.130673128994949,1
442,1020,60,0.17675887278609,1
442,1021,60,0.177432215177876,1
442,1022,60,0.114025737919666,1
443,1010,60,0.116403581656276,1
443,1011,60,0.173777193728903,1
443,1012,60,0.221047584385494,1
443,1013,60,0.187113247675623,1
443,1014,60,0.137368042556511,1
443,1019,60,0.136025938974346,1
443,1020,60,0.154354454312727,1
443,1021,60,0.119735916939356,1
453,998,60,0.150011958231126,1
453,999,60,0.1277060885839,1
454,997,60,0.118565284546074,1
454,998,60,0.144240127310763,1
454,999,60,0.119815528562766,1
455,996,60,0.144117753881938,1
455,997,60,0.12463098363788,1
455,998,60,0.11702676636994,1
456,995,60,0.173413276750353,1
456,996,60,0.1630848580765,1
456,997,60,0.133206286058413,1
457,995,60,0.151543469171176,1
457,996,60,0.14430144945915,1
457,997,60,0.128713693802202,1
458,995,60,0.151161286271338,1
458,996,60,0.129987868413386,1
459,994,60,0.163202120344887,1
459,995,60,0.139170103470615,1
462,994,60,0.148644263516169,1
463,993,60,0.133105311197596,1
463,994,60,0.133259140639162,1
464,993,60,0.126767813783796,1
464,994,60,0.134007007047654,1
465,994,60,0.138851044579871,1
482,1000,60,0.125095133534602,1
482,1001,60,0.129974077701698,1
483,1001,60,0.163256223273577,1
483,1002,60,0.167522534800172,1
483,1003,60,0.129084358925754,1
484,1002,60,0.202412458305179,1
484,1003,60,0.190067804607261,1
484,1004,60,0.157806242361524,1
485,1003,60,0.201967434041063,1
485,1004,60,0.209739577660809,1
485,1005,60,0.15423450691858,1
486,1005,60,0.130402508359692,1
440,1012,61,0.197794748610047,1
440,1016,61,0.214824405023239,1
440,1017,61,0.141083538219421,1
440,1021,61,0.118362345567583,1
441,1011,61,0.209277688922622,1
441,1012,61,0.266967662983365,1
441,1013,61,0.230975177378466,1
441,1014,61,0.213748941495161,1
441,1015,61,0.23093497115327,1
441,1016,61,0.20917007190861,1
441,1017,61,0.147713879217202,1
441,1018,61,0.117032419266277,1
441,1020,61,0.128972985091051,1
441,1021,61,0.166518933716776,1
441,1022,61,0.141577471813717,1
442,1010,61,0.148398515624794,1
442,1011,61,0.216361710182035,1
442,1012,61,0.267296567335228,1
442,1013,61,0.23701367190665,1
442,1014,61,0.194142082534548,1
442,1015,61,0.170555290131136,1
442,1016,61,0.153298693483756,1
442,1017,61,0.14005418112709,1
442,1018,61,0.149471977085419,1
442,1019,61,0.149888854636524,1
442,1020,61,0.160417668485517,1
442,1021,61,0.157721919991166,1
443,1011,61,0.151077222992063,1
443,1012,61,0.195751415014168,1
443,1013,61,0.19906342342417,1
443,1014,61,0.155708770506353,1
443,1018,61,0.125052630820269,1
443,1019,61,0.135954571158094,1
443,1020,61,0.126006698399514,1
444,1013,61,0.11883694154566,1
453,997,61,0.114628030470619,1
453,998,61,0.15086341396499,1
453,999,61,0.120543256528059,1
454,996,61,0.117447330080531,1
454,997,61,0.122517518796822,1
454,998,61,0.14491176205678,1
455,996,61,0.146935970020053,1
455,997,61,0.123763534918129,1
455,998,61,0.114036560860778,1
456,995,61,0.17264044338304,1
456,996,61,0.163784286229507,1
456,997,61,0.128675371875786,1
457,995,61,0.149750876858437,1
457,996,61,0.145106692765461,1
457,997,61,0.121728292030132,1
458,995,61,0.139165816690892,1
458,996,61,0.123127972716861,1
459,994,61,0.1679912658983,1
459,995,61,0.134371501092705,1
463,994,61,0.131934089960946,1
464,994,61,0.120768265355999,1
465,994,61,0.128920790014875,1
466,994,61,0.135845234721446,1
482,1000,61,0.123371989408733,1
482,1001,61,0.128478427322785,1
483,1001,61,0.168625332437412,1
483,1002,61,0.164600658675481,1
483,1003,61,0.12772851173937,1
484,1002,61,0.186477073077252,1
484,1003,61,0.167778540343025,1
484,1004,61,0.144439062154349,1
485,1004,61,0.191973560838543,1
485,1005,61,0.138375765543486,1
440,1016,62,0.221168650582041,1
440,1017,62,0.134484488358237,1
440,1019,62,0.123646319757212,1
440,1020,62,0.130518522280137,1
440,1021,62,0.13758755158739,1
441,1012,62,0.2469409115936,1
441,1013,62,0.209955188548589,1
441,1014,62,0.214323205101777,1
441,1015,62,0.254932599574827,1
441,1016,62,0.228907936741829,1
441,1017,62,0.145276444531708,1
441,1018,62,0.133662698553273,1
441,1019,62,0.15179333896613,1
441,1020,62,0.146700691763768,1
441,1021,62,0.156245030161971,1
441,1022,62,0.133574266056204,1
442,1011,62,0.179544078364971,1
442,1012,62,0.212947714100622,1
442,1013,62,0.225423091026329,1
442,1014,62,0.223411625633548,1
442,1015,62,0.19946247079808,1
442,1016,62,0.159371399811645,1
442,1017,62,0.138950264687449,1
442,1018,62,0.162950378028021,1
442,1019,62,0.162487017181413,1
442,1020,62,0.138550875784386,1
442,1021,62,0.128019565239511,1
443,1011,62,0.124653395016482,1
443,1012,62,0.161264354588098,1
443,1013,62,0.191840494014148,1
443,1014,62,0.166504754368464,1
443,1015,62,0.115310217289798,1
443,1018,62,0.130192986112341,1
443,1019,62,0.126209531386199,1
444,1013,62,0.116633195239357,1
450,999,62,0.116757252760215,1
452,998,62,0.117185188789779,1
453,997,62,0.121942678123706,1
453,998,62,0.142399544263497,1
453,999,62,0.119018976584573,1
454,996,62,0.131578216582809,1
454,997,62,0.125128191201305,1
454,998,62,0.135095401576103,1
455,996,62,0.148503836149669,1
455,997,62,0.120517594734063,1
456,996,62,0.154746364905011,1
456,997,62,0.11925451393194,1
457,995,62,0.147302265925811,1
457,996,62,0.136319536277839,1
459,995,62,0.127485178105805,1
465,994,62,0.117385195328296,1
466,994,62,0.141317862549449,1
467,994,62,0.120136389314217,1
480,999,62,0.115740320262958,1
482,1001,62,0.127235885377352,1
483,1002,62,0.155094359558878,1
483,1003,62,0.121724287895227,1
484,1004,62,0.13221667589345,1
440,1015,63,0.219481072595625,1
440,1017,63,0.147202904495824,1
440,1018,63,0.125801097848998,1
440,1019,63,0.159512145153565,1
440,1020,63,0.15935200331109,1
441,1013,63,0.206999194839132,1
441,1014,63,0.239473294210266,1
441,1015,63,0.274399054722675,1
441,1016,63,0.232776684779803,1
441,1017,63,0.147922942166725,1
441,1018,63,0.154010758215448,1
441,1019,63,0.195163584456344,1
441,1020,63,0.166211981445687,1
441,1021,63,0.135013045942596,1
442,1012,63,0.181236378875202,1
442,1013,63,0.228067162626667,1
442,1014,63,0.263508090425237,1
442,1015,63,0.23385130037343,1
442,1016,63,0.170181150831711,1
442,1017,63,0.140736992120239,1
442,1018,63,0.164004372326887,1
442,1019,63,0.169052691400475,1
442,1020,63,0.127568546549905,1
443,1012,63,0.143147834639215,1
443,1013,63,0.184783959963173,1
443,1014,63,0.182041598627778,1
443,1015,63,0.133923461950543,1
443,1017,63,0.118970161469331,1
443,1018,63,0.133101024417874,1
443,1019,63,0.116673354357083,1
444,1013,63,0.114506740513592,1
451,999,63,0.115893360654409,1
452,998,63,0.121001388445555,1
453,997,63,0.125265368152411,1
453,998,63,0.12771262474529,1
453,999,63,0.120311240464035,1
454,997,63,0.123438022304068,1
454,998,63,0.119277832129329,1
455,996,63,0.147580388425582,1
455,997,63,0.118024125713631,1
456,996,63,0.141265019745567,1
456,997,63,0.114865770092184,1
457,996,63,0.125817526578976,1
466,994,63,0.135027672811867,1
466,995,63,0.114604099876126,1
467,994,63,0.124543151761047,1
480,999,63,0.121555902245594,1
481,1000,63,0.115247352371786,1
440,1015,64,0.211612005357438,1
440,1017,64,0.17793282625597,1
440,1018,64,0.165953455653217,1
440,1019,64,0.18821811804152,1
440,1020,64,0.183906194707608,1
441,1013,64,0.206797975283276,1
441,1014,64,0.258533117681619,1
441,1015,64,0.273621640153955,1
441,1016,64,0.21535568306396,1
441,1017,64,0.155937065080288,1
441,1018,64,0.176667213427362,1
441,1019,64,0.231446063643322,1
441,1020,64,0.198049953325919,1
441,1021,64,0.127623897826537,1
442,1012,64,0.172679801673785,1
442,1013,64,0.232751812035921,1
442,1014,64,0.291306632128726,1
442,1015,64,0.261997895615124,1
442,1016,64,0.181036808080778,1
442,1017,64,0.148696117063192,1
442,1018,64,0.167013668138053,1
442,1019,64,0.18587674726315,1
442,1020,64,0.141154658721458,1
443,1011,64,0.11585532137281,1
443,1012,64,0.142945590495898,1
443,1013,64,0.180114644035233,1
443,1014,64,0.192947319340028,1
443,1015,64,0.157090679900223,1
443,1016,64,0.131886935384003,1
443,1017,64,0.147047520507766,1
443,1018,64,0.141780822982566,1
443,1019,64,0.118606044284036,1
452,999,64,0.119306449917034,1
453,998,64,0.125626164261108,1
453,999,64,0.127584433543985,1
454,999,64,0.114119316907775,1
455,997,64,0.116153240786627,1
462,995,64,0.12471713142268,1
462,996,64,0.120885209648966,1
463,995,64,0.120464952136927,1
463,996,64,0.11764558186581,1
464,996,64,0.114969100326474,1
465,995,64,0.124446946531515,1
465,996,64,0.129775225296184,1
466,994,64,0.125970755400306,1
466,995,64,0.123047301175388,1
466,996,64,0.125340575227425,1
467,995,64,0.115366204517267,1
440,1018,65,0.21872113489808,1
440,1019,65,0.211505942889919,1
440,1020,65,0.204633434168442,1
441,1014,65,0.254794551135535,1
441,1015,65,0.244360505738255,1
441,1016,65,0.182774590852785,1
441,1017,65,0.166077960695035,1
441,1018,65,0.198043923569827,1
441,1019,65,0.246778508592591,1
441,1020,65,0.228772384998419,1
441,1021,65,0.137605252219044,1
442,1013,65,0.22019008711867,1
442,1014,65,0.277907454172912,1
442,1015,65,0.259104107319106,1
442,1016,65,0.183318976546887,1
442,1017,65,0.159163479218257,1
442,1018,65,0.172288927445829,1
442,1019,65,0.198633285120409,1
442,1020,65,0.166545172577272,1
443,1009,65,0.120075879769678,1
443,1010,65,0.119533837672183,1
443,1011,65,0.138059533100911,1
443,1012,65,0.155665290312029,1
443,1013,65,0.171275692884926,1
443,1014,65,0.18704712056535,1
443,1015,65,0.174546870895762,1
443,1016,65,0.161063841644284,1
443,1017,65,0.175561707110628,1
443,1018,65,0.150457536008008,1
443,1019,65,0.121660198183008,1
444,1008,65,0.141657142321464,1
444,1009,65,0.13377073953451,1
444,1017,65,0.129766545744933,1
445,1007,65,0.120832673043636,1
445,1008,65,0.125985441153914,1
449,1001,65,0.120098703338638,1
452,999,65,0.116240966671654,1
453,998,65,0.12928195120646,1
453,999,65,0.122158913185456,1
454,998,65,0.118097354274927,1
454,999,65,0.11511187128958,1
462,995,65,0.135530509717894,1
462,996,65,0.136834008728826,1
463,995,65,0.134575335113116,1
463,996,65,0.135011255858756,1
464,995,65,0.126062697403851,1
464,996,65,0.126008900673712,1
465,994,65,0.116664804351373,1
465,995,65,0.139044880039887,1
465,996,65,0.144800494213884,1
466,994,65,0.126059352773518,1
466,995,65,0.134716115785638,1
466,996,65,0.143720107955246,1
467,995,65,0.119792469456459,1
467,996,65,0.119320052198845,1
468,996,65,0.122711248265032,1
470,998,65,0.124551654659287,1
471,998,65,0.115391041930547,1
474,996,65,0.128045003273027,1
440,1020,66,0.212596080394738,1
441,1014,66,0.215196224279793,1
441,1015,66,0.193658383037995,1
441,1016,66,0.152389637091592,1
441,1017,66,0.171243600921347,1
441,1018,66,0.205122621685189,1
441,1019,66,0.235469536164781,1
441,1020,66,0.234247639067845,1
441,1021,66,0.141755962015551,1
442,1013,66,0.177405528796419,1
442,1014,66,0.219114223177101,1
442,1015,66,0.21589779582266,1
442,1016,66,0.171249689561776,1
442,1017,66,0.161308600278801,1
442,1018,66,0.166097522071734,1
442,1019,66,0.182811358232709,1
442,1020,66,0.175617976982914,1
442,1021,66,0.118822726866747,1
443,1011,66,0.144433185497532,1
443,1012,66,0.150370363635747,1
443,1013,66,0.145892339364471,1
443,1014,66,0.163048338010791,1
443,1015,66,0.179421492952534,1
443,1016,66,0.181967451470827,1
443,1017,66,0.184418005586569,1
443,1018,66,0.145102912391036,1
444,1008,66,0.151542527021787,1
444,1009,66,0.132040611726293,1
444,1011,66,0.117546785725457,1
444,1015,66,0.124464906254251,1
444,1016,66,0.146718592602168,1
444,1017,66,0.150495669504546,1
445,1007,66,0.15828428896174,1
445,1008,66,0.156238529331183,1
448,1002,66,0.114262617829913,1
449,1001,66,0.132237403180018,1
454,998,66,0.122455490036393,1
461,996,66,0.116599748936031,1
462,995,66,0.138848912966877,1
462,996,66,0.139009078363087,1
463,995,66,0.142401004595051,1
463,996,66,0.139722556318864,1
464,995,66,0.136612003002065,1
464,996,66,0.129458780869996,1
465,995,66,0.144179146691529,1
465,996,66,0.139249491333545,1
466,995,66,0.13603451253379,1
466,996,66,0.136899099474771,1
467,995,66,0.120031869616323,1
467,996,66,0.114263689524844,1
468,995,66,0.145430957031581,1
468,996,66,0.124884716245331,1
469,996,66,0.127995410884539,1
469,998,66,0.114254550675766,1
470,997,66,0.120183084593333,1
470,998,66,0.147534140667426,1
471,998,66,0.139054701947272,1
472,998,66,0.117122500524777,1
473,996,66,0.147634114494516,1
473,999,66,0.120666383676395,1
440,1020,67,0.204893820705956,1
441,1015,67,0.159262934863183,1
441,1016,67,0.141273722850552,1
441,1017,67,0.175685022688842,1
441,1018,67,0.200378451988256,1
441,1019,67,0.21234005129815,1
441,1020,67,0.215559046009677,1
441,1021,67,0.143370570531753,1
442,1014,67,0.163512146378359,1
442,1015,67,0.172139537883262,1
442,1016,67,0.160310899405956,1
442,1017,67,0.164576021468947,1
442,1018,67,0.158031251189464,1
442,1019,67,0.157890965145372,1
442,1020,67,0.172472210832683,1
442,1021,67,0.148452371239269,1
443,1011,67,0.135570527513212,1
443,1012,67,0.137413972339248,1
443,1013,67,0.127105315248839,1
443,1014,67,0.143436250121066,1
443,1015,67,0.180697069010935,1
443,1016,67,0.19296861191623,1
443,1017,67,0.179281018478564,1
443,1018,67,0.135747098085665,1
443,1020,67,0.114247084141855,1
443,1021,67,0.132514371546787,1
444,1011,67,0.123444440696784,1
444,1012,67,0.115869606712927,1
444,1015,67,0.150790903792604,1
444,1016,67,0.175973979906592,1
444,1017,67,0.156602634739611,1
445,1007,67,0.17036172553907,1
445,1008,67,0.162959705306977,1
446,1007,67,0.120423026489095,1
446,1008,67,0.114404764619049,1
455,998,67,0.122708763346017,1
455,999,67,0.114021027172719,1
456,999,67,0.113958986635422,1
461,996,67,0.118849625231816,1
462,996,67,0.134266263005901,1
463,996,67,0.138802818307998,1
464,995,67,0.161849488243295,1
464,996,67,0.136589615177198,1
465,995,67,0.165496124562701,1
465,996,67,0.135267708922569,1
466,995,67,0.140386253456275,1
466,996,67,0.122575272554397,1
468,995,67,0.156541701227847,1
468,996,67,0.129746560401009,1
469,996,67,0.141274547231268,1
469,997,67,0.116391957888183,1
469,998,67,0.120314808854848,1
470,996,67,0.119399098532621,1
470,997,67,0.128160298804563,1
470,998,67,0.153593009176158,1
470,999,67,0.118455936332559,1
471,997,67,0.118882576906713,1
471,998,67,0.151175606942058,1
471,999,67,0.120883490226331,1
472,996,67,0.12281897127085,1
472,998,67,0.138525390643401,1
472,999,67,0.132302541033432,1
473,996,67,0.18087672512264,1
473,997,67,0.120544599090939,1
473,998,67,0.134306033487004,1
473,999,67,0.145995198524066,1
474,997,67,0.115743123157391,1
474,999,67,0.12174280113073,1
482,1004,67,0.118647322204162,1
441,1017,68,0.176823798655892,1
441,1018,68,0.190078592217771,1
441,1020,68,0.179348770796535,1
441,1021,68,0.13366629049782,1
442,1015,68,0.138859759461724,1
442,1016,68,0.153861250884207,1
442,1017,68,0.164751320139725,1
442,1018,68,0.148081812107524,1
442,1019,68,0.134193858825321,1
442,1020,68,0.151171626360888,1
442,1021,68,0.15374202187897,1
443,1014,68,0.124940091075697,1
443,1015,68,0.173132339579281,1
443,1016,68,0.19126109569336,1
443,1017,68,0.16359752866678,1
443,1018,68,0.121721237686579,1
443,1021,68,0.13868788785935,1
444,1011,68,0.115878533578393,1
444,1015,68,0.158088545649211,1
444,1016,68,0.178546754351882,1
444,1017,68,0.143223383243383,1
445,1008,68,0.147466093927772,1
446,1007,68,0.117086969715927,1
446,1008,68,0.120637165268454,1
455,999,68,0.118119424124376,1
456,999,68,0.115303751789613,1
456,1001,68,0.117380084167858,1
464,996,68,0.136563588300314,1
465,996,68,0.132780787840394,1
465,997,68,0.115745160555446,1
466,996,68,0.115603084427514,1
466,997,68,0.116178702373877,1
468,996,68,0.13341067359159,1
469,996,68,0.14950902711016,1
469,997,68,0.122825672308383,1
469,998,68,0.122900537854243,1
469,999,68,0.115421767777511,1
470,996,68,0.136186222139229,1
470,997,68,0.1334348868309,1
470,998,68,0.143573945254337,1
470,999,68,0.120651627261583,1
471,996,68,0.124839740388851,1
471,997,68,0.131816309510395,1
471,998,68,0.14754164253194,1
471,999,68,0.125524141259096,1
472,996,68,0.146342215697942,1
472,997,68,0.133992356624648,1
472,998,68,0.149636264385208,1
472,999,68,0.146122918650676,1
473,997,68,0.141298901792986,1
473,998,68,0.148601113074132,1
473,999,68,0.158834574866394,1
474,998,68,0.122174623526525,1
474,999,68,0.132585480271957,1
480,1003,68,0.119929823060576,1
481,1003,68,0.135292310798502,1
481,1004,68,0.119470819654894,1
482,1004,68,0.137413548372022,1
442,1015,69,0.129097266372389,1
442,1017,69,0.159505915190727,1
442,1018,69,0.136579816823547,1
442,1020,69,0.123794260765093,1
442,1021,69,0.130789672874426,1
443,1014,69,0.117999971358659,1
443,1015,69,0.166119003077814,1
443,1016,69,0.181860906151746,1
443,1017,69,0.145038351604122,1
443,1021,69,0.115685604937164,1
444,1015,69,0.149829781869805,1
444,1016,69,0.160416455468179,1
444,1017,69,0.1241087855619,1
456,1001,69,0.115305412327912,1
465,997,69,0.118666153415084,1
466,996,69,0.12573915152664,1
466,997,69,0.123322656111327,1
466,998,69,0.117735144942146,1
467,997,69,0.117134830904912,1
468,996,69,0.138142607123328,1
468,997,69,0.118005588924393,1
468,998,69,0.115734855796499,1
469,996,69,0.150658001844352,1
469,997,69,0.128966319384121,1
469,998,69,0.126592644658559,1
469,999,69,0.121147492262127,1
470,996,69,0.150324963812042,1
470,997,69,0.134979941168424,1
470,998,69,0.129401262649769,1
470,999,69,0.117514116695377,1
471,997,69,0.13714228000906,1
471,998,69,0.132800572977573,1
471,999,69,0.122616809565605,1
472,997,69,0.144172539868936,1
472,998,69,0.143859322304407,1
472,999,69,0.143421953004081,1
473,997,69,0.150458784355949,1
473,998,69,0.147558259691797,1
473,999,69,0.151033601475331,1
474,998,69,0.12863248052483,1
474,999,69,0.129184038331159,1
479,1003,69,0.122867892377898,1
480,1003,69,0.146191436465025,1
480,1004,69,0.128117136585658,1
481,1004,69,0.142465412282689,1
481,1005,69,0.118312870947768,1
481,1006,69,0.122168570216698,1
482,1006,69,0.132110848963278,1
443,1015,70,0.139031348419281,1
443,1017,70,0.122180983034904,1
444,1015,70,0.125224007794213,1
444,1016,70,0.125513235879913,1
465,998,70,0.11667761758307,1
466,997,70,0.129566539206416,1
466,998,70,0.122710624091061,1
467,998,70,0.12060335388224,1
468,997,70,0.130834189433079,1
468,998,70,0.125579798734279,1
468,999,70,0.118783451014073,1
469,997,70,0.136175187214505,1
469,998,70,0.129114295722604,1
469,999,70,0.121313322331541,1
470,997,70,0.139261656837536,1
470,998,70,0.123313105071892,1
470,999,70,0.11426451390556,1
471,998,70,0.122303721546617,1
471,999,70,0.115808543655623,1
472,998,70,0.131554592186868,1
472,999,70,0.12816500955151,1
473,998,70,0.135390553426089,1
473,999,70,0.1299131206362,1
474,999,70,0.116945929952323,1
479,1003,70,0.12901223738999,1
479,1004,70,0.115514027756475,1
480,1004,70,0.140367021831863,1
481,1006,70,0.141042448729172,1
