x,y,z,signal,mito.p
273,40,1,0.188421551648441,1
259,31,2,0.204734621012871,1
259,32,2,0.208433805714475,1
259,33,2,0.21496518569576,1
260,31,2,0.20112411612255,1
272,39,2,0.20567851337871,1
272,40,2,0.225982751317407,1
273,39,2,0.240475694053191,1
273,40,2,0.282482390285761,1
273,41,2,0.242901563854929,1
274,39,2,0.2259149401151,1
274,40,2,0.258403407264424,1
274,41,2,0.219833365806082,1
259,34,3,0.238664317636999,1
261,31,3,0.213571511211389,1
271,39,3,0.209479638644255,1
271,40,3,0.184317572461652,1
272,38,3,0.216987297376642,1
272,41,3,0.227701278911267,1
273,42,3,0.19707438118686,1
274,38,3,0.205600220764445,1
274,42,3,0.179876774868127,1
275,39,3,0.185982845061272,1
275,40,3,0.193881837319442,1
275,41,3,0.175444633272119,1
329,17,28,0.127112204716249,1
329,18,28,0.118990511896143,1
330,18,28,0.177947135149822,1
330,19,28,0.142623434289037,1
331,19,28,0.165401626978938,1
331,20,28,0.137754700665949,1
332,21,28,0.172648333884177,1
332,22,28,0.1840761466806,1
332,23,28,0.16419441563561,1
259,6,29,0.115743288033534,1
266,3,29,0.130588335549897,1
267,2,29,0.121890023749702,1
329,17,29,0.118675798669459,1
329,18,29,0.117091032735169,1
330,17,29,0.126980268471121,1
330,18,29,0.172605548525027,1
330,19,29,0.16430664918163,1
331,18,29,0.157906887470054,1
331,19,29,0.19215477149674,1
331,20,29,0.164783482764507,1
331,21,29,0.118146028067761,1
332,19,29,0.139063970341891,1
332,20,29,0.160185169569931,1
332,21,29,0.162568913517093,1
332,22,29,0.177332629987409,1
332,23,29,0.172658473766981,1
332,24,29,0.136198634957436,1
333,21,29,0.180649019392072,1
333,22,29,0.227631866054998,1
333,23,29,0.239697007582795,1
253,21,30,0.120521363331621,1
253,28,30,0.145477628756962,1
254,19,30,0.121567584898024,1
254,29,30,0.121773432762755,1
255,10,30,0.129150215168078,1
255,30,30,0.115661356367253,1
256,9,30,0.155121728998642,1
256,15,30,0.119147839067317,1
257,8,30,0.137829271790125,1
257,13,30,0.118658180475876,1
257,33,30,0.132569605054745,1
258,7,30,0.133758326716304,1
258,11,30,0.118647157328019,1
258,34,30,0.126719717057464,1
259,6,30,0.118550375031986,1
259,7,30,0.191008870524932,1
259,10,30,0.124339777038463,1
260,6,30,0.150927444792872,1
260,10,30,0.114666552603781,1
261,36,30,0.124242217469183,1
262,5,30,0.115272566644821,1
263,6,30,0.122574565942355,1
264,4,30,0.114882775888664,1
264,5,30,0.143473088162194,1
264,39,30,0.126567571707932,1
265,4,30,0.138104073213298,1
265,6,30,0.116015345446611,1
265,40,30,0.124779807910814,1
266,3,30,0.121346191568366,1
266,4,30,0.142565421440381,1
266,6,30,0.116023707022442,1
267,3,30,0.139099171398455,1
268,2,30,0.127716263797307,1
269,2,30,0.130970730433347,1
330,18,30,0.154739145685314,1
330,19,30,0.170053454258836,1
330,20,30,0.134867189440239,1
331,18,30,0.166549471133862,1
331,19,30,0.204109787537775,1
331,20,30,0.176827661468389,1
331,21,30,0.123438634701171,1
332,20,30,0.150263641663655,1
332,21,30,0.147580141111367,1
332,22,30,0.178572380815276,1
332,23,30,0.191509034082066,1
253,23,31,0.143033646133212,1
253,24,31,0.151991520090205,1
253,25,31,0.153210578962106,1
253,26,31,0.142553750564819,1
253,27,31,0.140386100356999,1
254,28,31,0.121253872705065,1
255,30,31,0.134666853149436,1
256,10,31,0.138503285463351,1
256,11,31,0.142956236783999,1
256,31,31,0.116046401045861,1
256,32,31,0.151600316109963,1
257,8,31,0.155773767037358,1
257,9,31,0.14475790906148,1
257,10,31,0.147607463443662,1
257,11,31,0.14022767793716,1
257,12,31,0.139300320293106,1
257,13,31,0.139634877541307,1
257,14,31,0.130212735918918,1
257,33,31,0.15139460956764,1
258,7,31,0.137586915636552,1
258,8,31,0.141985080970203,1
258,9,31,0.130763186699715,1
258,10,31,0.137116229578441,1
258,11,31,0.128887838339978,1
258,12,31,0.116414993440756,1
258,34,31,0.157812236787014,1
259,7,31,0.19164488024716,1
259,8,31,0.192366649117564,1
259,9,31,0.146306567120418,1
259,10,31,0.13224504636694,1
259,11,31,0.120835676144815,1
259,35,31,0.157810540918113,1
260,6,31,0.136738828086755,1
260,7,31,0.232903851393646,1
260,8,31,0.220490962526196,1
260,9,31,0.163356868382107,1
260,10,31,0.140857975878714,1
260,11,31,0.11477664275994,1
260,35,31,0.119485422970431,1
260,36,31,0.166898831904344,1
260,37,31,0.178485173112413,1
261,6,31,0.123388948097744,1
261,7,31,0.172683499610139,1
261,8,31,0.16507936478027,1
261,9,31,0.137478603787365,1
261,10,31,0.117210202856069,1
261,36,31,0.137302421851535,1
261,37,31,0.163626853066527,1
261,38,31,0.180735826681445,1
262,7,31,0.11625472205274,1
262,37,31,0.127425304512104,1
262,38,31,0.159151820119563,1
263,5,31,0.134000977291562,1
263,38,31,0.137029634272681,1
264,4,31,0.131012031907208,1
264,5,31,0.160646975870047,1
264,6,31,0.119100802259048,1
264,38,31,0.114893716598449,1
264,39,31,0.141973186334161,1
265,4,31,0.148654580051984,1
265,5,31,0.181374074008473,1
265,6,31,0.12780874753675,1
266,4,31,0.139842974787705,1
266,5,31,0.161800755566124,1
266,6,31,0.11872175200593,1
267,3,31,0.126361252768506,1
267,4,31,0.131634121372207,1
267,5,31,0.126723014580327,1
267,40,31,0.118308454622505,1
268,2,31,0.117707363312024,1
268,3,31,0.163576707165272,1
268,4,31,0.161636951117898,1
268,5,31,0.136608128412701,1
269,2,31,0.123470220259453,1
269,3,31,0.14835431704156,1
269,4,31,0.14589041973509,1
269,5,31,0.12625351798582,1
330,18,31,0.136271686865721,1
330,19,31,0.157762620844791,1
330,20,31,0.145251866209511,1
331,19,31,0.198049105391469,1
331,20,31,0.166022597641536,1
331,21,31,0.122366680679569,1
253,24,32,0.156229284490299,1
253,26,32,0.158542437894454,1
254,20,32,0.127136394401824,1
254,25,32,0.124164560805756,1
254,26,32,0.129863375148436,1
254,27,32,0.13689785112683,1
254,28,32,0.146095537434045,1
255,11,32,0.131810986366345,1
255,28,32,0.119240040161944,1
255,29,32,0.131914669906656,1
256,10,32,0.136332267071464,1
256,11,32,0.132433782443385,1
256,12,32,0.160160826785081,1
256,31,32,0.140864382494563,1
257,9,32,0.151077576298084,1
257,10,32,0.137865662310294,1
257,11,32,0.133114261616796,1
257,12,32,0.151173510659667,1
257,13,32,0.175205715963817,1
257,15,32,0.12137843663122,1
257,32,32,0.129541784231208,1
258,8,32,0.15459211149622,1
258,9,32,0.132454768821036,1
258,10,32,0.127809548363731,1
258,11,32,0.132478770076732,1
258,12,32,0.148081659008248,1
258,13,32,0.154940706770323,1
258,14,32,0.12439729525869,1
258,33,32,0.127447138824205,1
259,7,32,0.176543897849148,1
259,8,32,0.207741090375869,1
259,9,32,0.16103182034191,1
259,10,32,0.136893446578434,1
259,11,32,0.139958152550568,1
259,12,32,0.143325783105151,1
259,13,32,0.12781255146491,1
259,34,32,0.135605257495081,1
260,6,32,0.117518709673651,1
260,7,32,0.217781976832923,1
260,8,32,0.259304714477859,1
260,9,32,0.206421374618571,1
260,10,32,0.165734123275348,1
260,11,32,0.144974697635996,1
260,12,32,0.121208861517984,1
260,35,32,0.140384428041833,1
261,7,32,0.165449170192504,1
261,8,32,0.202031641521956,1
261,9,32,0.186486930315239,1
261,10,32,0.151607641321466,1
261,36,32,0.152045505250222,1
261,37,32,0.170658844125906,1
261,38,32,0.170972850740548,1
262,8,32,0.131100558619216,1
262,9,32,0.121465844540828,1
262,36,32,0.121580351022251,1
262,37,32,0.157581209979849,1
262,38,32,0.176015163611779,1
263,5,32,0.119316095171409,1
263,37,32,0.140685268118758,1
263,38,32,0.172065897131607,1
264,4,32,0.139574191343758,1
264,5,32,0.163572679476632,1
264,6,32,0.118209693812754,1
264,37,32,0.117528979101996,1
264,38,32,0.144077347449997,1
264,39,32,0.156238694207326,1
265,4,32,0.151006526457251,1
265,5,32,0.184403154956818,1
265,6,32,0.130865292139798,1
265,38,32,0.118686409626958,1
265,39,32,0.124578293933274,1
265,40,32,0.133639203702873,1
266,4,32,0.136093290878826,1
266,5,32,0.157903059988159,1
266,6,32,0.117415567869239,1
266,40,32,0.136925043913583,1
267,3,32,0.115500543243338,1
267,4,32,0.132771590106979,1
267,5,32,0.130389553805586,1
267,39,32,0.115614354889586,1
268,3,32,0.152178501413413,1
268,4,32,0.157447554312086,1
268,5,32,0.131858859332197,1
269,3,32,0.138491932563208,1
269,4,32,0.134977656456154,1
269,5,32,0.113902787424341,1
330,19,32,0.142072406441739,1
330,20,32,0.142208181945629,1
253,24,33,0.164846936525888,1
254,22,33,0.121045869673606,1
254,23,33,0.115466731857123,1
254,24,33,0.12646823383168,1
254,25,33,0.142750977762636,1
254,26,33,0.156735383588587,1
254,27,33,0.168981818212652,1
255,19,33,0.122926812045342,1
255,26,33,0.120955458662819,1
255,27,33,0.138064137856052,1
255,28,33,0.153106671661315,1
255,29,33,0.166874182920942,1
256,11,33,0.129327068385348,1
256,29,33,0.121528544582698,1
256,30,33,0.137499307520199,1
257,10,33,0.136622425529686,1
257,11,33,0.128604804886514,1
257,12,33,0.159504619735316,1
257,31,33,0.125405312667349,1
257,32,33,0.151656362221769,1
258,9,33,0.138031080189349,1
258,10,33,0.123286536459109,1
258,11,33,0.132294285449407,1
258,12,33,0.171432725634415,1
258,13,33,0.199740357760503,1
258,14,33,0.159199834407823,1
258,32,33,0.117949884341741,1
259,8,33,0.218511647981332,1
259,9,33,0.186681896354523,1
259,10,33,0.143378767231441,1
259,11,33,0.150132871328397,1
259,12,33,0.179506321728188,1
259,13,33,0.17627019167464,1
259,14,33,0.11717189270652,1
259,33,33,0.119045980941448,1
260,7,33,0.195122718726576,1
260,8,33,0.298866957011985,1
260,9,33,0.261478111796954,1
260,10,33,0.183029359824564,1
260,11,33,0.162077029097719,1
260,12,33,0.154738238866526,1
260,13,33,0.125037250231486,1
261,7,33,0.163922570206146,1
261,8,33,0.249598785682495,1
261,9,33,0.239822054360512,1
261,10,33,0.174353235642491,1
261,11,33,0.127774747720658,1
261,35,33,0.117462180710283,1
261,36,33,0.164300996285293,1
261,37,33,0.175050567513106,1
262,7,33,0.117594317162156,1
262,8,33,0.156444730501936,1
262,9,33,0.151479991856061,1
262,36,33,0.140064262125557,1
262,37,33,0.178194131389139,1
262,38,33,0.19107904887758,1
263,36,33,0.125968258704424,1
263,37,33,0.176239030083584,1
263,38,33,0.19700810097731,1
264,4,33,0.144137421250443,1
264,5,33,0.152542406615095,1
264,37,33,0.146823795358369,1
264,38,33,0.166117778283607,1
265,4,33,0.148136244788501,1
265,5,33,0.174107841057137,1
265,6,33,0.136662667085483,1
265,37,33,0.11894116682187,1
265,38,33,0.148032219719036,1
265,39,33,0.146271660485539,1
266,4,33,0.13642953221906,1
266,5,33,0.156170105731773,1
266,6,33,0.131573835588148,1
266,38,33,0.121865127452085,1
266,39,33,0.13626847178093,1
267,3,33,0.119706392332864,1
267,4,33,0.143519100383003,1
267,5,33,0.146610834265747,1
267,6,33,0.11710073687388,1
267,39,33,0.130013035578953,1
268,3,33,0.136705947073062,1
268,4,33,0.150697336581362,1
268,5,33,0.138179303842048,1
268,39,33,0.117045032291228,1
269,3,33,0.132508612658644,1
269,4,33,0.133391006223085,1
269,5,33,0.115537769921089,1
270,3,33,0.135467444593137,1
270,4,33,0.125109807511343,1
271,3,33,0.126653719492732,1
253,24,34,0.181880255544832,1
254,23,34,0.135873734740477,1
254,24,34,0.152254933282633,1
254,25,34,0.175141614474731,1
254,26,34,0.189940743985224,1
255,20,34,0.118163563823272,1
255,24,34,0.11893400648651,1
255,25,34,0.132301257354889,1
255,26,34,0.148541098158023,1
255,27,34,0.172921533653388,1
256,11,34,0.126307938889929,1
256,17,34,0.11475901278949,1
256,27,34,0.12571861266995,1
256,28,34,0.146938101633046,1
256,29,34,0.157572483321129,1
257,10,34,0.141232138731874,1
257,11,34,0.123478852703234,1
257,12,34,0.155288230349496,1
257,16,34,0.119622835458885,1
257,29,34,0.120712207467325,1
257,30,34,0.129884361526086,1
257,31,34,0.148784325799781,1
258,9,34,0.150041388622679,1
258,10,34,0.126034444699034,1
258,11,34,0.132439140918038,1
258,12,34,0.17887572936495,1
258,13,34,0.214960050981588,1
258,14,34,0.178057743488146,1
258,15,34,0.126405757550291,1
258,31,34,0.119875767239355,1
258,32,34,0.149453122320763,1
259,8,34,0.208066909188482,1
259,9,34,0.19827983777695,1
259,10,34,0.149626383593486,1
259,11,34,0.158561728403204,1
259,12,34,0.207059586614997,1
259,13,34,0.211907958034405,1
259,14,34,0.145710692962182,1
259,32,34,0.126587309737642,1
259,33,34,0.149148431208209,1
260,7,34,0.165980295133949,1
260,8,34,0.296269592467629,1
260,9,34,0.284672887616275,1
260,10,34,0.189777763917713,1
260,11,34,0.172345703723412,1
260,12,34,0.183679407572695,1
260,13,34,0.157392167704852,1
260,34,34,0.118295558952737,1
261,7,34,0.153857446956047,1
261,8,34,0.269524774195056,1
261,9,34,0.265254811839577,1
261,10,34,0.180637054094826,1
261,11,34,0.136827708104784,1
261,35,34,0.119249249672226,1
262,7,34,0.118681498673265,1
262,8,34,0.173547014856188,1
262,9,34,0.169914004372327,1
262,10,34,0.118955428608253,1
262,36,34,0.143761421205974,1
262,37,34,0.174300051309456,1
263,36,34,0.143124775532908,1
263,37,34,0.185412891788113,1
263,38,34,0.192082225993751,1
264,5,34,0.135101925960625,1
264,36,34,0.12051116456448,1
264,37,34,0.152576100232636,1
264,38,34,0.164417210412484,1
265,4,34,0.136708302446536,1
265,5,34,0.152201595850322,1
265,6,34,0.140613087698657,1
265,37,34,0.125960992377258,1
265,38,34,0.163951694399148,1
266,4,34,0.13016851378195,1
266,5,34,0.150519105470609,1
266,6,34,0.150279940848093,1
266,38,34,0.151607394007252,1
266,39,34,0.157466267754334,1
267,4,34,0.145317910881712,1
267,5,34,0.153215113056042,1
267,6,34,0.131615631690438,1
267,38,34,0.122310516799089,1
267,39,34,0.138428608347368,1
268,3,34,0.11662199543849,1
268,4,34,0.135269051485449,1
268,5,34,0.135750760691417,1
269,3,34,0.127831559328843,1
269,4,34,0.132008296002234,1
269,5,34,0.117122995153207,1
270,3,34,0.174501989254221,1
270,4,34,0.162976369574303,1
270,5,34,0.12327207446598,1
271,3,34,0.179403780544012,1
271,4,34,0.151878744808286,1
272,3,34,0.137405622540283,1
279,40,34,0.119961019982235,1
279,41,34,0.145071220840947,1
254,23,35,0.164667445290327,1
254,24,35,0.182419070780669,1
255,21,35,0.115833074870351,1
255,22,35,0.113866349796703,1
255,23,35,0.128609386087921,1
255,24,35,0.152025908542921,1
255,25,35,0.167571149708669,1
255,26,35,0.17857620829717,1
256,17,35,0.12660463350954,1
256,25,35,0.115498882705039,1
256,26,35,0.130434023256769,1
256,27,35,0.159338459913616,1
257,11,35,0.12363616809754,1
257,12,35,0.145130022739718,1
257,16,35,0.142647423767866,1
257,28,35,0.136567639542688,1
257,29,35,0.157835354777658,1
257,30,35,0.157991610253902,1
257,31,35,0.162713439233437,1
258,10,35,0.160074125487515,1
258,11,35,0.141013560073518,1
258,12,35,0.176621342528963,1
258,13,35,0.212708478816902,1
258,14,35,0.192365824736848,1
258,15,35,0.15253137169037,1
258,16,35,0.116898327854421,1
258,30,35,0.119922686278951,1
258,31,35,0.144117094377366,1
258,32,35,0.172936136968925,1
259,8,35,0.198696927311667,1
259,9,35,0.22187410849114,1
259,10,35,0.184114386168945,1
259,11,35,0.179494874613106,1
259,12,35,0.228373879360409,1
259,13,35,0.239192769229552,1
259,14,35,0.181513253027032,1
259,15,35,0.11806243586318,1
259,31,35,0.12666979491669,1
259,32,35,0.158251101749496,1
259,33,35,0.168135249878745,1
260,7,35,0.14539126898855,1
260,8,35,0.25719832753409,1
260,9,35,0.28072014696023,1
260,10,35,0.213622081079869,1
260,11,35,0.198015376443326,1
260,12,35,0.211993787843786,1
260,13,35,0.185186069322598,1
260,14,35,0.120728977726458,1
260,34,35,0.132663407803333,1
261,7,35,0.144456574356126,1
261,8,35,0.256422137759576,1
261,9,35,0.265503892584418,1
261,10,35,0.194193712321091,1
261,11,35,0.156608476065825,1
261,12,35,0.128631738582186,1
261,35,35,0.12328935113041,1
262,7,35,0.123248532508111,1
262,8,35,0.186872116316256,1
262,9,35,0.186308970072436,1
262,10,35,0.134880155771211,1
262,36,35,0.141425703323941,1
262,37,35,0.163939587779493,1
263,8,35,0.12788706370475,1
263,9,35,0.118549762634883,1
263,36,35,0.143894429146032,1
263,37,35,0.169265499393821,1
264,36,35,0.120075314480045,1
264,37,35,0.140127127043569,1
264,38,35,0.149080125377472,1
265,5,35,0.133813760431007,1
265,6,35,0.141641243550516,1
265,7,35,0.118794568376869,1
265,37,35,0.120321321462502,1
266,5,35,0.14714326643947,1
266,6,35,0.162023550342999,1
266,7,35,0.120190056498815,1
266,38,35,0.172845290214045,1
267,4,35,0.147006360356313,1
267,5,35,0.158498569063507,1
267,6,35,0.143432811275795,1
267,38,35,0.13459424876211,1
268,4,35,0.123257318051168,1
268,5,35,0.13204621751516,1
269,4,35,0.127448493163952,1
269,5,35,0.118535206426816,1
270,3,35,0.190550620838762,1
270,4,35,0.182790866483488,1
270,5,35,0.142848136918425,1
271,3,35,0.210827689544441,1
271,4,35,0.182244078308442,1
271,5,35,0.128166599428605,1
272,3,35,0.160149744752887,1
272,4,35,0.128175066996243,1
279,39,35,0.133104451486278,1
279,40,35,0.15157334708369,1
254,23,36,0.194319972116147,1
255,21,36,0.149125313217565,1
255,22,36,0.145788973799579,1
255,23,36,0.158804108110512,1
255,24,36,0.18725803248305,1
256,18,36,0.123458101862931,1
256,19,36,0.115753180602124,1
256,24,36,0.133985290504227,1
256,25,36,0.153731681789421,1
256,26,36,0.168806331111996,1
257,11,36,0.120125001083472,1
257,12,36,0.137397590716738,1
257,16,36,0.150472539737035,1
257,17,36,0.114720608425001,1
257,26,36,0.118870258303445,1
257,27,36,0.146649427060113,1
257,28,36,0.178711300742753,1
257,30,36,0.189702073991137,1
257,31,36,0.178029726320677,1
258,9,36,0.235099836744354,1
258,10,36,0.190192450971488,1
258,11,36,0.142066506231188,1
258,12,36,0.168838340637503,1
258,13,36,0.205677524121851,1
258,15,36,0.165673919929361,1
258,16,36,0.128238143897868,1
258,28,36,0.121903237394889,1
258,29,36,0.144779590274305,1
258,30,36,0.152005004603342,1
258,31,36,0.16795484004753,1
259,8,36,0.19611581484428,1
259,9,36,0.244316625130441,1
259,10,36,0.21800239268259,1
259,11,36,0.191718732982427,1
259,12,36,0.234818063415699,1
259,13,36,0.258320898531641,1
259,14,36,0.215927921049389,1
259,15,36,0.14361729590312,1
259,30,36,0.116496312709934,1
259,31,36,0.15857217448456,1
259,32,36,0.18425152778945,1
260,8,36,0.208855441119997,1
260,9,36,0.255533643777838,1
260,10,36,0.237212583196502,1
260,11,36,0.218815420498231,1
260,12,36,0.22293376746321,1
260,13,36,0.202744966378457,1
260,14,36,0.148003613708198,1
260,31,36,0.118027164145412,1
260,32,36,0.137483338088047,1
260,33,36,0.130098629850986,1
261,7,36,0.133861386082645,1
261,8,36,0.223273671409195,1
261,9,36,0.249505889752693,1
261,10,36,0.212382683558023,1
261,11,36,0.178512942965668,1
261,12,36,0.146374790513083,1
261,35,36,0.123718358854904,1
261,36,36,0.152265450025193,1
262,7,36,0.126315817614199,1
262,8,36,0.1995120514097,1
262,9,36,0.213143492743754,1
262,10,36,0.162339064396664,1
262,36,36,0.136953320172134,1
263,8,36,0.146476872399432,1
263,9,36,0.155730381057973,1
263,10,36,0.114449716921794,1
263,36,36,0.135512067143595,1
263,37,36,0.143931526278242,1
264,6,36,0.120536331730046,1
264,37,36,0.12113937800051,1
265,5,36,0.121324793000358,1
265,6,36,0.139759488574931,1
265,7,36,0.129460052771672,1
266,5,36,0.137724504778016,1
266,6,36,0.155199656530019,1
266,7,36,0.127978640625406,1
267,5,36,0.150942413191297,1
267,6,36,0.140838520493822,1
267,38,36,0.141505927344454,1
268,4,36,0.115203200896022,1
268,5,36,0.122992550518992,1
269,4,36,0.123621717881279,1
269,5,36,0.116832459835229,1
270,4,36,0.179781876870873,1
270,5,36,0.150587222871468,1
270,6,36,0.122577804580881,1
271,3,36,0.201253567448663,1
271,4,36,0.19265352182979,1
271,5,36,0.147182165432388,1
271,6,36,0.115719534092053,1
272,3,36,0.158694595020854,1
272,4,36,0.142400038891927,1
278,39,36,0.119124944837153,1
278,40,36,0.152682103815818,1
279,39,36,0.16116463985209,1
279,40,36,0.179356826173815,1
255,22,37,0.18314622167946,1
255,23,37,0.189604585083062,1
256,19,37,0.138493098473077,1
256,20,37,0.134486007574127,1
256,21,37,0.132678128887544,1
256,22,37,0.136536878365122,1
256,23,37,0.142326998760508,1
256,24,37,0.166406994592439,1
257,12,37,0.132065802445594,1
257,16,37,0.152326760396713,1
257,17,37,0.121911940499874,1
257,25,37,0.129724243237346,1
257,26,37,0.158415106404468,1
257,27,37,0.187756052650323,1
258,9,37,0.25898841137408,1
258,10,37,0.205310250736101,1
258,11,37,0.141033274549492,1
258,12,37,0.156550686977649,1
258,13,37,0.19023898137446,1
258,14,37,0.196608111454012,1
258,15,37,0.171725946078152,1
258,16,37,0.134856908235026,1
258,27,37,0.12701996829102,1
258,28,37,0.160518608015732,1
258,29,37,0.183822072543996,1
258,30,37,0.180240055895839,1
258,31,37,0.183037697846661,1
258,32,37,0.197584578634991,1
259,8,37,0.208015868245307,1
259,9,37,0.265461472308157,1
259,10,37,0.237985145695866,1
259,11,37,0.192366342919012,1
259,12,37,0.222351354264375,1
259,13,37,0.25461919358042,1
259,14,37,0.231157601054001,1
259,15,37,0.162630718517042,1
259,29,37,0.121069717830026,1
259,30,37,0.150613449955097,1
259,31,37,0.182733030287842,1
259,32,37,0.193721318617211,1
259,33,37,0.171212015363065,1
260,8,37,0.176975849790485,1
260,9,37,0.229076534375074,1
260,10,37,0.250243380741034,1
260,11,37,0.226958276348998,1
260,12,37,0.21986930880529,1
260,13,37,0.208237226244363,1
260,14,37,0.165589126484309,1
260,31,37,0.158197999854532,1
260,32,37,0.173982511634603,1
260,33,37,0.143654051506177,1
260,34,37,0.139928215753718,1
261,8,37,0.181933793183888,1
261,9,37,0.22292754927724,1
261,10,37,0.228522998055027,1
261,11,37,0.20046529460823,1
261,12,37,0.16782264471132,1
261,13,37,0.13200504558684,1
261,32,37,0.122413081537,1
261,35,37,0.121879035932447,1
262,7,37,0.122877313871793,1
262,8,37,0.198217985669531,1
262,9,37,0.240445403950319,1
262,10,37,0.201975206773527,1
262,11,37,0.144736039418777,1
263,8,37,0.159417953768353,1
263,9,37,0.199895035136519,1
263,10,37,0.159349141532319,1
263,36,37,0.123537324849718,1
264,7,37,0.118653222414714,1
264,8,37,0.115244255055668,1
264,9,37,0.119850399867044,1
265,6,37,0.133775344289651,1
265,7,37,0.131104444985448,1
266,5,37,0.123325835865517,1
266,6,37,0.13537613854043,1
266,7,37,0.124415879155397,1
266,37,37,0.117187544163253,1
267,6,37,0.128606406540476,1
268,5,37,0.118914869077037,1
269,4,37,0.129474573649137,1
269,5,37,0.123899793273581,1
269,6,37,0.113911843835347,1
270,4,37,0.16776071016583,1
270,5,37,0.155567436321065,1
270,6,37,0.137316530538642,1
271,4,37,0.187088327824272,1
271,5,37,0.165003180225264,1
271,6,37,0.142919657833953,1
272,4,37,0.151513567704928,1
272,5,37,0.125939040296483,1
278,39,37,0.131094458201919,1
278,40,37,0.159389642179199,1
279,39,37,0.168639994637286,1
279,40,37,0.188039086103786,1
314,38,37,0.135701945576175,1
314,39,37,0.135602431046913,1
315,38,37,0.123177388452339,1
315,39,37,0.126747227819636,1
256,21,38,0.175375738598014,1
256,22,38,0.176616937980567,1
256,23,38,0.175750878931165,1
257,12,38,0.130696023225113,1
257,13,38,0.156087691213929,1
257,16,38,0.16247633556271,1
257,17,38,0.142680410773365,1
257,18,38,0.128218558967434,1
257,19,38,0.121930112206224,1
257,20,38,0.115305883402606,1
257,21,38,0.113900856018092,1
257,22,38,0.118119035487753,1
257,23,38,0.1185757777349,1
257,24,38,0.133779006895403,1
257,25,38,0.166579572806855,1
258,9,38,0.238438955503038,1
258,10,38,0.197873206100455,1
258,11,38,0.147794138568317,1
258,12,38,0.149015034631527,1
258,13,38,0.17487731801725,1
258,14,38,0.188589030479286,1
258,15,38,0.181632976660698,1
258,16,38,0.150697442573168,1
258,17,38,0.118892858111925,1
258,26,38,0.134868013820955,1
258,27,38,0.164297039257858,1
258,31,38,0.19706762126499,1
258,32,38,0.199096068900515,1
259,8,38,0.209998739404117,1
259,9,38,0.260634605448563,1
259,10,38,0.238057102355487,1
259,11,38,0.194253880336475,1
259,12,38,0.203052625261588,1
259,13,38,0.233600947726914,1
259,14,38,0.226438987159258,1
259,15,38,0.183206107050029,1
259,16,38,0.127057324514313,1
259,28,38,0.121933857250047,1
259,29,38,0.153595093681682,1
259,30,38,0.185838201576254,1
259,31,38,0.198405614720444,1
259,32,38,0.193511937692269,1
259,33,38,0.16482285283212,1
260,9,38,0.207581089855802,1
260,10,38,0.247260700650121,1
260,11,38,0.225508355546075,1
260,12,38,0.209117547080147,1
260,13,38,0.202959540901908,1
260,14,38,0.172013172096399,1
260,15,38,0.124347349564181,1
260,30,38,0.138576443363443,1
260,31,38,0.184450686393516,1
260,32,38,0.191814632013407,1
260,33,38,0.14838474846684,1
260,34,38,0.1368861684744,1
261,8,38,0.149525679600619,1
261,9,38,0.201212065768057,1
261,10,38,0.238411185649783,1
261,11,38,0.21849254590246,1
261,12,38,0.18657964959203,1
261,13,38,0.14746046458517,1
261,31,38,0.123108387786428,1
261,32,38,0.142550488372558,1
261,33,38,0.121073038906624,1
261,34,38,0.114862083932697,1
262,8,38,0.180326804300874,1
262,9,38,0.252850237440489,1
262,10,38,0.237761338108398,1
262,11,38,0.179280865379289,1
262,12,38,0.134004098161414,1
263,8,38,0.158918273062781,1
263,9,38,0.227680292533617,1
263,10,38,0.198382296523054,1
263,11,38,0.129437488293794,1
264,6,38,0.122449672263913,1
264,7,38,0.117250526849939,1
264,8,38,0.114194818404474,1
264,9,38,0.130313828548408,1
265,7,38,0.122579653549058,1
266,37,38,0.118634709179211,1
269,5,38,0.123076931773687,1
269,6,38,0.116484971586659,1
269,7,38,0.120966917554768,1
270,5,38,0.14543105124652,1
270,6,38,0.134960733097746,1
270,7,38,0.117196259045105,1
270,38,38,0.115489920508972,1
271,4,38,0.16586232625352,1
271,5,38,0.163968452881413,1
271,6,38,0.155384459132763,1
271,7,38,0.113753927820805,1
271,38,38,0.116176547207149,1
271,39,38,0.14855185043793,1
272,4,38,0.145189625465469,1
272,5,38,0.139129720592408,1
272,6,38,0.135033690791093,1
276,38,38,0.128895940824727,1
277,39,38,0.148470378069476,1
278,39,38,0.14446331072426,1
278,40,38,0.163022558448122,1
279,39,38,0.160307766759236,1
279,40,38,0.183735489015103,1
314,38,38,0.146057486375578,1
314,39,38,0.155123683958625,1
315,38,38,0.128386120236351,1
315,39,38,0.139611029384886,1
257,13,39,0.171304887739132,1
257,14,39,0.182264522950194,1
257,18,39,0.173408083151844,1
257,19,39,0.170211959116746,1
257,20,39,0.159148557927301,1
257,21,39,0.154950811322525,1
257,22,39,0.157336486675935,1
257,23,39,0.154556038951471,1
257,24,39,0.170545244463271,1
258,12,39,0.167244141432451,1
258,13,39,0.177205110067545,1
258,14,39,0.186745303008434,1
258,15,39,0.196810485142869,1
258,16,39,0.183960862925932,1
258,17,39,0.156418091227949,1
258,18,39,0.128428693611888,1
258,24,39,0.121273080775743,1
258,25,39,0.149199860788006,1
258,26,39,0.181858044372975,1
258,31,39,0.208832264245016,1
259,9,39,0.226030683167597,1
259,10,39,0.232837571184097,1
259,11,39,0.219915309249231,1
259,12,39,0.200843685356775,1
259,13,39,0.206960354730551,1
259,14,39,0.211321140287175,1
259,15,39,0.214575065187316,1
259,16,39,0.185963766536135,1
259,17,39,0.13662652387953,1
259,26,39,0.119122495248741,1
259,27,39,0.135133911932397,1
259,28,39,0.153798562619205,1
259,29,39,0.185369329155717,1
259,30,39,0.216902480377855,1
259,31,39,0.212580134516321,1
259,32,39,0.192555326309672,1
260,10,39,0.237971955604413,1
260,11,39,0.231939161080035,1
260,12,39,0.209217414915431,1
260,13,39,0.194058784751651,1
260,14,39,0.176419828551423,1
260,15,39,0.16211201817067,1
260,16,39,0.133924333438728,1
260,30,39,0.161218990094995,1
260,31,39,0.199317497560775,1
260,32,39,0.195847985326589,1
260,33,39,0.151058297566202,1
261,9,39,0.192944033594032,1
261,10,39,0.252624404231834,1
261,11,39,0.245774507095704,1
261,12,39,0.211690109541825,1
261,13,39,0.162017732570519,1
261,14,39,0.127420970624913,1
261,31,39,0.138074737036684,1
261,32,39,0.152700581720719,1
261,33,39,0.128578754455896,1
261,34,39,0.11789761860436,1
262,8,39,0.158910111693694,1
262,9,39,0.247549328115584,1
262,10,39,0.278893342847786,1
262,11,39,0.233610604758156,1
262,12,39,0.176270438988855,1
262,13,39,0.119162619035865,1
263,7,39,0.116196285236858,1
263,8,39,0.153501856222727,1
263,9,39,0.227226105866689,1
263,10,39,0.233724133759587,1
263,11,39,0.17711244967509,1
263,12,39,0.121420385832787,1
264,7,39,0.117373029824304,1
264,8,39,0.11740826621147,1
264,9,39,0.133314692122538,1
264,10,39,0.132327696422131,1
268,7,39,0.115727271493914,1
269,5,39,0.116878224741823,1
269,6,39,0.115550006086285,1
269,7,39,0.133702822340397,1
269,8,39,0.125618556404788,1
270,5,39,0.1313386162162,1
270,6,39,0.128147356027325,1
270,7,39,0.132568980880774,1
270,8,39,0.126252363852818,1
270,38,39,0.130377988921831,1
271,5,39,0.151010459930952,1
271,6,39,0.154226510425637,1
271,7,39,0.129198029249593,1
271,38,39,0.138300370038594,1
271,39,39,0.156854459494548,1
272,5,39,0.140144168170651,1
272,6,39,0.151995465340774,1
272,7,39,0.115292340005133,1
275,38,39,0.117481247458552,1
276,38,39,0.143313652931762,1
276,39,39,0.198636299998455,1
277,38,39,0.135980833572325,1
277,39,39,0.191710112315513,1
278,38,39,0.1225848353707,1
278,39,39,0.162559221155249,1
278,40,39,0.160939360156201,1
279,39,39,0.142483336674823,1
279,40,39,0.162573153189345,1
314,38,39,0.138013697533114,1
315,38,39,0.128370621878895,1
242,36,40,0.203200236517183,1
243,35,40,0.23444537267096,1
243,37,40,0.219784845112525,1
244,34,40,0.201615823888914,1
244,37,40,0.218213292823422,1
245,19,40,0.229407794100411,1
245,37,40,0.197030335702902,1
246,18,40,0.245841823669581,1
246,33,40,0.198762689339052,1
246,37,40,0.174688369957193,1
247,18,40,0.194840709860573,1
247,22,40,0.183376636089522,1
247,24,40,0.197999972300808,1
247,33,40,0.218487693833105,1
247,36,40,0.210011905941835,1
248,18,40,0.190918848150768,1
248,34,40,0.219577901999128,1
248,35,40,0.204955955458192,1
249,18,40,0.228477892653006,1
249,34,40,0.202541579879005,1
249,35,40,0.19293683792807,1
249,36,40,0.180531674685614,1
250,20,40,0.227011696219381,1
250,21,40,0.213077612947695,1
250,30,40,0.205938169750447,1
250,33,40,0.186325634339762,1
251,17,40,0.165844189877773,1
251,18,40,0.201325806753101,1
251,20,40,0.218643548895857,1
251,32,40,0.211964887411264,1
251,38,40,0.18569828061505,1
252,38,40,0.187216401256903,1
253,38,40,0.192412131379341,1
254,14,40,0.147740094523964,1
255,14,40,0.170651931104761,1
256,19,40,0.288530000109289,2
256,20,40,0.293494138134929,2
256,23,40,0.237930571692481,1
256,24,40,0.252342230489688,1
256,32,40,0.198802754241839,1
256,33,40,0.205271104428969,1
256,39,40,0.18012007317109,1
257,13,40,0.217357444318029,1
257,14,40,0.18542436245693,1
257,15,40,0.179797693203749,1
257,16,40,0.206651706590561,1
257,18,40,0.211945785332392,1
257,19,40,0.225018885384512,1
257,20,40,0.215981176043628,1
257,21,40,0.206181786028829,1
257,22,40,0.202102137850023,1
257,23,40,0.199336434763504,1
257,24,40,0.213000380251494,1
257,25,40,0.253497941592014,1
257,31,40,0.212943450874635,1
257,39,40,0.189908710905982,1
258,11,40,0.216220081575063,1
258,12,40,0.207300847519905,1
258,13,40,0.200696215423588,1
258,14,40,0.181733821975974,1
258,15,40,0.191305694690084,1
258,16,40,0.203990652747477,1
258,17,40,0.187872879174617,1
258,18,40,0.158343597265807,1
258,19,40,0.139598746112221,1
258,20,40,0.132805531038735,1
258,21,40,0.140204819037598,1
258,22,40,0.149574011864299,1
258,23,40,0.153958739792282,1
258,24,40,0.1631486298133,1
258,25,40,0.196760292134146,1
258,26,40,0.231697970836331,1
258,27,40,0.245440868443158,1
258,30,40,0.248175386384886,1
258,31,40,0.214106652064607,1
258,43,40,0.200865496115141,1
259,10,40,0.219891849729434,1
259,11,40,0.254640203511805,1
259,12,40,0.213451740470253,1
259,13,40,0.18744831132912,1
259,14,40,0.188424849171304,1
259,15,40,0.227808966586483,1
259,16,40,0.239182358478798,1
259,17,40,0.182656221558865,1
259,18,40,0.120736208723022,1
259,25,40,0.129240284649711,1
259,26,40,0.158953721433559,1
259,27,40,0.171295289592226,1
259,28,40,0.184407783265693,1
259,29,40,0.210799754815043,1
259,30,40,0.229979702333553,1
259,31,40,0.21527656606898,1
259,32,40,0.186832016082867,1
260,10,40,0.222222821533917,1
260,11,40,0.240420860958724,1
260,12,40,0.207139080469733,1
260,13,40,0.179179054360889,1
260,14,40,0.172835103223771,1
260,15,40,0.196461041934316,1
260,16,40,0.188858473427807,1
260,17,40,0.131872814920028,1
260,28,40,0.115874541220355,1
260,29,40,0.137080910753203,1
260,30,40,0.16970773254037,1
260,31,40,0.193291427627664,1
260,32,40,0.184827122182078,1
260,33,40,0.150932167316687,1
261,9,40,0.198599980139491,1
261,10,40,0.261173562006808,1
261,11,40,0.262665267135154,1
261,12,40,0.219384808481756,1
261,13,40,0.167244636060881,1
261,14,40,0.140349733390566,1
261,15,40,0.130548682837468,1
261,31,40,0.138809590006734,1
261,32,40,0.148530722737871,1
261,33,40,0.131073189179452,1
261,34,40,0.119045674742897,1
261,40,40,0.183225279790104,1
262,8,40,0.142700184133677,1
262,9,40,0.234231434098346,1
262,10,40,0.299305880858803,1
262,11,40,0.27061135508593,1
262,12,40,0.200172191933166,1
262,13,40,0.138619004962112,1
263,8,40,0.13896946098126,1
263,9,40,0.198209930292251,1
263,10,40,0.23453254504322,1
263,11,40,0.202714205200891,1
263,12,40,0.144250196532363,1
264,8,40,0.115330014203844,1
264,9,40,0.124428503957216,1
264,10,40,0.13389157019371,1
264,11,40,0.120842506727889,1
266,36,40,0.115537239962058,1
269,7,40,0.137208807532824,1
269,8,40,0.143679359994151,1
270,6,40,0.122829499790278,1
270,7,40,0.150769552332065,1
270,8,40,0.160720746167242,1
270,9,40,0.119320617488478,1
270,37,40,0.116364529564083,1
271,5,40,0.131409171428604,1
271,6,40,0.146686371093048,1
271,7,40,0.150604805734449,1
271,8,40,0.143185155531906,1
271,37,40,0.123365276594333,1
271,38,40,0.158209706060696,1
272,5,40,0.130532207000019,1
272,6,40,0.15134274424375,1
272,7,40,0.132295875326502,1
272,38,40,0.138381606869701,1
272,39,40,0.143994073220836,1
275,38,40,0.119060843348067,1
275,39,40,0.14242320399004,1
276,38,40,0.146286993966852,1
276,39,40,0.208654551316428,1
277,38,40,0.164378334973301,1
277,39,40,0.235975234849578,1
278,38,40,0.155318120038877,1
278,39,40,0.190176481539336,1
278,40,40,0.167345787574708,1
279,39,40,0.133446157292971,1
279,40,40,0.144071435462578,1
306,39,40,0.117178782173931,1
243,35,41,0.213159367960966,1
243,36,41,0.249470040968424,1
244,34,41,0.195114816448572,1
244,35,41,0.258522118087497,1
244,36,41,0.3007889417665,1
244,37,41,0.231789218004701,1
245,20,41,0.208748766255375,1
245,34,41,0.197809775892809,1
245,35,41,0.281766333196031,1
245,36,41,0.298079367229858,1
245,37,41,0.201575900308535,1
246,19,41,0.260873039905303,1
246,20,41,0.271582287139246,1
246,21,41,0.234602075668163,1
246,34,41,0.221706759205836,1
246,35,41,0.278399468137827,1
246,36,41,0.254310780977778,1
246,37,41,0.169579235140514,1
247,18,41,0.196561604604774,1
247,19,41,0.245892205108183,1
247,20,41,0.292290188983862,1
247,21,41,0.257716792343114,1
247,23,41,0.198114207914281,1
247,24,41,0.201236820743265,1
247,34,41,0.237462087908568,1
247,35,41,0.248650865628016,1
247,36,41,0.203818333624143,1
248,19,41,0.233039426690791,1
248,20,41,0.279034759471145,1
248,21,41,0.252849577935917,1
248,22,41,0.221434619354688,1
248,23,41,0.249044024568241,1
248,24,41,0.243459669599515,1
248,25,41,0.20701141922746,1
248,35,41,0.210093849384984,1
249,19,41,0.242082671159337,1
249,20,41,0.268269972530692,1
249,21,41,0.243039400310608,1
249,22,41,0.258418740745738,1
249,23,41,0.331244627393107,1
249,24,41,0.286600266176046,1
249,25,41,0.210822719706411,1
249,35,41,0.207530779078405,1
250,20,41,0.242318985779951,1
250,21,41,0.216446315197209,1
250,22,41,0.240247929438287,1
250,23,41,0.297172666211169,1
250,24,41,0.256605927551727,1
250,25,41,0.209752437999975,1
250,26,41,0.198457291614456,1
250,27,41,0.196105663184608,1
250,28,41,0.197915367285634,1
250,29,41,0.205899141211989,1
250,34,41,0.232421094046483,1
250,35,41,0.239197974604929,1
250,36,41,0.217940799666253,1
250,37,41,0.205167044028902,1
251,22,41,0.206029416918817,1
251,23,41,0.237002130576629,1
251,24,41,0.233479622439285,1
251,25,41,0.231875212690225,1
251,26,41,0.231975551600203,1
251,27,41,0.235845453771179,1
251,28,41,0.254135140777846,1
251,29,41,0.256817063229907,1
251,30,41,0.231824148193315,1
251,31,41,0.20767118289117,1
251,32,41,0.20786486525191,1
251,33,41,0.216238170843341,1
251,34,41,0.271764216186353,1
251,35,41,0.26762342251217,1
251,36,41,0.258580672672052,1
251,37,41,0.243714709439244,1
251,38,41,0.182104593091332,1
252,16,41,0.218917149078559,1
252,17,41,0.243265539717815,1
252,18,41,0.233452394321929,1
252,19,41,0.230734269779579,1
252,20,41,0.224126198837991,1
252,21,41,0.217214166949626,1
252,22,41,0.218833580427713,1
252,23,41,0.226333584196311,1
252,24,41,0.231928938759159,1
252,25,41,0.253178694271393,1
252,26,41,0.291630072014131,1
252,27,41,0.325108643956847,2
252,28,41,0.35796567994733,2
252,29,41,0.345929603728198,2
252,30,41,0.270069053897352,1
252,31,41,0.240050266496376,1
252,32,41,0.25213001133971,1
252,33,41,0.243390044759633,1
252,34,41,0.268954349847202,1
252,35,41,0.254909116501294,1
252,36,41,0.254891521861446,1
252,37,41,0.240160074007719,1
252,38,41,0.18741725572987,1
253,15,41,0.201020974318138,1
253,16,41,0.324265467360742,1
253,17,41,0.350608294042563,2
253,18,41,0.283407321895137,1
253,19,41,0.243108836720612,1
253,20,41,0.252656931939505,1
253,21,41,0.288696901873634,1
253,22,41,0.292674444612356,1
253,23,41,0.263723230238322,1
253,24,41,0.241019455573322,1
253,25,41,0.258717143011117,1
253,26,41,0.320164526605733,2
253,27,41,0.356953246213407,2
253,28,41,0.370680928107595,2
253,29,41,0.364382023488161,2
253,30,41,0.294955011424503,2
253,31,41,0.250073416991174,1
253,32,41,0.240715706610158,1
253,33,41,0.232676039671273,1
253,34,41,0.247565132671593,1
253,35,41,0.235605040800721,1
253,36,41,0.236210254014781,1
253,37,41,0.226625556292107,1
253,38,41,0.198264033220941,1
254,15,41,0.224986993627678,1
254,16,41,0.351043143093272,2
254,17,41,0.3592015679627,2
254,18,41,0.280049925438297,2
254,19,41,0.243993562104792,1
254,20,41,0.272933470686152,1
254,21,41,0.339597135036765,2
254,22,41,0.352678078482552,2
254,23,41,0.29967294226094,2
254,24,41,0.250375776283989,1
254,25,41,0.251714594120159,1
254,26,41,0.294610702930122,1
254,27,41,0.313366117933738,2
254,28,41,0.309727089470651,2
254,29,41,0.315654504585818,2
254,30,41,0.283760015519085,1
254,31,41,0.230349778613736,1
254,32,41,0.210013955116757,1
254,33,41,0.209571097796237,1
254,34,41,0.213817082449754,1
254,35,41,0.20217352922001,1
254,36,41,0.206111666560518,1
254,37,41,0.213617488101595,1
255,14,41,0.151852765038871,1
255,15,41,0.245370325007622,2
255,16,41,0.377678200961972,2
255,17,41,0.373469972945238,2
255,18,41,0.287631472236553,2
255,19,41,0.27946152959084,2
255,20,41,0.308091965651494,2
255,21,41,0.325682342273829,2
255,22,41,0.306347740933037,2
255,23,41,0.275094643616919,1
255,24,41,0.256670770983457,1
255,25,41,0.267123965567078,1
255,26,41,0.281945859762194,1
255,27,41,0.294079095137115,1
255,28,41,0.302412971776596,2
255,29,41,0.315014455398083,1
255,30,41,0.2902695140808,1
255,31,41,0.226564881871425,1
255,32,41,0.200080897657327,1
255,41,41,0.186947111407658,1
256,13,41,0.204819555780331,1
256,15,41,0.225659429200677,1
256,16,41,0.331972743995022,2
256,17,41,0.344947106791126,2
256,18,41,0.300168913253291,2
256,19,41,0.329702116858934,2
256,20,41,0.343164607253721,2
256,21,41,0.310800857129829,2
256,22,41,0.26731785991143,1
256,23,41,0.255926166767225,1
256,24,41,0.267591130341846,1
256,25,41,0.293589365884469,1
256,26,41,0.286972203201273,1
256,27,41,0.296650197267239,1
256,28,41,0.318871662106036,2
256,29,41,0.320868736166892,2
256,30,41,0.287302991851915,1
256,31,41,0.229810445195735,1
256,32,41,0.200449442944752,1
256,34,41,0.203458032143876,1
256,35,41,0.213823441958133,1
256,36,41,0.209837372767436,1
256,40,41,0.190833465862347,1
256,41,41,0.216867785726587,1
256,42,41,0.209992521218146,1
257,12,41,0.255936813055326,1
257,13,41,0.27211471931297,1
257,14,41,0.191615720723556,1
257,15,41,0.178393395985012,1
257,16,41,0.223412732659081,1
257,17,41,0.244500532691265,1
257,18,41,0.244802420909385,1
257,19,41,0.274314638137378,2
257,20,41,0.279668378489297,2
257,21,41,0.269778824777926,2
257,22,41,0.254836382568427,1
257,23,41,0.251413082761794,1
257,24,41,0.257211800270359,1
257,25,41,0.289882643987749,2
257,26,41,0.296870094934741,2
257,27,41,0.305512384176865,2
257,28,41,0.314871696211843,2
257,29,41,0.30227525308959,2
257,30,41,0.263018384726326,1
257,31,41,0.219555054876433,1
257,35,41,0.221026715776518,1
257,36,41,0.210311273910338,1
257,40,41,0.216677777748466,1
257,41,41,0.247456950367947,1
257,42,41,0.22822794041998,1
257,43,41,0.179973404064885,1
258,11,41,0.237593659070807,1
258,12,41,0.259680161009562,1
258,13,41,0.233951615729674,1
258,14,41,0.177168590001835,1
258,15,41,0.181934016944368,1
258,16,41,0.221651337268,1
258,17,41,0.21903242105636,1
258,18,41,0.186936441565822,1
258,19,41,0.174192504956648,1
258,20,41,0.174317363304487,1
258,21,41,0.189554639388553,1
258,22,41,0.206302805117906,1
258,23,41,0.211931134909386,1
258,24,41,0.208621788071409,1
258,25,41,0.238084024274291,1
258,26,41,0.271481642030716,1
258,27,41,0.278762902264814,1
258,28,41,0.276623775629761,1
258,29,41,0.278815521308216,1
258,30,41,0.257097753086764,1
258,31,41,0.217864297135828,1
258,39,41,0.19465760312673,1
258,40,41,0.213947311049113,1
258,41,41,0.228906123104254,1
258,42,41,0.215344353717552,1
259,10,41,0.194829545390308,1
259,11,41,0.271354899384098,1
259,12,41,0.239304767238225,1
259,13,41,0.185662384723311,1
259,14,41,0.174435073093834,1
259,15,41,0.232921234049882,1
259,16,41,0.282100301600863,1
259,17,41,0.226674312523012,1
259,18,41,0.148377717677021,1
259,19,41,0.11413634625799,1
259,21,41,0.123571972393515,1
259,22,41,0.13899111864035,1
259,23,41,0.143454280505007,1
259,24,41,0.141647025992394,1
259,25,41,0.161676038540694,1
259,26,41,0.19142765592855,1
259,27,41,0.200850280402501,1
259,28,41,0.213919753179472,1
259,29,41,0.237920490694014,1
259,30,41,0.235656223066304,1
259,31,41,0.211242682796767,1
259,39,41,0.211916060519154,1
259,40,41,0.217869314081327,1
259,41,41,0.202667427483704,1
260,10,41,0.19862692561203,1
260,11,41,0.244528538081867,1
260,12,41,0.211481635435671,1
260,13,41,0.169324689929214,1
260,14,41,0.174125577019394,1
260,15,41,0.23077570079898,1
260,16,41,0.24194424586029,1
260,17,41,0.166957598472512,1
260,26,41,0.115767524826579,1
260,27,41,0.126559822529204,1
260,28,41,0.146880595189687,1
260,29,41,0.167980395849719,1
260,30,41,0.177537995000578,1
260,31,41,0.183441561959324,1
260,32,41,0.177212081973027,1
260,38,41,0.193139364716204,1
260,39,41,0.214385551837625,1
260,40,41,0.210073805156723,1
261,9,41,0.196848135787846,1
261,10,41,0.249831284598081,1
261,11,41,0.256986273260255,1
261,12,41,0.211009712806486,1
261,13,41,0.163945358444504,1
261,14,41,0.147564183456083,1
261,15,41,0.154607880721626,1
261,16,41,0.135761548301926,1
261,30,41,0.116508949288621,1
261,31,41,0.136234095105082,1
261,32,41,0.147677300267156,1
261,33,41,0.137567295375516,1
262,9,41,0.213268351091593,1
262,10,41,0.286023623642221,1
262,11,41,0.266009143748255,1
262,12,41,0.199799948709387,1
262,13,41,0.152409999295272,1
262,14,41,0.123089144385148,1
263,8,41,0.118801446067412,1
263,9,41,0.159897684460603,1
263,10,41,0.209880099242248,1
263,11,41,0.198106105429532,1
263,12,41,0.149834410178681,1
263,13,41,0.117774562117228,1
264,10,41,0.127475297314083,1
264,11,41,0.124871514377011,1
265,36,41,0.120001614844054,1
266,35,41,0.12646442990352,1
266,36,41,0.124222703199954,1
266,37,41,0.124904324729499,1
267,34,41,0.133234562316964,1
267,35,41,0.143168043743619,1
267,36,41,0.127548101908154,1
267,37,41,0.125695082488948,1
268,8,41,0.114806214473902,1
268,36,41,0.117194480738133,1
268,37,41,0.126419819129929,1
269,7,41,0.136021946616308,1
269,8,41,0.158578251348122,1
269,9,41,0.137619890865183,1
269,37,41,0.127130258653925,1
269,38,41,0.13237679418219,1
270,6,41,0.121519075981333,1
270,7,41,0.166698578051612,1
270,8,41,0.193034479935421,1
270,9,41,0.154272522646445,1
270,37,41,0.137707922948762,1
270,38,41,0.148952299259056,1
271,6,41,0.142406881251868,1
271,7,41,0.172873531141994,1
271,8,41,0.175122889255615,1
271,9,41,0.143843211549847,1
271,37,41,0.147639484746036,1
271,38,41,0.168981088046875,1
272,6,41,0.144637832121792,1
272,7,41,0.145393624362024,1
272,8,41,0.135875312840705,1
272,9,41,0.131861462019885,1
272,37,41,0.132310466865171,1
272,38,41,0.166554546963697,1
273,6,41,0.116976608691818,1
273,9,41,0.119173924828538,1
273,38,41,0.139412907145148,1
274,38,41,0.115360645835869,1
275,38,41,0.11817874420531,1
275,39,41,0.138512035675806,1
276,38,41,0.140486015299752,1
276,39,41,0.202964180987651,1
277,38,41,0.179622005896348,1
277,39,41,0.266144978136481,1
278,37,41,0.126764304277321,1
278,38,41,0.179896253806755,1
278,39,41,0.217592981665396,1
279,37,41,0.11639604446116,1
279,38,41,0.129067647550958,1
279,39,41,0.133585760278756,1
306,39,41,0.129723560179039,1
243,35,42,0.194023112620393,1
243,36,42,0.238149268119511,1
243,37,42,0.235472975010053,1
244,34,42,0.187129546860061,1
244,35,42,0.250017147118888,1
244,36,42,0.299811037807701,1
244,37,42,0.25234785983229,1
244,38,42,0.190177588564869,1
245,34,42,0.188980234459528,1
245,35,42,0.268086536044563,1
245,36,42,0.290282421527435,1
245,37,42,0.209478649387396,1
246,20,42,0.229034867818325,1
246,35,42,0.244314693724192,1
246,36,42,0.236339045836322,1
247,19,42,0.218818034962787,1
247,20,42,0.250091459151983,1
247,21,42,0.282334590600289,1
247,35,42,0.22696748585928,1
248,19,42,0.216275715496511,1
248,20,42,0.271796107943186,1
248,21,42,0.286222040303643,3
248,22,42,0.2397547142329,1
248,23,42,0.226564928978895,1
248,24,42,0.223473265757354,1
249,19,42,0.233315123155884,1
249,20,42,0.302829448914211,3
249,21,42,0.277698603207001,3
249,22,42,0.24286651589764,1
249,23,42,0.265829452305948,1
249,24,42,0.246970683514308,1
249,25,42,0.1980820806201,1
249,35,42,0.220593751024587,1
250,20,42,0.270592983172835,1
250,21,42,0.230440036525248,1
250,22,42,0.229914788240619,1
250,23,42,0.277936095514351,1
250,24,42,0.252090935693782,1
250,25,42,0.201284941023333,1
250,29,42,0.194481845158125,1
250,34,42,0.216557747916248,1
250,35,42,0.238215312791713,1
250,36,42,0.197459319873662,1
251,22,42,0.210035200585489,1
251,23,42,0.262954718981333,1
251,24,42,0.247685374487424,1
251,25,42,0.219901954281636,1
251,26,42,0.214745876871627,1
251,27,42,0.217092323479833,2
251,28,42,0.226591097178187,2
251,29,42,0.237190866653075,2
251,30,42,0.22690532755331,1
251,33,42,0.201267699689505,1
251,34,42,0.237437592024442,1
251,35,42,0.251102008587126,1
251,36,42,0.229294948157288,1
251,37,42,0.231175972967096,1
252,16,42,0.201894558785788,1
252,17,42,0.219607980118387,1
252,23,42,0.224949684511855,1
252,24,42,0.225256966535231,1
252,25,42,0.244208442826795,1
252,26,42,0.286163815471374,2
252,27,42,0.31176371025213,2
252,28,42,0.324699044509775,2
252,29,42,0.318608920195048,2
252,30,42,0.256554368426388,2
252,31,42,0.225640185799397,1
252,32,42,0.237220450143904,1
252,33,42,0.226229641564918,1
252,34,42,0.244841520109048,1
252,35,42,0.242131498051447,1
252,36,42,0.230263642605804,1
252,37,42,0.227130666133536,1
253,15,42,0.181113451933611,1
253,16,42,0.27585495817422,2
253,17,42,0.302596667353808,2
253,18,42,0.242688331894357,1
253,21,42,0.270498344266663,2
253,22,42,0.279777479388598,2
253,23,42,0.252852946119984,2
253,24,42,0.22830889460627,1
253,25,42,0.250589149566969,2
253,26,42,0.313682515252456,2
253,27,42,0.350273242165934,2
253,28,42,0.344808445954731,2
253,29,42,0.327554228234559,2
253,30,42,0.269630624678963,2
253,31,42,0.224646807036876,1
253,32,42,0.217231007869962,1
253,33,42,0.216170995591871,1
253,34,42,0.241443022385093,1
253,35,42,0.230179791310142,1
253,36,42,0.217696641651972,1
253,37,42,0.212607833708372,1
254,15,42,0.207176106940739,2
254,16,42,0.321175829760389,2
254,17,42,0.340545431950999,2
254,18,42,0.265654518718059,2
254,19,42,0.228562921635406,2
254,20,42,0.250274424563417,2
254,21,42,0.313103540898893,2
254,22,42,0.347785496703042,2
254,23,42,0.307232960945647,2
254,24,42,0.248048313985982,2
254,25,42,0.242521759882299,1
254,26,42,0.284792375712595,2
254,27,42,0.312787261348849,2
254,28,42,0.303443329902653,2
254,29,42,0.287982093131844,2
254,30,42,0.264803757819369,2
254,31,42,0.217211481823866,1
254,34,42,0.211480434195199,1
254,35,42,0.200642630677062,1
255,15,42,0.236213504430175,2
255,16,42,0.360492265518802,2
255,17,42,0.368169181389007,2
255,18,42,0.299989363133393,2
255,19,42,0.288620846864169,2
255,20,42,0.299679796397748,2
255,21,42,0.299472335102187,2
255,22,42,0.288642115886636,2
255,23,42,0.264856777276261,2
255,24,42,0.239009002991136,1
255,25,42,0.239633224069128,1
255,26,42,0.254338480169828,1
255,27,42,0.27712843795023,2
255,28,42,0.289593074372896,2
255,29,42,0.283714721687186,2
255,30,42,0.268338042824081,1
255,31,42,0.220933584309369,1
256,12,42,0.185837059220119,1
256,13,42,0.209258280645199,1
256,15,42,0.216593761576661,2
256,16,42,0.321317623243504,2
256,17,42,0.34957263632619,2
256,18,42,0.321930585636292,2
256,19,42,0.34575278584153,2
256,20,42,0.361805574660251,2
256,21,42,0.322643604294242,2
256,22,42,0.266012064411362,2
256,23,42,0.255684764539909,1
256,24,42,0.265746990680635,1
256,25,42,0.279540811461963,2
256,26,42,0.271084973584015,2
256,27,42,0.27979156452197,2
256,28,42,0.294967589118853,2
256,29,42,0.293376675659797,2
256,30,42,0.270873743690897,2
256,31,42,0.226093359655731,1
256,41,42,0.182551913844584,1
257,11,42,0.184481176703133,1
257,12,42,0.295071743733859,1
257,13,42,0.295747382614781,1
257,14,42,0.186493478253496,1
257,15,42,0.169950936628394,1
257,16,42,0.226063540627554,2
257,17,42,0.265229821327021,2
257,18,42,0.272083157308422,2
257,19,42,0.302584160320662,2
257,20,42,0.325613164954907,2
257,21,42,0.316519868800045,2
257,22,42,0.286424461099971,2
257,23,42,0.285289877697703,2
257,24,42,0.283270616018725,2
257,25,42,0.302002807039891,2
257,26,42,0.312451597075116,2
257,27,42,0.315495352000202,2
257,28,42,0.303893559542146,2
257,29,42,0.299185450613094,2
257,30,42,0.273669289359327,2
257,31,42,0.229883673757032,1
257,40,42,0.207611780372164,1
257,41,42,0.245192564971564,1
257,42,42,0.208402597015949,1
258,11,42,0.235076918960455,1
258,12,42,0.297910345629388,1
258,13,42,0.253275311691283,1
258,14,42,0.170524210978151,1
258,15,42,0.171242752986896,1
258,16,42,0.225416707964215,1
258,17,42,0.240723785541172,1
258,18,42,0.212024996542312,1
258,19,42,0.207115880041017,2
258,20,42,0.215815781718307,2
258,21,42,0.234981008152607,2
258,22,42,0.25677247601005,1
258,23,42,0.264821328905482,1
258,24,42,0.243151398319281,1
258,25,42,0.25870124424017,2
258,26,42,0.291698684043419,2
258,27,42,0.297802775722845,2
258,28,42,0.279121649198589,2
258,29,42,0.28319997836825,2
258,30,42,0.261587471787337,1
258,31,42,0.220298528513398,1
258,40,42,0.206389859721493,1
258,41,42,0.235498648580916,1
258,42,42,0.2071312606298,1
259,10,42,0.168667187424039,1
259,11,42,0.255733779861896,1
259,12,42,0.259034788677776,1
259,13,42,0.193401070262863,1
259,14,42,0.168582370425252,1
259,15,42,0.224358108910208,1
259,16,42,0.288925537976723,1
259,17,42,0.250694576083651,1
259,18,42,0.173346431251171,1
259,19,42,0.1435716487652,1
259,20,42,0.140386806969041,1
259,21,42,0.157736240661886,1
259,22,42,0.187460559271183,1
259,23,42,0.191404738144652,1
259,24,42,0.17493442404712,1
259,25,42,0.188103022716729,1
259,26,42,0.213742888185334,1
259,27,42,0.222742464029678,1
259,28,42,0.234401774707962,1
259,29,42,0.261368021640795,1
259,30,42,0.239363533806393,1
259,31,42,0.204667822621158,1
259,40,42,0.19900220726759,1
259,41,42,0.187774318571611,1
260,11,42,0.231647777827607,1
260,12,42,0.212376441818318,1
260,13,42,0.165322568868294,1
260,14,42,0.1773917851922,1
260,15,42,0.247279260993093,1
260,16,42,0.267296308244146,1
260,17,42,0.194021982041125,1
260,18,42,0.127405707804803,1
260,22,42,0.119257163727098,1
260,23,42,0.118272841375583,1
260,24,42,0.11651123400089,1
260,25,42,0.129837689800705,1
260,26,42,0.147432282541557,1
260,27,42,0.158293945992982,1
260,28,42,0.178431541258418,1
260,29,42,0.202808066833817,1
260,30,42,0.189050836779402,1
260,31,42,0.177345054582483,1
261,10,42,0.220839675568973,1
261,11,42,0.22963692483193,1
261,12,42,0.19411365317672,1
261,13,42,0.16121650517598,1
261,14,42,0.155176679861783,1
261,15,42,0.173180471636216,1
261,16,42,0.15758872362123,1
261,17,42,0.116142123423831,1
261,28,42,0.123593147201044,1
261,29,42,0.134953148795161,1
261,30,42,0.133193684810328,1
261,31,42,0.141172229807572,1
261,32,42,0.159998376676602,1
262,9,42,0.188681938185955,1
262,10,42,0.246914248765879,1
262,11,42,0.232331165887258,1
262,12,42,0.191090425331458,1
262,13,42,0.169315845501821,1
262,14,42,0.137591638160367,1
262,15,42,0.113758473691609,1
262,32,42,0.12736974125186,1
262,33,42,0.131069455912496,1
263,9,42,0.133259046424223,1
263,10,42,0.177901841317924,1
263,11,42,0.178326420940288,1
263,12,42,0.151821332579865,1
263,13,42,0.135866915934271,1
264,10,42,0.118455877448222,1
264,11,42,0.124090743401091,1
265,35,42,0.12437424792925,1
266,34,42,0.130951534139537,1
266,35,42,0.14816985596797,1
266,36,42,0.142524084635918,1
267,34,42,0.151712690978392,1
267,35,42,0.173374330649966,1
267,36,42,0.152252907661446,1
267,37,42,0.142501649703581,1
268,8,42,0.115917373686974,1
268,9,42,0.114061198067312,1
268,35,42,0.133475234378504,1
268,36,42,0.138485667269768,1
268,37,42,0.139660739542048,1
269,7,42,0.130231826220922,1
269,8,42,0.162685716487652,1
269,9,42,0.155574679094496,1
269,36,42,0.128547545757369,1
269,37,42,0.142635093387732,1
270,7,42,0.170525070689469,1
270,8,42,0.209792220257945,1
270,9,42,0.177727720333883,1
270,36,42,0.124427856229511,1
270,37,42,0.154950752438188,1
271,6,42,0.139143346427954,1
271,7,42,0.181652184731376,1
271,8,42,0.193698177072832,1
271,9,42,0.165864552081453,1
271,10,42,0.123585303807376,1
271,36,42,0.124869912723049,1
271,37,42,0.162275822618896,1
271,38,42,0.172982137412865,1
272,6,42,0.139651789122848,1
272,7,42,0.150066673556919,1
272,8,42,0.149273784184477,1
272,9,42,0.159986152288274,1
272,10,42,0.14943170019902,1
272,36,42,0.120484148430737,1
272,37,42,0.149255376940781,1
272,38,42,0.179429783867161,1
273,6,42,0.12851017775721,1
273,7,42,0.120523765812564,1
273,8,42,0.121633299817939,1
273,9,42,0.139564911172271,1
273,10,42,0.132507234765162,1
273,37,42,0.12413720314286,1
274,38,42,0.127230456241495,1
275,38,42,0.116218790830399,1
276,38,42,0.137097374813784,1
276,39,42,0.199829084679257,1
277,38,42,0.18429851749025,1
277,39,42,0.293249461938484,1
277,40,42,0.257584938536058,1
278,37,42,0.127984929472581,1
278,38,42,0.185017636565496,1
278,39,42,0.244516996751846,1
279,37,42,0.129603412578147,1
279,38,42,0.137695109717065,1
279,39,42,0.138723230238322,1
243,36,43,0.219908196021341,1
243,37,43,0.237252012148451,1
244,35,43,0.2418118267636,1
244,36,43,0.298590530381114,1
244,37,43,0.276297179543902,1
244,38,43,0.211572411529346,1
245,34,43,0.191181778491634,1
245,35,43,0.26326364976614,1
245,36,43,0.289931070466368,1
245,37,43,0.231237518875963,1
246,35,43,0.22132264489975,1
246,36,43,0.222529726697537,1
247,21,43,0.286482945023322,3
248,20,43,0.266967003478792,3
248,21,43,0.310393471733822,3
248,22,43,0.26819820430095,3
249,19,43,0.226722644786692,3
249,20,43,0.322659079097964,3
249,21,43,0.310350274184315,3
249,22,43,0.245447015967925,3
249,23,43,0.220430123229372,1
249,24,43,0.214060910711749,1
250,20,43,0.284237897243158,3
250,21,43,0.247855856419448,3
250,22,43,0.221919213893161,1
250,23,43,0.247436505726196,1
250,24,43,0.239785239873119,1
250,35,43,0.232099373583714,1
251,22,43,0.212394083565636,1
251,23,43,0.267954588022568,1
251,24,43,0.251383428609761,1
251,25,43,0.215761066392514,1
251,26,43,0.204423405515795,1
251,27,43,0.20459965811283,1
251,28,43,0.207282876020301,1
251,29,43,0.22279915786919,1
251,30,43,0.225830641298478,1
251,34,43,0.214320708405895,1
251,35,43,0.234297266786935,1
251,36,43,0.212902184731376,1
252,23,43,0.225263797118304,1
252,24,43,0.223649259263307,1
252,25,43,0.240615815221139,1
252,26,43,0.276357406443623,2
252,27,43,0.287481505607485,2
252,28,43,0.278618329441,2
252,29,43,0.279546794110586,2
252,30,43,0.24845237830539,1
252,31,43,0.210784845300955,1
252,34,43,0.228957799998266,1
252,35,43,0.229888525826387,1
252,36,43,0.209071475975002,1
253,16,43,0.23373638170165,1
253,17,43,0.248620716847553,2
253,18,43,0.216345622981209,1
253,21,43,0.247735732372291,1
253,22,43,0.259014132052412,2
253,23,43,0.24123888216613,1
253,24,43,0.223873891231491,1
253,25,43,0.250697850052779,2
253,26,43,0.307699725306924,2
253,27,43,0.331124644668358,2
253,28,43,0.30516751039285,2
253,29,43,0.280672945275818,2
253,30,43,0.242466078853382,1
253,31,43,0.199220738818477,1
253,34,43,0.226586928167139,1
253,35,43,0.216934277919749,1
254,15,43,0.192774811786816,1
254,16,43,0.288287302426562,2
254,17,43,0.304483745473443,2
254,18,43,0.253986964232617,2
254,19,43,0.231022214186735,2
254,20,43,0.236748362638576,2
254,21,43,0.275896695392173,2
254,22,43,0.313194858728468,2
254,23,43,0.289337445689798,2
254,24,43,0.239269672173467,1
254,25,43,0.234879067588667,1
254,26,43,0.273025471574034,2
254,27,43,0.302037077723933,2
254,28,43,0.291986887541657,2
254,29,43,0.262656175393545,2
254,30,43,0.239355454875378,1
254,31,43,0.199967109564814,1
255,15,43,0.222766371070436,2
255,16,43,0.329262957474768,2
255,17,43,0.345558891497177,2
255,18,43,0.312866802311055,2
255,19,43,0.303721758600976,2
255,20,43,0.289247588191778,2
255,21,43,0.269149539646965,2
255,22,43,0.26240617605305,2
255,23,43,0.244828259356391,1
255,24,43,0.220693901504688,1
255,25,43,0.213504006207634,1
255,26,43,0.225616985370681,1
255,27,43,0.251604503963999,2
255,28,43,0.270154082879751,2
255,29,43,0.25622678308367,1
255,30,43,0.242124643914638,1
255,31,43,0.212131883390547,1
256,12,43,0.180576591657757,1
256,13,43,0.198827297233435,1
256,15,43,0.20005823896451,1
256,16,43,0.282391355101004,2
256,17,43,0.326907183587607,2
256,18,43,0.332120237481944,2
256,19,43,0.343664605934712,2
256,20,43,0.351287301107553,2
256,21,43,0.311714647822674,2
256,22,43,0.257704874153337,2
256,23,43,0.246198144568678,2
256,24,43,0.254951371901412,2
256,25,43,0.25178153383428,2
256,26,43,0.251504165054021,2
256,27,43,0.257157979986486,2
256,28,43,0.265926187494512,2
256,29,43,0.263691055836672,2
256,30,43,0.250133196369936,1
256,31,43,0.219789767843085,1
257,11,43,0.184384041101079,1
257,12,43,0.282792663633448,1
257,13,43,0.267209088764416,1
257,14,43,0.17555010689627,1
257,15,43,0.161838041128213,1
257,16,43,0.216499711513857,1
257,17,43,0.272917571915205,2
257,18,43,0.292150044262178,2
257,19,43,0.312129170000305,2
257,20,43,0.347127052048478,2
257,21,43,0.338254972570263,2
257,22,43,0.298904007036725,2
257,23,43,0.300139541746074,2
257,24,43,0.299241461394298,2
257,25,43,0.29709564549858,2
257,26,43,0.321577750689936,2
257,27,43,0.315543707817616,2
257,28,43,0.283257944109437,2
257,29,43,0.282482696484313,2
257,30,43,0.27437884561827,1
257,31,43,0.23387909378042,1
257,41,43,0.228541935257755,1
258,11,43,0.217279457902316,1
258,12,43,0.29332492810458,1
258,13,43,0.24267914593781,1
258,14,43,0.164537275575305,1
258,15,43,0.165199300397549,1
258,16,43,0.221892409743031,1
258,17,43,0.252020392258245,1
258,18,43,0.237427864331995,2
258,19,43,0.239445430142072,2
258,20,43,0.259719566407777,2
258,21,43,0.278371486300959,2
258,22,43,0.296348049958037,2
258,23,43,0.305719704150017,2
258,24,43,0.276187795999784,2
258,25,43,0.269853019042347,2
258,26,43,0.30383773719082,2
258,27,43,0.305691887189293,2
258,28,43,0.273752740241499,2
258,29,43,0.275991122314733,1
258,30,43,0.262192449464049,1
258,31,43,0.220777658585412,1
258,40,43,0.209274038093738,1
258,41,43,0.23602740637202,1
258,42,43,0.199425067467318,1
259,11,43,0.22255361018456,1
259,12,43,0.262363897099197,1
259,13,43,0.207968454577282,1
259,14,43,0.173227767535567,1
259,15,43,0.20817973157787,1
259,16,43,0.265863934973603,1
259,17,43,0.249349610722715,1
259,18,43,0.193710012824537,1
259,19,43,0.175755330587031,1
259,20,43,0.175312967894941,1
259,21,43,0.197362879106782,1
259,22,43,0.236090930794605,1
259,23,43,0.239093937758596,1
259,24,43,0.210379673956014,1
259,25,43,0.211338004761246,1
259,26,43,0.231336774314144,2
259,27,43,0.24093023402614,2
259,28,43,0.246556396874024,1
259,29,43,0.269907545938262,1
259,30,43,0.239696018325936,1
259,31,43,0.198111546342256,1
259,41,43,0.182734313966385,1
260,12,43,0.213402136304898,1
260,13,43,0.177245434061414,1
260,14,43,0.187318447812649,1
260,15,43,0.242177098081897,1
260,16,43,0.259388565773522,1
260,17,43,0.203527586322554,1
260,18,43,0.14741302736341,1
260,19,43,0.13256036021386,1
260,20,43,0.130169126179053,1
260,21,43,0.138441150711116,1
260,22,43,0.155633433885797,1
260,23,43,0.153417121662012,1
260,24,43,0.15062055140612,1
260,25,43,0.168721066592249,1
260,26,43,0.18575260730422,1
260,27,43,0.193619554706281,1
260,28,43,0.204164926830794,1
260,29,43,0.228266851189765,1
260,30,43,0.200677089790982,1
261,11,43,0.194455794727506,1
261,12,43,0.180261949092277,1
261,13,43,0.167492009159953,1
261,14,43,0.168482761681051,1
261,15,43,0.187991907973109,1
261,16,43,0.174557835159282,1
261,17,43,0.136243057301149,1
261,18,43,0.115329225153731,1
261,19,43,0.119176668838635,1
261,20,43,0.120145528163295,1
261,22,43,0.116179338324715,1
261,23,43,0.117871309082659,1
261,24,43,0.126336497793298,1
261,25,43,0.141368538409735,1
261,26,43,0.14798646658931,1
261,27,43,0.149973824734587,1
261,28,43,0.15203629573994,1
261,29,43,0.165957506895591,1
261,30,43,0.158229726735222,1
261,31,43,0.154719584308615,1
262,10,43,0.194448763937687,1
262,11,43,0.189863157983001,1
262,12,43,0.179682268126672,1
262,13,43,0.186004149414341,1
262,14,43,0.152825710936508,1
262,15,43,0.129313689864018,1
262,27,43,0.114240595087935,1
262,29,43,0.115007445806625,1
262,30,43,0.118740971853475,1
262,31,43,0.129193966230351,1
262,32,43,0.154083303718438,1
263,9,43,0.115657776199573,1
263,10,43,0.149266199881892,1
263,11,43,0.156141452613466,1
263,12,43,0.149529636628055,1
263,13,43,0.153032889587252,1
263,14,43,0.122628963292729,1
263,32,43,0.11962733422222,1
263,33,43,0.129339763848371,1
264,11,43,0.120069567368769,1
264,34,43,0.115264464160072,1
265,34,43,0.122610756255778,1
265,35,43,0.143050781475233,1
266,33,43,0.115552196583616,1
266,34,43,0.13713914736234,1
266,35,43,0.164099823836907,1
267,34,43,0.149549645525714,1
267,35,43,0.187451915050535,1
267,36,43,0.181629243393743,1
268,8,43,0.126483861734678,1
268,9,43,0.128570110235247,1
268,34,43,0.118702897241274,1
268,35,43,0.154217654221376,1
268,36,43,0.166975546418381,1
269,7,43,0.129962194842523,1
269,8,43,0.167891009426393,1
269,9,43,0.172873966886087,1
269,10,43,0.126319668649828,1
269,35,43,0.123310031309509,1
269,36,43,0.154339768559118,1
270,7,43,0.165728682362624,1
270,8,43,0.207527387340602,1
270,9,43,0.19101733809257,1
270,10,43,0.133042257849706,1
270,36,43,0.146489026126556,1
270,37,43,0.171101089049322,1
271,7,43,0.176534570570193,1
271,8,43,0.196501330597583,1
271,9,43,0.179793559523303,1
271,10,43,0.155384211818548,1
271,11,43,0.134578302883693,1
271,35,43,0.117380307928338,1
271,36,43,0.146040904546323,1
271,37,43,0.17236329836326,1
272,7,43,0.151481546402553,1
272,8,43,0.161949297194241,1
272,9,43,0.181525595184034,1
272,10,43,0.195062915794079,1
272,11,43,0.16811401618688,1
272,35,43,0.139443998075,1
272,36,43,0.158088333665598,1
272,37,43,0.163721868832455,1
273,7,43,0.132347387344371,1
273,8,43,0.131073130295115,1
273,9,43,0.155272296247947,1
273,10,43,0.164853790662697,1
273,11,43,0.133946085312758,1
273,35,43,0.139372653812483,1
273,36,43,0.156931656860148,1
273,37,43,0.148400388146705,1
274,7,43,0.122245025639653,1
274,9,43,0.117472202824413,1
274,10,43,0.114341287303934,1
274,36,43,0.123706275788984,1
274,37,43,0.125896690681427,1
275,37,43,0.129374470276506,1
276,37,43,0.122656603600443,1
276,39,43,0.197482720509122,1
277,37,43,0.11604381013504,1
277,38,43,0.178038924054091,1
277,39,43,0.297955286155265,1
277,40,43,0.281990234998438,1
278,37,43,0.122208010945515,1
278,38,43,0.171965028262597,1
278,39,43,0.25409363909724,1
279,37,43,0.130479375973005,1
279,38,43,0.135773148516284,1
283,5,43,0.129099609968996,1
283,6,43,0.119350083210634,1
289,6,43,0.120440161831116,1
292,24,43,0.115537522606875,1
293,23,43,0.126276047133096,1
293,24,43,0.133652558670469,1
293,25,43,0.129477694518989,1
314,14,43,0.116108170715208,1
243,36,44,0.194729336025871,1
243,37,44,0.215864867701498,1
244,35,44,0.227210960815253,1
244,36,44,0.283398041723651,1
244,37,44,0.270326472664289,1
244,38,44,0.208839141935559,1
245,35,44,0.247015624040185,1
245,36,44,0.27742674600067,1
245,37,44,0.237029123156638,1
246,36,44,0.203867160516253,1
247,21,44,0.261349555512761,3
248,20,44,0.252579416598486,3
248,21,44,0.31343216260594,3
248,22,44,0.286399093727659,3
249,19,44,0.21250061710785,1
249,20,44,0.306578708855865,3
249,21,44,0.328203345610168,3
249,22,44,0.252714709250814,3
250,20,44,0.273911092000134,1
250,21,44,0.269671749499813,3
250,23,44,0.215827699908084,1
251,23,44,0.248867465772655,1
251,24,44,0.239632093489861,1
251,26,44,0.19311602296508,1
251,27,44,0.190959207475239,1
251,35,44,0.216570207841924,1
252,25,44,0.237188040204906,1
252,26,44,0.257088779113829,1
252,27,44,0.251617364303166,1
252,28,44,0.230685066027714,1
252,29,44,0.237991882064001,1
252,30,44,0.235126947093036,1
253,17,44,0.202005473322663,1
253,22,44,0.240878133164902,1
253,23,44,0.242624430612016,1
253,24,44,0.233535256360733,1
253,25,44,0.260194904328498,1
253,26,44,0.301911230119235,2
253,27,44,0.297462895330595,2
253,28,44,0.257437256619259,2
253,29,44,0.235276042233919,1
253,30,44,0.215233415626942,1
254,16,44,0.243563329586091,1
254,17,44,0.255253377888206,2
254,18,44,0.237827076582048,2
254,19,44,0.236947674341918,2
254,20,44,0.229327570079898,1
254,21,44,0.242404768481862,1
254,22,44,0.270058643146598,2
254,23,44,0.26145472293836,1
254,24,44,0.228110501498583,1
254,25,44,0.229698847600553,1
254,26,44,0.259892545035683,1
254,27,44,0.273132429083473,2
254,28,44,0.260280475046797,1
254,29,44,0.232805726534733,1
254,30,44,0.211032771912793,1
255,15,44,0.201617025129385,1
255,16,44,0.28375551675575,2
255,17,44,0.31209697204492,2
255,18,44,0.314416378965648,2
255,19,44,0.307027101304048,2
255,20,44,0.271947511350074,2
255,21,44,0.247586943429959,2
255,22,44,0.243798961148397,1
255,23,44,0.227168116571767,1
255,26,44,0.205129923342957,1
255,27,44,0.224417794074031,1
255,28,44,0.239436950797567,1
255,29,44,0.227592389995579,1
255,30,44,0.216247710105909,1
256,15,44,0.186015408099545,1
256,16,44,0.242489114405954,2
256,17,44,0.300316336079008,2
256,18,44,0.327843656527004,2
256,19,44,0.323648712816661,2
256,20,44,0.315301434102115,2
256,21,44,0.287136985129491,2
256,22,44,0.250064914092934,2
256,23,44,0.234098261282145,1
256,24,44,0.236742379989953,1
256,25,44,0.224884063806879,1
256,26,44,0.235632292471812,2
256,27,44,0.238104539577246,1
256,28,44,0.236790523823755,1
256,29,44,0.231845440769517,1
256,30,44,0.225686139135868,1
257,12,44,0.238470423292646,1
257,13,44,0.215036365082135,1
257,16,44,0.204994112508465,1
257,17,44,0.27070752498486,2
257,18,44,0.297681309112808,2
257,19,44,0.301437093438985,2
257,20,44,0.334114108234876,2
257,21,44,0.327726453142954,2
257,22,44,0.291303216837189,2
257,23,44,0.289880335721745,2
257,24,44,0.295110183428949,2
257,25,44,0.27967078097024,2
257,26,44,0.312186382021981,2
257,27,44,0.299185285736951,2
257,28,44,0.257884659810583,1
257,29,44,0.252850826283858,1
257,30,44,0.255788730725037,1
257,31,44,0.2229011455406,1
258,11,44,0.196046578641021,1
258,12,44,0.254934295443728,1
258,13,44,0.213514699603204,1
258,15,44,0.165970791201983,1
258,16,44,0.217901040962017,1
258,17,44,0.262431896731382,1
258,18,44,0.264608473804667,2
258,19,44,0.262242053629404,2
258,20,44,0.289516736718614,2
258,21,44,0.304120970851028,2
258,22,44,0.312484289658931,2
258,23,44,0.316014758958616,2
258,24,44,0.292318406358076,2
258,25,44,0.267924439242105,1
258,26,44,0.298446381524526,2
258,27,44,0.294539146683992,2
258,28,44,0.258561900345467,1
258,29,44,0.255055173210397,1
258,30,44,0.251864796286575,1
258,31,44,0.215460638505947,1
258,41,44,0.220143309401483,1
259,12,44,0.237482673872728,1
259,14,44,0.177631067583391,1
259,15,44,0.196041455703716,1
259,16,44,0.239755326630003,1
259,17,44,0.245206273245181,1
259,18,44,0.216612463242042,1
259,19,44,0.201756981421191,1
259,20,44,0.207128599057775,1
259,21,44,0.23009316067378,2
259,22,44,0.26701736136366,2
259,23,44,0.262526041009125,2
259,24,44,0.230051187918479,1
259,25,44,0.220063862654216,1
259,26,44,0.239011429025814,1
259,27,44,0.252801151457298,1
259,28,44,0.249115745690514,1
259,29,44,0.259291854138693,1
259,30,44,0.235338506738441,1
259,31,44,0.195341968666372,1
260,13,44,0.181836480928824,1
260,14,44,0.186392538723282,1
260,15,44,0.218660696014746,1
260,16,44,0.234359095340619,1
260,17,44,0.20483043760578,1
260,18,44,0.16543724022586,1
260,19,44,0.152452007381175,1
260,20,44,0.153445115275746,1
260,21,44,0.16421142143209,1
260,22,44,0.188232238505495,1
260,23,44,0.183497867162212,1
260,24,44,0.18120680716124,1
260,25,44,0.20562441045002,1
260,26,44,0.217783366503273,1
260,27,44,0.226140608447613,1
260,28,44,0.225387995961571,1
260,29,44,0.240674864434124,1
260,30,44,0.214581330480756,1
261,12,44,0.16248416717951,1
261,13,44,0.16766946299746,1
261,14,44,0.173559745649814,1
261,15,44,0.190016092382647,1
261,16,44,0.18541362195389,1
261,17,44,0.156838289855651,1
261,18,44,0.135971035218675,1
261,19,44,0.141354076416606,1
261,20,44,0.146547510049908,1
261,21,44,0.138020363240044,1
261,22,44,0.146138817421624,1
261,23,44,0.149345316876873,1
261,24,44,0.167029625793337,1
261,25,44,0.20633196464151,1
261,26,44,0.201306845996638,1
261,27,44,0.185886498509331,1
261,28,44,0.17604147313348,1
261,29,44,0.192842151914429,1
261,30,44,0.193444574010922,1
262,11,44,0.148335744921721,1
262,12,44,0.156152405100118,1
262,13,44,0.174748879501731,1
262,14,44,0.155875966692381,1
262,15,44,0.140887029410512,1
262,16,44,0.128282790002061,1
262,19,44,0.126924304797387,1
262,20,44,0.138082392000473,1
262,21,44,0.122474439015989,1
262,22,44,0.128508882301799,1
262,23,44,0.140062931339544,1
262,24,44,0.144593645315426,1
262,25,44,0.161754060287009,1
262,26,44,0.158157840736806,1
262,27,44,0.14742712427365,1
262,28,44,0.136175410974985,1
262,29,44,0.137416504365732,1
262,30,44,0.146298570627475,1
262,31,44,0.151295848757889,1
263,10,44,0.123541741174981,1
263,11,44,0.131323447611029,1
263,12,44,0.136248757304955,1
263,13,44,0.150137794058957,1
263,14,44,0.129588773932008,1
263,23,44,0.115682684274057,1
263,31,44,0.116279488804816,1
263,32,44,0.133520869739556,1
264,33,44,0.118201155583912,1
265,33,44,0.11872935986225,1
265,34,44,0.131049729659654,1
266,33,44,0.12774216112865,1
266,34,44,0.137232608581775,1
267,33,44,0.125397669480427,1
267,34,44,0.140194526055518,1
267,35,44,0.184088971689165,1
268,8,44,0.140807347125898,1
268,9,44,0.145572703407227,1
268,10,44,0.122850497944795,1
268,34,44,0.125133690998366,1
268,35,44,0.16728254579694,1
269,8,44,0.167632931154883,1
269,9,44,0.178913756869682,1
269,10,44,0.13506435775372,1
269,35,44,0.144071388355109,1
270,8,44,0.182813266085222,1
270,9,44,0.182422992477502,1
270,10,44,0.140328723459181,1
270,11,44,0.113749087528316,1
270,35,44,0.132735800207047,1
270,36,44,0.166652141863579,1
271,8,44,0.179624113955607,1
271,9,44,0.179048130926355,1
271,10,44,0.16923073408135,1
271,11,44,0.167407651458994,1
271,12,44,0.126000315337401,1
271,35,44,0.140411161530759,1
271,36,44,0.172140680239396,1
272,7,44,0.148055349486547,1
272,8,44,0.165158246237903,1
272,9,44,0.184377834691976,1
272,10,44,0.205836770922406,1
272,11,44,0.213269858530616,1
272,12,44,0.14648198355987,1
272,35,44,0.164519056761486,1
272,36,44,0.204218676453463,1
273,7,44,0.139317031667902,1
273,8,44,0.137735881231894,1
273,9,44,0.155365804574851,1
273,10,44,0.171908275538749,1
273,11,44,0.164508916878682,1
273,35,44,0.165934989525183,1
273,36,44,0.212372437683413,1
274,7,44,0.128078272923343,1
274,9,44,0.114264596343631,1
274,10,44,0.124958298112649,1
274,11,44,0.116385892801489,1
274,35,44,0.119035487752623,1
274,36,44,0.149253657518145,1
275,36,44,0.114277656889543,1
277,37,44,0.117872840075417,1
277,39,44,0.263934083271685,1
279,37,44,0.118213226872965,1
280,37,44,0.118418262133848,1
282,6,44,0.124004242310271,1
283,5,44,0.149280320345867,1
283,6,44,0.139852302066661,1
284,5,44,0.1148453372273,1
284,24,44,0.122957584999776,1
285,23,44,0.116938027674319,1
285,24,44,0.120957484284006,1
288,6,44,0.12459478154759,1
288,7,44,0.127073953451037,1
289,6,44,0.122979301543203,1
289,7,44,0.114782448755553,1
292,22,44,0.14025654303908,1
292,23,44,0.152387658577874,1
292,24,44,0.131680757766985,1
293,22,44,0.166846907696117,1
293,23,44,0.180509816819779,1
293,24,44,0.153014788542107,1
293,25,44,0.132797605206996,1
293,26,44,0.116357581212335,1
244,36,45,0.253222833970289,1
244,37,45,0.237651601258259,1
245,35,45,0.223333026820732,1
245,36,45,0.254614529940942,1
245,37,45,0.224094401296096,1
246,36,45,0.191750294986974,1
248,21,45,0.28648447601608,3
249,20,45,0.255094131087651,1
249,21,45,0.311722750307423,3
249,22,45,0.253431873366077,1
250,21,45,0.276896386555604,1
252,25,45,0.230824763228437,1
252,26,45,0.233841478466045,1
252,27,45,0.216872378704861,1
253,24,45,0.24335676333245,1
253,25,45,0.268788884860677,1
253,26,45,0.287744883469311,1
253,27,45,0.256300506273396,1
253,28,45,0.217829838021908,1
253,29,45,0.202142273414014,1
254,17,45,0.211244543541811,1
254,18,45,0.224345696092002,2
254,19,45,0.241793784602792,1
254,22,45,0.219282703041673,1
254,23,45,0.223572474088065,1
254,25,45,0.225111286685884,1
254,26,45,0.245151746349265,1
254,27,45,0.237019348356722,1
254,28,45,0.222754711971742,1
255,16,45,0.234945394905685,1
255,17,45,0.27586167098862,2
255,18,45,0.304831963887791,2
255,19,45,0.295493708891667,2
255,20,45,0.253386579534179,1
255,21,45,0.229023397149508,1
255,28,45,0.209120373528316,1
256,16,45,0.21973201408551,1
256,17,45,0.280300042547466,2
256,18,45,0.319453816213788,2
256,19,45,0.302677739308771,2
256,20,45,0.282614479630165,2
256,21,45,0.267524543933745,2
256,22,45,0.249679457223968,1
256,23,45,0.224232496842857,1
256,24,45,0.215768038297996,1
256,25,45,0.202549164181591,1
256,26,45,0.216999498211235,1
256,27,45,0.216366091176696,1
256,28,45,0.213305448223803,1
256,29,45,0.207380152944763,1
257,16,45,0.199755526365674,1
257,17,45,0.259466740619113,2
257,18,45,0.291739573326922,2
257,19,45,0.287470600228302,2
257,20,45,0.309581291852631,2
257,21,45,0.308042196609996,2
257,22,45,0.282144276423616,2
257,23,45,0.266319935278106,1
257,24,45,0.270958113168723,1
257,25,45,0.251638444895755,1
257,26,45,0.277011281673649,2
257,27,45,0.262652901424417,1
257,28,45,0.233510430724321,1
257,29,45,0.22270831111431,1
257,30,45,0.225532498124181,1
258,12,45,0.204255726478204,1
258,16,45,0.209546460589703,1
258,17,45,0.260573295077043,1
258,18,45,0.279182653371557,2
258,19,45,0.275223953620624,2
258,20,45,0.30374465283114,2
258,21,45,0.315135804239446,2
258,22,45,0.310130682715365,2
258,23,45,0.295825227708086,2
258,24,45,0.281495630122702,1
258,25,45,0.251135666874065,1
258,26,45,0.273275565129468,1
258,27,45,0.267151711866598,1
258,28,45,0.23922915974972,1
258,29,45,0.226578236839021,1
258,30,45,0.2306495941032,1
259,15,45,0.183234041779426,1
259,16,45,0.210496900893798,1
259,17,45,0.235004373457466,1
259,18,45,0.233075157706386,1
259,19,45,0.222505560565697,1
259,20,45,0.236421083494409,2
259,21,45,0.255480906965763,2
259,22,45,0.275437680209624,2
259,23,45,0.259797293732408,1
259,24,45,0.23222138192965,1
259,25,45,0.214919350127963,1
259,26,45,0.234269214288864,1
259,27,45,0.252675963357172,1
259,28,45,0.242147844343354,1
259,29,45,0.23183495935756,1
259,30,45,0.222979744353416,1
260,14,45,0.180569831735888,1
260,15,45,0.188270689977452,1
260,16,45,0.197934233827158,1
260,17,45,0.194137030258447,1
260,18,45,0.177755772831954,1
260,19,45,0.172127925892036,1
260,20,45,0.182222220442607,1
260,21,45,0.194488145782167,1
260,22,45,0.217528161787401,1
260,23,45,0.212789268127048,1
260,24,45,0.207346212013008,1
260,25,45,0.226238238678097,1
260,26,45,0.2300604916437,1
260,27,45,0.240562819317982,1
260,28,45,0.236623739828084,1
260,29,45,0.234285277935954,1
261,13,45,0.173513121031902,1
261,14,45,0.176844372843185,1
261,15,45,0.183191350635216,1
261,16,45,0.179817160365509,1
261,17,45,0.165644018463113,1
261,18,45,0.152630638905418,1
261,19,45,0.161948661243404,1
261,20,45,0.174657761878902,1
261,21,45,0.169019292204618,1
261,22,45,0.181608363007899,1
261,23,45,0.187251672974671,1
261,24,45,0.203514749537122,1
261,25,45,0.259176063978727,1
261,26,45,0.242405639970047,1
261,27,45,0.209230133932189,1
261,28,45,0.195757056133637,1
261,29,45,0.20731912521806,1
262,12,45,0.138557235292765,1
262,13,45,0.163997671289354,1
262,14,45,0.163654728911588,1
262,15,45,0.15618913714944,1
262,16,45,0.140290118887947,1
262,17,45,0.12765337532556,1
262,18,45,0.129005395030049,1
262,19,45,0.155949972526924,1
262,20,45,0.179981600764573,1
262,21,45,0.162213723197263,1
262,22,45,0.165877329982548,1
262,23,45,0.175277024895732,1
262,24,45,0.171541119921673,1
262,25,45,0.20773244615522,1
262,26,45,0.206137552114993,1
262,27,45,0.181090133736222,1
262,28,45,0.164832003458065,1
262,29,45,0.160125637505384,1
262,30,45,0.171209118253692,1
263,11,45,0.120011731173123,1
263,12,45,0.126665284376487,1
263,13,45,0.151480121401602,1
263,14,45,0.142763084382291,1
263,15,45,0.122647641404375,1
263,19,45,0.126954630230861,1
263,20,45,0.151983134960639,1
263,21,45,0.140327486888107,1
263,22,45,0.141961680334742,1
263,23,45,0.152740611292904,1
263,24,45,0.137455167821302,1
263,25,45,0.133926253068109,1
263,26,45,0.138646291963805,1
263,27,45,0.143835521255456,1
263,28,45,0.145871211664412,1
263,29,45,0.133766876722014,1
264,12,45,0.116487244522061,1
264,13,45,0.136462071703598,1
264,14,45,0.123344231332346,1
264,23,45,0.120253898896818,1
264,24,45,0.124294542090901,1
264,28,45,0.121213760694809,1
264,29,45,0.118150361954952,1
265,24,45,0.115526864541906,1
266,33,45,0.126885865102297,1
267,9,45,0.12205033046832,1
267,11,45,0.113979855244399,1
267,12,45,0.117926577921219,1
267,33,45,0.130259914049595,1
267,34,45,0.132235012475942,1
268,9,45,0.165219450617617,1
268,10,45,0.134832400574033,1
268,11,45,0.134044363270947,1
268,12,45,0.148018134585663,1
268,13,45,0.12196042586283,1
268,33,45,0.122040379015394,1
268,34,45,0.130185837553849,1
269,9,45,0.172709043635461,1
269,10,45,0.137641642739213,1
269,11,45,0.121077467008755,1
269,12,45,0.129707861614837,1
269,13,45,0.118179450817352,1
269,34,45,0.126788435078558,1
270,9,45,0.158577368083069,1
270,10,45,0.141147945907058,1
270,11,45,0.125007360542105,1
270,12,45,0.119198090960378,1
270,34,45,0.125976278751102,1
270,35,45,0.158377785511777,1
271,8,45,0.151092544696509,1
271,9,45,0.163752123604724,1
271,10,45,0.171215418877734,1
271,11,45,0.181941978106709,1
271,12,45,0.157668924088009,1
271,13,45,0.127595386030638,1
271,34,45,0.123267976116136,1
271,35,45,0.16991287379306,1
272,8,45,0.156833755761715,1
272,9,45,0.173717390796406,1
272,10,45,0.197636161314065,1
272,11,45,0.230375334415926,1
272,12,45,0.185614935724684,1
272,13,45,0.125062523388859,1
272,34,45,0.119052128466215,1
272,35,45,0.185048833487155,1
273,8,45,0.141706734709952,1
273,9,45,0.148964111457026,1
273,10,45,0.16708819215476,1
273,11,45,0.185889207188826,1
273,12,45,0.138421777764295,1
273,34,45,0.126070693896794,1
273,35,45,0.182705802170486,1
274,10,45,0.130219201419103,1
274,11,45,0.140793685959751,1
274,34,45,0.133559580302596,1
274,35,45,0.137546273667264,1
280,9,45,0.118833655799664,1
282,6,45,0.142611834074679,1
283,6,45,0.149211366787425,1
284,24,45,0.129335641944792,1
285,23,45,0.124005596650018,1
285,24,45,0.129525508600505,1
287,7,45,0.130109429238363,1
288,6,45,0.129149602770974,1
288,7,45,0.14684048317943,1
289,6,45,0.119451576253615,1
289,7,45,0.129891922274937,1
290,7,45,0.121215927638405,1
292,21,45,0.131150716297338,1
292,22,45,0.182005396537488,1
292,23,45,0.180629905536334,1
292,24,45,0.132028069362545,1
292,29,45,0.12743328922818,1
292,30,45,0.125105544285355,1
293,21,45,0.144339794939301,1
293,22,45,0.207229385488714,1
293,23,45,0.201659916480341,1
293,24,45,0.147538297901607,1
293,25,45,0.11958710444329,1
293,29,45,0.124689549999303,1
293,30,45,0.118532485970453,1
294,22,45,0.123943143922364,1
294,23,45,0.117937801275821,1
245,36,46,0.219189194714768,1
249,21,46,0.271544106535238,1
253,25,46,0.254068413047337,1
253,26,46,0.25457225098709,1
253,27,46,0.213509894641318,1
254,18,46,0.209185947125823,1
254,19,46,0.235525499838516,1
255,17,46,0.242358815145391,1
255,18,46,0.280649014681326,2
255,19,46,0.27169737068717,1
255,20,46,0.230194842146638,1
256,16,46,0.212331571953645,1
256,17,46,0.263381418439823,2
256,18,46,0.302379831671821,2
256,19,46,0.284338259706871,2
256,20,46,0.255286965513941,1
256,21,46,0.24976295521361,1
256,22,46,0.243603465150083,1
256,26,46,0.198435245318742,1
256,27,46,0.194457408158335,1
257,16,46,0.204643326737031,1
257,17,46,0.246254202457352,1
257,18,46,0.277012765558938,2
257,19,46,0.277457106764746,2
257,20,46,0.282946540182483,2
257,21,46,0.287973872878421,2
257,22,46,0.273730976590603,1
257,23,46,0.241030596489853,1
257,24,46,0.236430646310713,1
257,25,46,0.224408113489054,1
257,26,46,0.236320461939614,1
257,27,46,0.224486877178014,1
257,28,46,0.207805227195557,1
258,17,46,0.247256861391359,1
258,18,46,0.274511241161225,1
258,19,46,0.276724679829373,1
258,20,46,0.292969431586199,2
258,21,46,0.302235635707763,2
258,22,46,0.291184529567851,2
258,23,46,0.259556715885807,1
258,24,46,0.249511566202765,1
258,25,46,0.230850130600748,1
258,26,46,0.242573648759924,1
258,27,46,0.238795229294666,1
258,28,46,0.219046035115038,1
259,18,46,0.243765821043623,1
259,19,46,0.240141654987155,1
259,20,46,0.251861875623467,1
259,21,46,0.259450488542144,2
259,22,46,0.258763096347588,1
259,23,46,0.237548836313603,1
259,24,46,0.22093031034024,1
259,26,46,0.22598793313905,1
259,27,46,0.242994765983282,1
259,28,46,0.229142791030889,1
259,29,46,0.205339857780665,1
260,16,46,0.164325021094725,1
260,17,46,0.186684416604139,1
260,18,46,0.193134736407328,1
260,19,46,0.194518035471548,1
260,20,46,0.206746604587815,1
260,21,46,0.212994350495401,1
260,22,46,0.224476678410873,1
260,23,46,0.22605456665462,1
260,24,46,0.220562118358836,1
260,25,46,0.231270399889655,1
260,26,46,0.2289046627727,1
260,27,46,0.236144751078478,1
261,14,46,0.172294274143614,1
261,15,46,0.168348246301969,1
261,16,46,0.163946500800639,1
261,17,46,0.165612880425791,1
261,18,46,0.164895869409804,1
261,19,46,0.1758370502697,1
261,20,46,0.189998109106175,1
261,21,46,0.186392703599425,1
261,22,46,0.198991160565998,1
261,23,46,0.212668037054359,1
261,24,46,0.222063833824444,1
261,25,46,0.275124203554014,1
261,26,46,0.261593925510654,1
261,27,46,0.221165800580138,1
262,13,46,0.150860787723567,1
262,14,46,0.164299901036628,1
262,15,46,0.163590438992624,1
262,16,46,0.146891111932247,1
262,17,46,0.138623762816529,1
262,18,46,0.14402340939745,1
262,19,46,0.173245868580712,1
262,20,46,0.202516471597776,1
262,21,46,0.187667231516631,1
262,22,46,0.187025215592045,1
262,23,46,0.193041416510301,1
262,24,46,0.182915913261205,1
262,25,46,0.228395242597815,1
262,26,46,0.241384938875232,1
262,27,46,0.204815692967835,1
262,28,46,0.18378544648648,1
263,12,46,0.120602812146341,1
263,13,46,0.146489862284139,1
263,14,46,0.149964956753459,1
263,15,46,0.137294731557143,1
263,16,46,0.123134767969333,1
263,17,46,0.120018703078605,1
263,18,46,0.122367799481969,1
263,19,46,0.143530052869655,1
263,20,46,0.176283040236939,1
263,21,46,0.173422992665932,1
263,22,46,0.174623444087391,1
263,23,46,0.176170017640805,1
263,24,46,0.153598108559729,1
263,25,46,0.151260989230479,1
263,26,46,0.163698903941086,1
263,27,46,0.164877544604179,1
263,28,46,0.16942660693942,1
264,12,46,0.122437341883779,1
264,13,46,0.151571144809492,1
264,14,46,0.14082461201346,1
264,15,46,0.118848506429416,1
264,16,46,0.11468024910053,1
264,17,46,0.119232597181767,1
264,20,46,0.126241870663993,1
264,21,46,0.138143749479462,1
264,22,46,0.145929566042223,1
264,23,46,0.152022622796925,1
264,24,46,0.149346247249395,1
264,25,46,0.123425185518636,1
264,27,46,0.12443488701933,1
264,28,46,0.152811072290369,1
264,29,46,0.152154947678676,1
265,13,46,0.121839689418569,1
265,14,46,0.115309498900889,1
265,16,46,0.115372823116728,1
265,17,46,0.114826529570112,1
265,23,46,0.122962166201182,1
265,24,46,0.144458364439966,1
265,25,46,0.123277927569062,1
265,28,46,0.126194833855724,1
265,29,46,0.126908417803307,1
266,16,46,0.116898292523818,1
266,24,46,0.129915405348469,1
266,25,46,0.116964772940113,1
267,10,46,0.115060830346406,1
267,11,46,0.118999768513895,1
267,12,46,0.130192432599575,1
267,13,46,0.116379509739375,1
267,32,46,0.117906875222112,1
268,10,46,0.140394355941024,1
268,11,46,0.142239720396441,1
268,12,46,0.174132749131621,1
268,13,46,0.157985792481422,1
268,32,46,0.114522733499478,1
269,10,46,0.137933956364163,1
269,11,46,0.130995391193617,1
269,12,46,0.153054806337424,1
269,13,46,0.150126299836405,1
269,33,46,0.130142710665546,1
270,10,46,0.139487442938722,1
270,11,46,0.130592787205762,1
270,12,46,0.131329076953632,1
270,13,46,0.132894705478448,1
271,9,46,0.147252390892506,1
271,10,46,0.164806977614907,1
271,11,46,0.173698806899699,1
271,12,46,0.169566398355083,1
271,13,46,0.156529288409641,1
271,14,46,0.114008885222462,1
272,9,46,0.157346391021392,1
272,10,46,0.180890044759633,1
272,11,46,0.211727607087526,1
272,12,46,0.199692661447662,1
272,13,46,0.157122665871995,1
272,34,46,0.128933615023439,1
273,9,46,0.139565123155884,1
273,10,46,0.156158281756935,1
273,11,46,0.184401317765508,1
273,12,46,0.161157055549505,1
273,13,46,0.114586517013145,1
273,34,46,0.14524659017293,1
274,10,46,0.12356326928853,1
274,11,46,0.145959549946542,1
274,12,46,0.117832245213598,1
274,33,46,0.120508550099924,1
274,34,46,0.180067030160463,1
275,34,46,0.143296552920343,1
280,7,46,0.125668466768695,1
280,8,46,0.13085177229606,1
280,9,46,0.133671849179218,1
280,10,46,0.121421186659768,1
281,7,46,0.132340827629247,1
281,8,46,0.114784615699148,1
282,7,46,0.121276519621015,1
284,24,46,0.122118718737128,1
285,23,46,0.127671099510949,1
285,24,46,0.132998200588881,1
286,27,46,0.131098462336824,1
286,28,46,0.140873980641468,1
286,29,46,0.121498431132837,1
287,7,46,0.145914397437052,1
287,26,46,0.118498886567852,1
287,27,46,0.150354782840219,1
287,28,46,0.155772542243152,1
287,29,46,0.128961467314765,1
288,6,46,0.122546866750304,1
288,7,46,0.15422779410418,1
288,27,46,0.124207110627558,1
288,28,46,0.117536162991091,1
289,6,46,0.114422535911908,1
289,7,46,0.143350608741564,1
290,7,46,0.143702701745275,1
290,8,46,0.116507064989842,1
291,22,46,0.1147099621369,1
291,28,46,0.114441579106443,1
291,29,46,0.159400359128504,1
291,30,46,0.157983731529632,1
292,18,46,0.114350920781441,1
292,20,46,0.121366271127229,1
292,21,46,0.157410339411202,1
292,22,46,0.201674001613713,1
292,23,46,0.186623683299121,1
292,24,46,0.129158352983429,1
292,28,46,0.131229350440756,1
292,29,46,0.18146886601392,1
292,30,46,0.174859334740779,1
293,19,46,0.129028842772979,1
293,20,46,0.134048002322964,1
293,21,46,0.162693135914094,1
293,22,46,0.210818974662588,1
293,23,46,0.192515496944233,1
293,24,46,0.133456191183969,1
293,28,46,0.120933282821564,1
293,29,46,0.147215293760295,1
293,30,46,0.133063797740123,1
294,22,46,0.125170258171544,1
294,23,46,0.118278576709992,1
255,18,47,0.245001285091767,1
255,19,47,0.250971897756441,1
256,17,47,0.242779626170197,1
256,18,47,0.275875002402481,2
256,19,47,0.28178925097993,1
256,20,47,0.253533766822548,1
256,21,47,0.246319917377267,1
256,22,47,0.24173355770307,1
257,17,47,0.233239445006175,1
257,18,47,0.260002305439556,1
257,19,47,0.28256796100406,1
257,20,47,0.275093677913795,1
257,21,47,0.281109560856632,1
257,22,47,0.2773556372755,1
257,23,47,0.227209359161291,1
257,26,47,0.200144987369545,1
257,27,47,0.197033409465285,1
258,17,47,0.223654370423745,1
258,18,47,0.252411219378732,1
258,19,47,0.272791606541833,1
258,20,47,0.277534033262396,1
258,21,47,0.280315799996005,2
258,22,47,0.268674013296366,1
258,23,47,0.224241824121813,1
258,24,47,0.206580173898166,1
258,26,47,0.207661572967397,1
258,27,47,0.212027163485908,1
259,18,47,0.244527124857783,1
259,19,47,0.256381248476073,1
259,20,47,0.260591407899056,1
259,21,47,0.252228795703196,1
259,22,47,0.23438088254525,1
259,27,47,0.218119666727844,1
260,19,47,0.224360888250907,1
260,20,47,0.22753823995942,1
260,21,47,0.221225391529022,1
260,22,47,0.216348190338296,1
261,16,47,0.153320280481642,1
261,17,47,0.163868726368538,1
261,18,47,0.174504415288899,1
261,19,47,0.183860700668964,1
261,20,47,0.195100001149422,1
261,21,47,0.192750292348956,1
261,22,47,0.20061203437564,1
261,23,47,0.215579749742511,1
261,24,47,0.216648335580046,1
261,25,47,0.247774077852442,1
261,26,47,0.250355849824402,1
262,14,47,0.153978383607053,1
262,15,47,0.16249490768255,1
262,16,47,0.160473455506241,1
262,17,47,0.154135227926665,1
262,18,47,0.15281451113564,1
262,19,47,0.173888096488911,1
262,20,47,0.202862805713345,1
262,21,47,0.197052723527769,1
262,22,47,0.192721380139566,1
262,23,47,0.190679789520058,1
262,24,47,0.182357136235179,1
262,25,47,0.21919845133252,1
262,26,47,0.253244574067451,1
263,13,47,0.136019226159946,1
263,14,47,0.144861439502515,1
263,15,47,0.146317543160806,1
263,16,47,0.142253652430538,1
263,17,47,0.137944579098529,1
263,18,47,0.135095389799235,1
263,19,47,0.147909481207323,1
263,20,47,0.180235427586963,1
263,21,47,0.194347906845544,1
263,22,47,0.195868512406412,1
263,23,47,0.183670892897588,1
263,24,47,0.164624353732626,1
263,25,47,0.163387429352928,1
263,26,47,0.183486926452427,1
263,27,47,0.173333064506708,1
264,12,47,0.127755386550704,1
264,13,47,0.151185676163658,1
264,14,47,0.148009125282127,1
264,15,47,0.132010474722697,1
264,16,47,0.125385609968242,1
264,17,47,0.130116071391558,1
264,18,47,0.123821806857868,1
264,19,47,0.118161809070034,1
264,20,47,0.137151642618618,1
264,21,47,0.16533744305178,1
264,22,47,0.182387909189612,1
264,23,47,0.179568150281872,1
264,24,47,0.166889398633582,1
264,25,47,0.136627065615429,1
264,28,47,0.179718317117686,1
265,13,47,0.130508370620466,1
265,14,47,0.129438665980531,1
265,15,47,0.1201763835558,1
265,16,47,0.121408773841561,1
265,17,47,0.126122994964777,1
265,18,47,0.114429849346544,1
265,20,47,0.12131520663032,1
265,21,47,0.135778424552865,1
265,22,47,0.145072386750817,1
265,23,47,0.153547161831493,1
265,24,47,0.165840633263828,1
265,25,47,0.143473665228695,1
266,12,47,0.114535841152859,1
266,13,47,0.114506281215765,1
266,15,47,0.114740534884589,1
266,16,47,0.124133363884098,1
266,17,47,0.118428201809907,1
266,20,47,0.121668795296187,1
266,21,47,0.119592392256738,1
266,22,47,0.119481077306372,1
266,23,47,0.138696708733009,1
266,24,47,0.16472422156791,1
266,25,47,0.15459658670582,1
266,26,47,0.126023280228769,1
267,11,47,0.121304065713789,1
267,12,47,0.135132769576263,1
267,13,47,0.131845998993031,1
267,16,47,0.123154517775909,1
267,17,47,0.116442150896907,1
267,20,47,0.114051470374866,1
267,22,47,0.113833822089032,1
267,23,47,0.132476202719646,1
267,24,47,0.140579170320636,1
267,25,47,0.131872520498344,1
267,26,47,0.117387809792852,1
267,27,47,0.127044593720687,1
268,11,47,0.145588849492389,1
268,12,47,0.180408229561859,1
268,13,47,0.18165963948842,1
268,14,47,0.128437844237833,1
268,23,47,0.120035296684727,1
269,11,47,0.143790686721384,1
269,12,47,0.166116847911085,1
269,13,47,0.171290955705035,1
269,14,47,0.123836763479426,1
270,11,47,0.136483917792567,1
270,12,47,0.139332859777645,1
270,13,47,0.144042346600179,1
270,14,47,0.117041004602588,1
271,10,47,0.155446535000661,1
271,11,47,0.158114584302962,1
271,12,47,0.168258388803949,1
271,13,47,0.17346815695229,1
271,14,47,0.138677959960158,1
272,10,47,0.166951038757388,1
272,11,47,0.184720364879384,1
272,12,47,0.201592858997546,1
272,13,47,0.18624648201418,1
272,14,47,0.137157413283628,1
273,10,47,0.14847554811425,1
273,11,47,0.172356538441391,1
273,12,47,0.17850514667947,1
273,13,47,0.1415950900073,1
273,33,47,0.115523213713022,1
274,10,47,0.118006260205833,1
274,11,47,0.138489742065877,1
274,12,47,0.12920811024806,1
274,33,47,0.137089625635056,1
275,33,47,0.114163020862579,1
279,8,47,0.116627895649041,1
280,8,47,0.142293682002723,1
280,9,47,0.132213154610107,1
280,10,47,0.129250094780229,1
281,8,47,0.129681198787115,1
281,9,47,0.118970938742577,1
281,10,47,0.130190077226101,1
281,11,47,0.118748685701602,1
282,10,47,0.129726834148167,1
282,11,47,0.136937303632513,1
283,10,47,0.128567754861773,1
283,11,47,0.132467523168396,1
284,10,47,0.11732574570182,1
284,11,47,0.118283923407777,1
285,11,47,0.125905558662555,1
285,12,47,0.114853145290365,1
285,23,47,0.130559753092794,1
285,24,47,0.137254984629775,1
285,25,47,0.11401780031106,1
285,30,47,0.118739217100238,1
285,31,47,0.122627809159727,1
286,11,47,0.118718713574149,1
286,12,47,0.118626806901207,1
286,23,47,0.139870167574459,1
286,24,47,0.144892895515256,1
286,25,47,0.121430160632702,1
286,26,47,0.127413621859675,1
286,27,47,0.164540231569014,1
286,28,47,0.176665505781594,1
286,29,47,0.152295245499635,1
286,30,47,0.131766234270345,1
286,31,47,0.115711784913324,1
287,7,47,0.13881690344137,1
287,23,47,0.12320213165068,1
287,24,47,0.126475347059571,1
287,25,47,0.118266281660459,1
287,26,47,0.148560694865324,1
287,27,47,0.205185062635976,1
287,28,47,0.203793979062426,1
287,29,47,0.151923367358744,1
288,7,47,0.147022706648221,1
288,8,47,0.124250979458505,1
288,23,47,0.11420186097116,1
288,24,47,0.116809400728922,1
288,25,47,0.11386484235768,1
288,26,47,0.129478236254888,1
288,27,47,0.152025190154011,1
288,28,47,0.138517818117684,1
289,7,47,0.146573819571608,1
289,8,47,0.1279606337952,1
289,25,47,0.117507144789895,1
289,26,47,0.117992540155349,1
290,7,47,0.147393018465751,1
290,8,47,0.126840689039072,1
290,24,47,0.114209739695429,1
290,25,47,0.127096824127466,1
290,26,47,0.123934546809185,1
290,29,47,0.124182296768013,1
290,30,47,0.114905446358348,1
291,21,47,0.124580201785788,1
291,22,47,0.137090579561313,1
291,23,47,0.129577055948976,1
291,24,47,0.119956768533115,1
291,25,47,0.125533280108174,1
291,26,47,0.124512001946857,1
291,27,47,0.117077477560828,1
291,28,47,0.139100608176274,1
291,29,47,0.210452337227676,1
291,30,47,0.206842538949398,1
292,17,47,0.114586870319166,1
292,18,47,0.126787010077607,1
292,19,47,0.129736432295072,1
292,20,47,0.147371243037987,1
292,21,47,0.176257543319087,1
292,22,47,0.200159001841714,1
292,23,47,0.175618024090383,1
292,24,47,0.127503832663716,1
292,27,47,0.114747589228142,1
292,28,47,0.152294138474102,1
292,29,47,0.229761948055912,1
292,30,47,0.223921140023373,1
292,31,47,0.122334694707796,1
293,18,47,0.129253203873214,1
293,19,47,0.148851383282577,1
293,20,47,0.151908269414778,1
293,21,47,0.162973578456737,1
293,22,47,0.189136148406618,1
293,23,47,0.171086415072581,1
293,24,47,0.124256443924964,1
293,27,47,0.117212781990023,1
293,28,47,0.144837285147542,1
293,29,47,0.164237436532106,1
293,30,47,0.144558220498382,1
294,22,47,0.123009108794512,1
294,23,47,0.127280378382269,1
294,24,47,0.116395337849118,1
294,27,47,0.126987534798288,1
294,28,47,0.13265608259183,1
294,29,47,0.116783432736375,1
295,26,47,0.121154004869782,1
295,27,47,0.119659767714952,1
297,29,47,0.124677902677476,1
298,28,47,0.119785791972661,1
299,28,47,0.11480259897562,1
255,19,48,0.233417511240784,1
256,18,48,0.242375891603075,1
256,19,48,0.281758042281403,1
256,20,48,0.260285609760969,1
256,21,48,0.235391973716293,1
257,18,48,0.240932801383226,1
257,19,48,0.290243722741263,1
257,20,48,0.274875994297358,1
257,21,48,0.265492704560418,1
257,22,48,0.265179887409379,1
258,18,48,0.222049065632764,1
258,19,48,0.261503879582756,1
258,20,48,0.262086999393633,1
258,21,48,0.251281723583167,1
258,22,48,0.237083084762919,1
259,18,48,0.229139752599108,1
259,19,48,0.26276977505618,1
259,20,48,0.264068551543297,1
259,21,48,0.241373750851232,1
260,19,48,0.251107331731177,1
260,20,48,0.241236456131452,1
262,19,48,0.163073787821174,1
263,17,48,0.150745692398776,1
263,18,48,0.137712704356913,1
263,19,48,0.140392342096704,1
263,20,48,0.165955269290791,1
263,21,48,0.191211350205596,1
263,22,48,0.19489173902688,1
264,15,48,0.142417244895152,1
264,16,48,0.131497085743508,1
264,17,48,0.130939097767596,1
264,20,48,0.137993158676423,1
264,21,48,0.176538221399077,1
264,22,48,0.204222916125716,1
264,23,48,0.190021521518504,1
264,24,48,0.164871597286158,1
265,14,48,0.146839387930765,1
265,15,48,0.132177258718368,1
265,16,48,0.121873630350325,1
265,22,48,0.185998213873187,1
265,23,48,0.181753112484723,1
265,24,48,0.171359767941068,1
266,24,48,0.184658277234618,1
266,25,48,0.181269012574679,1
267,13,48,0.141775488061648,1
268,12,48,0.171677236954717,1
268,13,48,0.181692226080429,1
269,12,48,0.16889791980952,1
269,13,48,0.174314077558491,1
270,12,48,0.143390402776401,1
270,13,48,0.146169460830516,1
271,11,48,0.144509911788437,1
271,12,48,0.160088163513418,1
271,13,48,0.171550341208823,1
272,11,48,0.163527385644734,1
272,12,48,0.19664002676458,1
272,13,48,0.19850161974323,1
273,11,48,0.154952483637692,1
273,12,48,0.179997181560101,1
273,13,48,0.15793809616858,1
274,11,48,0.123821559543653,1
286,27,48,0.195034333336976,1
286,28,48,0.211679274823846,1
287,26,48,0.173770056947278,1
287,27,48,0.257876274681016,1
287,28,48,0.255969976713836,1
291,29,48,0.232198322823343,1
291,30,48,0.23170477786567,1
292,21,48,0.17835397880993,1
292,22,48,0.179662789188044,1
292,23,48,0.155437961441217,1
292,28,48,0.160332462850107,1
292,29,48,0.243239983915626,1
292,30,48,0.251301461612877,1
293,22,48,0.157011421582834,1
293,23,48,0.146867946834133,1
293,29,48,0.165230002690779,1
256,19,49,0.263807434840006,1
256,20,49,0.26492260996485,1
257,18,49,0.214311805094164,1
257,19,49,0.273424942915169,1
257,20,49,0.268517734266388,1
257,21,49,0.245533646604286,1
258,19,49,0.233719140367823,1
258,20,49,0.244020766668413,1
258,21,49,0.22689592961315,1
259,19,49,0.243704581333307,1
259,20,49,0.253982489023017,1
259,21,49,0.228900894175143,1
260,20,49,0.246214019785891,1
257,19,50,0.235316413335258,1
257,20,50,0.24867738713333,1
258,20,50,0.21816072088749,1
259,20,50,0.224944196491662,1
