x,y,z,signal,mito.p
439,90,3,0.206934021655115,1
439,91,3,0.218975326803359,1
440,91,3,0.18751924340128,1
438,90,4,0.222151076857909,1
438,91,4,0.225837165683,1
439,87,4,0.199787229692629,1
439,88,4,0.202572176180428,1
439,89,4,0.216313542794498,1
439,90,4,0.253290621618861,1
439,91,4,0.255944232481768,1
439,92,4,0.197357214433578,1
440,89,4,0.19450124165868,1
440,90,4,0.231541738913822,2
440,91,4,0.237679983508617,2
440,92,4,0.210200736233219,1
441,90,4,0.210799425062757,1
441,91,4,0.222478567985688,2
441,92,4,0.2181396402949,1
442,90,4,0.183499763237858,1
442,91,4,0.197578289787817,1
442,92,4,0.200096396014783,1
438,87,5,0.20426142648201,1
438,88,5,0.211285173734232,1
438,89,5,0.202574884859923,1
438,90,5,0.214063336746427,1
438,91,5,0.211672962422937,1
439,86,5,0.213008435628774,1
439,87,5,0.238029049857415,1
439,88,5,0.258307708440189,1
439,89,5,0.259194954073986,1
439,90,5,0.285556529528658,2
439,91,5,0.283318759852527,2
439,92,5,0.215090727101907,1
440,87,5,0.18687576714514,1
440,88,5,0.211327758886636,1
440,89,5,0.244547169086043,2
440,90,5,0.304883994087824,2
440,91,5,0.309358308645879,2
440,92,5,0.240821509986595,2
440,93,5,0.180325155539443,1
441,89,5,0.222640641234412,1
441,90,5,0.30138654712424,2
441,91,5,0.307417834209595,2
441,92,5,0.249341814436517,2
441,93,5,0.192866294492534,1
442,89,5,0.196538839920151,1
442,90,5,0.259519077017698,2
442,91,5,0.262493678177597,2
442,92,5,0.224657312002569,1
442,93,5,0.175313674506983,1
443,90,5,0.202216185033618,1
443,91,5,0.204632020944358,1
443,92,5,0.182340978373149,1
444,92,5,0.141554224277532,1
445,92,5,0.115789217816271,1
445,93,5,0.114650771601507,1
428,92,6,0.17440564270228,1
428,93,6,0.165987997205208,1
430,94,6,0.140298174265227,1
431,93,6,0.171307843732841,1
437,85,6,0.145154601061915,1
437,86,6,0.130132594336476,1
438,86,6,0.193840323861968,1
438,87,6,0.201849147185216,1
438,88,6,0.215331752469468,1
438,89,6,0.192590103399011,1
438,90,6,0.182610456652272,1
438,91,6,0.178528912397819,1
439,85,6,0.224948341948975,1
439,86,6,0.217300632709844,1
439,87,6,0.260088653431101,1
439,88,6,0.291707869999966,1
439,89,6,0.269990290208392,1
439,90,6,0.284098741778333,2
439,91,6,0.291084237765342,2
439,92,6,0.223173756466442,1
440,86,6,0.18373828013267,1
440,87,6,0.227029455735372,1
440,88,6,0.257356278879234,2
440,89,6,0.27680546913952,2
440,90,6,0.359223708473352,2
440,91,6,0.385261584951538,2
440,92,6,0.283981514840549,2
440,93,6,0.188949131752809,1
441,87,6,0.188462358493872,1
441,88,6,0.205396528066442,1
441,89,6,0.264194092949444,2
441,90,6,0.391478663896496,2
441,91,6,0.409828483587946,2
441,92,6,0.298987293042754,2
441,93,6,0.205055799739741,2
442,88,6,0.177447784196537,1
442,89,6,0.238238112806938,2
442,90,6,0.346810984482046,2
442,91,6,0.346640102136531,2
442,92,6,0.263875740670743,2
442,93,6,0.192243003787064,1
443,89,6,0.20088796637808,1
443,90,6,0.270220787056526,2
443,91,6,0.267624929951193,2
443,92,6,0.214064443771959,1
443,93,6,0.160694601521684,1
444,90,6,0.193388363022973,1
444,91,6,0.195769280521966,1
444,92,6,0.171704889039298,1
444,93,6,0.143258925829101,1
445,91,6,0.144150870432978,1
445,92,6,0.145209116180964,1
445,93,6,0.141483280428505,1
445,94,6,0.124259164381326,1
446,92,6,0.129825547850448,1
446,93,6,0.133389569445266,1
446,94,6,0.117428039571782,1
447,93,6,0.119933391451389,1
428,92,7,0.176239972232973,1
429,92,7,0.192450465082625,1
430,92,7,0.214404818792639,1
430,93,7,0.234755457588768,1
431,92,7,0.171940343948593,1
431,93,7,0.189016848740177,1
436,85,7,0.118534146508752,1
437,84,7,0.125960862831717,1
437,85,7,0.149283382331383,1
437,86,7,0.137603191267255,1
437,87,7,0.122195810110921,1
438,85,7,0.19923969957494,1
438,86,7,0.173546002045595,1
438,87,7,0.177939138656879,1
438,88,7,0.192759195660686,1
438,89,7,0.171234862485759,1
438,90,7,0.156131748474754,1
438,91,7,0.158274737922304,1
438,92,7,0.140771097928138,1
439,86,7,0.194187341035844,1
439,87,7,0.247907815958277,1
439,88,7,0.295111478884359,2
439,89,7,0.265198400644882,2
439,90,7,0.265637960442539,2
439,91,7,0.289701233122807,2
439,92,7,0.235153492152084,2
439,93,7,0.158751653943253,1
440,86,7,0.190165870581838,1
440,87,7,0.260506308255452,2
440,88,7,0.306328521085492,2
440,89,7,0.299990564373864,2
440,90,7,0.369545590985816,2
440,91,7,0.423541844811414,2
440,92,7,0.318277142287546,2
440,93,7,0.200553479791084,2
441,86,7,0.184412635335049,1
441,87,7,0.215355541741552,1
441,88,7,0.237594459897788,2
441,89,7,0.282894698412328,2
441,90,7,0.417139233097934,2
441,91,7,0.457741820541645,2
441,92,7,0.325178881193831,2
441,93,7,0.215489868690755,2
441,94,7,0.176935525796616,1
442,87,7,0.170618802776853,1
442,88,7,0.186892914264029,1
442,89,7,0.253425396089025,2
442,90,7,0.382764229564874,2
442,91,7,0.390153648548883,2
442,92,7,0.281937027111668,2
442,93,7,0.207232612350373,2
443,89,7,0.215143605236391,2
443,90,7,0.30770005505921,2
443,91,7,0.310409111413688,2
443,92,7,0.238054252353583,2
443,93,7,0.183151097302551,1
444,90,7,0.215736075879958,2
444,91,7,0.23175042500359,2
444,92,7,0.199835797493657,1
444,93,7,0.169160673497375,1
444,94,7,0.145241561450563,1
445,91,7,0.181428294705836,1
445,92,7,0.171969432810993,1
445,93,7,0.161287131049588,1
445,94,7,0.143077585625363,1
445,95,7,0.116689359119837,1
446,91,7,0.153354080090989,1
446,92,7,0.153950083794767,1
446,93,7,0.149503915949722,1
446,94,7,0.133212610236189,1
447,92,7,0.151577221673054,1
447,93,7,0.141985222292611,1
430,92,8,0.200847147755781,1
431,92,8,0.179057693742658,1
432,93,8,0.129784552575139,1
436,85,8,0.120510752374122,1
437,84,8,0.119854792638572,1
437,85,8,0.147096559383488,1
437,86,8,0.135407005709802,1
438,84,8,0.125574675796974,1
438,85,8,0.157100678460618,1
438,86,8,0.141653797691131,1
438,87,8,0.138229485073904,1
438,88,8,0.151260777246866,1
438,89,8,0.144263480838754,1
438,90,8,0.139193822081494,1
438,91,8,0.151535578670039,1
438,92,8,0.142672520272228,1
439,85,8,0.155162512290339,1
439,86,8,0.160279537608154,1
439,87,8,0.211992539495845,1
439,88,8,0.268899681628878,2
439,89,8,0.251840865692082,2
439,90,8,0.248600177990863,2
439,91,8,0.289366911411954,2
439,92,8,0.250190078639325,2
439,93,8,0.165659422605631,1
440,86,8,0.192470073566793,1
440,87,8,0.281115896811277,2
440,88,8,0.344794101730276,2
440,89,8,0.322872169736127,2
440,90,8,0.357841386889124,2
440,91,8,0.43175451393194,2
440,92,8,0.344554913554025,2
440,93,8,0.212336777329022,2
441,86,8,0.188422870657586,1
441,87,8,0.23745563418525,1
441,88,8,0.273361677583666,2
441,89,8,0.297092654174268,2
441,90,8,0.397014875031421,2
441,91,8,0.460677652254168,2
441,92,8,0.34411212689471,2
441,93,8,0.235153609920758,2
441,94,8,0.220331338865886,1
441,95,8,0.209559886218503,1
442,87,8,0.172222081946646,1
442,88,8,0.19835761220905,1
442,89,8,0.260874523790591,2
442,90,8,0.381091843737363,2
442,91,8,0.410268797105114,2
442,92,8,0.309252787914258,2
442,93,8,0.24876903471519,2
442,94,8,0.237552534249957,1
442,95,8,0.198993351063329,1
443,88,8,0.169184262562714,1
443,89,8,0.22481326128026,2
443,90,8,0.323515728430338,2
443,91,8,0.344730907059978,2
443,92,8,0.278508569037127,2
443,93,8,0.24018369840366,2
443,94,8,0.21974901988199,1
443,95,8,0.170568068032231,1
444,89,8,0.177240334677843,1
444,90,8,0.239202049401038,2
444,91,8,0.270052071654607,2
444,92,8,0.240114073563778,1
444,93,8,0.21398612760396,1
444,94,8,0.191382350319784,1
444,95,8,0.151599715489727,1
445,90,8,0.199080499881854,1
445,91,8,0.230620693670678,1
445,92,8,0.208146685688035,1
445,93,8,0.183310709185994,1
445,94,8,0.162595541014213,1
445,95,8,0.134668360588459,1
446,91,8,0.206195494302446,1
446,92,8,0.190804871628377,1
446,93,8,0.166147644419253,1
446,94,8,0.14549929819292,1
446,95,8,0.122057031505852,1
447,92,8,0.180640328063955,1
447,93,8,0.160289795259632,1
447,94,8,0.13145375864846,1
449,92,8,0.23822051816709,1
450,92,8,0.207526586513621,1
430,92,9,0.165079046804851,1
431,92,9,0.157015178403524,1
432,93,9,0.142738294076481,1
437,85,9,0.139807031788497,1
437,86,9,0.127409688385974,1
438,85,9,0.122045961250526,1
438,86,9,0.117362772172826,1
438,88,9,0.121855423313374,1
438,89,9,0.126636607704445,1
438,90,9,0.129086149009594,1
438,91,9,0.14502202886595,1
438,92,9,0.140223273388764,1
438,93,9,0.122741302830556,1
439,85,9,0.122429404275172,1
439,86,9,0.132646178246374,1
439,87,9,0.174670021597833,1
439,88,9,0.23525898932997,2
439,89,9,0.235557438702819,2
439,90,9,0.2292951601409,2
439,91,9,0.276658258297415,2
439,92,9,0.252131141918977,2
439,93,9,0.163006930545124,1
440,86,9,0.189302991286626,1
440,87,9,0.278914706085192,2
440,88,9,0.363640457703711,2
440,89,9,0.341744764570058,2
440,90,9,0.33232583803246,2
440,91,9,0.402870380594436,2
440,92,9,0.342722009024284,2
440,93,9,0.202923385919087,2
440,94,9,0.172470114550291,1
440,95,9,0.200540548790714,1
441,86,9,0.189271853249304,1
441,87,9,0.253507363085909,2
441,88,9,0.309327099947353,2
441,89,9,0.313900669943588,2
441,90,9,0.350563165086808,2
441,91,9,0.412920335239364,2
441,92,9,0.334236846746589,2
441,93,9,0.233602431612202,2
441,94,9,0.240127240101496,1
441,95,9,0.251955643041454,1
441,96,9,0.192500658091349,1
442,87,9,0.174543938455787,1
442,88,9,0.211495697015308,2
442,89,9,0.261051412338464,2
442,90,9,0.340229340830833,2
442,91,9,0.380230530765511,2
442,92,9,0.313903472838022,2
442,93,9,0.281206578690013,2
442,94,9,0.296125090305019,2
442,95,9,0.253330851397792,1
442,96,9,0.173720335013249,1
443,88,9,0.184918887532613,1
443,89,9,0.239342523875008,2
443,90,9,0.310224732778169,2
443,91,9,0.337900583077414,2
443,92,9,0.302599022727281,2
443,93,9,0.305807465365646,2
443,94,9,0.304271573430935,2
443,95,9,0.230695029257507,1
443,96,9,0.160514227021071,1
444,88,9,0.180587697243685,1
444,89,9,0.219504744099036,2
444,90,9,0.263902591928342,2
444,91,9,0.288959714445826,2
444,92,9,0.268702513315397,2
444,93,9,0.259638871312569,2
444,94,9,0.243060739994279,1
444,95,9,0.191044837077875,1
445,89,9,0.182096467052847,1
445,90,9,0.233095390364525,1
445,91,9,0.270408298338765,2
445,92,9,0.240832038506022,1
445,93,9,0.199295050851571,1
445,94,9,0.174287485391974,1
445,95,9,0.150415563252707,1
446,90,9,0.209782586780438,1
446,91,9,0.257340380108287,2
446,92,9,0.228759618874192,1
446,93,9,0.175662941062526,1
446,94,9,0.146409108304595,1
447,91,9,0.202260725146005,1
447,92,9,0.200632997199555,1
447,93,9,0.165626553368806,1
448,92,9,0.209192612832753,1
449,91,9,0.202646629535931,1
449,92,9,0.267932117759629,1
449,93,9,0.209282564545713,1
450,91,9,0.218779171300471,1
450,92,9,0.261044299110573,1
450,93,9,0.183855813269006,1
451,92,9,0.168368443629506,1
425,80,10,0.136273630048837,1
426,79,10,0.155995325243159,1
426,80,10,0.129716918025843,1
427,78,10,0.12533594691855,1
427,79,10,0.131126526611763,1
430,92,10,0.13314252609848,1
431,92,10,0.128993512170874,1
437,85,10,0.117731941634222,1
437,94,10,0.126122406121408,1
437,95,10,0.127044417067677,1
438,91,10,0.123017859006967,1
438,92,10,0.11935873920815,1
438,93,10,0.116811273250834,1
438,94,10,0.137511685007803,1
439,86,10,0.115915901578552,1
439,87,10,0.145078157415827,1
439,88,10,0.20162465653944,2
439,89,10,0.212535193990444,2
439,90,10,0.196629309815275,2
439,91,10,0.230232834320769,2
439,92,10,0.215678840304548,1
439,93,10,0.146139088289573,1
440,86,10,0.177609445254902,1
440,87,10,0.253412724179736,2
440,88,10,0.356093040267088,2
440,89,10,0.341444407344695,2
440,90,10,0.287820750048898,2
440,91,10,0.333744974104082,2
440,92,10,0.301566568318832,2
440,93,10,0.183133702869448,1
440,94,10,0.16646109752113,1
440,95,10,0.224034692578539,1
441,86,10,0.19110025901571,1
441,87,10,0.252160796071011,2
441,88,10,0.330385128058829,2
441,89,10,0.322957928884303,2
441,90,10,0.295534127100475,2
441,91,10,0.337528975804473,2
441,92,10,0.304416216915953,2
441,93,10,0.225083823031181,2
441,94,10,0.241523034421993,2
441,95,10,0.279339945212129,1
441,96,10,0.228925649150351,1
442,84,10,0.173776875753484,1
442,85,10,0.177857336536139,1
442,87,10,0.183853175250715,1
442,88,10,0.229409513523047,2
442,89,10,0.263808942279029,2
442,90,10,0.287298657964724,2
442,91,10,0.318060400820499,2
442,92,10,0.299569140951955,2
442,93,10,0.298941928549651,2
442,94,10,0.333788760496957,2
442,95,10,0.30071196816138,2
442,96,10,0.205834792408688,1
443,84,10,0.183866989516138,1
443,85,10,0.178832849790862,1
443,87,10,0.168810712106657,1
443,88,10,0.229125950110552,1
443,89,10,0.28490682330968,2
443,90,10,0.293642903523526,2
443,91,10,0.297257648086099,2
443,92,10,0.301745011413198,2
443,93,10,0.354457822232992,2
443,94,10,0.375843624117065,2
443,95,10,0.29102674309885,2
443,96,10,0.191121881344198,1
444,87,10,0.171221919708522,1
444,88,10,0.253215979833481,2
444,89,10,0.314404837635627,2
444,90,10,0.298733713534579,2
444,91,10,0.287142826455706,2
444,92,10,0.286115695191307,2
444,93,10,0.304111502249664,2
444,94,10,0.292383767971971,2
444,95,10,0.23187514202902,1
444,96,10,0.183106945826787,1
445,88,10,0.194857939417533,1
445,89,10,0.248040800344601,2
445,90,10,0.271903889833341,2
445,91,10,0.303043411040559,2
445,92,10,0.285673850681381,2
445,93,10,0.230843111587797,2
445,94,10,0.190769705902415,1
445,95,10,0.170219672964873,1
446,89,10,0.174499881194962,1
446,90,10,0.246490917491456,2
446,91,10,0.323305864653834,2
446,92,10,0.299840315099979,2
446,93,10,0.208719371194423,1
446,94,10,0.154378220031076,1
447,90,10,0.204915537249384,1
447,91,10,0.275492489750357,2
447,92,10,0.26222233915343,2
447,93,10,0.192096581995073,1
448,91,10,0.205696225787232,1
448,92,10,0.228948543380515,1
448,93,10,0.187870358925,1
449,90,10,0.134687615766606,1
449,91,10,0.218737010115293,1
449,92,10,0.290510021266196,1
449,93,10,0.226395860270955,1
449,94,10,0.139260443820197,1
450,90,10,0.148831386161785,1
450,91,10,0.255630237643993,1
450,92,10,0.325285744488332,3
450,93,10,0.233116918478074,1
450,94,10,0.141686820027232,1
451,91,10,0.19926297066486,1
451,92,10,0.220931841332998,1
451,93,10,0.166309364361956,1
424,80,11,0.138298897930173,1
425,79,11,0.155500897020434,1
425,80,11,0.146734986001544,1
426,78,11,0.146296380130145,1
426,79,11,0.164420331282337,1
426,80,11,0.153475523147291,1
426,84,11,0.119350613169666,1
427,78,11,0.151983558927864,1
427,79,11,0.150166612053407,1
427,80,11,0.141235400924136,1
428,78,11,0.122503315894776,1
437,94,11,0.123585927981347,1
437,95,11,0.128253524486651,1
438,94,11,0.131607317222076,1
439,87,11,0.118007190578355,1
439,88,11,0.1615810463285,1
439,89,11,0.179312309615162,1
439,90,11,0.165335193670113,1
439,91,11,0.179075170613833,1
439,92,11,0.172524664999942,1
439,93,11,0.132470750030055,1
440,85,11,0.153987534232998,1
440,86,11,0.159240735468194,1
440,87,11,0.205299934200287,1
440,88,11,0.300376233226443,2
440,89,11,0.29921983906581,2
440,90,11,0.236411261587024,2
440,91,11,0.258390429156584,2
440,92,11,0.253209973631123,1
440,93,11,0.171307749517902,1
440,94,11,0.152407514376258,1
440,95,11,0.208419108184,1
441,84,11,0.193204950090578,1
441,85,11,0.211823612110313,1
441,86,11,0.196089575983783,1
441,87,11,0.225665246973157,1
441,88,11,0.303700089165018,2
441,89,11,0.297432228367967,2
441,90,11,0.245161827347733,2
441,91,11,0.271626379730673,2
441,92,11,0.280932530986351,2
441,93,11,0.221216464663557,2
441,94,11,0.217868277716999,2
441,95,11,0.258454942836028,1
441,96,11,0.226519540932057,1
442,83,11,0.175270017659648,1
442,84,11,0.272598842776748,2
442,85,11,0.277944621966326,2
442,86,11,0.211169312913062,1
442,87,11,0.186879594627035,1
442,88,11,0.231340590019171,1
442,89,11,0.259096523016521,2
442,90,11,0.243177660733512,2
442,91,11,0.257032014613114,2
442,92,11,0.279171512455026,2
442,93,11,0.294244677892314,2
442,94,11,0.320941705637106,2
442,95,11,0.300705679314206,2
442,96,11,0.209956672433877,1
443,83,11,0.197843881700708,1
443,84,11,0.282673104875925,2
443,85,11,0.275720254365261,2
443,86,11,0.20279704368596,1
443,87,11,0.188658184244473,1
443,88,11,0.272791064805934,2
443,89,11,0.340255179277839,2
443,90,11,0.285840092941153,2
443,91,11,0.251567972121423,2
443,92,11,0.288339945023699,2
443,93,11,0.371917664057415,2
443,94,11,0.395948173492665,2
443,95,11,0.311540891921521,2
443,96,11,0.196832625653522,2
444,83,11,0.207946478942773,1
444,84,11,0.225611002722058,2
444,85,11,0.201369522484772,1
444,87,11,0.193269557984961,2
444,88,11,0.321791783477488,2
444,89,11,0.419255489056558,2
444,90,11,0.336157182739672,2
444,91,11,0.27531016028976,2
444,92,11,0.295329398038144,2
444,93,11,0.344105720278861,2
444,94,11,0.327278037141036,2
444,95,11,0.253993323740996,2
444,96,11,0.186750944127903,1
445,82,11,0.210847568896558,1
445,83,11,0.242877327061885,2
445,84,11,0.209055742080198,1
445,87,11,0.152982425710578,1
445,88,11,0.237050580608983,2
445,89,11,0.318278814602713,2
445,90,11,0.302347539501497,2
445,91,11,0.312954634187888,2
445,92,11,0.319695241994839,2
445,93,11,0.272872018992224,2
445,94,11,0.217356502168639,2
445,95,11,0.187392312324784,1
446,82,11,0.19720983871533,1
446,83,11,0.226877369270177,2
446,84,11,0.188959318743082,1
446,88,11,0.143697072402673,1
446,89,11,0.194629515298056,2
446,90,11,0.261542342831581,2
446,91,11,0.363774973082792,2
446,92,11,0.367994130032444,2
446,93,11,0.251974438921774,2
446,94,11,0.171109686162501,1
447,89,11,0.141849435011854,1
447,90,11,0.231507774428332,2
447,91,11,0.347249790560191,2
447,92,11,0.346099237725772,2
447,93,11,0.233500844354283,2
447,94,11,0.15838677126158,1
448,90,11,0.173998033545794,1
448,91,11,0.244996362361207,2
448,92,11,0.260711060871518,2
448,93,11,0.201702430971541,1
449,90,11,0.13774695148722,1
449,91,11,0.210181539939408,1
449,92,11,0.278950130902236,3
449,93,11,0.230137441695085,1
449,94,11,0.155527889600442,1
450,90,11,0.147464845579831,1
450,91,11,0.252237651907457,3
450,92,11,0.346323846140221,3
450,93,11,0.27551990629759,3
450,94,11,0.181036725642706,1
451,91,11,0.228931207831749,1
451,92,11,0.273232367579961,3
451,93,11,0.227086385112231,1
451,94,11,0.185980336588522,1
452,92,11,0.188426851238757,1
452,93,11,0.160083876733696,1
424,80,12,0.157061956120711,1
425,79,12,0.177565753076966,1
425,80,12,0.15040543514677,1
426,78,12,0.157044714786884,1
426,79,12,0.164989224637433,1
426,80,12,0.1578242962992,1
426,81,12,0.114295098430115,1
426,84,12,0.120602659047065,1
427,77,12,0.209190799195178,1
427,78,12,0.183935389561814,1
427,79,12,0.161073604667333,1
427,80,12,0.152774516894058,1
428,77,12,0.215032784914455,1
428,78,12,0.168054719659681,1
428,79,12,0.121985616582131,1
432,93,12,0.133945649568665,1
438,94,12,0.116876352219911,1
439,87,12,0.115458982678395,1
439,88,12,0.146999682872515,1
439,89,12,0.161924742425778,1
439,90,12,0.150257423477684,1
439,91,12,0.145760332458139,1
439,92,12,0.144258770091807,1
439,93,12,0.12888339846098,1
440,84,12,0.142753439127916,1
440,85,12,0.162572705668385,1
440,86,12,0.154096505586757,1
440,87,12,0.171590017474987,1
440,88,12,0.238631271747163,1
440,89,12,0.246491153028803,1
440,90,12,0.19992810458009,1
440,91,12,0.210965808644937,1
440,92,12,0.228656759714597,1
440,93,12,0.180044159484034,1
440,95,12,0.185356139064265,1
441,83,12,0.151539618135547,1
441,84,12,0.246407490163018,2
441,85,12,0.273860286594307,2
441,86,12,0.213501886371508,1
441,87,12,0.194527292089299,1
441,88,12,0.247375949074187,1
441,89,12,0.248162596706924,1
441,90,12,0.20870533316852,1
441,91,12,0.242830572898432,1
441,92,12,0.289896234492692,1
441,93,12,0.244185689919039,2
441,94,12,0.202186224683033,2
441,95,12,0.227558425510089,1
441,96,12,0.214926062942363,1
442,83,12,0.215875207791048,2
442,84,12,0.378601271826304,2
442,85,12,0.393213796873345,2
442,86,12,0.256118035490391,2
442,87,12,0.18634461864996,1
442,88,12,0.219191432319568,2
442,89,12,0.242789448077582,2
442,90,12,0.214535165160672,2
442,91,12,0.230037032123902,1
442,92,12,0.283187400673901,2
442,93,12,0.296193678780572,2
442,94,12,0.288637381585954,2
442,95,12,0.276971570076883,2
442,96,12,0.210670138612787,1
443,77,12,0.206309329502428,1
443,78,12,0.220308326867048,2
443,79,12,0.192510268015121,1
443,82,12,0.152773975158159,1
443,83,12,0.244123084092109,2
443,84,12,0.376136844560802,2
443,85,12,0.36571860371953,2
443,86,12,0.238872297114724,2
443,87,12,0.205361291679276,2
443,88,12,0.30898780839847,2
443,89,12,0.389088266019272,2
443,90,12,0.297041189263869,2
443,91,12,0.237545609451944,2
443,92,12,0.28834472643185,2
443,93,12,0.36934665614223,2
443,94,12,0.377324753618513,2
443,95,12,0.310865629900354,2
443,96,12,0.202999464482287,2
444,77,12,0.169704329025701,1
444,78,12,0.205109266717593,2
444,79,12,0.200685050953323,2
444,80,12,0.181372425247041,1
444,82,12,0.223072027886114,1
444,83,12,0.272265910736245,2
444,84,12,0.293073845292287,2
444,85,12,0.251712827590053,2
444,86,12,0.189885993328829,1
444,87,12,0.215751880435966,2
444,88,12,0.386037374312561,2
444,89,12,0.527981412899985,2
444,90,12,0.400143423401559,2
444,91,12,0.278878386226228,2
444,92,12,0.296726888227542,2
444,93,12,0.356016679059072,2
444,94,12,0.337736342885095,2
444,95,12,0.272445555071081,2
444,96,12,0.191733866256995,1
445,78,12,0.144076723276027,1
445,79,12,0.151830836511831,1
445,81,12,0.206971801845633,1
445,82,12,0.290967858762008,2
445,83,12,0.348092778726418,2
445,84,12,0.292551117257275,2
445,85,12,0.204121375975266,1
445,87,12,0.171958233010126,1
445,88,12,0.286392498681933,2
445,89,12,0.408992938401896,2
445,90,12,0.362552793341039,2
445,91,12,0.310727063278898,2
445,92,12,0.313647844154924,2
445,93,12,0.281584616132537,2
445,94,12,0.234510263210159,2
445,95,12,0.208864509307871,1
446,81,12,0.169380323850663,1
446,82,12,0.262800065159052,2
446,83,12,0.329315647179374,2
446,84,12,0.274769955383574,2
446,85,12,0.186558733875584,1
446,88,12,0.161531548154951,1
446,89,12,0.221732409222964,2
446,90,12,0.269941274886405,2
446,91,12,0.353279169793032,2
446,92,12,0.379504698875865,2
446,93,12,0.260959835417807,2
446,94,12,0.180973424980601,1
447,82,12,0.187882865958145,1
447,83,12,0.220619141950634,2
447,84,12,0.198568535903617,2
447,85,12,0.163727863257945,1
447,89,12,0.14511640868104,1
447,90,12,0.230785640475039,2
447,91,12,0.368980183583461,2
447,92,12,0.401214553042445,2
447,93,12,0.257035877425611,2
447,94,12,0.161437816067566,1
448,83,12,0.148348216624264,1
448,84,12,0.146125957082457,1
448,90,12,0.185506317676946,1
448,91,12,0.267708215957222,2
448,92,12,0.290481427032226,2
448,93,12,0.209972665419763,1
448,94,12,0.147389014330846,1
449,90,12,0.141220385418241,1
449,91,12,0.191456273716256,1
449,92,12,0.244311019341573,3
449,93,12,0.216411502777268,1
449,94,12,0.162368718548698,1
450,90,12,0.137293047465109,1
450,91,12,0.21787798185571,3
450,92,12,0.317345191665219,3
450,93,12,0.295629543279893,3
450,94,12,0.218962348695519,1
451,90,12,0.156607345486558,1
451,91,12,0.252634391015362,3
451,92,12,0.325007857525908,3
451,93,12,0.300272102165172,3
451,94,12,0.250555656156174,1
451,95,12,0.197591055912044,1
452,91,12,0.239576765766964,1
452,92,12,0.264201535929621,3
452,93,12,0.232589032175155,3
452,94,12,0.222187938452772,1
453,92,12,0.15946808789274,1
453,93,12,0.144273526506619,1
421,86,13,0.145572903613972,1
421,87,13,0.121072779815542,1
423,82,13,0.114840850240832,1
425,80,13,0.14977292315415,1
426,78,13,0.166936494326188,1
426,79,13,0.161469578278859,1
426,80,13,0.144349416639941,1
427,79,13,0.167051507212907,1
427,80,13,0.141324198504093,1
428,79,13,0.147512541892673,1
429,77,13,0.155403855633318,1
429,78,13,0.140302673028562,1
430,93,13,0.115079661557328,1
439,87,13,0.125146881089818,1
439,88,13,0.148123396226202,1
439,89,13,0.152630580021082,1
439,90,13,0.140147936768209,1
439,91,13,0.128727472737023,1
439,92,13,0.131520403940898,1
439,93,13,0.127070573490102,1
440,84,13,0.149971245600633,1
440,85,13,0.179255333130834,2
440,86,13,0.160459959216237,1
440,87,13,0.15368075861492,1
440,88,13,0.18422445277137,1
440,89,13,0.192092153892942,1
440,90,13,0.17065045899634,1
440,91,13,0.182001781039206,1
440,92,13,0.209959216237229,1
440,93,13,0.181515997037129,1
441,83,13,0.164992463275959,1
441,84,13,0.276885010101726,2
441,85,13,0.328788491042232,2
441,86,13,0.237308870864106,2
441,87,13,0.172892597890264,1
441,88,13,0.187566963267856,1
441,89,13,0.191834099175167,1
441,90,13,0.178022660200256,1
441,91,13,0.222959252604195,1
441,92,13,0.287826190961622,1
441,93,13,0.249501767849114,1
441,94,13,0.187717306756681,1
441,95,13,0.204872221931203,1
442,77,13,0.253288478229,1
442,78,13,0.234077133582086,2
442,79,13,0.186894716124736,1
442,82,13,0.147098502566603,1
442,83,13,0.235286570753346,2
442,84,13,0.406534587999956,2
442,85,13,0.438492436613131,2
442,86,13,0.277922033934714,2
442,87,13,0.18853880213996,1
442,88,13,0.201353576606355,2
442,89,13,0.211735803787214,2
442,90,13,0.18762525876133,2
442,91,13,0.214961063792181,1
442,92,13,0.28339410824995,1
442,93,13,0.282148563203338,2
442,94,13,0.242737347216344,2
442,95,13,0.240351518763659,1
442,96,13,0.21162126197519,1
443,76,13,0.244015820384118,1
443,77,13,0.316046038318346,2
443,78,13,0.342570746939805,2
443,79,13,0.291262209785013,2
443,80,13,0.201844083132247,1
443,81,13,0.158339404701024,1
443,82,13,0.1779696996277,1
443,83,13,0.268745027806597,2
443,84,13,0.398543041341138,2
443,85,13,0.381652281301689,2
443,86,13,0.245988563436991,2
443,87,13,0.215018063830244,2
443,88,13,0.30927681272369,2
443,89,13,0.37663573621626,2
443,90,13,0.282328113323236,2
443,91,13,0.225555015494589,2
443,92,13,0.283180452322153,2
443,93,13,0.337153599933974,2
443,94,13,0.323506848672342,2
443,95,13,0.291720212156968,2
443,96,13,0.216321527510574,1
444,76,13,0.188026155103416,1
444,77,13,0.256375619133471,2
444,78,13,0.327272902426864,2
444,79,13,0.315571383455932,2
444,80,13,0.244530681471728,2
444,81,13,0.214804949638347,1
444,82,13,0.248803964903805,2
444,83,13,0.320826622089182,2
444,84,13,0.349238008416786,2
444,85,13,0.288846680072824,2
444,86,13,0.207088816799805,2
444,87,13,0.227002604477772,2
444,88,13,0.401674510374384,2
444,89,13,0.564982492980045,2
444,90,13,0.435888241485702,2
444,91,13,0.276863905955402,2
444,92,13,0.284082159949079,2
444,93,13,0.329388946401875,2
444,94,13,0.30930500654417,2
444,95,13,0.273620933541913,2
444,96,13,0.199640230834138,1
445,77,13,0.170495298768761,1
445,78,13,0.233659572972674,2
445,79,13,0.247961259382395,2
445,80,13,0.2274500783303,2
445,81,13,0.243079794965681,2
445,82,13,0.326479636194666,2
445,83,13,0.415990470347355,2
445,84,13,0.369935899924138,2
445,85,13,0.258020117339054,2
445,86,13,0.183011247002552,1
445,87,13,0.18813430207646,2
445,88,13,0.311641395707643,2
445,89,13,0.467384060038281,2
445,90,13,0.418331381827898,2
445,91,13,0.299272057695721,2
445,92,13,0.274821585170116,2
445,93,13,0.252515468208676,2
445,94,13,0.22122244731218,2
445,95,13,0.209328729865796,1
446,78,13,0.16068943147691,1
446,79,13,0.171725380788519,1
446,80,13,0.171639668747812,1
446,81,13,0.203291672115431,2
446,82,13,0.304675143121914,2
446,83,13,0.406018525671875,2
446,84,13,0.355686714789145,2
446,85,13,0.24476534733091,2
446,86,13,0.173450173675818,1
446,88,13,0.179169173569167,2
446,89,13,0.244634176582161,2
446,90,13,0.277799625175287,2
446,91,13,0.315463789995655,2
446,92,13,0.342259955409954,2
446,93,13,0.240257916221815,2
446,94,13,0.173707757318899,1
447,81,13,0.162206009349137,1
447,82,13,0.247247934525893,2
447,83,13,0.3172945275818,2
447,84,13,0.297010592962446,2
447,85,13,0.242774467902289,2
447,86,13,0.190802410263097,1
447,89,13,0.146934156382478,1
447,90,13,0.217646001122288,2
447,91,13,0.3493691556118,2
447,92,13,0.416481000426982,2
447,93,13,0.264675554841197,2
447,94,13,0.155191554045269,1
448,82,13,0.194978534539385,1
448,83,13,0.231911626764128,2
448,84,13,0.232908703463002,2
448,85,13,0.236838267244066,2
448,86,13,0.221881457256378,2
448,90,13,0.194970856021861,1
448,91,13,0.282782276436429,2
448,92,13,0.324520295216858,2
448,93,13,0.225547925820433,2
448,94,13,0.146555365220442,1
449,83,13,0.146331922715862,1
449,84,13,0.155783459399203,1
449,86,13,0.209173086786656,1
449,91,13,0.189079654773852,1
449,92,13,0.222596313105637,2
449,93,13,0.209500271715884,1
449,94,13,0.174513377484966,1
450,91,13,0.184779755621523,1
450,92,13,0.265297962281615,3
450,93,13,0.294321816373577,3
450,94,13,0.250602127674809,1
450,95,13,0.168315718594298,1
451,90,13,0.155376886607045,1
451,91,13,0.256818193809174,3
451,92,13,0.35215575086103,3
451,93,13,0.356029044769808,3
451,94,13,0.302307097738955,3
451,95,13,0.215097345701368,1
452,90,13,0.152772797471422,1
452,91,13,0.268427547016081,3
452,92,13,0.33615607571414,3
452,93,13,0.31678816939243,3
452,94,13,0.29770220127552,3
452,95,13,0.237581010715253,1
453,91,13,0.15951185073188,1
453,92,13,0.191924545516556,3
453,93,13,0.191529101864061,3
453,94,13,0.204268492602431,1
420,87,14,0.172319653292793,1
421,86,14,0.190701341187342,1
421,87,14,0.126595647759738,1
422,84,14,0.193444373804177,1
422,85,14,0.153258499035427,1
423,82,14,0.143939204795766,1
423,83,14,0.164410379829411,1
423,84,14,0.141712929342188,1
424,81,14,0.124409708076896,1
426,80,14,0.13570818731588,1
427,80,14,0.128294990836655,1
429,79,14,0.143238045443257,1
439,87,14,0.129052420061451,1
439,88,14,0.14587905505808,1
439,89,14,0.137947264224289,1
439,90,14,0.124120432883727,1
439,91,14,0.118169157835272,1
439,92,14,0.122679156301453,1
440,84,14,0.144088841672549,1
440,85,14,0.174910646551903,1
440,86,14,0.152813462994445,1
440,87,14,0.138984476487155,1
440,88,14,0.14637596819982,1
440,89,14,0.146969463430848,1
440,90,14,0.146301126207694,1
440,91,14,0.167486886222648,1
440,92,14,0.191502132837788,1
441,77,14,0.181415811226426,1
441,78,14,0.159261674738375,1
441,83,14,0.179386833631869,1
441,84,14,0.266330628673676,2
441,85,14,0.325813701452455,2
441,86,14,0.229930569242893,1
441,87,14,0.148340173023851,1
441,91,14,0.209517795694528,1
441,92,14,0.262490404208468,1
441,93,14,0.224386208515749,1
442,76,14,0.229479703652562,1
442,77,14,0.300149740513215,2
442,78,14,0.278410491285683,2
442,79,14,0.227556352781432,2
442,80,14,0.191430717914066,1
442,81,14,0.201614881739524,1
442,82,14,0.236613611722147,1
442,83,14,0.268263071286415,2
442,84,14,0.37155717414727,2
442,85,14,0.404131683089587,2
442,86,14,0.269319856702846,2
442,87,14,0.179284198232754,1
442,88,14,0.167088757444393,1
442,89,14,0.16292294970392,2
442,90,14,0.15837866877683,1
442,91,14,0.200284943661351,1
442,92,14,0.261789727707521,1
442,93,14,0.241566396847644,1
442,94,14,0.198252350568512,1
442,95,14,0.213544118217891,1
442,96,14,0.220802272238212,1
443,76,14,0.244446735961126,2
443,77,14,0.345451910434003,2
443,78,14,0.397116438735605,2
443,79,14,0.363109792060093,2
443,80,14,0.273200782021679,2
443,81,14,0.237839300970376,2
443,82,14,0.268100786054079,2
443,83,14,0.328153764998547,2
443,84,14,0.401301513431093,2
443,85,14,0.359408040001402,2
443,86,14,0.243603535811287,2
443,87,14,0.211823282358027,1
443,88,14,0.269289943459731,2
443,89,14,0.307918563056363,2
443,90,14,0.241627683665428,2
443,91,14,0.204590189511465,1
443,92,14,0.255953842405541,1
443,93,14,0.275063882439353,2
443,94,14,0.254775142858112,2
443,95,14,0.269895745517159,1
443,96,14,0.245180481905644,1
443,97,14,0.17629905677656,1
444,76,14,0.174744215862253,1
444,77,14,0.266301893117297,2
444,78,14,0.388696520303131,2
444,79,14,0.41116195472633,2
444,80,14,0.315142823252398,2
444,81,14,0.262269140424352,2
444,82,14,0.302638192588148,2
444,83,14,0.407103504908787,2
444,84,14,0.44428142642925,2
444,85,14,0.338276430022608,2
444,86,14,0.223644736946238,2
444,87,14,0.226720265859483,2
444,88,14,0.378376451428242,2
444,89,14,0.52970568760512,2
444,90,14,0.424654900100132,2
444,91,14,0.258308839019456,2
444,92,14,0.24917609035891,1
444,93,14,0.26750796210449,2
444,94,14,0.25259430255884,2
444,95,14,0.258628416092364,1
444,96,14,0.218347125144196,1
445,77,14,0.181813221615771,2
445,78,14,0.299041301756506,2
445,79,14,0.353893828054722,2
445,80,14,0.312000236856357,2
445,81,14,0.29161311332512,2
445,82,14,0.355499203506906,2
445,83,14,0.472719452030841,2
445,84,14,0.455261753596278,2
445,85,14,0.31645137453943,2
445,86,14,0.207565073316181,2
445,87,14,0.204225813235089,2
445,88,14,0.33127204394034,2
445,89,14,0.490646811936053,2
445,90,14,0.444735118467749,2
445,91,14,0.281121149294123,2
445,92,14,0.226599576522692,2
445,93,14,0.204089107358677,1
445,94,14,0.187227671718974,1
445,95,14,0.186961596954521,1
446,78,14,0.221789479922231,2
446,79,14,0.26755181915857,2
446,80,14,0.259422789350094,2
446,81,14,0.266883199290599,2
446,82,14,0.353089091153707,2
446,83,14,0.476198903941086,2
446,84,14,0.435229631954994,2
446,85,14,0.308644135854927,2
446,86,14,0.21993648405676,2
446,87,14,0.183401909246895,1
446,88,14,0.210546198860602,2
446,89,14,0.264936647990753,2
446,90,14,0.283557524061553,2
446,91,14,0.276175618718926,2
446,92,14,0.28599378106031,2
446,93,14,0.204519669629664,1
447,79,14,0.167599579066496,1
447,80,14,0.173149981326599,1
447,81,14,0.211709706249126,2
447,82,14,0.334269138916913,2
447,83,14,0.470403554616589,2
447,84,14,0.442376494578684,2
447,85,14,0.348245406927511,2
447,86,14,0.272482699310761,2
447,87,14,0.187710252413127,1
447,89,14,0.145578120766216,1
447,90,14,0.20002516952094,2
447,91,14,0.311156118110862,2
447,92,14,0.38970122841206,2
447,93,14,0.24952814803202,2
447,94,14,0.143473653451828,1
448,81,14,0.161674142465047,1
448,82,14,0.268115742675636,2
448,83,14,0.366063477503545,2
448,84,14,0.35982597747057,2
448,85,14,0.343099386962235,2
448,86,14,0.327567889400706,2
448,87,14,0.212465898902848,2
448,90,14,0.193567889589136,1
448,91,14,0.28687045106721,2
448,92,14,0.341255011763677,2
448,93,14,0.230958595549211,2
448,94,14,0.14293072808928,1
449,82,14,0.16147726857325,1
449,83,14,0.192971756339817,2
449,84,14,0.198493964779441,2
449,85,14,0.238961400893233,2
449,86,14,0.287784288867525,2
449,87,14,0.20576479070905,1
449,91,14,0.199358386844278,1
449,92,14,0.217237438039545,2
449,93,14,0.20215473333969,1
449,94,14,0.176197233981293,1
450,86,14,0.160736138532893,1
450,91,14,0.170962357551723,1
450,92,14,0.221763405937878,3
450,93,14,0.265733164638345,3
450,94,14,0.248533685797701,3
450,95,14,0.16703811691471,1
451,90,14,0.150014148728456,1
451,91,14,0.239233210992095,3
451,92,14,0.338902370523236,3
451,93,14,0.35688722509494,3
451,94,14,0.300465407666157,3
451,95,14,0.199523215879966,3
452,90,14,0.140323953827896,1
452,91,14,0.259405383140124,3
452,92,14,0.368702437943446,3
452,93,14,0.372296620095594,3
452,94,14,0.332924903721754,3
452,95,14,0.235277502565473,3
453,91,14,0.150691636577556,1
453,92,14,0.210621853456577,3
453,93,14,0.230874178963915,3
453,94,14,0.234796629517088,3
421,87,15,0.132113557642772,1
422,86,15,0.129304986759032,1
423,84,15,0.18483772136271,1
424,81,15,0.123366524942275,1
424,82,15,0.120091660771952,1
424,83,15,0.131469622088805,1
425,91,15,0.117070835407632,1
426,80,15,0.125746959589705,1
426,91,15,0.157106413795027,1
426,92,15,0.136031462325142,1
427,79,15,0.184239621376541,1
427,91,15,0.129108795925543,1
427,92,15,0.120462478994779,1
428,80,15,0.114569711423411,1
429,79,15,0.187645314766458,1
429,80,15,0.114268223618781,1
430,78,15,0.149512984137596,1
430,79,15,0.141873542259357,1
439,87,15,0.129898611535602,1
439,88,15,0.140667343726623,1
439,89,15,0.12466069667425,1
440,84,15,0.125143454021414,1
440,85,15,0.145437858275859,1
440,86,15,0.132634413155873,1
440,87,15,0.12987575263604,1
440,88,15,0.128962268141746,1
440,92,15,0.184191760187556,1
441,77,15,0.243477782421527,2
441,78,15,0.240570804034058,2
441,79,15,0.168267492322425,1
441,80,15,0.133545930913316,1
441,81,15,0.143397563111761,1
441,82,15,0.169391653197071,1
441,83,15,0.172405671532052,1
441,84,15,0.220172021404127,2
441,85,15,0.261022606120881,2
441,86,15,0.187286026096784,1
441,91,15,0.208626828570643,1
441,92,15,0.244790196521057,1
441,93,15,0.201235454626651,1
442,76,15,0.226641973245219,2
442,77,15,0.342857113246733,2
442,78,15,0.338544188879095,2
442,79,15,0.272602116745876,2
442,80,15,0.250617790908409,2
442,81,15,0.277050475088251,2
442,82,15,0.305894826167785,2
442,83,15,0.270004516664173,2
442,84,15,0.289165244335138,2
442,85,15,0.309119426668179,2
442,86,15,0.223468460795468,2
442,89,15,0.121699474035682,1
442,91,15,0.195323879398095,1
442,92,15,0.241767804833377,1
442,93,15,0.203707065781247,1
443,76,15,0.218809131651057,2
443,77,15,0.332530590648527,2
443,78,15,0.401138851339002,2
443,79,15,0.398042712907861,2
443,80,15,0.356311265619424,2
443,81,15,0.353034470042853,2
443,82,15,0.379711500666853,2
443,83,15,0.3774252338509,2
443,84,15,0.380338501085545,2
443,85,15,0.315636368210071,2
443,86,15,0.222932990189964,2
443,87,15,0.188495616367321,1
443,88,15,0.210489669897234,2
443,89,15,0.222144576027122,2
443,90,15,0.188444881622698,2
443,91,15,0.179644346613746,1
443,92,15,0.220488371615375,1
443,93,15,0.214408375406585,1
443,94,15,0.191759940241349,1
443,95,15,0.228705398176828,1
443,96,15,0.249071629545353,1
444,76,15,0.152699769116871,1
444,77,15,0.250613833880973,2
444,78,15,0.406963218864695,2
444,79,15,0.468048746432551,2
444,80,15,0.372902115954471,2
444,81,15,0.320627263278371,2
444,82,15,0.368688093718992,2
444,83,15,0.486091048563279,2
444,84,15,0.533335365235517,2
444,85,15,0.38057641736012,2
444,86,15,0.227198830641864,2
444,87,15,0.214181741370948,2
444,88,15,0.326667265245579,2
444,89,15,0.419294446933813,2
444,90,15,0.333487814428227,2
444,91,15,0.208074281507454,2
444,92,15,0.198459364343113,1
444,93,15,0.201324487743955,1
444,94,15,0.192665451796434,1
444,95,15,0.220883320639441,1
445,77,15,0.189679697943137,2
445,78,15,0.367354740349281,2
445,79,15,0.47134457342679,2
445,80,15,0.392048051880021,2
445,81,15,0.32099726889735,2
445,82,15,0.354757496400047,2
445,83,15,0.486629062972135,2
445,84,15,0.522422260427427,2
445,85,15,0.367281841540271,2
445,86,15,0.225613640740349,2
445,87,15,0.223792112664485,2
445,88,15,0.344691007033334,2
445,89,15,0.443143215751833,2
445,90,15,0.373371306350426,2
445,91,15,0.225816179305349,2
445,92,15,0.173567023753847,1
446,77,15,0.152056952365304,1
446,78,15,0.291943148256251,2
446,79,15,0.387639570010556,2
446,80,15,0.354555193372394,2
446,81,15,0.310460599877822,2
446,82,15,0.352811581051039,2
446,83,15,0.478638505570176,2
446,84,15,0.478264048295331,2
446,85,15,0.362114505445058,2
446,86,15,0.274958879889897,2
446,87,15,0.237123809170279,2
446,88,15,0.252335376352879,2
446,89,15,0.263882477038877,2
446,90,15,0.250892262579296,2
446,91,15,0.226921932936299,1
446,92,15,0.220740443684528,1
446,93,15,0.163494163101887,1
447,78,15,0.18308455800192,1
447,79,15,0.228073922548537,2
447,80,15,0.221107693516542,2
447,81,15,0.235912417039036,2
447,82,15,0.366762128383306,2
447,83,15,0.565528986733406,2
447,84,15,0.555880764588147,2
447,85,15,0.443651034272757,2
447,86,15,0.382062045624903,2
447,87,15,0.273662435222519,2
447,88,15,0.182719428006031,1
447,89,15,0.143628177728568,1
447,90,15,0.175015307572205,1
447,91,15,0.264716090818679,2
447,92,15,0.323459788310338,2
447,93,15,0.209925086875595,1
448,81,15,0.165557682248436,2
448,82,15,0.298449160865225,2
448,83,15,0.460871452383581,2
448,84,15,0.451934034845207,2
448,85,15,0.411032927367442,2
448,86,15,0.418585997700402,2
448,87,15,0.282477184910385,2
448,88,15,0.153048435052178,1
448,90,15,0.170404628666893,1
448,91,15,0.266253066225188,1
448,92,15,0.316175206999642,2
448,93,15,0.211335296081751,1
449,82,15,0.170377800963027,2
449,83,15,0.221482645419816,2
449,84,15,0.217464072075182,2
449,85,15,0.245748550880024,2
449,86,15,0.310528858601089,2
449,87,15,0.225646780845123,1
449,91,15,0.196986796624241,1
449,92,15,0.207791683798083,1
450,85,15,0.115819555026612,1
450,86,15,0.147291808067588,1
450,92,15,0.185680485768457,1
450,93,15,0.219471038704628,3
450,94,15,0.218389121453232,1
451,91,15,0.208113498475791,1
451,92,15,0.292917684030982,3
451,93,15,0.313492342398192,3
451,94,15,0.261087826412367,3
451,95,15,0.169210524976946,1
452,91,15,0.225310080207062,3
452,92,15,0.357678724797033,3
452,93,15,0.390582326521091,3
452,94,15,0.325693742281441,3
452,95,15,0.204265124418364,3
453,92,15,0.214164617805794,3
453,93,15,0.25616099750255,3
453,94,15,0.241035731204025,3
421,87,16,0.125365235987695,1
422,86,16,0.139155853461099,1
423,85,16,0.132632870386247,1
424,82,16,0.146639993789351,1
424,84,16,0.133402571106841,1
425,90,16,0.117220613606823,1
425,91,16,0.133158625076173,1
426,80,16,0.128817224243237,1
426,90,16,0.123989686102204,1
426,91,16,0.184964911530288,1
426,92,16,0.167405672945276,1
427,80,16,0.1205679997264,1
427,83,16,0.117204491075396,1
427,91,16,0.143912494860575,1
427,92,16,0.146718639709637,1
428,80,16,0.125950310758555,1
429,79,16,0.223032716702839,1
429,80,16,0.131504670046094,1
430,78,16,0.195011969065844,1
430,79,16,0.17981460478529,1
430,80,16,0.114706841267048,1
439,87,16,0.122744023286918,1
439,88,16,0.12761287467868,1
439,89,16,0.114550715336345,1
440,77,16,0.123738238207022,1
440,78,16,0.136763842153045,1
440,88,16,0.116760008547179,1
440,92,16,0.191042446373799,1
441,76,16,0.144981198466784,1
441,77,16,0.269060765620743,2
441,78,16,0.303871159940411,2
441,79,16,0.198286903897371,2
441,80,16,0.139816347290586,1
441,81,16,0.13457836176803,2
441,82,16,0.151894042958997,2
441,83,16,0.154553200726435,1
441,84,16,0.175725794203671,1
441,85,16,0.183170470249372,1
441,91,16,0.208231761777904,1
441,92,16,0.248662501172976,1
441,93,16,0.200745372067984,1
442,76,16,0.196174640296785,2
442,77,16,0.354602112411989,2
442,78,16,0.396162748016116,2
442,79,16,0.306908626018322,2
442,80,16,0.284778902976325,2
442,81,16,0.312989917682524,2
442,82,16,0.322870191222409,2
442,83,16,0.24817595167452,2
442,84,16,0.22342849010762,2
442,85,16,0.220786020161243,2
442,86,16,0.174703079264536,1
442,92,16,0.23979096343066,1
443,76,16,0.174252213674205,1
443,77,16,0.286138259669185,2
443,78,16,0.362538213579237,2
443,79,16,0.381238654165977,2
443,80,16,0.40825726105113,2
443,81,16,0.463891653573931,2
443,82,16,0.486245089988457,2
443,83,16,0.401584158247934,2
443,84,16,0.35002350191652,2
443,85,16,0.275433087231351,2
443,86,16,0.202819678825042,1
443,87,16,0.170894675894957,1
443,88,16,0.172402480000995,2
443,89,16,0.166958305084554,2
443,90,16,0.153162270252161,1
444,76,16,0.126366222606535,1
444,77,16,0.215035988222379,2
444,78,16,0.372828157227398,2
444,79,16,0.471724589383032,2
444,80,16,0.423244031389403,2
444,81,16,0.421100971280649,2
444,82,16,0.484183808446708,2
444,83,16,0.54837305874829,2
444,84,16,0.578812209653112,2
444,85,16,0.408412385948106,2
444,86,16,0.240153243424645,2
444,87,16,0.226813939062531,2
444,88,16,0.311078013926475,2
444,89,16,0.327168771365593,2
444,90,16,0.242936423382339,2
444,91,16,0.165110302610847,1
445,77,16,0.185574270201661,2
445,78,16,0.407519934938932,2
445,79,16,0.574375157103411,2
445,80,16,0.476418707393649,2
445,81,16,0.373795462005565,2
445,82,16,0.382533709163006,2
445,83,16,0.49030448195539,2
445,84,16,0.563626268933905,2
445,85,16,0.4132767503534,2
445,86,16,0.254765415165666,2
445,87,16,0.272601645671182,2
445,88,16,0.398915143242509,2
445,89,16,0.40064521216639,2
445,90,16,0.282613820125592,2
445,91,16,0.174417572668925,1
446,77,16,0.156924649624064,2
446,78,16,0.351702859649513,2
446,79,16,0.516662665672259,2
446,80,16,0.455220016378325,2
446,81,16,0.350483082388703,2
446,82,16,0.33446703739617,2
446,83,16,0.436099047411595,2
446,84,16,0.479104068690981,2
446,85,16,0.394869176904376,2
446,86,16,0.326087961139729,2
446,87,16,0.304235701092931,2
446,88,16,0.315308947743496,2
446,89,16,0.269554899421784,2
446,90,16,0.211812777392334,1
446,91,16,0.188562956494933,1
446,92,16,0.1897400543884,1
447,78,16,0.209384151803632,2
447,79,16,0.288251642072171,2
447,80,16,0.267152983768273,2
447,81,16,0.250125918265902,2
447,82,16,0.348419869440706,2
447,83,16,0.561940857891085,2
447,84,16,0.58826187381454,2
447,85,16,0.503651959463457,2
447,86,16,0.492399115585525,2
447,87,16,0.382585880685448,2
447,88,16,0.231175431231197,2
447,89,16,0.147276557024346,1
447,91,16,0.218913733787022,1
447,92,16,0.269087546217138,1
447,93,16,0.194731243878384,1
448,79,16,0.130673388086031,1
448,80,16,0.133323089028972,1
448,81,16,0.164337433912931,1
448,82,16,0.289179447237185,2
448,83,16,0.481869182934132,2
448,84,16,0.483910019834129,2
448,85,16,0.436550148539273,2
448,86,16,0.483152484617527,2
448,87,16,0.362488091231717,2
448,88,16,0.184130544030975,2
448,91,16,0.227120679350007,1
448,92,16,0.28057837703085,1
448,93,16,0.202359886369246,1
449,82,16,0.16418653691134,1
449,83,16,0.229580914050726,2
449,84,16,0.223694058466776,2
449,85,16,0.231362377223802,2
449,86,16,0.291741198534619,2
449,87,16,0.229680923208418,2
449,92,16,0.20595892059075,1
450,86,16,0.123188941559227,1
450,93,16,0.176616973311169,1
451,92,16,0.227428832861568,1
451,93,16,0.242046657498925,3
451,94,16,0.205300876349676,1
452,91,16,0.177220208011511,1
452,92,16,0.290324559158879,3
452,93,16,0.334913945959065,3
452,94,16,0.266957063802734,3
453,92,16,0.18736310569371,1
453,93,16,0.234841946902722,1
424,85,17,0.121341963672981,1
425,83,17,0.115953669992203,1
425,90,17,0.11618781766922,1
425,91,17,0.135044195756785,1
426,90,17,0.120162863712061,1
426,91,17,0.18491106769268,1
426,92,17,0.176049905370515,1
427,82,17,0.123163986377274,1
427,83,17,0.136349897041915,1
427,91,17,0.137429470696704,1
427,92,17,0.154648805335731,1
428,80,17,0.147042126702511,1
428,82,17,0.115816893454587,1
428,83,17,0.124464906254251,1
429,80,17,0.145373391703885,1
430,79,17,0.20322061049773,1
430,80,17,0.123081772066175,1
439,88,17,0.116172766832724,1
440,78,17,0.123663349107427,1
441,77,17,0.238346130234441,1
441,78,17,0.299169834486964,2
441,79,17,0.193465313074358,2
441,80,17,0.128923027619675,1
441,82,17,0.120545329256716,1
441,92,17,0.236056919201645,1
442,76,17,0.155465672410135,1
442,77,17,0.313007017693942,2
442,78,17,0.401078647993015,2
442,79,17,0.300006863558302,2
442,80,17,0.263971227511365,2
442,81,17,0.274495036191727,2
442,82,17,0.257700022083982,2
442,83,17,0.186595878115264,2
442,84,17,0.161654722410757,2
442,85,17,0.147793302410734,1
443,76,17,0.131049929866399,1
443,77,17,0.223287238360404,2
443,78,17,0.302224636113641,2
443,79,17,0.318616504497633,2
443,80,17,0.39104939708092,2
443,81,17,0.477848890166862,2
443,82,17,0.48038967864038,2
443,83,17,0.347345677814304,2
443,84,17,0.283584092674336,2
443,85,17,0.225762311914007,2
443,86,17,0.172798924687216,1
443,87,17,0.150277208614863,1
443,88,17,0.14712541270854,1
443,89,17,0.135381544122552,1
444,77,17,0.16987814381119,2
444,78,17,0.299448098309143,2
444,79,17,0.405600870847524,2
444,80,17,0.429949873883883,2
444,81,17,0.489252006872414,2
444,82,17,0.553270539704625,2
444,83,17,0.529255434411893,2
444,84,17,0.531123292683984,2
444,85,17,0.391379620441928,2
444,86,17,0.234406956529604,2
444,87,17,0.232874173687878,2
444,88,17,0.297675656216471,2
444,89,17,0.252474814462521,2
444,90,17,0.17196260222792,1
445,77,17,0.170453043368644,2
445,78,17,0.403119108033256,2
445,79,17,0.601958323456467,2
445,80,17,0.510135360487084,2
445,81,17,0.409722633104039,2
445,82,17,0.411386374710901,2
445,83,17,0.46649947597651,2
445,84,17,0.546501337663703,2
445,85,17,0.421241445754618,2
445,86,17,0.255926732056859,2
445,87,17,0.298156317281243,2
445,88,17,0.427379172167249,2
445,89,17,0.343437265287033,2
445,90,17,0.198597718980956,2
446,77,17,0.160835370417338,2
446,78,17,0.400093301054039,2
446,79,17,0.613420371606331,2
446,80,17,0.50307022932293,2
446,81,17,0.340501362913307,2
446,82,17,0.288936702446988,2
446,83,17,0.35058172542978,2
446,84,17,0.41239918530458,2
446,85,17,0.361169011425257,2
446,86,17,0.304193210155466,2
446,87,17,0.308259456259207,2
446,88,17,0.33515325190399,2
446,89,17,0.256800504954387,2
446,90,17,0.173001145276798,1
447,78,17,0.238380895546912,2
447,79,17,0.347932048040574,2
447,80,17,0.29778315546181,2
447,81,17,0.236220758980474,2
447,82,17,0.278102314220388,2
447,83,17,0.434768779581135,2
447,84,17,0.483134065596963,2
447,85,17,0.452853666864267,2
447,86,17,0.489089297672853,2
447,87,17,0.407246193433822,2
447,88,17,0.2388758066212,2
447,89,17,0.145164163878219,1
447,92,17,0.244541657512115,1
448,79,17,0.143295504779147,2
448,80,17,0.140456125610371,2
448,81,17,0.153898948636653,1
448,82,17,0.242965747782086,2
448,83,17,0.405825573476912,2
448,84,17,0.419944671334954,2
448,85,17,0.388385634558341,2
448,86,17,0.464165206649163,2
448,87,17,0.391716109096377,2
448,88,17,0.197670573320515,2
448,91,17,0.185648841325838,1
448,92,17,0.253632456971095,1
448,93,17,0.220095471766232,1
449,82,17,0.143815123721174,1
449,83,17,0.20469354329949,2
449,84,17,0.200944989969878,2
449,85,17,0.195325657705067,2
449,86,17,0.240379005972097,2
449,87,17,0.213269858530616,2
449,92,17,0.206725170689205,1
451,93,17,0.174425039202836,1
452,92,17,0.201922776160003,1
452,93,17,0.23616335852892,1
441,77,18,0.188650223082132,1
441,78,18,0.248343866249458,2
441,79,18,0.16875793996398,1
442,76,18,0.124645056994385,1
442,77,18,0.25740225576944,2
442,78,18,0.367570021484775,2
442,79,18,0.273947388305363,2
442,80,18,0.225716523453678,2
442,81,18,0.220705136636157,2
442,82,18,0.18714552806908,2
442,83,18,0.137453731043483,2
442,84,18,0.120891957793969,1
443,77,18,0.179756026647,1
443,78,18,0.266096316120515,2
443,79,18,0.278666991456966,2
443,80,18,0.368143766909226,2
443,81,18,0.4515937775932,2
443,82,18,0.413901678043435,2
443,83,18,0.280420990975339,2
443,84,18,0.22508655526441,2
443,85,18,0.183807127699305,2
443,88,18,0.121916969222241,1
444,77,18,0.138088869277526,1
444,78,18,0.245620842530282,2
444,79,18,0.363469551804461,2
444,80,18,0.471022970732695,2
444,81,18,0.566818176850485,2
444,82,18,0.584477730791741,2
444,83,18,0.486297756139328,2
444,84,18,0.454464836535197,2
444,85,18,0.3493691556118,2
444,86,18,0.213445899144038,2
444,87,18,0.213989943308987,1
444,88,18,0.259423731499484,2
444,89,18,0.194051977722312,1
445,77,18,0.159689163246978,2
445,78,18,0.388991295293361,2
445,79,18,0.600739464791312,2
445,80,18,0.542991407220708,2
445,81,18,0.461140341819336,2
445,82,18,0.448340064676671,2
445,83,18,0.449820558227282,2
445,84,18,0.501659266397262,2
445,85,18,0.397698781273236,2
445,86,18,0.238519627044511,2
445,87,18,0.283388761552165,2
445,88,18,0.394287917838544,2
445,89,18,0.276154914986092,2
445,90,18,0.143690430249477,1
446,77,18,0.170832317382242,2
446,78,18,0.451212348412874,2
446,79,18,0.681942519842608,2
446,80,18,0.521312785306389,2
446,81,18,0.325732393960144,2
446,82,18,0.26403519945491,2
446,83,18,0.286807491934259,2
446,84,18,0.331880177817507,2
446,85,18,0.296311659437868,2
446,86,18,0.244143481626391,2
446,87,18,0.26280289160722,2
446,88,18,0.303861597124108,2
446,89,18,0.221285382891396,1
447,77,18,0.118286031467036,1
447,78,18,0.264599641154141,2
447,79,18,0.387917810279001,2
447,80,18,0.310058561179601,2
447,81,18,0.223305492504825,2
447,82,18,0.225268790510068,2
447,83,18,0.30747996896183,2
447,84,18,0.341593738022926,2
447,85,18,0.338370197440595,2
447,86,18,0.381803708262311,2
447,87,18,0.336534160264133,2
447,88,18,0.207444784392881,2
448,79,18,0.143663779198623,2
448,80,18,0.139972320122012,2
448,82,18,0.204984055063733,1
448,83,18,0.315963506031829,2
448,84,18,0.325344746593847,2
448,85,18,0.30175148869025,2
448,86,18,0.370272529900995,2
448,87,18,0.34321835687639,2
448,88,18,0.182585784115135,2
448,92,18,0.235126452464606,1
449,83,18,0.173385695326977,1
449,84,18,0.170213183910953,2
449,85,18,0.156111562924085,2
449,86,18,0.182934073190687,2
449,87,18,0.181170228211194,2
441,78,19,0.183821577915566,1
442,77,19,0.194252997071423,1
442,78,19,0.295972815409946,2
442,79,19,0.221201790686816,1
442,80,19,0.174892074432063,2
442,81,19,0.16994661451807,2
442,82,19,0.137119786192386,2
443,77,19,0.142423710395337,1
443,78,19,0.225017307284285,1
443,79,19,0.232782832304569,2
443,80,19,0.32382597822429,2
443,81,19,0.394266036418973,2
443,82,19,0.320366264343753,2
443,83,19,0.214085948331774,2
443,84,19,0.175207871130545,2
443,85,19,0.152586558090859,1
444,77,19,0.115328177012535,1
444,78,19,0.202971671075298,2
444,79,19,0.324217111543327,2
444,80,19,0.494959076799119,2
444,81,19,0.58555225217043,2
444,82,19,0.521907941075716,2
444,83,19,0.398622276104793,2
444,84,19,0.354479020594255,2
444,85,19,0.290127555721541,2
444,86,19,0.189274031969767,1
444,88,19,0.199779928034861,1
445,77,19,0.148448013798343,2
445,78,19,0.361064432843026,2
445,79,19,0.560948162186872,2
445,80,19,0.548020459339282,2
445,81,19,0.46725630458107,2
445,82,19,0.411961462698233,2
445,83,19,0.384145561892243,2
445,84,19,0.403188544443259,2
445,85,19,0.331657571470511,2
445,86,19,0.209455566727354,2
445,87,19,0.232353282844176,1
445,88,19,0.304968528441794,2
445,89,19,0.203099167441428,1
446,77,19,0.169303020493257,2
446,78,19,0.463253300255096,2
446,79,19,0.671804238692417,2
446,80,19,0.483669347772589,2
446,81,19,0.282942630262517,2
446,82,19,0.2190190896425,2
446,83,19,0.222910661249433,2
446,84,19,0.245758207911266,2
446,85,19,0.224744319498686,2
446,86,19,0.18711312990695,1
446,87,19,0.202763055646735,1
446,88,19,0.241832789587516,1
447,78,19,0.259300168607055,2
447,79,19,0.369380691288924,2
447,80,19,0.275983773549495,2
447,81,19,0.188988030745726,2
447,82,19,0.176266799936838,1
447,83,19,0.210629602635305,2
447,84,19,0.22106367158632,2
447,85,19,0.224235229076087,2
447,86,19,0.258184286870168,2
447,87,19,0.240102555787492,2
447,88,19,0.168728792217243,1
448,79,19,0.12794877448976,2
448,80,19,0.125199829885506,1
448,83,19,0.23104814684868,1
448,84,19,0.231250237892721,2
448,85,19,0.214904464167609,2
448,86,19,0.26742436989991,2
448,87,19,0.264561719641214,2
448,88,19,0.158469809953394,1
449,86,19,0.143015804179149,1
449,87,19,0.152266651265665,1
442,78,20,0.21457826849524,1
442,80,20,0.130889894015731,1
442,81,20,0.133519915813299,2
443,78,20,0.176574305720693,1
443,79,20,0.181500628225213,2
443,80,20,0.26883464976727,2
443,81,20,0.337074789137545,2
443,82,20,0.252258638285107,2
443,83,20,0.168389783313178,2
443,84,20,0.137799252555203,1
444,78,20,0.168361754368841,2
444,79,20,0.285160049511835,2
444,80,20,0.488756200756207,2
444,81,20,0.563375468766429,2
444,82,20,0.426718254370537,2
444,83,20,0.302851518763659,2
444,84,20,0.257525465355848,2
444,85,20,0.22576511480844,1
445,77,20,0.131339122621497,2
445,78,20,0.314176177978803,2
445,79,20,0.504097596124676,2
445,80,20,0.545484758472467,2
445,81,20,0.45550944467077,2
445,82,20,0.338499342568156,2
445,83,20,0.291888597806601,2
445,84,20,0.285235185925645,2
445,85,20,0.24990521977142,2
445,88,20,0.214787755411989,1
446,77,20,0.149736732840727,2
446,78,20,0.411516626863995,2
446,79,20,0.594585627624122,2
446,80,20,0.43496074251924,2
446,81,20,0.252531979376727,2
446,82,20,0.180674115896434,2
446,83,20,0.172642539665431,1
446,84,20,0.175513469061887,1
446,85,20,0.167788727333299,1
447,78,20,0.221569205394974,2
447,79,20,0.3116166171787,2
447,80,20,0.227040102023473,2
447,81,20,0.153923562289453,1
447,86,20,0.170839913461694,1
447,87,20,0.166767319626442,1
448,86,20,0.182065906082027,1
448,87,20,0.185933028912304,1
443,79,21,0.134649423385731,1
443,80,21,0.207827673904761,2
443,81,21,0.283795416782394,2
443,82,21,0.212066639545326,2
444,78,21,0.131088004478601,1
444,79,21,0.220557431165623,2
444,80,21,0.413202838733796,2
444,81,21,0.50217386839379,2
444,82,21,0.338432426407769,2
444,83,21,0.217087070996986,2
444,84,21,0.178438784031849,1
445,78,21,0.237623501652718,2
445,79,21,0.395193794476517,2
445,80,21,0.475605679578008,2
445,81,21,0.417121473581943,2
445,82,21,0.27002672783603,2
445,83,21,0.208370257738156,1
445,84,21,0.189627679519971,1
446,77,21,0.116979882660946,1
446,78,21,0.301769177545038,2
446,79,21,0.450668351355395,2
446,80,21,0.353649340288154,2
446,81,21,0.218727211761642,2
446,82,21,0.159032909089744,1
447,78,21,0.166205268631287,1
447,79,21,0.236355933864128,2
447,80,21,0.176833255480389,2
447,81,21,0.120998326460039,1
443,80,22,0.146586479704029,1
443,81,22,0.21749155928362,2
443,82,22,0.171128964894383,1
444,79,22,0.156645620305505,1
444,80,22,0.294112706316584,2
444,81,22,0.399015764797304,2
444,82,22,0.261967911710804,2
444,83,22,0.153060812539782,1
445,78,22,0.161707529884036,1
445,79,22,0.273425366882394,2
445,80,22,0.351274346553448,2
445,81,22,0.347452941522295,2
445,82,22,0.223776708521967,2
445,83,22,0.162765198565521,1
446,78,22,0.193941381160856,1
446,79,22,0.307913075036169,2
446,80,22,0.266406424592059,2
446,81,22,0.184823553791266,2
446,82,22,0.148548623576271,1
447,79,22,0.170264813697495,1
447,80,22,0.139505485099531,1
444,80,23,0.186859679944315,1
444,81,23,0.276268773739809,2
444,82,23,0.196025333172289,1
445,79,23,0.166437696885669,1
445,80,23,0.224750231486105,2
445,81,23,0.257230125075984,2
445,82,23,0.185607610513181,1
446,79,23,0.189172067852092,1
446,80,23,0.19082119436655,1
