x,y,z,signal,mito.p
579,809,35,0.19189440851296,1
578,809,36,0.185650490087269,1
579,808,36,0.176374452281452,1
579,809,36,0.264815181380716,1
579,810,36,0.187075926782933,1
580,809,36,0.207275786346145,1
578,808,37,0.142473738527918,1
578,809,37,0.238376844304537,1
578,810,37,0.16569169122222,1
579,808,37,0.199169391676751,1
579,809,37,0.303469804300497,1
579,810,37,0.194564624758857,1
580,809,37,0.201932291868836,1
577,809,38,0.145214557093688,1
578,808,38,0.173719451748196,1
578,809,38,0.260848473359972,1
578,810,38,0.170872924020928,1
579,807,38,0.138055446527935,1
579,808,38,0.223219780464118,1
579,809,38,0.303852057861539,1
579,810,38,0.186434782346532,1
580,808,38,0.179961061907883,1
580,809,38,0.192186557261767,1
581,806,38,0.220250337572126,1
577,809,39,0.188374220418488,1
578,808,39,0.209273731895186,1
578,809,39,0.249767618853088,1
578,810,39,0.158219857720368,1
579,807,39,0.179438863831902,1
579,808,39,0.245377155590696,1
579,809,39,0.272544810509262,1
579,810,39,0.167288716875441,1
580,806,39,0.238899807876896,1
580,807,39,0.202340831397844,1
580,808,39,0.19529749921519,1
580,809,39,0.188351337965191,1
581,805,39,0.194536289615969,1
581,806,39,0.24937424792925,1
581,807,39,0.209827527306316,1
582,806,39,0.188431455993898,1
584,808,39,0.17702460602139,1
584,809,39,0.167020428059922,1
577,807,40,0.193742493424739,1
577,808,40,0.24513521162748,1
578,806,40,0.168275088401877,1
578,807,40,0.213440269801436,1
578,808,40,0.251904343007198,1
578,809,40,0.223294634233111,1
579,806,40,0.216515351193722,1
579,807,40,0.233817241673001,1
579,808,40,0.259134892050407,1
579,809,40,0.229076605036278,1
579,810,40,0.143315713883551,1
580,805,40,0.213398485476013,1
580,806,40,0.269363855079335,1
580,807,40,0.227685709892606,1
580,808,40,0.215692265933348,1
580,809,40,0.191648483968574,1
581,805,40,0.204083972644504,1
581,806,40,0.248897096370954,1
581,807,40,0.209477024179699,1
581,808,40,0.200049005900493,1
582,806,40,0.199691837066946,1
582,808,40,0.2218057319992,1
582,809,40,0.198105304602551,1
582,810,40,0.153609885427097,1
583,807,40,0.227325196428726,1
583,808,40,0.231499648389848,1
583,809,40,0.189412174623998,1
583,810,40,0.140547620092956,1
583,816,40,0.123375781560026,1
584,806,40,0.177197549318694,1
584,807,40,0.179778685339816,1
584,808,40,0.169779865853001,1
584,809,40,0.141469772361633,1
585,806,40,0.116580458427281,1
585,807,40,0.115560134192222,1
585,814,40,0.128241441420731,1
585,815,40,0.144761536336629,1
597,814,40,0.114550597567672,1
597,815,40,0.121401236646446,1
598,814,40,0.126660373422795,1
598,815,40,0.125931244010285,1
576,807,41,0.161743472883245,1
576,808,41,0.174819128515583,1
577,806,41,0.200763743981079,1
577,807,41,0.278579183133868,2
577,808,41,0.288964048333017,1
577,809,41,0.201727468591566,1
578,805,41,0.138159412713062,1
578,806,41,0.236745394867999,2
578,807,41,0.293788889571424,2
578,808,41,0.275133106865744,1
578,809,41,0.186525805754422,1
579,805,41,0.168861929702842,1
579,806,41,0.254206602809037,1
579,807,41,0.272919950842413,2
579,808,41,0.250813828642623,1
579,809,41,0.18560730431463,1
580,805,41,0.205300263952573,1
580,806,41,0.265121521254702,1
580,807,41,0.244741110537866,1
580,808,41,0.235268811237355,1
580,809,41,0.200798462186081,1
580,810,41,0.147162003435454,1
581,806,41,0.22532816947534,1
581,807,41,0.214221358752775,1
581,808,41,0.243553013050276,1
581,809,41,0.229578699999661,1
581,810,41,0.166025388759103,1
581,815,41,0.137313798305412,1
581,816,41,0.190670262034357,1
582,806,41,0.202047045664473,1
582,807,41,0.205955623067887,1
582,808,41,0.238866573557183,1
582,809,41,0.211581220626137,1
582,810,41,0.142377474414049,1
582,815,41,0.1240036181363,1
582,816,41,0.189777917016989,1
582,817,41,0.149495636811962,1
583,805,41,0.160182943741999,1
583,806,41,0.215804687909246,1
583,807,41,0.21667883766653,1
583,808,41,0.218676500570754,1
583,809,41,0.168672946312182,1
583,816,41,0.128886248462883,1
583,817,41,0.114113369589754,1
584,805,41,0.115401346689494,1
584,806,41,0.163395084316717,1
584,807,41,0.169375460004439,1
584,808,41,0.166795960967881,1
584,809,41,0.129284235918729,1
585,808,41,0.119157578536631,1
597,814,41,0.123377536313264,1
597,815,41,0.147554361548698,1
598,814,41,0.138062018019926,1
598,815,41,0.153470800623477,1
576,806,42,0.172574787347461,1
576,807,42,0.22235276748846,2
576,808,42,0.1913719866765,1
577,805,42,0.136385510288837,1
577,806,42,0.281816290667407,2
577,807,42,0.378633352013015,2
577,808,42,0.310652068187497,2
577,809,42,0.169269067784634,1
578,805,42,0.164799204882444,2
578,806,42,0.322175450262615,2
578,807,42,0.394515635345978,2
578,808,42,0.299449228888411,2
578,809,42,0.156479495814407,1
579,805,42,0.174541100230751,1
579,806,42,0.28498245435192,2
579,807,42,0.30727738328936,2
579,808,42,0.242470506955512,2
579,809,42,0.156482863998474,1
579,814,42,0.138475315403351,1
580,805,42,0.176714473996112,1
580,806,42,0.236545988949718,1
580,807,42,0.246722238720305,2
580,808,42,0.253376215890895,1
580,809,42,0.212598812627967,1
580,810,42,0.150348411554972,1
580,814,42,0.123807274203535,1
580,815,42,0.132856065576612,1
580,816,42,0.128837986860408,1
581,806,42,0.187262919883008,1
581,807,42,0.212412361263792,1
581,808,42,0.29255243626642,1
581,809,42,0.277118427612967,1
581,810,42,0.173362942419221,1
581,815,42,0.136922170357945,1
581,816,42,0.186759388141806,1
581,817,42,0.124909188575723,1
582,805,42,0.169691515794004,1
582,806,42,0.184254012708465,1
582,807,42,0.19160254240897,1
582,808,42,0.255354823823717,1
582,809,42,0.235274040166466,1
582,810,42,0.139876432867899,1
582,815,42,0.122212839461136,1
582,816,42,0.183379262330945,1
582,817,42,0.128951409870032,1
583,805,42,0.156076055668969,1
583,806,42,0.193743824210752,1
583,807,42,0.187148319186646,1
583,808,42,0.19737179419538,1
583,809,42,0.156072758146106,1
583,816,42,0.115844898845189,1
584,806,42,0.137724304571271,1
584,807,42,0.150308122891705,1
584,808,42,0.15513288169204,1
584,809,42,0.114973057353909,1
585,808,42,0.117104128611683,1
597,815,42,0.139670455457626,1
598,814,42,0.119847808956223,1
598,815,42,0.144783723954751,1
575,806,43,0.125836357789898,1
575,807,43,0.149557771564198,1
576,805,43,0.116582012973774,1
576,806,43,0.234269638256089,2
576,807,43,0.301800574673442,2
576,808,43,0.219799048014571,2
577,805,43,0.158522829410286,2
577,806,43,0.350605090734639,2
577,807,43,0.458806920426439,2
577,808,43,0.320590495898447,2
577,809,43,0.144872509757841,2
578,805,43,0.185945005986417,2
578,806,43,0.385388044953339,2
578,807,43,0.469260586084755,2
578,808,43,0.315954767596242,2
578,809,43,0.140707761935431,2
578,813,43,0.118020204016797,1
578,814,43,0.137577600134464,1
579,805,43,0.175363502432818,1
579,806,43,0.299571095911938,2
579,807,43,0.331896877415435,2
579,808,43,0.245371220049542,2
579,809,43,0.146153997803661,1
579,812,43,0.114774758461161,1
579,813,43,0.155989154164658,1
579,814,43,0.192472028526776,1
579,815,43,0.162607765402541,1
580,806,43,0.200070392691634,1
580,807,43,0.23375204493525,2
580,808,43,0.254455683553878,1
580,809,43,0.208575222337834,1
580,810,43,0.14511479525021,1
580,813,43,0.11820984691203,1
580,814,43,0.141112050015319,1
580,815,43,0.137877545169468,1
580,816,43,0.128613248900417,1
581,805,43,0.145119623765831,1
581,806,43,0.147063831469071,1
581,807,43,0.191410544140264,1
581,808,43,0.295278404202439,1
581,809,43,0.277814040060946,1
581,810,43,0.160983605846904,1
581,815,43,0.123296523242637,1
581,816,43,0.160735007953625,1
581,817,43,0.115823076309955,1
582,804,43,0.142298569402681,1
582,805,43,0.160837313600454,1
582,806,43,0.151814030922097,1
582,807,43,0.167312211725841,1
582,808,43,0.247796995636341,1
582,809,43,0.233934774809337,1
582,810,43,0.13133704989284,1
582,816,43,0.148871957469869,1
583,805,43,0.140600380458766,1
583,806,43,0.153676071421707,1
583,807,43,0.154613804485912,1
583,808,43,0.174996099501528,1
583,809,43,0.145003868936468,1
584,807,43,0.130777413155496,1
584,808,43,0.138725774041674,1
575,806,44,0.170446719190867,1
575,807,44,0.231721995645762,2
575,808,44,0.177036653756708,1
576,805,44,0.133131020099061,1
576,806,44,0.289680058315279,2
576,807,44,0.403112512987529,2
576,808,44,0.289062479390482,2
576,809,44,0.136924890814307,1
577,805,44,0.169279655188398,2
577,806,44,0.372558278534784,2
577,807,44,0.490950042717053,2
577,808,44,0.328092289750884,2
577,809,44,0.13843714657621,2
577,814,44,0.121463618712896,1
578,805,44,0.189893942714302,2
578,806,44,0.382876769309446,2
578,807,44,0.465414732276945,2
578,808,44,0.301096082467467,2
578,809,44,0.130436720159397,2
578,812,44,0.126662469705186,1
578,813,44,0.180240668292942,1
578,814,44,0.210366366095887,1
578,815,44,0.161544031634362,1
579,805,44,0.170722203672348,1
579,806,44,0.279698762807108,2
579,807,44,0.321410448512101,2
579,808,44,0.24008792891822,2
579,809,44,0.141995680150834,1
579,811,44,0.118684124914688,1
579,812,44,0.14670117461533,1
579,813,44,0.202119496952524,1
579,814,44,0.233941935144697,1
579,815,44,0.183091282593187,1
579,816,44,0.126654061021885,1
580,805,44,0.13578762228628,1
580,806,44,0.168449527361337,1
580,807,44,0.209842601696547,2
580,808,44,0.234055181501311,1
580,809,44,0.192353423695509,1
580,810,44,0.133006432619172,1
580,813,44,0.120464504615967,1
580,814,44,0.136055640233849,1
580,815,44,0.130702877361921,1
580,816,44,0.133789417646157,1
580,817,44,0.133299040665806,1
581,804,44,0.16330539169484,1
581,805,44,0.1339568611464,1
581,806,44,0.120150191802773,1
581,807,44,0.164687253981241,1
581,808,44,0.254373033498687,1
581,809,44,0.240518467635473,1
581,810,44,0.137869430907851,1
581,816,44,0.12557209666302,1
582,804,44,0.176756705842494,1
582,805,44,0.147826866482734,1
582,806,44,0.120374329142527,1
582,807,44,0.145007425550413,1
582,808,44,0.216331726277715,1
582,809,44,0.20180043806178,1
583,804,44,0.128486529807534,1
583,805,44,0.124385942358547,1
583,806,44,0.117516307192708,1
583,807,44,0.130037578570548,1
583,808,44,0.150250086489314,1
583,809,44,0.123869314740832,1
584,808,44,0.113800234463297,1
574,807,45,0.159408308513978,2
574,808,45,0.141063917958385,1
575,806,45,0.211820361694919,2
575,807,45,0.335348041290262,2
575,808,45,0.277719165617426,2
575,809,45,0.146472032106944,1
576,805,45,0.150482608958635,2
576,806,45,0.319969478128379,2
576,807,45,0.481780620891522,2
576,808,45,0.3698731527748,2
576,809,45,0.166410127239159,2
577,805,45,0.179583224672104,2
577,806,45,0.356061619584949,2
577,807,45,0.464325183615495,2
577,808,45,0.321105404093526,2
577,809,45,0.141329945615369,2
577,813,45,0.157097486929562,1
577,814,45,0.18633656327268,1
577,815,45,0.142515416861535,1
578,805,45,0.185939011560927,2
578,806,45,0.333872682453824,2
578,807,45,0.399423668375474,2
578,808,45,0.27246359723189,2
578,809,45,0.133234232564678,1
578,812,45,0.163275996633889,1
578,813,45,0.241875657384737,1
578,814,45,0.279357469190773,1
578,815,45,0.196282799046696,1
579,805,45,0.162739595655862,1
579,806,45,0.237772243487581,2
579,807,45,0.284906729094741,2
579,808,45,0.234768011729383,1
579,809,45,0.147042809760818,1
579,811,45,0.121487290216306,1
579,812,45,0.160998303377379,1
579,813,45,0.216588461986345,1
579,814,45,0.237124233137504,1
579,815,45,0.179874125072969,1
579,816,45,0.135042617656558,1
579,817,45,0.128112543607384,1
580,805,45,0.128749318825991,1
580,806,45,0.143976372589181,1
580,807,45,0.181739368880504,1
580,808,45,0.200647883159909,1
580,809,45,0.163893575558685,1
580,810,45,0.115620561298689,1
580,814,45,0.118293792422632,1
580,815,45,0.116744781057672,1
580,816,45,0.136645225544911,1
580,817,45,0.161682080073653,1
580,818,45,0.127942674072463,1
580,819,45,0.113834575808543,1
581,804,45,0.165639555030381,1
581,805,45,0.121367872781191,1
581,807,45,0.137092616959367,1
581,808,45,0.188767473573652,1
581,809,45,0.175766153528142,1
582,803,45,0.186392291409067,1
582,804,45,0.192587912901681,1
582,805,45,0.128294437323889,1
582,807,45,0.127431934888433,1
582,808,45,0.170169468179281,1
582,809,45,0.150940646661192,1
583,803,45,0.144194456619108,1
583,804,45,0.143875067976078,1
583,808,45,0.123979157582776,1
574,806,46,0.143745251567077,1
574,807,46,0.233928109102407,2
574,808,46,0.227614436291293,2
575,805,46,0.120780737058542,1
575,806,46,0.244654055934279,2
575,807,46,0.434242494932178,2
575,808,46,0.398289508940432,2
575,809,46,0.19799043303824,2
576,805,46,0.176895413786359,2
576,806,46,0.326017087951907,2
576,807,46,0.502650737307269,2
576,808,46,0.414011532662247,2
576,809,46,0.189231435040495,2
576,813,46,0.114621659185372,1
576,814,46,0.136325153843574,1
577,805,46,0.205293150724682,2
577,806,46,0.327030887802444,2
577,807,46,0.400498189754163,2
577,808,46,0.290776202022456,2
577,809,46,0.147608311378112,2
577,812,46,0.142707580006384,1
577,813,46,0.211258605121449,1
577,814,46,0.251376032737053,1
577,815,46,0.194805932771234,1
577,816,46,0.12426259144973,1
578,805,46,0.186542022500789,1
578,806,46,0.272761222224023,2
578,807,46,0.310879338173971,2
578,808,46,0.235019612723841,2
578,809,46,0.14475808571449,1
578,811,46,0.12033431134721,1
578,812,46,0.183136552871351,1
578,813,46,0.271688137623153,1
578,814,46,0.307413406107465,1
578,815,46,0.218317470992162,1
578,816,46,0.128679540886834,1
579,805,46,0.151766852791419,1
579,806,46,0.190800043112756,1
579,807,46,0.232244700127039,2
579,808,46,0.214220016189895,1
579,809,46,0.150407507875427,1
579,812,46,0.148251940733527,1
579,813,46,0.193976193580797,1
579,814,46,0.204523155582405,1
579,815,46,0.161223830387483,1
579,816,46,0.134925732247927,1
579,817,46,0.136441415078234,1
580,804,46,0.122061589153524,1
580,805,46,0.116983262621881,1
580,806,46,0.120724961814685,1
580,807,46,0.149385770416283,1
580,808,46,0.161543831427616,1
580,809,46,0.131313166405817,1
580,816,46,0.127368787325603,1
580,817,46,0.164412134582649,1
580,818,46,0.12777478305126,1
581,803,46,0.159519340819527,1
581,804,46,0.152384101963929,1
581,808,46,0.130665827337181,1
581,809,46,0.11596061834395,1
582,802,46,0.176860330498469,1
582,803,46,0.222907622817652,1
582,804,46,0.183838465943372,1
582,808,46,0.118100333822372,1
583,802,46,0.15891294991873,1
583,803,46,0.18298498458832,1
583,804,46,0.143050816805835,1
583,822,46,0.146179058977421,1
583,823,46,0.135396465413507,1
584,822,46,0.15338396978037,1
584,823,46,0.140534406447769,1
586,826,46,0.115330508832274,1
587,826,46,0.121204456969588,1
573,807,47,0.138475503833229,1
573,808,47,0.153061413160018,2
573,815,47,0.177028727924969,1
573,816,47,0.169676123428354,1
574,806,47,0.159706392803938,1
574,807,47,0.298507291482555,2
574,808,47,0.318831338112166,2
574,809,47,0.181251606364709,2
574,815,47,0.206299130735287,1
575,805,47,0.133959581602762,1
575,806,47,0.254272647481239,2
575,807,47,0.468349150765383,2
575,808,47,0.460217506492351,2
575,809,47,0.225001267190929,2
576,805,47,0.206133383103945,2
576,806,47,0.303846734717489,2
576,807,47,0.437903922997,2
576,808,47,0.375179974087123,2
576,809,47,0.185867243331184,2
576,812,47,0.114986494759577,1
576,813,47,0.153190782048059,1
576,814,47,0.177333089285236,1
576,815,47,0.178226341121391,1
577,805,47,0.232267170389978,1
577,806,47,0.274222613695762,2
577,807,47,0.296492811211728,2
577,808,47,0.228801709398166,2
577,809,47,0.145889336263292,1
577,812,47,0.168322184094483,1
577,813,47,0.245943340266297,1
577,814,47,0.284499908988369,1
577,815,47,0.245004323523548,1
577,816,47,0.161808693174731,1
578,806,47,0.202916673104688,1
578,807,47,0.213517620266312,2
578,808,47,0.186437844332048,1
578,809,47,0.147509267923544,1
578,810,47,0.113799610289327,1
578,811,47,0.119071042115208,1
578,812,47,0.176768211841913,1
578,813,47,0.253546391624367,1
578,814,47,0.278578829827847,1
578,815,47,0.220486039795636,1
578,816,47,0.146103946117346,1
579,805,47,0.133692623573256,1
579,806,47,0.143529087166531,1
579,807,47,0.171035833427234,1
579,808,47,0.173745137095926,1
579,809,47,0.137885800753493,1
579,812,47,0.120646645646686,1
579,813,47,0.153408877854854,1
579,814,47,0.160753485858526,1
579,815,47,0.14128017657387,1
579,816,47,0.131563931242691,1
579,817,47,0.128303635057303,1
580,804,47,0.116842163973941,1
580,807,47,0.120833097010861,1
580,808,47,0.126532217552092,1
580,817,47,0.138724325486988,1
580,818,47,0.116490012085892,1
581,802,47,0.142030881207398,1
581,803,47,0.164637508493477,1
581,804,47,0.139520759696507,1
582,801,47,0.14453424279642,1
582,802,47,0.221132448491751,1
582,803,47,0.23557077011668,1
582,804,47,0.163155319073965,1
582,822,47,0.117618930814955,1
583,801,47,0.136252879208534,1
583,802,47,0.21525598010482,1
583,803,47,0.203690389737054,1
583,804,47,0.13095366575253,1
583,822,47,0.182516335928264,1
583,823,47,0.167850131919758,1
583,824,47,0.117376704206923,1
584,802,47,0.119666598298026,1
584,822,47,0.202164767230688,1
584,823,47,0.183327479445127,1
584,824,47,0.118031627578145,1
585,822,47,0.11926296972271,1
587,802,47,0.115083441931753,1
588,802,47,0.122776574548324,1
569,813,48,0.183059108191537,1
569,814,48,0.201929960049097,1
570,813,48,0.170324640183727,1
570,814,48,0.183037415201844,1
572,815,48,0.139143028452535,1
572,816,48,0.133246186085057,1
573,807,48,0.184729385959788,2
573,808,48,0.227001874311995,2
573,814,48,0.139246099595743,1
573,815,48,0.254751871768192,1
573,816,48,0.233128271378218,1
573,817,48,0.117369626309635,1
574,806,48,0.175932619548394,2
574,807,48,0.366133950277878,2
574,808,48,0.423720523443126,2
574,809,48,0.226579979815391,2
574,814,48,0.146749836631296,1
574,815,48,0.245295518346098,1
574,816,48,0.215953170653026,1
575,805,48,0.151466248251842,1
575,806,48,0.257093489860777,2
575,807,48,0.457190898686154,2
575,808,48,0.467638864340663,2
575,809,48,0.231946180092986,2
575,813,48,0.121405676525443,1
575,815,48,0.180970103904003,1
576,804,48,0.225024420512175,1
576,805,48,0.24838166999371,1
576,806,48,0.283407204126464,2
576,807,48,0.347787687200373,2
576,808,48,0.299335958978062,2
576,809,48,0.168295580151098,2
576,812,48,0.137724693207894,1
576,813,48,0.186343405632621,1
576,814,48,0.210391851236873,1
576,815,48,0.223295246630214,1
577,804,48,0.264264141756551,1
577,805,48,0.270159877098496,1
577,806,48,0.230421334859867,1
577,807,48,0.204634870946261,2
577,808,48,0.169345664529997,2
577,809,48,0.137378783059551,1
577,810,48,0.116519666237926,1
577,811,48,0.11789426219716,1
577,812,48,0.171594539792056,1
577,813,48,0.246854987569281,1
577,814,48,0.282747534677693,1
577,815,48,0.284566259859122,1
577,816,48,0.20999895138773,1
578,805,48,0.186144776987587,1
578,806,48,0.152259761798254,1
578,807,48,0.141618325766618,1
578,808,48,0.143023105836917,1
578,809,48,0.137085904144967,1
578,812,48,0.14806008378723,1
578,813,48,0.206558975536903,1
578,814,48,0.22788801292026,1
578,815,48,0.215017003912181,1
578,816,48,0.166350795381358,1
579,805,48,0.116600008027113,1
579,807,48,0.121349465537494,1
579,808,48,0.130317267393679,1
579,809,48,0.114747706996816,1
579,814,48,0.123550679817313,1
579,815,48,0.125446037074709,1
579,816,48,0.123683935071586,1
581,802,48,0.150519117247477,1
581,803,48,0.166266261027388,1
581,804,48,0.128325269162659,1
582,801,48,0.145062011330665,1
582,802,48,0.231391795838488,1
582,803,48,0.216834504299405,1
582,804,48,0.136910888119006,1
582,822,48,0.126632356255326,1
583,801,48,0.144801200825926,1
583,802,48,0.229658452945479,1
583,803,48,0.190556344396303,1
583,822,48,0.189871649104374,1
583,823,48,0.181063800660786,1
583,824,48,0.127212696725503,1
584,802,48,0.119529539115593,1
584,822,48,0.223150650252666,1
584,823,48,0.210452808302371,1
584,824,48,0.12726730605949,1
585,822,48,0.129930361970027,1
585,823,48,0.124092863237218,1
588,802,48,0.127122803896881,1
590,798,48,0.116561297464073,1
568,813,49,0.174691043306085,1
568,814,49,0.196856450256208,1
569,812,49,0.168432627556664,1
569,813,49,0.302938031631347,3
569,814,49,0.343467555389905,3
569,815,49,0.17159085363257,1
570,812,49,0.170594825074891,1
570,813,49,0.253138346723789,3
570,814,49,0.279362603904945,3
570,815,49,0.150857030902877,1
571,813,49,0.14931042201886,1
571,814,49,0.150371859297903,1
572,808,49,0.139702535644338,1
572,815,49,0.162906791841891,1
572,816,49,0.148646395129163,1
573,807,49,0.220601358880907,2
573,808,49,0.295841691768667,2
573,809,49,0.202568596012748,1
573,814,49,0.16804156489883,1
573,815,49,0.296007368738805,1
573,816,49,0.263496148681726,1
573,817,49,0.126117271407236,1
574,806,49,0.180479479609438,2
574,807,49,0.380503801195927,2
574,808,49,0.47157978102187,2
574,809,49,0.267627261770932,2
574,810,49,0.152115130090103,1
574,814,49,0.161310979206009,1
574,815,49,0.252111568765411,1
574,816,49,0.219664626850429,1
574,817,49,0.115488212863203,1
575,804,49,0.151943552909414,1
575,805,49,0.170009432328613,1
575,806,49,0.243704275134756,2
575,807,49,0.38827568572459,2
575,808,49,0.407180666943784,2
575,809,49,0.224268227858453,2
575,810,49,0.129443612264825,1
575,812,49,0.122203806603864,1
575,813,49,0.14592510260949,1
575,814,49,0.165160472065836,1
575,815,49,0.189672137194287,1
575,816,49,0.162832538693133,1
576,803,49,0.184315370187454,1
576,804,49,0.280353038450624,1
576,805,49,0.274197788059349,1
576,806,49,0.253471537855374,1
576,807,49,0.260009324452508,2
576,808,49,0.224926295653262,2
576,809,49,0.152481955954893,1
576,810,49,0.122798326422354,1
576,811,49,0.122367269522937,1
576,812,49,0.157915884996723,1
576,813,49,0.204516065908249,1
576,814,49,0.228687238247346,1
576,815,49,0.250737443880872,1
576,816,49,0.203570147921223,1
577,803,49,0.221501747498688,1
577,804,49,0.329012369290904,4
577,805,49,0.281622349215585,1
577,806,49,0.192985594158975,1
577,807,49,0.149792590522655,1
577,808,49,0.134846697691018,1
577,809,49,0.127802011168616,1
577,810,49,0.121428641416812,1
577,811,49,0.120290477846865,1
577,812,49,0.157039827386926,1
577,813,49,0.21825554822354,1
577,814,49,0.261815236402241,1
577,815,49,0.302284815905894,1
577,816,49,0.25002819382048,1
577,817,49,0.134172260050567,1
578,804,49,0.211303663416,1
578,805,49,0.17937313713512,1
578,806,49,0.127508296096449,1
578,808,49,0.120246773892061,1
578,809,49,0.119936889180997,1
578,812,49,0.115448984117999,1
578,813,49,0.156380381698635,1
578,814,49,0.184277154252843,1
578,815,49,0.20536852267584,1
578,816,49,0.182860432439033,1
578,817,49,0.119889275306227,1
579,804,49,0.117151648271514,1
579,815,49,0.114480266115748,1
579,816,49,0.117030181661477,1
580,803,49,0.133049053102178,1
581,802,49,0.155739625898858,1
581,803,49,0.165641086023138,1
581,804,49,0.117128471396533,1
582,801,49,0.140437753697277,1
582,802,49,0.20709192589279,1
582,803,49,0.183103730741995,1
582,804,49,0.11473077186154,1
582,822,49,0.13194584327458,1
582,823,49,0.124840988736792,1
583,801,49,0.134337489499745,1
583,802,49,0.195881313861241,1
583,803,49,0.155814291237973,1
583,822,49,0.170675119756609,1
583,823,49,0.171483907899998,1
583,824,49,0.136635168100178,1
584,822,49,0.202672986165102,1
584,823,49,0.20448733035187,1
584,824,49,0.130782677415209,1
585,822,49,0.136775041953912,1
585,823,49,0.141618455312159,1
588,802,49,0.115919093109609,1
606,825,49,0.18596244752699,1
607,825,49,0.186250615694626,1
567,814,50,0.134048143645372,1
568,812,50,0.157923092439553,1
568,813,50,0.223338326411048,3
568,814,50,0.241343484302095,3
568,815,50,0.149750087808323,1
569,811,50,0.173029539304023,1
569,812,50,0.245311958852944,3
569,813,50,0.399924514990916,3
569,814,50,0.438762173983336,3
569,815,50,0.215137622587768,3
570,811,50,0.22150732973382,1
570,812,50,0.258684379766098,3
570,813,50,0.329791715265873,3
570,814,50,0.347070052010415,3
570,815,50,0.187397694353171,3
571,811,50,0.217615663911947,1
571,812,50,0.19380286164687,1
571,813,50,0.181195277608086,3
571,814,50,0.181804153427897,3
572,808,50,0.160938606436689,1
572,809,50,0.166762149581667,1
572,811,50,0.25526642665725,1
572,815,50,0.176283935278859,1
572,816,50,0.155207158394532,1
573,807,50,0.223724725429403,2
573,808,50,0.314368329346785,2
573,809,50,0.244042695195453,1
573,810,50,0.226906434578842,1
573,814,50,0.192974394358108,1
573,815,50,0.281173603461381,1
573,816,50,0.249981062797272,1
573,817,50,0.135174754108431,1
574,806,50,0.178427254478696,2
574,807,50,0.33545876739726,2
574,808,50,0.441326798836408,2
574,809,50,0.299102871219107,2
574,810,50,0.186383918056368,1
574,814,50,0.172445394905685,1
574,815,50,0.237483733790791,1
574,816,50,0.21518084369101,1
574,817,50,0.124209489554767,1
575,804,50,0.167209529219256,1
575,805,50,0.180009947684329,1
575,806,50,0.216582573552661,1
575,807,50,0.296653259252755,2
575,808,50,0.322584767064869,2
575,809,50,0.217126170196649,2
575,810,50,0.148133229910454,1
575,811,50,0.135464547483764,1
575,812,50,0.14088363767271,1
575,813,50,0.154519707315639,1
575,814,50,0.171466796111712,1
575,815,50,0.187881523395265,1
575,816,50,0.164450527170269,1
576,803,50,0.224499713963445,1
576,804,50,0.302351802727485,4
576,805,50,0.26521340437391,1
576,806,50,0.206036435931769,1
576,807,50,0.186108103822602,1
576,808,50,0.170406018337242,2
576,809,50,0.142030527901377,1
576,810,50,0.135382062304716,1
576,811,50,0.145263266217123,1
576,812,50,0.163929589219098,1
576,813,50,0.192469060756199,1
576,814,50,0.222775580580718,1
576,815,50,0.245727588056108,1
576,816,50,0.202806158981303,1
577,802,50,0.14851072561708,1
577,803,50,0.279339521244903,4
577,804,50,0.349167017460289,4
577,805,50,0.25595791720165,4
577,806,50,0.150083337824245,1
577,808,50,0.11396655916114,1
577,809,50,0.118317946777604,1
577,810,50,0.119925406735313,1
577,811,50,0.120341542343774,1
577,812,50,0.13516853592246,1
577,813,50,0.17865546661456,1
577,814,50,0.238407228622348,1
577,815,50,0.295454327047187,1
577,816,50,0.25835907913565,1
577,817,50,0.135595412033961,1
578,803,50,0.204258647141311,1
578,804,50,0.218976692919973,4
578,805,50,0.156895278116847,1
578,813,50,0.116981507868643,1
578,814,50,0.155271318767955,1
578,815,50,0.191585100868398,1
578,816,50,0.184448813871605,1
578,817,50,0.120853329669,1
579,804,50,0.115773519252069,1
580,803,50,0.136778940097011,1
581,802,50,0.150757115960124,1
581,803,50,0.150780551926187,1
581,821,50,0.11632225061023,1
581,822,50,0.132045911316609,1
582,802,50,0.164086692629791,1
582,803,50,0.144271218240615,1
582,822,50,0.131189744835797,1
582,823,50,0.125970920276449,1
583,802,50,0.14248433770855,1
583,803,50,0.118854701061652,1
583,822,50,0.13861829835007,1
583,823,50,0.144488795865245,1
583,824,50,0.139080163534522,1
584,822,50,0.15372009335193,1
584,823,50,0.165495311958853,1
584,824,50,0.125055127516151,1
584,825,50,0.1157997816663,1
585,822,50,0.125507842074658,1
585,823,50,0.14099010055372,1
585,826,50,0.122642282929723,1
605,825,50,0.181249604297256,1
606,824,50,0.202584494783696,1
606,825,50,0.231794965115977,1
606,826,50,0.222187608700486,1
607,824,50,0.204478709684957,1
607,825,50,0.234822373749155,1
607,826,50,0.224005085533974,1
608,825,50,0.182892559733213,1
567,813,51,0.146467615781681,1
567,814,51,0.16349486971393,1
568,812,51,0.220929179760973,3
568,813,51,0.264224029746294,3
568,814,51,0.259481838563079,3
568,815,51,0.183874774025469,1
569,811,51,0.229894649797419,3
569,812,51,0.323752655448054,3
569,813,51,0.444499628227851,3
569,814,51,0.454131504081203,3
569,815,51,0.264700239155201,3
569,816,51,0.147370925062568,1
570,810,51,0.235515253963905,1
570,811,51,0.291271277972886,3
570,812,51,0.343932906527098,3
570,813,51,0.384275625615459,3
570,814,51,0.376604386195326,3
570,815,51,0.240413606408425,3
570,816,51,0.140138362175039,1
571,810,51,0.211251185695007,1
571,811,51,0.254422849647655,1
571,812,51,0.226209997750147,3
571,813,51,0.210662836955018,3
571,814,51,0.216786407573072,3
571,815,51,0.190136216429804,1
572,808,51,0.171137467792623,1
572,809,51,0.175237136645956,1
572,810,51,0.238653247381673,1
572,811,51,0.280167270144756,1
572,812,51,0.178741590845624,1
572,813,51,0.159195229652682,1
572,814,51,0.185996977302114,1
572,815,51,0.191566999823253,1
572,816,51,0.169308908926941,1
573,807,51,0.202156853175816,1
573,808,51,0.278403448718997,2
573,809,51,0.257778503128124,1
573,810,51,0.244163125441161,1
573,811,51,0.241772091613099,1
573,813,51,0.174175346060892,1
573,814,51,0.217987247631154,1
573,815,51,0.239434783853971,1
573,816,51,0.222830201691573,1
573,817,51,0.167336907816712,1
574,806,51,0.187416066266266,1
574,807,51,0.261114253702741,2
574,808,51,0.349012834712703,2
574,809,51,0.300463570474847,2
574,810,51,0.200582144686259,1
574,811,51,0.16090141508954,1
574,812,51,0.132001088559405,1
574,813,51,0.152844071072735,1
574,814,51,0.192136411360513,1
574,815,51,0.224789566223115,1
574,816,51,0.215815852379511,1
574,817,51,0.147786224513446,1
575,804,51,0.188774586801542,1
575,807,51,0.216450955282952,1
575,808,51,0.241217189176437,2
575,809,51,0.205170388659235,1
575,810,51,0.15993484047715,1
575,811,51,0.162398313816395,1
575,812,51,0.157178017148626,1
575,813,51,0.15995453139939,1
575,814,51,0.181473859405685,1
575,815,51,0.190354006038047,1
575,816,51,0.165532656405278,1
576,803,51,0.247699224083449,1
576,804,51,0.290896726483103,1
576,805,51,0.231834629605273,1
576,807,51,0.14228573261725,1
576,808,51,0.144271960183259,1
576,809,51,0.141329015242847,1
576,810,51,0.151969909538584,1
576,811,51,0.174878648803263,1
576,812,51,0.169630558728505,1
576,813,51,0.176555415625435,1
576,814,51,0.211053028124667,1
576,815,51,0.226788595243955,1
576,816,51,0.183535741567669,1
577,802,51,0.177332629987409,1
577,803,51,0.317237056469043,1
577,804,51,0.325005549259904,4
577,805,51,0.210275236696191,1
577,806,51,0.121895064248935,1
577,809,51,0.118374593509646,1
577,810,51,0.12311732642876,1
577,811,51,0.126192242944903,1
577,812,51,0.124424276061831,1
577,813,51,0.151285967966167,1
577,814,51,0.215633782009997,1
577,815,51,0.27010897747773,1
577,816,51,0.239076931962117,1
577,817,51,0.126916261196974,1
578,803,51,0.258006149974355,1
578,804,51,0.215908442110761,1
578,805,51,0.135415414393103,1
578,814,51,0.14187572097982,1
578,815,51,0.18468297332549,1
578,816,51,0.186189847059005,1
578,817,51,0.12389921620708,1
579,803,51,0.170134643982473,1
579,804,51,0.121119192449841,1
580,803,51,0.132441378522838,1
580,821,51,0.126099641436785,1
580,822,51,0.130079198019828,1
581,802,51,0.140042533805262,1
581,803,51,0.129129994286806,1
581,821,51,0.128981911956516,1
581,822,51,0.131889773609039,1
581,823,51,0.12394929144713,1
582,802,51,0.128929434235523,1
582,803,51,0.115745301877854,1
582,821,51,0.12195595065323,1
582,822,51,0.128649144792156,1
582,823,51,0.127531402310226,1
582,824,51,0.150314058432859,1
582,825,51,0.163353535528642,1
583,822,51,0.116410506454289,1
583,823,51,0.125456812908351,1
583,824,51,0.141297759436851,1
583,825,51,0.149838696958403,1
583,826,51,0.137452871332165,1
584,823,51,0.128022803878038,1
584,824,51,0.119655881348721,1
584,825,51,0.121621228528886,1
584,826,51,0.144792061976848,1
584,827,51,0.149816650662689,1
585,823,51,0.12703675032702,1
585,826,51,0.138243134463184,1
585,827,51,0.159214673260707,1
586,827,51,0.120323111546342,1
586,828,51,0.117877103301405,1
604,824,51,0.126382250923024,1
605,825,51,0.170332954652089,1
605,826,51,0.169388179021197,1
606,824,51,0.211961495673462,1
606,825,51,0.265968678431977,1
606,826,51,0.23700964421801,1
606,827,51,0.165202892342097,1
607,823,51,0.16715567360478,1
607,824,51,0.259972910378605,1
607,825,51,0.29485822912847,1
607,826,51,0.239523746310072,1
607,827,51,0.166152567149813,1
608,824,51,0.20165996358781,1
608,825,51,0.196253827952969,1
608,826,51,0.155656551876441,1
565,815,52,0.197901918103099,1
565,816,52,0.201158057054306,1
566,815,52,0.235700127227854,1
567,812,52,0.220135960636245,3
567,813,52,0.198105210387612,3
567,814,52,0.198813164992593,1
567,815,52,0.19809819137466,1
568,811,52,0.241956941323313,3
568,812,52,0.311401288935737,3
568,813,52,0.309357083851673,3
568,814,52,0.271844722851683,3
568,815,52,0.223294634233111,3
568,816,52,0.172281425581316,1
569,810,52,0.191871584944001,3
569,811,52,0.290500058036402,3
569,812,52,0.40797188400106,3
569,813,52,0.451530842013984,3
569,814,52,0.413275242914377,3
569,815,52,0.312644101749119,3
569,816,52,0.199020461412011,3
570,809,52,0.219508536250328,1
570,810,52,0.247733023692796,3
570,811,52,0.328370977540289,3
570,812,52,0.399808300863725,3
570,813,52,0.403845269675188,3
570,814,52,0.372238630800672,3
570,815,52,0.308521868417909,3
570,816,52,0.192040842081819,3
571,810,52,0.221360519305206,1
571,811,52,0.258829800524363,3
571,812,52,0.238031028371133,3
571,813,52,0.225719137918234,3
571,814,52,0.240997550600017,3
571,815,52,0.244624401782245,3
571,816,52,0.177258200185641,1
572,811,52,0.248149807028962,1
572,812,52,0.172882693544807,1
572,813,52,0.171453712012066,1
572,814,52,0.207819312328929,1
572,815,52,0.202750242415038,1
572,816,52,0.17600276257044,1
573,808,52,0.214576690395013,1
573,809,52,0.240929810058914,1
573,813,52,0.185446137884694,1
573,814,52,0.227970686529186,1
573,815,52,0.207888890061341,1
573,816,52,0.200820508481794,1
573,817,52,0.196156127061282,1
574,807,52,0.188564770132508,1
574,808,52,0.245980178307425,2
574,809,52,0.26625243027435,1
574,810,52,0.194221741265427,1
574,811,52,0.157693019558644,1
574,812,52,0.137794424039582,1
574,813,52,0.164597137392138,1
574,814,52,0.211885440663997,1
574,815,52,0.219944256789223,1
574,816,52,0.21379821590823,1
574,817,52,0.169381595752338,1
575,804,52,0.221682145553036,1
575,808,52,0.17269772606592,1
575,809,52,0.179644217068204,1
575,810,52,0.160118241632677,1
575,811,52,0.175670113174753,1
575,812,52,0.164278325815609,1
575,813,52,0.172320783872061,1
575,814,52,0.211638150002996,1
575,815,52,0.208925489927104,1
575,816,52,0.170132217947795,1
576,803,52,0.247626278166969,1
576,804,52,0.259258784695122,1
576,805,52,0.18651798591449,1
576,806,52,0.123333926573399,1
576,808,52,0.121666145501029,1
576,809,52,0.134228800790803,1
576,810,52,0.157249620502226,1
576,811,52,0.189247274927106,1
576,812,52,0.170337912713251,1
576,813,52,0.173357018654935,1
576,814,52,0.215021667551659,1
576,815,52,0.2165938557916,1
576,816,52,0.166072649327852,1
577,802,52,0.175577264352421,1
577,803,52,0.306733857306576,1
577,804,52,0.266451294456732,1
577,805,52,0.155609149985284,1
577,810,52,0.120507019107166,1
577,811,52,0.126445162948505,1
577,812,52,0.117430288953449,1
577,813,52,0.135087864380987,1
577,814,52,0.192187958708984,1
577,815,52,0.234719184837274,1
577,816,52,0.209094652849983,1
577,817,52,0.118037833987248,1
578,803,52,0.26608027602716,1
578,804,52,0.189128882079452,1
578,814,52,0.12606480546311,1
578,815,52,0.171991514437309,1
578,816,52,0.182521611964845,1
578,817,52,0.125531030726506,1
579,803,52,0.175996509053867,1
579,804,52,0.114890112877034,1
579,821,52,0.140454288419062,1
579,822,52,0.140415919385176,1
580,803,52,0.115495608735911,1
580,820,52,0.120187960216423,1
580,821,52,0.161088679057564,1
580,822,52,0.155727189526917,1
580,823,52,0.135776446039147,1
581,802,52,0.115711702475253,1
581,821,52,0.137876308598395,1
581,822,52,0.133012909896224,1
581,823,52,0.126266613862334,1
581,824,52,0.138261176623992,1
581,825,52,0.152821129735102,1
582,821,52,0.118837495058426,1
582,822,52,0.120501083566013,1
582,823,52,0.124161145514219,1
582,824,52,0.150637227450314,1
582,825,52,0.163687032858779,1
582,826,52,0.139373690176811,1
583,824,52,0.133091096518683,1
583,825,52,0.140605538726674,1
583,826,52,0.134686367418665,1
583,827,52,0.126690121789767,1
584,825,52,0.115458488049966,1
584,826,52,0.146452011432418,1
584,827,52,0.16004823993304,1
584,828,52,0.125378437856015,1
585,826,52,0.131278660184428,1
585,827,52,0.169508974349794,1
585,828,52,0.144740714835122,1
586,827,52,0.127633095559951,1
586,828,52,0.136130117143086,1
603,826,52,0.12213929292442,1
603,827,52,0.217909826505074,1
604,826,52,0.145021345807642,1
605,825,52,0.143427287924999,1
606,824,52,0.200360928009611,1
606,825,52,0.253912275339767,1
606,826,52,0.208409474706492,1
607,823,52,0.161519253105419,1
607,824,52,0.282393121631109,1
607,825,52,0.314446268655029,1
607,826,52,0.222232643441302,1
608,824,52,0.192334616038322,1
608,825,52,0.194306687809755,1
564,815,53,0.211215360464472,1
564,816,53,0.250876999759187,1
565,814,53,0.198171278613548,1
565,815,53,0.272802276383669,5
565,816,53,0.255383700702504,1
565,817,53,0.184648231566753,1
566,812,53,0.142778747615891,1
566,813,53,0.160508562347866,1
566,814,53,0.216535748728004,1
566,815,53,0.249768254803926,1
566,816,53,0.201348206354835,1
567,811,53,0.239353947436355,3
567,812,53,0.275696865506667,3
567,813,53,0.248920838535568,3
567,814,53,0.234803742744979,3
567,815,53,0.214831047176435,1
568,810,53,0.183016487708531,3
568,811,53,0.316140771439457,3
568,812,53,0.400524004647434,3
568,813,53,0.35108897866107,3
568,814,53,0.296988099145772,3
568,815,53,0.265188720059906,3
568,816,53,0.207159030483055,1
569,810,53,0.209759480566661,3
569,811,53,0.354782863772359,3
569,812,53,0.469651530973915,3
569,813,53,0.430505223841505,3
569,814,53,0.367125232758007,3
569,815,53,0.351121129508986,3
569,816,53,0.247535266535947,3
569,817,53,0.146923062573417,1
570,810,53,0.234353701535364,3
570,811,53,0.32400892008199,3
570,812,53,0.395340581351396,3
570,813,53,0.374124366357428,3
570,814,53,0.345932901251061,3
570,815,53,0.370151181059632,3
570,816,53,0.257107834085231,3
570,817,53,0.145967817307435,1
571,810,53,0.207200461502457,1
571,811,53,0.230362497630494,3
571,812,53,0.225558124587574,3
571,813,53,0.223456566159426,3
571,814,53,0.246228740870101,3
571,815,53,0.285888590080976,3
571,816,53,0.219420515943617,1
572,811,53,0.186203213803468,1
572,812,53,0.157682856122106,1
572,813,53,0.170231084749352,1
572,814,53,0.203000830598902,1
572,815,53,0.202269039614367,1
573,814,53,0.205187559331858,1
573,815,53,0.181581299766686,1
573,816,53,0.18482809966207,1
574,808,53,0.165877565519895,1
574,809,53,0.198614418578884,1
574,810,53,0.164248082820207,1
574,811,53,0.146094783714533,1
574,812,53,0.14058600090371,1
574,813,53,0.166297563940853,1
574,814,53,0.21168919094617,1
574,815,53,0.20518105850107,1
574,816,53,0.200839751883074,1
575,807,53,0.1156269090302,1
575,808,53,0.129367981222586,1
575,809,53,0.147086713922368,1
575,810,53,0.150035488412128,1
575,811,53,0.167293780928409,1
575,812,53,0.164532199745469,1
575,813,53,0.196561239521886,1
575,814,53,0.259512058004746,1
575,815,53,0.236575431118139,1
575,816,53,0.178350363311648,1
575,817,53,0.121628141550032,1
576,804,53,0.222027937932706,1
576,809,53,0.126475747473061,1
576,810,53,0.152296929591669,1
576,811,53,0.179066125979694,1
576,812,53,0.170826287626149,1
576,813,53,0.197224701121949,1
576,814,53,0.253294060464133,1
576,815,53,0.231187208098565,1
576,816,53,0.166473451454999,1
577,803,53,0.257215922173938,1
577,804,53,0.203241431999237,1
577,805,53,0.115777264295892,1
577,810,53,0.117495462137466,1
577,811,53,0.123354783405508,1
577,812,53,0.120734442192917,1
577,813,53,0.139571353118722,1
577,814,53,0.181991570495197,1
577,815,53,0.201972356771623,1
577,816,53,0.182186830956165,1
577,817,53,0.114875556668967,1
578,804,53,0.160129205896197,1
578,815,53,0.149521428151499,1
578,816,53,0.168701411000612,1
578,817,53,0.126359709998881,1
578,821,53,0.123626004661001,1
578,822,53,0.117048117830479,1
579,803,53,0.166261644495379,1
579,820,53,0.144035657339513,1
579,821,53,0.197902742483815,1
579,822,53,0.177631362005075,1
579,823,53,0.126152543125004,1
580,820,53,0.138930703310751,1
580,821,53,0.195936841790883,1
580,822,53,0.181884118357329,1
580,823,53,0.140720586943995,1
580,824,53,0.128616405100872,1
580,825,53,0.140270698833657,1
581,821,53,0.137675430571692,1
581,822,53,0.136783815720102,1
581,823,53,0.131865148179372,1
581,824,53,0.14991389225655,1
581,825,53,0.182124978848746,1
581,826,53,0.169106900320971,1
582,823,53,0.121937566963268,1
582,824,53,0.143698732940972,1
582,825,53,0.163828355267199,1
582,826,53,0.148568962226216,1
582,827,53,0.119474976889075,1
583,824,53,0.118354584611987,1
583,825,53,0.124634669797366,1
583,826,53,0.128265148254744,1
583,827,53,0.122778823929992,1
584,826,53,0.135200663216641,1
584,827,53,0.155051362216116,1
584,828,53,0.121931914066931,1
585,826,53,0.115540926121544,1
585,827,53,0.161572778967608,1
585,828,53,0.147885173753075,1
586,827,53,0.121692125270444,1
586,828,53,0.143101351343712,1
590,832,53,0.132121754342461,1
590,833,53,0.141795673612318,1
591,832,53,0.115994147085348,1
591,833,53,0.142088187444013,1
592,833,53,0.133575196428726,1
593,833,53,0.16684443455397,1
594,832,53,0.124871808798695,1
594,833,53,0.196259257088826,1
603,827,53,0.162300236064951,1
603,828,53,0.161001447800967,1
604,826,53,0.117091232941914,1
604,827,53,0.179437003086858,1
605,826,53,0.124662792956642,1
606,824,53,0.171300318314593,1
606,825,53,0.205479507873919,1
607,823,53,0.142211232154277,1
607,824,53,0.254881393755509,1
607,825,53,0.281144962119942,1
607,826,53,0.196515509945894,1
608,823,53,0.124374212598648,1
608,824,53,0.175951321213775,1
608,825,53,0.193609261724201,1
563,815,54,0.133398048789771,1
563,816,54,0.156453339391982,1
564,814,54,0.182197029723306,1
564,815,54,0.269911879825454,5
564,816,54,0.26292412267991,1
564,817,54,0.189982540087514,1
565,813,54,0.126161705527817,1
565,814,54,0.242782122866079,5
565,815,54,0.350608341150033,5
565,816,54,0.297293167118082,5
565,817,54,0.205716152246819,1
566,811,54,0.156920197968198,1
566,812,54,0.150348917960269,3
566,813,54,0.169448829888144,1
566,814,54,0.217408791459755,1
566,815,54,0.252728747276717,5
566,816,54,0.210479000055398,1
567,810,54,0.195228828301565,1
567,811,54,0.253904337731161,3
567,812,54,0.302064706254779,3
567,813,54,0.284165375293904,3
567,814,54,0.261765867774232,3
567,815,54,0.220806040835769,3
567,816,54,0.185750334368818,1
568,810,54,0.216602523565983,3
568,811,54,0.387093406009481,3
568,812,54,0.465418029799808,3
568,813,54,0.394426649336143,3
568,814,54,0.350049151933649,3
568,815,54,0.305245426147359,3
568,816,54,0.235861729401882,3
568,817,54,0.16450458299149,1
569,809,54,0.134866918572289,1
569,810,54,0.243731008623682,3
569,811,54,0.420758499977577,3
569,812,54,0.497157064217279,3
569,813,54,0.403870660601234,3
569,814,54,0.35634287473144,3
569,815,54,0.372597471949386,3
569,816,54,0.279448645697939,3
569,817,54,0.157191501661763,1
570,810,54,0.214088727672473,3
570,811,54,0.298613754363565,3
570,812,54,0.346039387685806,3
570,813,54,0.312269597366806,3
570,814,54,0.316082287516106,3
570,815,54,0.400643092330263,3
570,816,54,0.316351294720534,3
570,817,54,0.171274032346627,3
571,811,54,0.188644464193989,3
571,812,54,0.197604081127353,3
571,813,54,0.203505139613349,3
571,814,54,0.23439430817405,3
571,815,54,0.301980407438156,3
571,816,54,0.267412121957847,3
571,817,54,0.187262366370241,1
572,814,54,0.182448218527405,1
572,815,54,0.194400101921721,1
572,816,54,0.19511724248325,1
573,812,54,0.140429262575904,1
573,813,54,0.152595496733191,1
573,814,54,0.166831656652875,1
574,809,54,0.13855860140938,1
574,810,54,0.13560955605167,1
574,811,54,0.137861328423102,1
574,812,54,0.145211294901427,1
574,813,54,0.164147908786372,1
574,814,54,0.1973973028901,1
574,815,54,0.187183143383454,1
574,816,54,0.189255318527518,1
574,817,54,0.182411121395195,1
575,809,54,0.125108559163401,1
575,810,54,0.141341180746838,1
575,811,54,0.152512952669806,1
575,812,54,0.164030399203771,1
575,813,54,0.219198145133968,1
575,814,54,0.296442900847821,1
575,815,54,0.26038128503147,1
575,816,54,0.192724501009419,1
575,817,54,0.135463287358956,1
576,809,54,0.124569802811901,1
576,810,54,0.145261370141477,1
576,811,54,0.155322736570885,1
576,812,54,0.165914533106564,1
576,813,54,0.220295301651739,1
576,814,54,0.28930602500766,1
576,815,54,0.251181643764271,1
576,816,54,0.17779844042243,1
577,810,54,0.117291145265492,1
577,811,54,0.117369673417104,1
577,812,54,0.122968537486428,1
577,813,54,0.143219626422693,1
577,814,54,0.172172089144668,1
577,815,54,0.174451607815619,1
577,816,54,0.158831194905459,1
577,817,54,0.115476577318243,1
578,804,54,0.136750557846653,1
578,815,54,0.117184435070267,1
578,816,54,0.137740780408719,1
578,817,54,0.117489514819445,1
578,820,54,0.120464316186089,1
578,821,54,0.155043283285102,1
578,822,54,0.13069536372054,1
579,803,54,0.154190779410041,1
579,804,54,0.115200421555323,1
579,820,54,0.18061126275529,1
579,821,54,0.254910294188031,1
579,822,54,0.2068078914056,1
579,823,54,0.126910078341606,1
579,825,54,0.114530671108085,1
580,803,54,0.119420167348343,1
580,820,54,0.149045642709818,1
580,821,54,0.213632162078336,1
580,822,54,0.19252575459571,1
580,823,54,0.137626250373562,1
580,824,54,0.130166770805579,1
580,825,54,0.158916918723033,1
580,826,54,0.147642440739746,1
581,821,54,0.123549561014913,1
581,822,54,0.130192962558606,1
581,823,54,0.127393860276231,1
581,824,54,0.148216939883709,1
581,825,54,0.198093527735182,1
581,826,54,0.184261114159488,1
581,827,54,0.133036463630961,1
582,824,54,0.122757284039575,1
582,825,54,0.150013842529905,1
582,826,54,0.146162559586238,1
582,827,54,0.117412211462039,1
584,827,54,0.131176943380967,1
585,827,54,0.135634110820134,1
585,828,54,0.136809206646148,1
586,828,54,0.130391638311111,1
589,832,54,0.135407994966661,1
589,833,54,0.138745629840057,1
590,831,54,0.122144851605818,1
590,832,54,0.169764449933616,1
590,833,54,0.156732239164999,1
590,834,54,0.125506099098288,1
591,832,54,0.134181940635544,1
591,833,54,0.150117490739614,1
591,834,54,0.139699874072313,1
592,833,54,0.131969938745215,1
592,834,54,0.166478904144591,1
593,833,54,0.166797079770281,1
593,834,54,0.198591547902455,1
594,832,54,0.128153998180521,1
594,833,54,0.216922336176238,1
594,834,54,0.196995228861277,1
595,833,54,0.133298534260509,1
604,827,54,0.123971090428629,1
604,828,54,0.119061915042998,1
606,824,54,0.127156085324064,1
606,825,54,0.14182994429636,1
607,824,54,0.18830086231165,1
607,825,54,0.206048660320097,1
607,826,54,0.160583451447462,1
607,827,54,0.154375264037366,1
608,824,54,0.148375974700651,1
608,825,54,0.17841586624795,1
563,815,55,0.146739955839574,1
563,816,55,0.14879073241563,1
564,814,55,0.216500182588552,1
564,815,55,0.318206575298275,5
564,816,55,0.263679962027611,5
564,817,55,0.185706653967749,1
565,813,55,0.135790154312764,1
565,814,55,0.278880812260906,5
565,815,55,0.421262973868168,5
565,816,55,0.331865456733297,5
565,817,55,0.216970362241366,5
566,811,55,0.174283233942854,1
566,812,55,0.152115848479013,3
566,813,55,0.172785722818896,3
566,814,55,0.219359582431853,1
566,815,55,0.269240386401845,5
566,816,55,0.229494730935324,5
566,817,55,0.182555470458529,1
567,810,55,0.208112980293627,1
567,811,55,0.25694964720274,3
567,812,55,0.302118455877448,3
567,813,55,0.305826732320661,3
567,814,55,0.279271050538024,3
567,815,55,0.230315154623673,3
567,816,55,0.196823439696975,1
568,809,55,0.130956739514914,1
568,810,55,0.247133110069052,3
568,811,55,0.418605029118069,3
568,812,55,0.483909642974373,3
568,813,55,0.437783469197556,3
568,814,55,0.404575623881904,3
568,815,55,0.340281583014479,3
568,816,55,0.256352230274878,3
568,817,55,0.168740945944367,1
569,809,55,0.143475337543862,1
569,810,55,0.276908658051401,3
569,811,55,0.445526099987677,3
569,812,55,0.472298876543382,3
569,813,55,0.385312955646998,3
569,814,55,0.369481195075046,3
569,815,55,0.382427552480547,3
569,816,55,0.29687595981469,3
569,817,55,0.166802014277709,3
570,810,55,0.194686385790578,1
570,811,55,0.261370212138125,3
570,812,55,0.277485889428594,3
570,813,55,0.25476409615652,3
570,814,55,0.287533488700049,3
570,815,55,0.380738160856557,3
570,816,55,0.333824585727492,3
570,817,55,0.185845291250409,3
571,811,55,0.15595209236305,1
571,812,55,0.170395996223112,3
571,813,55,0.183271904408015,1
571,814,55,0.219381157652872,3
571,815,55,0.296084248128986,3
571,816,55,0.297753760400858,3
571,817,55,0.20330384939629,1
572,814,55,0.17318787928579,1
572,815,55,0.202802178400132,1
572,816,55,0.221295393228659,1
572,817,55,0.193324402856295,1
573,812,55,0.140884155854874,1
573,813,55,0.143867059706268,1
573,814,55,0.146261873908755,1
573,815,55,0.150297782802156,1
573,816,55,0.173271742358321,1
574,810,55,0.120872867491964,1
574,811,55,0.13438467940729,1
574,812,55,0.152849052687632,1
574,813,55,0.168212753442897,1
574,814,55,0.182612364504786,1
574,815,55,0.173398308351928,1
574,816,55,0.177467887309135,1
574,817,55,0.166622275727933,1
575,809,55,0.122855020261865,1
575,810,55,0.136211989925031,1
575,811,55,0.14068082823976,1
575,812,55,0.166336698471118,1
575,813,55,0.228235972243525,1
575,814,55,0.294872926658946,1
575,815,55,0.2695669118265,1
575,816,55,0.213800783265316,1
575,817,55,0.151882748943191,1
576,808,55,0.131005966820513,1
576,809,55,0.146232467070937,1
576,810,55,0.141889441030304,1
576,811,55,0.134909032649999,1
576,812,55,0.160663946335924,1
576,813,55,0.225281957047786,1
576,814,55,0.290617756048882,1
576,815,55,0.268298566764663,1
576,816,55,0.20602152641768,1
576,817,55,0.136918013123764,1
577,808,55,0.132545321154231,1
577,809,55,0.136425928497645,1
577,810,55,0.119570510837168,1
577,812,55,0.124359821266724,1
577,813,55,0.144341031510375,1
577,814,55,0.161592787865267,1
577,815,55,0.160840575792715,1
577,816,55,0.147623998165447,1
577,817,55,0.117722096173102,1
578,820,55,0.127624451339303,1
578,821,55,0.168099530640017,1
578,822,55,0.137971818992752,1
579,804,55,0.116250576595426,1
579,820,55,0.183778403919794,1
579,821,55,0.261494740733678,1
579,822,55,0.206161694693099,1
579,823,55,0.128545520136182,1
579,824,55,0.119926466653376,1
579,825,55,0.145233482519549,1
579,826,55,0.141102722736364,1
580,803,55,0.130271679140096,1
580,804,55,0.115917491455647,1
580,820,55,0.140755587793814,1
580,821,55,0.198277717940823,1
580,822,55,0.178212444417897,1
580,823,55,0.131943346578698,1
580,824,55,0.141649581572613,1
580,825,55,0.193315063800472,1
580,826,55,0.179026178845581,1
580,827,55,0.129138732722393,1
581,822,55,0.115371480553848,1
581,823,55,0.116425675059459,1
581,824,55,0.139449486095194,1
581,825,55,0.195941187454942,1
581,826,55,0.182761035678444,1
581,827,55,0.130876079750308,1
581,828,55,0.116419445096621,1
582,825,55,0.126477360903891,1
582,826,55,0.13034156307106,1
585,828,55,0.114256552743219,1
588,833,55,0.114911169915889,1
588,834,55,0.129574983220319,1
589,832,55,0.142674722546426,1
589,833,55,0.13951958200977,1
589,834,55,0.126627669062113,1
590,831,55,0.130660692623008,1
590,832,55,0.185214687110303,1
590,833,55,0.151971393423873,1
591,832,55,0.142690515325567,1
591,833,55,0.1475667037057,1
591,834,55,0.12542222424889,1
592,833,55,0.136265362687945,1
592,834,55,0.149063519994483,1
592,835,55,0.128137275028858,1
593,833,55,0.163593559862476,1
593,834,55,0.171162187437229,1
593,835,55,0.138638224809658,1
594,832,55,0.122340936447501,1
594,833,55,0.201187687652605,1
594,834,55,0.176750016581829,1
594,835,55,0.122764833011558,1
595,833,55,0.125003945250568,1
607,824,55,0.120049452479304,1
607,825,55,0.132650559241035,1
607,826,55,0.125848452632686,1
607,827,55,0.133938559894509,1
607,828,55,0.164824454486082,1
607,829,55,0.17635656321992,1
608,824,55,0.114774782014896,1
608,825,55,0.146351966944123,1
608,826,55,0.175400069605997,1
608,827,55,0.179263600491727,1
563,814,56,0.129562546848378,1
563,815,56,0.164532070199928,5
563,816,56,0.148434729491952,1
564,813,56,0.121208955732923,1
564,814,56,0.229647995087256,5
564,815,56,0.340505296387008,5
564,816,56,0.259428866213656,5
564,817,56,0.179746510938166,1
565,813,56,0.139577053122528,1
565,814,56,0.283984294181248,5
565,815,56,0.445483703265151,5
565,816,56,0.343950100753456,5
565,817,56,0.221571395892304,5
565,818,56,0.210619474529368,1
566,811,56,0.185027540910953,1
566,812,56,0.14626328713284,1
566,813,56,0.16809213476731,3
566,814,56,0.221270002302613,3
566,815,56,0.285685156474055,5
566,816,56,0.245080449194217,5
566,817,56,0.186977955023296,1
567,810,56,0.223833001947988,1
567,811,56,0.244396754936015,3
567,812,56,0.269569196538769,3
567,813,56,0.290613563484099,3
567,814,56,0.278698906767534,3
567,815,56,0.241580175782464,3
567,816,56,0.199660816798298,1
568,809,56,0.149056748295746,1
568,810,56,0.262562478636763,3
568,811,56,0.382733821693329,3
568,812,56,0.432854143591858,3
568,813,56,0.431860882598011,3
568,814,56,0.415148141685701,3
568,815,56,0.351927821369983,3
568,816,56,0.254371314076051,3
568,817,56,0.161743637759388,1
569,809,56,0.151599633051656,1
569,810,56,0.27951021516054,3
569,811,56,0.396223516651737,3
569,812,56,0.395918684216774,3
569,813,56,0.356551160407717,3
569,814,56,0.370520739157651,3
569,815,56,0.377414281364247,3
569,816,56,0.297617384276733,3
569,817,56,0.175730434289414,1
570,810,56,0.175559646158838,1
570,811,56,0.219664721065367,3
570,812,56,0.220540425369144,3
570,813,56,0.219412837426093,3
570,814,56,0.264670325912085,3
570,815,56,0.331271996832871,3
570,816,56,0.308518924201067,3
570,817,56,0.188177264088619,3
571,812,56,0.14804750609288,1
571,813,56,0.166233862865257,1
571,814,56,0.208434535880252,1
571,815,56,0.275375616118593,3
571,816,56,0.291206269665013,3
571,817,56,0.199029270508802,1
572,815,56,0.212409699691766,1
572,816,56,0.237293914242548,1
572,817,56,0.186787947045175,1
573,812,56,0.142974443820951,1
573,813,56,0.146754229402824,1
573,814,56,0.140387596019155,1
573,815,56,0.149536726302211,1
573,816,56,0.169472418953483,1
574,810,56,0.113911207884509,1
574,811,56,0.13765172373768,1
574,812,56,0.172961775209185,1
574,813,56,0.186995620324348,1
574,814,56,0.175498288679849,1
574,815,56,0.16670570305637,1
574,816,56,0.170191644020536,1
574,817,56,0.149555510405663,1
575,809,56,0.119565670544679,1
575,810,56,0.131927141609199,1
575,811,56,0.14862989573798,1
575,812,56,0.189435669474397,1
575,813,56,0.232631381790212,1
575,814,56,0.264820740062114,1
575,815,56,0.269264952947175,1
575,816,56,0.244491134751105,1
575,817,56,0.176838142880347,1
575,820,56,0.114425315252607,1
576,808,56,0.147822732802288,1
576,809,56,0.155715341998344,1
576,810,56,0.135357813734805,1
576,811,56,0.133141548618489,1
576,812,56,0.165155478674072,1
576,813,56,0.210164463481724,1
576,814,56,0.256479820855947,1
576,815,56,0.276177267480357,1
576,816,56,0.247161610088083,1
576,817,56,0.172550279686468,1
577,808,56,0.157096273912223,1
577,809,56,0.150026855968347,1
577,810,56,0.115057615261614,1
577,812,56,0.126397902379756,1
577,813,56,0.137945780339,1
577,814,56,0.14682593874823,1
577,815,56,0.156428796400386,1
577,816,56,0.149748992559658,1
577,817,56,0.123094008231371,1
577,821,56,0.116375764695552,1
578,820,56,0.121835014002224,1
578,821,56,0.163645213202754,1
578,822,56,0.139955302548665,1
579,820,56,0.156895972952022,1
579,821,56,0.223041031171201,1
579,822,56,0.181264478480743,1
579,823,56,0.123926550316242,1
579,824,56,0.123518552523133,1
579,825,56,0.160287604762301,1
579,826,56,0.159116654393601,1
579,827,56,0.123272357110797,1
580,804,56,0.125378249426137,1
580,820,56,0.11852806964519,1
580,821,56,0.162671478255004,1
580,822,56,0.146670378107162,1
580,823,56,0.11685653175213,1
580,824,56,0.137891088566942,1
580,825,56,0.201850183549544,1
580,826,56,0.192118581183317,1
580,827,56,0.132904185856679,1
581,824,56,0.116747972588729,1
581,825,56,0.163583066673651,1
581,826,56,0.157019959811676,1
581,827,56,0.116619628288148,1
581,829,56,0.124604203041484,1
588,834,56,0.115107089881429,1
589,832,56,0.130339184143852,1
589,833,56,0.125288945440883,1
590,831,56,0.11768115978213,1
590,832,56,0.167851533366974,1
590,833,56,0.134278381402423,1
591,832,56,0.130636232069484,1
591,833,56,0.128710148965124,1
592,833,56,0.129786095344764,1
592,834,56,0.125837241054951,1
593,833,56,0.145892622009288,1
593,834,56,0.141440012217793,1
594,833,56,0.1523556372755,1
594,834,56,0.139262257457772,1
607,828,56,0.132406566102897,1
607,829,56,0.168973974818985,1
607,830,56,0.167204382728216,1
608,826,56,0.135172598941702,1
608,827,56,0.139621263482629,1
608,828,56,0.153313626551579,1
608,829,56,0.202944301635534,1
609,826,56,0.119506220918204,1
609,827,56,0.113970068667616,1
563,814,57,0.159247542497533,1
563,815,57,0.194524924938958,5
563,816,57,0.156302018423166,1
564,813,57,0.130746958176481,1
564,814,57,0.228246971837647,5
564,815,57,0.337321137649156,5
564,816,57,0.26250950628734,5
564,817,57,0.183468530985598,1
565,813,57,0.141781965338701,1
565,814,57,0.255709354638974,5
565,815,57,0.405527288980206,5
565,816,57,0.342569757682946,5
565,817,57,0.23793285640475,5
565,818,57,0.207097225483106,1
566,811,57,0.196669410048664,1
566,812,57,0.148211440086648,1
566,813,57,0.167204936240982,1
566,814,57,0.228305832620754,3
566,815,57,0.291690675773608,5
566,816,57,0.259128320558416,5
566,817,57,0.199664090767426,1
567,810,57,0.244526677336823,1
567,811,57,0.241471498850389,3
567,812,57,0.239384308200431,3
567,813,57,0.265752737791911,3
567,814,57,0.287539942423367,3
567,815,57,0.267093887447819,3
567,816,57,0.203505186720819,1
568,809,57,0.17424127296442,1
568,810,57,0.27299004675699,3
568,811,57,0.328264255568197,3
568,812,57,0.358312438030124,3
568,813,57,0.386222365345183,3
568,814,57,0.392420036012718,3
568,815,57,0.343320485870209,3
568,816,57,0.23658518236432,3
568,817,57,0.147146116441374,1
569,810,57,0.251764810682617,3
569,811,57,0.310488817252037,3
569,812,57,0.313848215776329,3
569,813,57,0.328650560371614,3
569,814,57,0.359530401653359,3
569,815,57,0.351414114415376,3
569,816,57,0.274187754168352,3
569,817,57,0.174380652189725,1
570,811,57,0.1838999176373,3
570,812,57,0.186295073368942,3
570,813,57,0.210327879293328,3
570,814,57,0.259062275886214,3
570,815,57,0.283439072329562,3
570,816,57,0.259131900726096,3
570,817,57,0.180041297705263,1
571,814,57,0.204437467095433,1
571,815,57,0.246238986744712,1
571,816,57,0.250247926611839,1
571,817,57,0.181909603498314,1
572,815,57,0.214387553905077,1
572,816,57,0.230745552018517,1
573,813,57,0.164232596239618,1
573,814,57,0.154518506075168,1
573,815,57,0.157977843095948,1
573,816,57,0.166915001543241,1
574,811,57,0.14395950811511,1
574,812,57,0.199772979683114,1
574,813,57,0.216642800452382,1
574,814,57,0.181528645392682,1
574,815,57,0.164613401245974,1
574,816,57,0.164571746466092,1
574,817,57,0.141463083100968,1
574,820,57,0.118651502992078,1
575,809,57,0.118654388324583,1
575,810,57,0.130252129540265,1
575,811,57,0.166255073003388,1
575,812,57,0.219593494571524,1
575,813,57,0.228889093754039,1
575,814,57,0.221920438687367,1
575,815,57,0.250395184561413,1
575,816,57,0.262122683301759,1
575,817,57,0.206293195194134,1
575,818,57,0.12323783911254,1
575,820,57,0.129502343502391,1
575,821,57,0.143138613352066,1
576,808,57,0.159796627161715,1
576,809,57,0.158476087023701,1
576,810,57,0.133024639656123,1
576,811,57,0.144806005787812,1
576,812,57,0.172539963150653,1
576,813,57,0.180480539527501,1
576,814,57,0.205335665215882,1
576,815,57,0.267148367236265,1
576,816,57,0.284319817132572,1
576,817,57,0.221260580808718,1
576,818,57,0.132702789647813,1
576,820,57,0.117034715755413,1
576,821,57,0.132621599924176,1
577,808,57,0.171857623232198,1
577,809,57,0.158113229963215,1
577,810,57,0.118079100130507,1
577,811,57,0.117161988361063,1
577,812,57,0.128461079997151,1
577,813,57,0.125692515131861,1
577,814,57,0.132206182704624,1
577,815,57,0.160046308526791,1
577,816,57,0.16670082743328,1
577,817,57,0.143456482779205,1
577,821,57,0.129014792970209,1
577,822,57,0.116319942344226,1
578,808,57,0.121765660030292,1
578,809,57,0.116293703483729,1
578,821,57,0.144984060245554,1
578,822,57,0.136018919961394,1
579,820,57,0.117742481930517,1
579,821,57,0.16417740983913,1
579,822,57,0.149269944925715,1
579,823,57,0.11721955368876,1
579,824,57,0.118075225541142,1
579,825,57,0.156052172181946,1
579,826,57,0.160882466109944,1
579,827,57,0.124311159250758,1
580,804,57,0.122702121192821,1
580,821,57,0.12272280137192,1
580,822,57,0.11531544621891,1
580,824,57,0.12475239136358,1
580,825,57,0.184913152198204,1
580,826,57,0.184731388027241,1
580,827,57,0.129482758571958,1
581,825,57,0.12605854016967,1
581,826,57,0.127281791606353,1
590,832,57,0.122939472177763,1
593,833,57,0.119302186691047,1
607,829,57,0.157531676475698,1
607,830,57,0.173018610371105,1
608,828,57,0.122623439941933,1
608,829,57,0.193105105809029,1
608,830,57,0.21516960855954,1
609,829,57,0.138887741298591,1
563,815,58,0.224466008569037,1
563,816,58,0.165824345856257,1
564,814,58,0.217047194524077,1
564,815,58,0.305177473622644,5
564,816,58,0.260375137506703,5
564,817,58,0.189419134752612,1
565,813,58,0.135836967360553,1
565,814,58,0.214926557570792,5
565,815,58,0.322863737499091,5
565,816,58,0.32241560414199,5
565,817,58,0.258676371496288,5
565,818,58,0.196045978020785,1
566,813,58,0.164490226990168,1
566,814,58,0.243647180881754,3
566,815,58,0.286842445676608,3
566,816,58,0.255500715656676,5
566,817,58,0.206236854660643,1
567,811,58,0.229726923652359,1
567,812,58,0.206818278602619,1
567,813,58,0.238325991791241,3
567,814,58,0.318088806624592,3
567,815,58,0.309715854339182,3
567,816,58,0.208179166288237,3
568,810,58,0.252748226215344,1
568,811,58,0.267937299581271,3
568,812,58,0.271489980052813,3
568,813,58,0.306684841984589,3
568,814,58,0.352749022331579,3
568,815,58,0.321128251216221,3
568,816,58,0.211550483002306,3
569,811,58,0.220572293572242,3
569,812,58,0.231237895735719,3
569,813,58,0.275205134186569,3
569,814,58,0.325665666229635,3
569,815,58,0.305760499218581,3
569,816,58,0.232685390503963,3
570,813,58,0.192579822193799,1
570,814,58,0.251096661889341,3
570,815,58,0.248738697504849,3
570,816,58,0.211522454057969,1
571,814,58,0.192626741233394,1
571,815,58,0.212197527649258,1
571,816,58,0.200788451848817,1
573,813,58,0.173278867363078,1
573,814,58,0.165449817920209,1
573,815,58,0.158887547215817,1
573,816,58,0.154889701157751,1
573,817,58,0.128883692882664,1
574,811,58,0.1407984320373,1
574,812,58,0.208033133132869,1
574,813,58,0.228694445690175,1
574,814,58,0.184965194175105,1
574,815,58,0.15921694619611,1
574,816,58,0.155368878337234,1
574,817,58,0.139742235464237,1
574,820,58,0.116461417851922,1
574,821,58,0.124259187935061,1
575,810,58,0.123249462880633,1
575,811,58,0.170591127138538,1
575,812,58,0.228878918540633,1
575,813,58,0.211937871277521,1
575,814,58,0.18170260150058,1
575,815,58,0.213335125929572,1
575,816,58,0.247625241802641,1
575,817,58,0.2208440330099,1
575,818,58,0.148678757960691,1
575,820,58,0.133042458056451,1
575,821,58,0.15177973668432,1
576,808,58,0.151285543998942,1
576,809,58,0.148059459613259,1
576,810,58,0.132278021595571,1
576,811,58,0.153724462569724,1
576,812,58,0.170756062166032,1
576,813,58,0.147987455846169,1
576,814,58,0.158039082806264,1
576,815,58,0.232447120923367,1
576,816,58,0.282302463306108,1
576,817,58,0.248246212465239,1
576,818,58,0.165154065449988,1
576,819,58,0.117143640001703,1
576,820,58,0.126441253028539,1
576,821,58,0.146933437993569,1
576,822,58,0.114767857216883,1
577,808,58,0.16140374559027,1
577,809,58,0.15814090560153,1
577,810,58,0.130367648832281,1
577,811,58,0.128098847110635,1
577,812,58,0.125641721502902,1
577,814,58,0.115453164905915,1
577,815,58,0.152424025544308,1
577,816,58,0.171452769862676,1
577,817,58,0.157054995992096,1
577,818,58,0.125875303890286,1
577,821,58,0.131666178005183,1
577,822,58,0.118518695258765,1
578,808,58,0.136212272569848,1
578,809,58,0.144666626562508,1
578,810,58,0.117908217784992,1
578,821,58,0.120176583762545,1
578,822,58,0.124866309001634,1
579,808,58,0.113985684793747,1
579,809,58,0.118483458871599,1
579,822,58,0.118772204105736,1
579,825,58,0.138672731031047,1
579,826,58,0.147887411357875,1
579,827,58,0.114830828126702,1
580,825,58,0.147550651835477,1
580,826,58,0.15654965061332,1
580,827,58,0.115775768633736,1
582,806,58,0.114784768798424,1
607,829,58,0.139412176979371,1
607,830,58,0.153734955758549,1
608,829,58,0.166512986398755,1
608,830,58,0.179681903043783,1
609,829,58,0.12269375961699,1
609,830,58,0.124041374773083,1
563,815,59,0.232850973259162,1
564,814,59,0.189084707049953,1
564,815,59,0.246636997754293,1
564,816,59,0.237904568369332,1
565,814,59,0.17935277493144,1
565,815,59,0.240211774455466,5
565,816,59,0.276016795885596,5
565,817,59,0.253467604381673,1
566,813,59,0.166346956122595,1
566,814,59,0.244962939611616,3
566,815,59,0.267913392540513,3
566,816,59,0.228342105372249,1
566,817,59,0.193645287161481,1
567,812,59,0.189322352456579,1
567,813,59,0.215353822318916,3
567,814,59,0.32367292605597,3
567,815,59,0.326590291640459,3
567,816,59,0.203979040756252,3
568,811,59,0.227124966129729,1
568,812,59,0.210040382407131,1
568,813,59,0.232826500928771,3
568,814,59,0.29706700415714,3
568,815,59,0.283174234136183,3
568,816,59,0.18501887313657,1
569,813,59,0.215840418924842,1
569,814,59,0.275303353260421,3
569,815,59,0.259345815744975,3
569,816,59,0.190598576242686,1
570,814,59,0.234726462941307,1
570,815,59,0.229520852027147,1
573,814,59,0.170998901171167,1
573,815,59,0.1510157477444,1
573,816,59,0.134672211624088,1
573,817,59,0.116742625890944,1
574,811,59,0.135803650602768,1
574,812,59,0.198561469783196,1
574,813,59,0.223024991077845,1
574,814,59,0.188425414460938,1
574,815,59,0.157434729303522,1
574,816,59,0.148391579049914,1
574,817,59,0.144842090109429,1
574,818,59,0.13202925882615,1
574,821,59,0.116345839675569,1
575,811,59,0.163855218301666,1
575,812,59,0.216875511351581,1
575,813,59,0.194976143835309,1
575,814,59,0.161498184289697,1
575,815,59,0.180849249691069,1
575,816,59,0.217633965163838,1
575,817,59,0.226973821813924,1
575,818,59,0.191326445530387,1
575,819,59,0.135495767959157,1
575,820,59,0.131849908912997,1
575,821,59,0.146415161614422,1
575,822,59,0.119261697821035,1
576,809,59,0.125620499587904,1
576,810,59,0.131956348240272,1
576,811,59,0.160284012817754,1
576,812,59,0.167039141502171,1
576,813,59,0.132970383628157,1
576,814,59,0.132139560965922,1
576,815,59,0.191193496474665,1
576,816,59,0.248563528379612,1
576,817,59,0.254143502353678,1
576,818,59,0.206669842966308,1
576,819,59,0.144140777657643,1
576,820,59,0.135145135286999,1
576,821,59,0.149517117818042,1
576,822,59,0.123200989294545,1
577,808,59,0.131875994674218,1
577,809,59,0.148182539654126,1
577,810,59,0.146419566162818,1
577,811,59,0.141287183809954,1
577,812,59,0.12287446386989,1
577,815,59,0.138791147432436,1
577,816,59,0.165492827039838,1
577,817,59,0.166493095269769,1
577,818,59,0.145867266413844,1
577,819,59,0.1162518131665,1
577,821,59,0.127493198152483,1
577,822,59,0.118607622384264,1
578,808,59,0.136383543551986,1
578,809,59,0.160671318654897,1
578,810,59,0.136608199073905,1
579,808,59,0.12131453534888,1
579,809,59,0.132954626179618,1
579,825,59,0.118530660556011,1
579,826,59,0.12257481325657,1
580,826,59,0.116555456137858,1
608,829,59,0.121838605946772,1
608,830,59,0.126419477600775,1
564,815,60,0.1866675403532,1
565,814,60,0.152405594746876,1
565,815,60,0.187228602091496,1
565,816,60,0.21565721797606,1
566,813,60,0.16929468247116,1
566,814,60,0.224692760373347,1
566,815,60,0.24432383257327,1
566,816,60,0.195759364399642,1
567,813,60,0.200626496368768,1
567,814,60,0.28889355200495,3
567,815,60,0.300214843036027,3
567,816,60,0.189140517624412,1
568,813,60,0.194342984114984,1
568,814,60,0.244631208811584,3
568,815,60,0.241685201885655,1
568,816,60,0.163580534647167,1
569,813,60,0.183723040866295,1
569,814,60,0.228588595206269,1
569,815,60,0.223612044362423,1
570,814,60,0.216119412912798,1
573,815,60,0.142961053522753,1
573,816,60,0.115470806653233,1
574,812,60,0.172201637304895,1
574,813,60,0.197740480805214,1
574,814,60,0.182101413337142,1
574,815,60,0.154056793989991,1
574,816,60,0.142923697299461,1
574,817,60,0.148695304459344,1
574,818,60,0.147709427561337,1
574,819,60,0.119360882598011,1
575,811,60,0.145533827968044,1
575,812,60,0.183207320067367,1
575,813,60,0.170995356334089,1
575,814,60,0.147432141219149,1
575,815,60,0.156537967960891,1
575,816,60,0.19097079591273,1
575,817,60,0.226490711160739,1
575,818,60,0.224305536974276,1
575,819,60,0.163631010300708,1
575,820,60,0.132562114967098,1
575,821,60,0.134213620408765,1
575,822,60,0.128859774065039,1
575,823,60,0.11769145276421,1
576,810,60,0.126805287775762,1
576,811,60,0.15387242713134,1
576,812,60,0.151897941102096,1
576,813,60,0.120080107665064,1
576,815,60,0.149928377803413,1
576,816,60,0.204702658594833,1
576,817,60,0.2420149070645,1
576,818,60,0.232795833966144,1
576,819,60,0.171784300455963,1
576,820,60,0.14144051862309,1
576,821,60,0.139113386077369,1
576,822,60,0.129632878300302,1
576,823,60,0.119331275553447,1
577,809,60,0.134577136973824,1
577,810,60,0.153903247193243,1
577,811,60,0.145191556871717,1
577,812,60,0.115552373236626,1
577,815,60,0.117846330346971,1
577,816,60,0.149717041918488,1
577,817,60,0.166436366099656,1
577,818,60,0.158199990145117,1
577,819,60,0.129737197791451,1
577,820,60,0.11679419679315,1
577,821,60,0.118444901407835,1
577,822,60,0.117158172656036,1
577,823,60,0.115481865131692,1
578,808,60,0.122657180666944,1
578,809,60,0.156960521962068,1
578,810,60,0.143596745269562,1
579,809,60,0.130760348474679,1
566,814,61,0.197880531311958,1
566,815,61,0.218793609739865,1
567,813,61,0.200563066161122,1
567,814,61,0.236780772577574,1
567,815,61,0.246758487918065,1
567,816,61,0.177891748542589,1
568,814,61,0.207621672940754,1
568,815,61,0.203858539849339,1
569,814,61,0.193270170382064,1
574,813,61,0.159767008340283,1
574,814,61,0.163818933773305,1
574,815,61,0.147679855847375,1
574,816,61,0.142218946002404,1
574,817,61,0.14759977314927,1
574,818,61,0.152398563957058,1
574,819,61,0.137868217890512,1
574,820,61,0.121126753198691,1
574,822,61,0.120618758024757,1
575,812,61,0.139937919892429,1
575,813,61,0.146943177462882,1
575,814,61,0.140689295807398,1
575,815,61,0.142692540946755,1
575,816,61,0.17365893042679,1
575,817,61,0.215875490435865,1
575,818,61,0.232492461862735,1
575,819,61,0.194988533099781,1
575,820,61,0.15144267096337,1
575,821,61,0.128915926168652,1
575,822,61,0.136251571976256,1
575,823,61,0.133638355768423,1
576,810,61,0.116517346195054,1
576,811,61,0.135349699473188,1
576,812,61,0.130860310524902,1
576,813,61,0.117503352638602,1
576,815,61,0.123391774545912,1
576,816,61,0.170084674734229,1
576,817,61,0.22184103904757,1
576,818,61,0.235967132364829,1
576,819,61,0.196177502075555,1
576,820,61,0.15344053407434,1
576,821,61,0.126860438845648,1
576,822,61,0.126601300656075,1
576,823,61,0.126110829460785,1
577,809,61,0.117904437410566,1
577,810,61,0.141067804324616,1
577,811,61,0.137061090285422,1
577,816,61,0.132580475103326,1
577,817,61,0.159318627668968,1
577,818,61,0.161380462723483,1
577,819,61,0.142662203736414,1
577,820,61,0.124410873986765,1
577,823,61,0.119175467598163,1
578,809,61,0.127216759744745,1
578,810,61,0.129609383449902,1
578,824,61,0.122939342632222,1
567,814,62,0.178612151296379,1
567,815,62,0.177842285699642,1
574,814,62,0.140129235102828,1
574,815,62,0.141985198738877,1
574,816,62,0.148717138771445,1
574,817,62,0.151178928018656,1
574,818,62,0.155167317252225,1
574,819,62,0.163791776317153,1
574,820,62,0.151311606206428,1
574,821,62,0.128370904523711,1
574,822,62,0.130595248571042,1
575,813,62,0.120952867751998,1
575,814,62,0.13066788828897,1
575,815,62,0.1324754254464,1
575,816,62,0.164562230757258,1
575,817,62,0.206154864110025,1
575,818,62,0.227920352198053,1
575,819,62,0.228927863201416,1
575,820,62,0.185305215889764,1
575,821,62,0.136372379081721,1
575,822,62,0.138850938588065,1
575,823,62,0.148959777569835,1
576,816,62,0.149773453113182,1
576,817,62,0.20613917732269,1
576,818,62,0.227889072838323,1
576,819,62,0.217174502460329,1
576,820,62,0.171126703735848,1
576,821,62,0.124927902017971,1
576,822,62,0.122408971410288,1
576,823,62,0.130109417461495,1
577,810,62,0.115134942172755,1
577,811,62,0.118539799405089,1
577,816,62,0.119205828362239,1
577,817,62,0.151649849614114,1
577,818,62,0.162311977601717,1
577,819,62,0.157717374120362,1
577,820,62,0.135109993114772,1
577,823,62,0.120506171172716,1
578,824,62,0.125233523503047,1
574,815,63,0.143634384137671,1
574,816,63,0.155843874728802,1
574,817,63,0.154670486548556,1
574,818,63,0.154496553994393,1
574,819,63,0.183616212902397,1
574,820,63,0.189461378375863,1
574,821,63,0.155107161013708,1
574,822,63,0.139006734766481,1
575,814,63,0.123251841807841,1
575,815,63,0.128252252584975,1
575,816,63,0.155315270036974,1
575,817,63,0.189113536821271,1
575,818,63,0.210838147402664,1
575,819,63,0.242945444462743,1
575,820,63,0.215161953595751,1
575,821,63,0.152131146629724,1
575,822,63,0.139707764573449,1
575,823,63,0.15341372992421,1
576,816,63,0.145794379381701,1
576,817,63,0.190821547672571,1
576,818,63,0.2117965488691,1
576,819,63,0.222802620268196,1
576,820,63,0.183353635867552,1
576,821,63,0.132614698679898,1
576,822,63,0.12663779716805,1
576,823,63,0.136979323495284,1
577,816,63,0.117907793817766,1
577,817,63,0.144100724531723,1
577,818,63,0.159085386810738,1
577,819,63,0.168595866715256,1
577,820,63,0.148035105051541,1
577,821,63,0.12246203797465,1
577,822,63,0.121666475253316,1
577,823,63,0.128943837344315,1
578,824,63,0.117715430466172,1
574,817,64,0.155439669086986,1
574,818,64,0.156316445085692,1
574,819,64,0.197934375149566,1
574,820,64,0.223074713011874,1
574,821,64,0.179866446555445,1
575,815,64,0.1248908991007,1
575,816,64,0.142933707636724,1
575,817,64,0.168222575350282,1
575,818,64,0.194944381624017,1
575,819,64,0.240946368334434,1
575,820,64,0.231723667960929,1
575,821,64,0.169392277371041,1
575,822,64,0.141698726440141,1
575,823,64,0.152915556657661,1
575,824,64,0.138824770388772,1
576,815,64,0.117848933034659,1
576,816,64,0.140084459453094,1
576,817,64,0.171035374129407,1
576,818,64,0.200586784772002,1
576,819,64,0.22571772469415,1
576,820,64,0.191916454808674,1
576,821,64,0.145161231438244,1
576,822,64,0.138188230707513,1
576,823,64,0.152441655514758,1
576,824,64,0.139229399997814,1
577,816,64,0.115908293722233,1
577,817,64,0.136252019497216,1
577,818,64,0.160642630205988,1
577,819,64,0.184301968112389,1
577,820,64,0.164949195065248,1
577,821,64,0.138389721131318,1
577,822,64,0.139422140209165,1
577,823,64,0.148570446111505,1
577,824,64,0.131589557706085,1
578,819,64,0.121494014807574,1
578,820,64,0.118096376794936,1
578,823,64,0.117611982463208,1
575,816,65,0.140134369817001,1
575,817,65,0.157323814766647,1
575,818,65,0.19427185183608,1
575,819,65,0.236394138021871,1
575,820,65,0.233872286751081,1
575,821,65,0.183837029165553,1
575,822,65,0.149034419355216,1
575,823,65,0.145382365676819,1
575,824,65,0.140267990154162,1
575,825,65,0.119086446257726,1
576,815,65,0.120369959924734,1
576,816,65,0.133106818636619,1
576,817,65,0.153203018213255,1
576,818,65,0.200147955140122,1
576,819,65,0.231348763165124,1
576,820,65,0.203252737791911,1
576,821,65,0.1670284481066,1
576,822,65,0.158755139895994,1
576,823,65,0.167085989880562,1
576,824,65,0.164625649188037,1
576,825,65,0.132671922478441,1
577,817,65,0.127054509843012,1
577,818,65,0.169603613255967,1
577,819,65,0.203572314864819,1
577,820,65,0.187425169784741,1
577,821,65,0.162119119621693,1
577,822,65,0.160714563311874,1
577,823,65,0.164135142662145,1
577,824,65,0.148115423286993,1
578,818,65,0.119718251638304,1
578,819,65,0.1388162792674,1
578,820,65,0.139228257641679,1
578,821,65,0.128291363561506,1
578,822,65,0.125236679703502,1
578,823,65,0.119695428069344,1
575,818,66,0.186695486859466,1
575,819,66,0.218290195767337,1
575,820,66,0.208859704345984,1
575,821,66,0.176246178642076,1
575,822,66,0.147179044562536,1
575,823,66,0.133041833882481,1
575,824,66,0.129837654470103,1
575,825,66,0.118967652996582,1
576,817,66,0.12297734658322,1
576,818,66,0.17799301782509,1
576,819,66,0.211040568198991,1
576,820,66,0.196151640074814,1
576,821,66,0.177332429780664,1
576,822,66,0.168236106970888,1
576,823,66,0.164243442734464,1
576,824,66,0.1660633927101,1
576,825,66,0.142678997549281,1
577,818,66,0.168191649296572,1
577,819,66,0.204395117480376,1
577,820,66,0.190297959926241,1
577,821,66,0.172953319418415,1
577,822,66,0.16872902775459,1
577,823,66,0.158828274242352,1
577,824,66,0.143122655696782,1
578,818,66,0.131582067618439,1
578,819,66,0.149867585614057,1
578,820,66,0.145540505451842,1
578,821,66,0.135108191254065,1
578,822,66,0.127752465887597,1
579,817,66,0.116184437708286,1
575,818,67,0.188568703606209,1
575,819,67,0.200841659735588,1
575,820,67,0.176317770218809,1
575,821,67,0.155961914270435,1
575,822,67,0.138859959668469,1
575,823,67,0.124438844046765,1
575,824,67,0.118563412024163,1
576,818,67,0.158885545148364,1
576,819,67,0.185591841287775,1
576,820,67,0.179277473641487,1
576,821,67,0.176343078706783,1
576,822,67,0.168012605581971,1
576,823,67,0.1522029030826,1
576,824,67,0.148260266978757,1
576,825,67,0.130946293433558,1
577,818,67,0.162159726260379,1
577,819,67,0.187857239494752,1
577,820,67,0.17374185134993,1
577,821,67,0.171955712760509,1
577,822,67,0.169681187481322,1
577,823,67,0.145886922005482,1
577,824,67,0.126220213004903,1
578,818,67,0.146431001501032,1
578,819,67,0.154922323080361,1
578,820,67,0.137155411216175,1
578,821,67,0.129556269778071,1
578,822,67,0.124488259782243,1
579,817,67,0.12381217338036,1
579,818,67,0.136524960175345,1
579,819,67,0.118986861067259,1
575,819,68,0.180374241522634,1
575,820,68,0.157063934634429,1
575,821,68,0.148470542945619,1
575,822,68,0.140074178247881,1
575,823,68,0.124784024029332,1
576,818,68,0.1368783368576,1
576,819,68,0.159570782176192,1
576,820,68,0.165258078742585,1
576,821,68,0.179771725211202,1
576,822,68,0.174603105437446,1
576,823,68,0.147172343525003,1
576,824,68,0.127658321609854,1
577,818,68,0.142888296036151,1
577,819,68,0.161162260924882,1
577,820,68,0.155298052256881,1
577,821,68,0.172149242021973,1
577,822,68,0.173376097180071,1
577,823,68,0.138265722494797,1
578,818,68,0.148401448064769,1
578,819,68,0.149965910679716,1
578,820,68,0.123141574998672,1
578,821,68,0.120914722478592,1
578,822,68,0.118059668299349,1
579,817,68,0.11809985097081,1
579,818,68,0.146624354109486,1
579,819,68,0.130135715206329,1
575,820,69,0.151261589850715,1
575,821,69,0.151366851491253,1
575,822,69,0.146870714397965,1
575,823,69,0.126979585412814,1
576,818,69,0.125432576115307,1
576,819,69,0.144782004532115,1
576,820,69,0.157546715535327,1
576,821,69,0.175198402529181,1
576,822,69,0.17563150860352,1
576,823,69,0.141125039900027,1
577,818,69,0.127660276569838,1
577,819,69,0.140678378651347,1
577,820,69,0.143727550935422,1
577,821,69,0.16092714754474,1
577,822,69,0.164798568931606,1
577,823,69,0.126873852697581,1
578,818,69,0.146831909619986,1
578,819,69,0.145881881506248,1
578,820,69,0.116992448578428,1
579,818,69,0.144633392242794,1
579,819,69,0.134600219633866,1
576,820,70,0.146040127273077,1
576,821,70,0.162722848950464,1
576,822,70,0.163873072032597,1
576,823,70,0.131264893026474,1
577,818,70,0.118618233341762,1
577,819,70,0.127717453260911,1
577,820,70,0.134116696790323,1
577,821,70,0.144379930503292,1
577,822,70,0.143631522358901,1
578,818,70,0.136695100578216,1
578,819,70,0.135405298064034,1
579,818,70,0.131786690688964,1
579,819,70,0.127446679526378,1
