x,y,z,signal,mito.p
350,35,45,0.2583845407229,2
350,36,45,0.262441812853706,1
350,37,45,0.15194057336197,1
350,40,45,0.14149377361733,1
351,34,45,0.193419630605836,1
351,35,45,0.264057504841706,1
351,36,45,0.26083617831044,1
351,40,45,0.18974739137677,1
351,41,45,0.153703817721227,1
351,42,45,0.145639160269786,1
352,42,45,0.171688307210043,1
352,43,45,0.240169660377757,1
353,43,45,0.220833198291921,1
353,44,45,0.213748965048896,1
354,43,45,0.179225196127238,1
354,44,45,0.183333815399771,1
368,48,45,0.194824469560472,1
348,33,46,0.162233720318055,1
348,34,46,0.196928595345707,1
348,35,46,0.172523334213929,1
348,36,46,0.145453227087775,1
348,37,46,0.136329228639683,1
348,41,46,0.130363903788458,1
349,33,46,0.165676440178978,1
349,34,46,0.193057279950646,1
349,35,46,0.214368169181389,2
349,36,46,0.194180027601209,1
349,37,46,0.130355648204433,1
349,40,46,0.1242391437068,1
349,41,46,0.132244021779479,1
349,42,46,0.133413794461443,1
350,26,46,0.197028887148216,1
350,27,46,0.19703678942622,1
350,33,46,0.188882616005912,1
350,34,46,0.249907245392607,2
350,35,46,0.338359904458515,2
350,36,46,0.321933200100848,2
350,37,46,0.178822003296015,1
350,39,46,0.118734918543648,1
350,40,46,0.158427260131592,1
350,41,46,0.147301335553289,1
350,42,46,0.122398148469177,1
351,33,46,0.146324043991593,1
351,34,46,0.202458105443099,1
351,35,46,0.290266687632631,2
351,36,46,0.291358732989964,1
351,37,46,0.166757144413035,1
351,39,46,0.129317234701096,1
351,40,46,0.189132132494846,1
351,41,46,0.169727282140202,1
351,42,46,0.138503473893229,1
351,43,46,0.159426621542736,1
352,35,46,0.145480690742478,1
352,36,46,0.145638948286174,1
352,40,46,0.132709843991367,1
352,41,46,0.133477660413181,1
352,42,46,0.151357547766032,1
352,43,46,0.206093647953444,1
352,44,46,0.217544460971838,1
352,45,46,0.267633291527024,1
353,42,46,0.139941994688539,1
353,43,46,0.207659924205966,1
353,44,46,0.225702980056205,1
353,45,46,0.185670440100591,1
353,46,46,0.191592979592667,1
354,40,46,0.136756422726603,1
354,41,46,0.143186686524663,1
354,42,46,0.131390375548284,1
354,43,46,0.162177285569625,1
354,44,46,0.184252057748482,1
354,45,46,0.121540804301628,1
355,40,46,0.135357648858661,1
355,41,46,0.135265765739453,1
355,44,46,0.118005306279576,1
355,48,46,0.1527360654221,1
355,49,46,0.175450769020018,1
356,48,46,0.133787392024969,1
356,49,46,0.136654470385795,1
367,48,46,0.124908587955487,1
367,49,46,0.122942840361831,1
368,47,46,0.156794232594826,1
368,48,46,0.193194621777896,1
368,49,46,0.161973922623909,1
369,46,46,0.162248806485153,1
369,47,46,0.200144657617259,1
369,48,46,0.174389425955914,1
347,33,47,0.180102207663292,1
347,34,47,0.238911302099448,1
347,35,47,0.213557214094404,1
347,36,47,0.188237302558463,1
347,37,47,0.212302671521123,1
347,38,47,0.200341590393393,1
347,39,47,0.149339357781984,1
347,40,47,0.128111024391494,1
347,41,47,0.16128380997299,1
348,32,47,0.118059267885858,1
348,33,47,0.172575352637095,1
348,34,47,0.20909488838733,1
348,35,47,0.18261019756119,1
348,36,47,0.154337707607329,1
348,37,47,0.149739394412753,1
348,38,47,0.143799660694319,1
348,39,47,0.132184336615656,1
348,40,47,0.136038375346287,1
348,41,47,0.157258771128171,1
348,42,47,0.195061820545414,1
349,26,47,0.160410131290402,1
349,27,47,0.173881348343909,1
349,28,47,0.134533645002632,1
349,32,47,0.134196909033969,1
349,33,47,0.21576631887536,1
349,34,47,0.254078800244356,1
349,35,47,0.241933552464719,2
349,36,47,0.203950705613364,1
349,37,47,0.164252569806675,1
349,38,47,0.145732468389946,1
349,39,47,0.135966666000881,1
349,40,47,0.149681699539515,1
349,41,47,0.152623431462589,1
349,42,47,0.142403171538647,1
349,43,47,0.145374804927969,1
350,24,47,0.120710393829751,1
350,25,47,0.129088798804752,1
350,26,47,0.168339943610475,1
350,27,47,0.178258350646899,1
350,28,47,0.12890734083234,1
350,32,47,0.128874353826841,1
350,33,47,0.223827254836712,1
350,34,47,0.299639990586043,2
350,35,47,0.355814258262744,2
350,36,47,0.320150370811157,2
350,37,47,0.209492852289442,1
350,38,47,0.146450186017975,1
350,39,47,0.130764529262595,1
350,40,47,0.159239345797844,1
350,41,47,0.156774376796443,1
350,42,47,0.12179556149654,1
350,43,47,0.1215806218902,1
351,23,47,0.130771194969525,1
351,24,47,0.12157350866231,1
351,26,47,0.116277628059771,1
351,27,47,0.114157509288651,1
351,33,47,0.134258466719703,1
351,34,47,0.191725587119235,1
351,35,47,0.271997680805063,2
351,36,47,0.272578492349935,1
351,37,47,0.169151275557215,1
351,40,47,0.160902215916521,1
351,41,47,0.162428839456613,1
351,42,47,0.123566731687537,1
351,43,47,0.127452697505603,1
351,44,47,0.138489070784437,1
351,45,47,0.177757845560611,1
352,35,47,0.122795405759246,1
352,36,47,0.129296095224169,1
352,40,47,0.126150399735143,1
352,41,47,0.132055815662065,1
352,42,47,0.121694315767774,1
352,43,47,0.147835557810852,1
352,44,47,0.17251903565734,1
352,45,47,0.205909528409007,1
352,46,47,0.294928725456537,1
353,42,47,0.118751759463985,1
353,43,47,0.164111706696082,1
353,44,47,0.196146505360642,1
353,45,47,0.163902043126323,1
353,46,47,0.173456815829014,1
353,47,47,0.174010929215563,1
354,43,47,0.137730463872905,1
354,44,47,0.163091888866319,1
354,45,47,0.119184312025557,1
354,48,47,0.126442407161541,1
354,49,47,0.154581582976793,1
355,48,47,0.137006716488783,1
355,49,47,0.192836769886041,1
355,50,47,0.157763515886711,1
356,49,47,0.132950127416283,1
368,47,47,0.126988041203585,1
368,48,47,0.155700255831245,1
368,49,47,0.135006533334941,1
369,46,47,0.144070269552709,1
369,47,47,0.175301497226124,1
369,48,47,0.158569324482656,1
370,46,47,0.14642492463747,1
370,47,47,0.140496802910262,1
346,33,48,0.153322718293187,1
346,34,48,0.18856945732572,1
346,35,48,0.182655373624415,1
346,36,48,0.179920031301971,1
346,37,48,0.234033158759332,1
346,38,48,0.264715784620127,1
346,39,48,0.180686304954161,1
346,40,48,0.125557387355677,1
346,41,48,0.151059015955111,1
347,33,48,0.162095660101895,1
347,34,48,0.207419723219121,1
347,35,48,0.198626007016375,1
347,36,48,0.178815266927881,1
347,37,48,0.195112908596058,1
347,38,48,0.221202850604879,1
347,39,48,0.184595577192749,1
347,40,48,0.153785490296427,1
347,41,48,0.207513019562413,1
347,42,48,0.312676464580647,3
348,32,48,0.119052846855124,1
348,33,48,0.172711198802189,1
348,34,48,0.212169074737696,1
348,35,48,0.186365852341825,1
348,36,48,0.161966597412406,1
348,37,48,0.161403097862565,1
348,38,48,0.169698864559242,1
348,39,48,0.163690825010072,1
348,40,48,0.159870468120114,1
348,41,48,0.185502466641317,1
348,42,48,0.240270069948939,1
348,43,48,0.226889358121158,1
349,24,48,0.126047340368802,1
349,25,48,0.131508780172805,1
349,26,48,0.143944480832348,1
349,27,48,0.155614649782345,1
349,28,48,0.132044710076137,1
349,32,48,0.141210080659294,1
349,33,48,0.247695643915769,1
349,34,48,0.309491363693407,1
349,35,48,0.253318862546811,1
349,36,48,0.208108034009332,1
349,37,48,0.211372204784084,1
349,38,48,0.199486071640286,1
349,39,48,0.166778130790686,1
349,40,48,0.162972671637949,1
349,41,48,0.16124492275694,1
349,42,48,0.147840139012258,1
349,43,48,0.134464891650936,1
350,23,48,0.158536078386075,1
350,24,48,0.158724567148306,1
350,25,48,0.135748864615771,1
350,26,48,0.13514553570049,1
350,27,48,0.144431100992008,1
350,28,48,0.124121622347331,1
350,32,48,0.124860856312043,1
350,33,48,0.227959781150003,1
350,34,48,0.312134681574234,1
350,35,48,0.310367656840551,2
350,36,48,0.276511000347842,1
350,37,48,0.242766553847418,1
350,38,48,0.194056747353597,1
350,39,48,0.145545239752524,1
350,40,48,0.149144497734508,1
350,41,48,0.149564413717394,1
350,42,48,0.117190594371901,1
351,22,48,0.12480117114822,1
351,23,48,0.148530840506545,1
351,24,48,0.134104331079586,1
351,33,48,0.11837247367352,1
351,34,48,0.169765980926374,1
351,35,48,0.21724869672475,1
351,36,48,0.216647793844147,1
351,37,48,0.160152500539852,1
351,40,48,0.131326698026423,1
351,41,48,0.138465634818374,1
351,45,48,0.124451091988828,1
351,46,48,0.186821322687296,1
352,40,48,0.12463138405137,1
352,41,48,0.122366939770651,1
352,44,48,0.123704061737919,1
352,45,48,0.145472435158453,1
352,46,48,0.213181390702945,1
352,47,48,0.234440968122564,1
353,43,48,0.120912696857404,1
353,44,48,0.146162842231055,1
353,45,48,0.134998265974049,1
353,46,48,0.14679080835287,1
353,47,48,0.164504453445949,1
353,48,48,0.13698059539696,1
353,49,48,0.114948914775804,1
354,44,48,0.127837895283487,1
354,48,48,0.128854780673275,1
354,49,48,0.161699026985797,1
354,50,48,0.146007116713843,1
355,19,48,0.116678924815348,1
355,48,48,0.118817085747277,1
355,49,48,0.179236878779668,1
355,50,48,0.170803299181046,1
369,46,48,0.118505151861291,1
369,47,48,0.13286721827001,1
369,48,48,0.122051885014812,1
370,46,48,0.117886359919156,1
370,47,48,0.113875323769638,1
345,34,49,0.139039462680897,1
345,35,49,0.141885012928174,1
345,36,49,0.148612242213795,1
345,37,49,0.179914272413828,1
345,38,49,0.202404921110063,1
345,39,49,0.149901773860028,1
346,33,49,0.145457584528701,1
346,34,49,0.169046602760045,1
346,35,49,0.165351575292622,1
346,36,49,0.16389757969359,1
346,37,49,0.205392335501659,1
346,38,49,0.251955360396637,1
346,39,49,0.188738596694865,1
346,40,49,0.136009639789908,1
346,41,49,0.161087795792512,1
346,42,49,0.207709057296627,3
347,33,49,0.141366088821322,1
347,34,49,0.170103835697437,1
347,35,49,0.175510560175647,1
347,36,49,0.166903766411771,1
347,37,49,0.174103236301996,1
347,38,49,0.216968030421627,1
347,39,49,0.210576441856004,1
347,40,49,0.184430583280918,1
347,41,49,0.243030850304898,3
347,42,49,0.351493867361194,3
347,43,49,0.289527288791776,3
348,26,49,0.114064731127523,1
348,27,49,0.118265374841672,1
348,32,49,0.120608618141953,1
348,33,49,0.166021855698892,1
348,34,49,0.207333351673841,1
348,35,49,0.189441640346153,1
348,36,49,0.173847654726368,1
348,37,49,0.173422144731482,1
348,38,49,0.184574767468109,1
348,39,49,0.190957841358625,1
348,40,49,0.186011297972834,1
348,41,49,0.211910784482573,1
348,42,49,0.27255618696314,3
348,43,49,0.235446194413657,1
348,44,49,0.136266257729865,1
349,23,49,0.139097393091482,1
349,24,49,0.172121766590403,1
349,25,49,0.154811761849507,1
349,26,49,0.14241116803159,1
349,27,49,0.148044974066396,1
349,28,49,0.12863601358504,1
349,32,49,0.137699855794614,1
349,33,49,0.238557124590212,1
349,34,49,0.312377685455512,1
349,35,49,0.243247097143516,1
349,36,49,0.209918821582155,1
349,37,49,0.241277439629894,1
349,38,49,0.230594478363916,1
349,39,49,0.185740630230107,1
349,40,49,0.166196047344137,1
349,41,49,0.16050111936769,1
349,42,49,0.153266377759697,1
349,43,49,0.131520062411744,1
350,22,49,0.133936298735975,1
350,23,49,0.209131302461233,1
350,24,49,0.231725787797055,1
350,25,49,0.165449170192504,1
350,26,49,0.124769114515243,1
350,27,49,0.126793628677068,1
350,28,49,0.116811167259027,1
350,32,49,0.115405233055726,1
350,33,49,0.20060397899836,1
350,34,49,0.273062757136122,1
350,35,49,0.236766663890466,1
350,36,49,0.220467503006399,1
350,37,49,0.246899904541424,1
350,38,49,0.218759927899192,1
350,39,49,0.154536112491883,1
350,40,49,0.133531574911994,1
350,41,49,0.13237271938608,1
351,22,49,0.126528507838871,1
351,23,49,0.172113734766858,1
351,24,49,0.163163209575102,1
351,25,49,0.116190703001726,1
351,34,49,0.139086381720493,1
351,35,49,0.153525869255291,1
351,36,49,0.154408969431775,1
351,37,49,0.140439378904974,1
351,38,49,0.115490827327759,1
351,41,49,0.117500926603925,1
351,46,49,0.13834393267099,1
351,47,49,0.161936955037239,1
352,40,49,0.128721690295145,1
352,41,49,0.117710978810307,1
352,46,49,0.147295364681533,1
352,47,49,0.175358768132136,1
352,48,49,0.13908241291619,1
353,40,49,0.126181443557526,1
353,46,49,0.120707991348807,1
353,47,49,0.147176371213643,1
353,48,49,0.141594689593809,1
353,49,49,0.122668439352148,1
354,47,49,0.120294811734056,1
354,48,49,0.145445560347118,1
354,49,49,0.1633125520302,1
354,50,49,0.148964123233894,1
355,18,49,0.120926993974389,1
355,19,49,0.148897701701936,1
355,48,49,0.11451453679979,1
355,49,49,0.156203881787386,1
355,50,49,0.160303845062402,1
356,19,49,0.128658059880754,1
367,54,49,0.1488663163504,1
370,37,49,0.149985719370629,1
345,34,50,0.131851675443102,1
345,35,50,0.126435081950038,1
345,36,50,0.138238706361054,1
345,37,50,0.166623606513946,1
345,38,50,0.187177419825913,1
345,39,50,0.14496273233875,1
346,33,50,0.137735469041536,1
346,34,50,0.14828857856791,1
346,35,50,0.144205138237811,1
346,36,50,0.148444598506806,1
346,37,50,0.176987355789904,1
346,38,50,0.211824224507416,1
346,39,50,0.178832260947493,1
346,40,50,0.153844150872788,1
346,41,50,0.165229119425726,1
346,42,50,0.190575870442399,1
347,33,50,0.131427590449168,1
347,34,50,0.155171792461825,1
347,35,50,0.167025433228554,1
347,36,50,0.164090849863972,1
347,37,50,0.16719241743097,1
347,38,50,0.200511035961088,1
347,39,50,0.215668123355243,1
347,40,50,0.218218097785308,1
347,41,50,0.258817458367361,1
347,42,50,0.336412646546627,3
347,43,50,0.256485073338793,1
348,24,50,0.114782224995073,1
348,26,50,0.11531947390755,1
348,27,50,0.127385887337022,1
348,28,50,0.130153510052922,1
348,29,50,0.118710328444583,1
348,32,50,0.123689222885035,1
348,33,50,0.157668876980539,1
348,34,50,0.202385088865415,1
348,35,50,0.20506484437388,1
348,36,50,0.19882284557757,1
348,37,50,0.196805574189177,1
348,38,50,0.202177274263833,1
348,39,50,0.21347574172595,1
348,40,50,0.218695508434687,1
348,41,50,0.238214394196058,1
348,42,50,0.29541918487496,1
348,43,50,0.236122351476744,1
348,44,50,0.127016494115146,1
349,23,50,0.155187620571568,1
349,24,50,0.202404638465246,1
349,25,50,0.167674515273561,1
349,26,50,0.141106703317534,1
349,27,50,0.145248651124719,1
349,28,50,0.136316050325098,1
349,29,50,0.115208111849714,1
349,32,50,0.131404260474911,1
349,33,50,0.199792199530659,1
349,34,50,0.264996921997945,1
349,35,50,0.227940537748723,1
349,36,50,0.217840154557723,1
349,37,50,0.252175564262691,1
349,38,50,0.239663891031755,1
349,39,50,0.196867143651779,1
349,40,50,0.168311396483974,1
349,41,50,0.158260464359054,1
349,42,50,0.162507956451594,1
349,43,50,0.134091423632951,1
350,22,50,0.135468162982046,1
350,23,50,0.226217723375141,1
350,24,50,0.275343583039351,1
350,25,50,0.187246561814233,1
350,26,50,0.126395170146527,1
350,27,50,0.122714086490068,1
350,28,50,0.117303087009004,1
350,33,50,0.159663419014911,1
350,34,50,0.207583209691928,1
350,35,50,0.177593028301791,1
350,36,50,0.179746522715033,1
350,37,50,0.22606217451094,1
350,38,50,0.218462302907058,1
350,39,50,0.161844907041888,1
350,40,50,0.123139384501341,1
350,41,50,0.114254338692153,1
350,47,50,0.144430453264303,1
351,22,50,0.124021095007475,1
351,23,50,0.175494025453862,1
351,24,50,0.181110307510024,1
351,25,50,0.125978822554453,1
351,37,50,0.124712338237661,1
351,38,50,0.122662068066902,1
351,46,50,0.118553448794369,1
351,47,50,0.154084693388787,1
351,48,50,0.123458455168952,1
352,40,50,0.125337042167215,1
352,41,50,0.117127694123287,1
352,47,50,0.13335231921378,1
352,48,50,0.121322037213393,1
353,40,50,0.130653991585475,1
353,47,50,0.125617190288173,1
353,48,50,0.141805907710061,1
353,49,50,0.124401746914555,1
354,19,50,0.119222692836311,1
354,47,50,0.116157692442492,1
354,48,50,0.148123125358252,1
354,49,50,0.147027488056372,1
354,50,50,0.130625008714882,1
355,18,50,0.129859830311358,1
355,19,50,0.163612226197255,1
355,20,50,0.117204173099977,1
355,49,50,0.124549687922436,1
355,50,50,0.129401663063259,1
356,18,50,0.122970998851708,1
356,19,50,0.143269854762019,1
366,55,50,0.192807575031835,1
367,54,50,0.124485539325881,1
367,55,50,0.235770364464838,1
368,54,50,0.149131366527392,1
370,37,50,0.11664544318142,1
371,36,50,0.113959964115414,1
371,37,50,0.136187105404282,1
345,35,51,0.123428518372102,1
345,36,51,0.136853134361432,1
345,37,51,0.155938278097627,1
345,38,51,0.16295293360824,1
345,39,51,0.130420197214479,1
346,32,51,0.120557694967453,1
346,33,51,0.141860175514894,1
346,34,51,0.142175877998438,1
346,35,51,0.139394111264828,1
346,36,51,0.14835856849068,1
346,37,51,0.164097868876924,1
346,38,51,0.176797877770814,1
346,39,51,0.160178951383961,1
346,40,51,0.166537246745533,1
346,41,51,0.159778961860662,1
346,42,51,0.159598634467518,1
347,28,51,0.126767766676327,1
347,29,51,0.123737625809919,1
347,32,51,0.11795530170073,1
347,33,51,0.137565022440114,1
347,34,51,0.163220433373645,1
347,35,51,0.180153696127427,1
347,36,51,0.179913294933837,1
347,37,51,0.186255196896032,1
347,38,51,0.207143956092824,1
347,39,51,0.213790419622032,1
347,40,51,0.239432616910376,1
347,41,51,0.248340450957921,1
347,42,51,0.279637876402813,1
347,43,51,0.212360354617493,1
348,23,51,0.127758083453332,1
348,24,51,0.131847306225309,1
348,25,51,0.125825935262277,1
348,26,51,0.12562664711267,1
348,27,51,0.140628256303827,1
348,28,51,0.167090347321488,1
348,29,51,0.156603529781531,1
348,30,51,0.121991516792682,1
348,32,51,0.134089998631999,1
348,33,51,0.155165338738507,1
348,34,51,0.204450798509294,1
348,35,51,0.242342869266974,1
348,36,51,0.244781057671979,1
348,37,51,0.243625158139775,1
348,38,51,0.250441679633783,1
348,39,51,0.243901231464624,1
348,40,51,0.247610238073614,1
348,41,51,0.252495471087885,1
348,42,51,0.295856247976734,1
348,43,51,0.230289740143893,1
348,44,51,0.120414064293028,1
349,22,51,0.125642416338076,1
349,23,51,0.169955541383535,1
349,24,51,0.220677979180006,1
349,25,51,0.185672689482259,1
349,26,51,0.151907880778155,1
349,27,51,0.148122783829099,1
349,28,51,0.15627814671301,1
349,29,51,0.14233150930071,1
349,30,51,0.11739014161259,1
349,32,51,0.135968915382548,1
349,33,51,0.16501671184587,1
349,34,51,0.216394025906093,1
349,35,51,0.239555025669802,1
349,36,51,0.248515737851832,1
349,37,51,0.26091350522158,1
349,38,51,0.252455335523893,1
349,39,51,0.218945884634938,1
349,40,51,0.186327907275165,1
349,41,51,0.168993218220265,1
349,42,51,0.181010769427026,1
349,43,51,0.146181744103181,1
350,21,51,0.117263716941391,1
350,22,51,0.139485252441392,1
350,23,51,0.219631840051675,1
350,24,51,0.286021103392605,1
350,25,51,0.213277348618263,1
350,26,51,0.14757699668778,1
350,27,51,0.129464327774526,1
350,28,51,0.127549185379952,1
350,33,51,0.128261049904899,1
350,34,51,0.158661384254875,1
350,35,51,0.15977785483513,1
350,36,51,0.171754234113571,1
350,37,51,0.201679960708602,1
350,38,51,0.207213722255114,1
350,39,51,0.173263086360805,1
350,40,51,0.132114558676499,1
350,46,51,0.120282257593441,1
350,47,51,0.176286702842691,1
351,22,51,0.121372265552719,1
351,23,51,0.165618368445985,1
351,24,51,0.190166683185686,1
351,25,51,0.149279331089008,1
351,26,51,0.11705697403474,1
351,37,51,0.127850449424102,1
351,38,51,0.140902574875438,1
351,39,51,0.129760186236554,1
351,46,51,0.114261310597636,1
351,47,51,0.159333325199444,1
351,48,51,0.129577656569212,1
352,40,51,0.121767874081357,1
352,41,51,0.123097199762428,1
352,47,51,0.118383979672938,1
352,48,51,0.114922628807838,1
353,40,51,0.121144736475163,1
353,41,51,0.121448614983869,1
353,47,51,0.117041122371262,1
353,48,51,0.139343588503818,1
353,49,51,0.123193840736052,1
354,19,51,0.120065233481577,1
354,48,51,0.140531980413091,1
354,49,51,0.127553507490276,1
355,18,51,0.12453123357127,1
355,19,51,0.158682912368424,1
355,20,51,0.118053073253622,1
356,18,51,0.124703800008819,1
356,19,51,0.142422709361611,1
366,55,51,0.160039595712391,1
368,54,51,0.128560794733159,1
374,38,51,0.140658640621638,1
375,38,51,0.188011080713184,1
345,36,52,0.126857459298204,1
346,32,52,0.119755407654851,1
346,33,52,0.134988267413653,1
346,34,52,0.129797836881531,1
346,35,52,0.129851221421312,1
346,36,52,0.140551376913647,1
346,37,52,0.147851904102759,1
346,38,52,0.147958013677748,1
346,39,52,0.142244666680736,1
346,40,52,0.164512885682985,1
347,27,52,0.115514781475986,1
347,28,52,0.14407437967942,1
347,29,52,0.145634331754165,1
347,32,52,0.118721339815572,1
347,33,52,0.137335455964503,1
347,34,52,0.159212753631326,1
347,35,52,0.177292835952571,1
347,36,52,0.17899020051577,1
347,37,52,0.191040467860081,1
347,38,52,0.213412429286978,1
347,39,52,0.206665768170199,1
347,40,52,0.233443137704178,1
347,41,52,0.223537308362103,1
347,42,52,0.218525615346031,1
348,23,52,0.154199282308281,1
348,24,52,0.149626524915894,1
348,25,52,0.140120637989649,1
348,26,52,0.131713415020198,1
348,27,52,0.145260439768955,1
348,28,52,0.195709324490194,1
348,29,52,0.196333027386022,1
348,30,52,0.136813222557921,1
348,31,52,0.119100955358324,1
348,32,52,0.147317811390737,1
348,33,52,0.161311367842632,1
348,34,52,0.203651620289677,1
348,35,52,0.262980816519421,1
348,36,52,0.265952897429703,1
348,37,52,0.267031046083542,1
348,38,52,0.297797358363856,1
348,39,52,0.27279591687529,1
348,40,52,0.259217212353312,1
348,41,52,0.250271810098862,1
348,42,52,0.266072950815656,1
348,43,52,0.207423703800291,1
349,22,52,0.143318811199669,1
349,23,52,0.185712035996136,1
349,24,52,0.221509190478864,1
349,25,52,0.198550752833891,1
349,26,52,0.159000605142553,1
349,27,52,0.144827769438709,1
349,28,52,0.170420291900492,1
349,29,52,0.17110333843099,1
349,30,52,0.130166429276425,1
349,31,52,0.122024338922038,1
349,32,52,0.152237680171939,1
349,33,52,0.15936806695818,1
349,34,52,0.195880725017873,1
349,35,52,0.26069038069242,1
349,36,52,0.268172742713699,1
349,37,52,0.252561657082495,1
349,38,52,0.266467334550088,1
349,39,52,0.248328838966696,1
349,40,52,0.211845729067231,1
349,41,52,0.185523818101855,1
349,42,52,0.189646239862944,1
349,43,52,0.151955247338711,1
350,21,52,0.117718916418913,1
350,22,52,0.142660590305584,1
350,23,52,0.199565706817431,1
350,24,52,0.261818039296674,1
350,25,52,0.233759393700488,1
350,26,52,0.171368906790146,1
350,27,52,0.133014311343441,1
350,28,52,0.133765498828531,1
350,29,52,0.129249588374932,1
350,33,52,0.116687627920333,1
350,34,52,0.135820656399248,1
350,35,52,0.159655175207753,1
350,36,52,0.169152618120095,1
350,37,52,0.177928845674799,1
350,38,52,0.19544884373774,1
350,39,52,0.182312042610025,1
350,40,52,0.14525526972418,1
350,41,52,0.118039329649404,1
351,22,52,0.11950749281988,1
351,23,52,0.152716963343228,1
351,24,52,0.191663440590132,1
351,25,52,0.179572696152676,1
351,26,52,0.142429610605889,1
351,37,52,0.134103400707064,1
351,38,52,0.163064342773545,1
351,39,52,0.150932697275719,1
351,40,52,0.119141456005204,1
351,47,52,0.152696495147742,1
352,38,52,0.12650582559232,1
352,39,52,0.123436844617331,1
352,40,52,0.116314348332226,1
352,41,52,0.119223317010281,1
353,41,52,0.124004725161833,1
353,48,52,0.125075901910189,1
353,49,52,0.121219778674034,1
354,19,52,0.117854338616781,1
354,48,52,0.121264978290994,1
354,49,52,0.11414927725836,1
355,19,52,0.144623440789868,1
355,20,52,0.121683810802082,1
356,18,52,0.114648333789962,1
356,19,52,0.130971872789482,1
361,19,52,0.148351785015076,1
362,19,52,0.133737175462511,1
365,56,52,0.132622377197422,1
366,55,52,0.121341257060939,1
366,56,52,0.196167444630823,1
367,55,52,0.140508933083651,1
373,35,52,0.116703891774169,1
373,36,52,0.139708082548868,1
373,37,52,0.144221095893095,1
373,38,52,0.124673957426907,1
374,37,52,0.12243138278889,1
374,38,52,0.142867439204042,1
374,39,52,0.145122332445326,1
375,38,52,0.170666428428491,1
375,39,52,0.202311130138341,1
376,38,52,0.136263596157839,1
378,31,52,0.125612903508451,1
378,32,52,0.123870445320099,1
379,30,52,0.121906134504262,1
379,31,52,0.1716366774235,1
379,32,52,0.146546885875937,1
346,28,53,0.122546018815854,1
346,29,53,0.123796887006516,1
346,32,53,0.1170663719749,1
346,33,53,0.125089563076336,1
346,34,53,0.120794881076251,1
346,35,53,0.12583912535373,1
346,36,53,0.136872613300059,1
346,37,53,0.141163326495841,1
346,38,53,0.138388672990122,1
347,25,53,0.123317014991858,1
347,26,53,0.119206958941506,1
347,27,53,0.122874346101216,1
347,28,53,0.154061328083928,1
347,29,53,0.164690045098807,1
347,30,53,0.122012385401659,1
347,32,53,0.117355293862047,1
347,33,53,0.13682065376123,1
347,34,53,0.152433470591937,1
347,35,53,0.174781572085546,1
347,36,53,0.187168198538764,1
347,37,53,0.202784795743897,1
347,38,53,0.222746750809401,1
347,39,53,0.200071900130657,1
347,40,53,0.202171527152557,1
347,41,53,0.186782529686185,1
348,23,53,0.190146509411884,1
348,24,53,0.173979461425954,1
348,25,53,0.158884414569097,1
348,26,53,0.144850145486709,1
348,27,53,0.151413735200246,1
348,28,53,0.207192264802769,1
348,29,53,0.224806312928513,1
348,30,53,0.15253567024696,1
348,31,53,0.122191499777464,1
348,32,53,0.151888814029886,1
348,33,53,0.176540871194235,1
348,34,53,0.203906613021937,1
348,35,53,0.262844675932643,1
348,36,53,0.272746666015955,1
348,37,53,0.276511330100128,1
348,38,53,0.322388470239574,1
348,39,53,0.287244178176278,1
348,40,53,0.249890781332026,1
348,41,53,0.227422167154637,1
348,42,53,0.211089183107488,1
349,22,53,0.173905349599605,1
349,23,53,0.212470892294612,1
349,24,53,0.224350901467379,1
349,25,53,0.208048207523101,1
349,26,53,0.173092498436974,1
349,27,53,0.151784741852952,1
349,28,53,0.183000129639756,1
349,29,53,0.200358973049628,1
349,30,53,0.148514588429576,1
349,31,53,0.128622611509975,1
349,32,53,0.160193024740466,1
349,33,53,0.174359206514247,1
349,34,53,0.196785741944528,1
349,35,53,0.266218677772472,1
349,36,53,0.27105009050287,1
349,37,53,0.240931270390468,1
349,38,53,0.274373404705546,1
349,39,53,0.274142578105127,1
349,40,53,0.242081752563683,1
349,41,53,0.205924155278279,1
349,42,53,0.185009828502431,1
349,43,53,0.144752444595021,1
350,21,53,0.117313050238797,1
350,22,53,0.148884240742534,1
350,23,53,0.189294205743569,1
350,24,53,0.238078983775057,1
350,25,53,0.24250425945739,1
350,26,53,0.197309105930378,1
350,27,53,0.145535759374292,1
350,28,53,0.145723623962552,1
350,29,53,0.152171564838533,1
350,30,53,0.1213909672181,1
350,33,53,0.118299150897284,1
350,34,53,0.132817555220318,1
350,35,53,0.165570966554827,1
350,36,53,0.174150873730501,1
350,37,53,0.16736036733651,1
350,38,53,0.188583448244154,1
350,39,53,0.188900493290577,1
350,40,53,0.166209131443784,1
350,41,53,0.136172089898387,1
350,42,53,0.118426765032088,1
351,22,53,0.12371488467903,1
351,23,53,0.147443270358812,1
351,24,53,0.192504085159753,1
351,25,53,0.203789503852826,1
351,26,53,0.173085703184503,1
351,27,53,0.122069326555385,1
351,36,53,0.116137883751579,1
351,37,53,0.149969125764507,1
351,38,53,0.197433764071472,1
351,39,53,0.180483507298078,1
351,40,53,0.134713842850236,1
351,47,53,0.13904661123939,1
351,48,53,0.138139026955648,1
352,23,53,0.114389195600388,1
352,24,53,0.12466521899132,1
352,25,53,0.119684746450641,1
352,37,53,0.127295217235153,1
352,38,53,0.181155695556861,1
352,39,53,0.167367245027053,1
352,40,53,0.126235287395134,1
352,48,53,0.117400623024548,1
352,49,53,0.118006295536435,1
353,41,53,0.119539784990204,1
353,42,53,0.11667095187614,1
353,49,53,0.120046319832584,1
354,20,53,0.116041513645903,1
355,19,53,0.12639376869931,1
355,20,53,0.123007200941999,1
356,19,53,0.116403569879409,1
361,19,53,0.160568553710241,1
362,19,53,0.153824507058018,1
366,56,53,0.153237759971992,1
370,43,53,0.113887771918446,1
373,34,53,0.113858730163516,1
373,35,53,0.143118239371519,1
373,36,53,0.159352085749161,1
373,37,53,0.163628160298805,1
373,38,53,0.138958543825209,1
374,36,53,0.119326305715417,1
374,37,53,0.131178333051317,1
374,38,53,0.14230488180359,1
374,39,53,0.147101258353568,1
375,38,53,0.143439465205858,1
375,39,53,0.174670551556864,1
375,40,53,0.131769402247667,1
376,38,53,0.131725568747322,1
376,39,53,0.157084532375456,1
377,32,53,0.121602432648567,1
378,31,53,0.132467052093701,1
378,32,53,0.132397368369482,1
379,30,53,0.121945269034527,1
379,31,53,0.180426566144352,1
379,32,53,0.164003618607375,1
380,30,53,0.139323120308332,1
380,31,53,0.234249028738194,1
380,32,53,0.227793067815536,1
346,29,54,0.138638731214954,1
346,35,54,0.116846874720888,1
347,26,54,0.12507853992848,1
347,27,54,0.126714123045464,1
347,28,54,0.152972450703917,1
347,29,54,0.169841117340184,1
347,30,54,0.133478932314857,1
347,32,54,0.118694300128095,1
347,33,54,0.143773951792854,1
347,34,54,0.147192199323386,1
347,35,54,0.1690050068645,1
347,36,54,0.203318382050622,1
347,37,54,0.214577349899586,1
347,38,54,0.213407647878826,1
347,39,54,0.182132586705066,1
348,24,54,0.187326526743664,1
348,25,54,0.169597453954333,1
348,26,54,0.150153645722435,1
348,27,54,0.151105299043869,1
348,28,54,0.196419834675394,1
348,29,54,0.22560678660354,1
348,30,54,0.165303325467014,1
348,31,54,0.126960400895871,1
348,32,54,0.15494989272687,1
348,33,54,0.210299732580317,1
348,34,54,0.212943309552227,1
348,35,54,0.244299760656369,1
348,36,54,0.272902238433891,1
348,37,54,0.274605832959928,1
348,38,54,0.302130209191082,1
348,39,54,0.27005447413555,1
348,40,54,0.221499297910275,1
348,41,54,0.192304184613042,1
348,42,54,0.15928268466976,1
349,23,54,0.228366530595171,1
349,24,54,0.217699821406162,1
349,25,54,0.207239419379711,1
349,26,54,0.180100040719697,1
349,27,54,0.161349972413866,1
349,28,54,0.189206279651797,1
349,29,54,0.219928687770562,1
349,30,54,0.177844476196973,1
349,31,54,0.14219510962285,1
349,32,54,0.159299525590096,1
349,33,54,0.199085540381088,1
349,34,54,0.204066189574778,1
349,35,54,0.241822190406884,1
349,36,54,0.252324659403574,1
349,37,54,0.22424742991068,1
349,38,54,0.255882215498207,1
349,39,54,0.270077391919448,1
349,40,54,0.247416979680099,1
349,41,54,0.210265179251459,1
349,42,54,0.167015387560689,1
349,43,54,0.126165568340313,1
350,22,54,0.149754633679127,1
350,23,54,0.178234102076987,1
350,24,54,0.211920724158632,1
350,25,54,0.235664608195871,1
350,26,54,0.21538526655479,1
350,27,54,0.16842624449455,1
350,28,54,0.159068463452329,1
350,29,54,0.17067703938599,1
350,30,54,0.14942762540291,1
350,31,54,0.122422126171139,1
350,33,54,0.120685462201532,1
350,34,54,0.132534215568303,1
350,35,54,0.163160206473923,1
350,36,54,0.177369562243476,1
350,37,54,0.163089191963692,1
350,38,54,0.181816154055746,1
350,39,54,0.193233061472986,1
350,40,54,0.182373305874075,1
350,41,54,0.153913069100628,1
350,42,54,0.124179752964661,1
351,22,54,0.133998822124833,1
351,23,54,0.149715828901149,1
351,24,54,0.186827682195675,1
351,25,54,0.217773144182397,1
351,26,54,0.209549593236423,1
351,27,54,0.153246781052396,1
351,28,54,0.118371661069671,1
351,36,54,0.122262455403359,1
351,37,54,0.153422067946307,1
351,38,54,0.209748033451579,1
351,39,54,0.195939055841948,1
351,40,54,0.146432014311626,1
351,48,54,0.132875933151863,1
352,22,54,0.13985311467051,1
352,23,54,0.138410542632825,1
352,24,54,0.140813188452113,1
352,25,54,0.146269870401699,1
352,26,54,0.140719185496778,1
352,37,54,0.14243193064876,1
352,38,54,0.21371417618269,1
352,39,54,0.192237833742289,1
352,40,54,0.128178282081035,1
352,48,54,0.122298598609312,1
352,49,54,0.147320790938181,1
352,50,54,0.126177886943581,1
353,38,54,0.126844492967232,1
353,39,54,0.114946147211973,1
353,42,54,0.11474760100501,1
353,49,54,0.117867622923173,1
353,50,54,0.116366343201657,1
355,20,54,0.118176801022194,1
361,19,54,0.142226954272214,1
362,19,54,0.14329701221817,1
366,56,54,0.115921896004043,1
370,43,54,0.116165276745077,1
371,47,54,0.115413323763608,1
372,47,54,0.116994379984677,1
373,34,54,0.11691180059069,1
373,35,54,0.144295678794139,1
373,36,54,0.149985837139303,1
373,37,54,0.155547286100998,1
373,38,54,0.135166698731151,1
373,39,54,0.114325317871783,1
373,47,54,0.144199450010872,1
373,48,54,0.152891472963893,1
374,36,54,0.116036685130282,1
374,37,54,0.125939287610698,1
374,38,54,0.12910657009761,1
374,39,54,0.134003309111301,1
375,39,54,0.13289250320425,1
376,38,54,0.116412013893312,1
376,39,54,0.133914688184354,1
377,31,54,0.117778519144664,1
377,32,54,0.127322539567448,1
377,33,54,0.124826573851134,1
377,38,54,0.130122548668611,1
378,31,54,0.128814986638437,1
378,32,54,0.127406190656365,1
379,31,54,0.16354109391835,1
379,32,54,0.159641031190044,1
380,30,54,0.130202136738286,1
380,31,54,0.213930281698899,1
380,32,54,0.227108266531801,1
380,33,54,0.133015500807045,1
381,30,54,0.122949400076955,1
381,31,54,0.159767031894018,1
381,32,54,0.176106151689067,1
346,29,55,0.15882376370215,1
346,30,55,0.165100940001289,1
347,26,55,0.134616047743609,1
347,27,55,0.129500153005061,1
347,28,55,0.146846618927329,1
347,29,55,0.163222082135076,1
347,30,55,0.14968234726722,1
347,31,55,0.125187805703923,1
347,32,55,0.123979758203012,1
347,33,55,0.148465549553855,1
347,34,55,0.143021539513557,1
347,35,55,0.163176788303178,1
347,36,55,0.220129530466662,1
347,37,55,0.226317285011873,1
347,38,55,0.197536069718301,1
348,24,55,0.200082664187432,1
348,25,55,0.181473141016775,1
348,26,55,0.155814503221586,1
348,27,55,0.149213922367644,1
348,28,55,0.176273194775819,1
348,29,55,0.20378465178347,1
348,30,55,0.178122528035539,1
348,31,55,0.138463197006829,1
348,32,55,0.154390656403017,1
348,33,55,0.228424119476602,1
348,34,55,0.21473803347796,1
348,35,55,0.214725126031324,1
348,36,55,0.264585461805829,1
348,37,55,0.266929458825622,1
348,38,55,0.256939990171498,1
348,39,55,0.230683228836404,1
348,40,55,0.192026592072303,1
349,23,55,0.230065249498117,1
349,24,55,0.21457026022543,1
349,25,55,0.204827140082917,1
349,26,55,0.18140290377979,1
349,27,55,0.168860457594421,1
349,28,55,0.186518539427256,1
349,29,55,0.226121011740312,1
349,30,55,0.22360869973209,1
349,31,55,0.169885021501733,1
349,32,55,0.15300018522657,1
349,33,55,0.212411442668137,1
349,34,55,0.212044546142143,1
349,35,55,0.204325492640494,1
349,36,55,0.219003968144799,1
349,37,55,0.204988459612128,1
349,38,55,0.221695571181836,1
349,39,55,0.243581089102083,1
349,40,55,0.233207623910546,1
349,41,55,0.197657760088818,1
349,42,55,0.147443717879772,1
350,22,55,0.150218218286215,1
350,23,55,0.171834175489268,1
350,24,55,0.194631917779,1
350,25,55,0.216115926960057,1
350,26,55,0.208477168140126,1
350,27,55,0.184387397508279,1
350,28,55,0.166318821186452,1
350,29,55,0.183806550632804,1
350,30,55,0.194233906769419,1
350,31,55,0.154438647137543,1
350,32,55,0.11582019097745,1
350,33,55,0.128195252546912,1
350,34,55,0.144427367725052,1
350,35,55,0.16086024316122,1
350,36,55,0.174778863406051,1
350,37,55,0.16009204987965,1
350,38,55,0.179460403722319,1
350,39,55,0.211575073101371,1
350,40,55,0.212063530452341,1
350,41,55,0.176366020044417,1
350,42,55,0.133185912077865,1
351,22,55,0.148561012840742,1
351,23,55,0.161423636719255,1
351,24,55,0.181168037713863,1
351,25,55,0.211147808353247,1
351,26,55,0.215828288751452,1
351,27,55,0.180093975633002,1
351,28,55,0.133807377368893,1
351,29,55,0.121068304605942,1
351,30,55,0.121797151373635,1
351,36,55,0.13189075108903,1
351,37,55,0.152803040466824,1
351,38,55,0.206707010759723,1
351,39,55,0.215198014363633,1
351,40,55,0.17844764023611,1
351,41,55,0.131516199599247,1
351,49,55,0.149030167906096,1
352,21,55,0.118887593852211,1
352,22,55,0.176288740240746,1
352,23,55,0.176137289726389,1
352,24,55,0.162539848208428,1
352,25,55,0.168710125882464,1
352,26,55,0.16564537280286,1
352,27,55,0.138181235248296,1
352,37,55,0.154772733311048,1
352,38,55,0.218277971379009,1
352,39,55,0.194323693606235,1
352,40,55,0.132300527189112,1
352,48,55,0.12443376821693,1
352,49,55,0.169550311154257,1
352,50,55,0.143171965440453,1
353,22,55,0.123612885230753,1
353,23,55,0.123257365158637,1
353,24,55,0.120454729816051,1
353,25,55,0.119251875913649,1
353,37,55,0.129860018741236,1
353,38,55,0.147233347697971,1
353,39,55,0.118498627476769,1
353,49,55,0.118251807890463,1
353,50,55,0.122531556822726,1
353,51,55,0.118971680685221,1
353,52,55,0.11989257282909,1
354,51,55,0.120526050524834,1
354,52,55,0.118831288649323,1
354,53,55,0.116681786594119,1
354,54,55,0.124223892663558,1
355,54,55,0.13476224577512,1
355,55,55,0.146424159141091,1
371,47,55,0.118603158951531,1
372,43,55,0.13284842238969,1
372,44,55,0.137798816811111,1
372,47,55,0.123648086287317,1
372,48,55,0.118995729048388,1
373,35,55,0.123963482572309,1
373,36,55,0.119957875558647,1
373,37,55,0.125630769016249,1
373,38,55,0.11992658442205,1
373,39,55,0.115389263623574,1
373,47,55,0.159968157234935,1
373,48,55,0.172945087388124,1
373,49,55,0.128456781440561,1
374,38,55,0.114647839161532,1
374,39,55,0.123036525341746,1
374,40,55,0.117002435361957,1
374,48,55,0.206702841748674,1
376,33,55,0.116450053174912,1
377,29,55,0.121940876262998,1
377,30,55,0.120721452308209,1
377,31,55,0.122734719561697,1
377,32,55,0.125977409330369,1
377,33,55,0.136013773470355,1
377,34,55,0.124029091500418,1
379,31,55,0.121033397971062,1
379,32,55,0.129033365090049,1
380,31,55,0.152254579976612,1
380,32,55,0.176200861256443,1
380,33,55,0.131633367652695,1
381,30,55,0.119137687407646,1
381,31,55,0.143391545132536,1
381,32,55,0.159748530435382,1
347,27,56,0.135203313011799,1
347,28,56,0.145246637280399,1
347,29,56,0.161628142021106,1
347,30,56,0.175800141567367,1
347,31,56,0.151189750959768,1
347,32,56,0.133707109120119,1
347,33,56,0.144994082359685,1
347,34,56,0.14052160499294,1
347,35,56,0.153557972995737,1
347,36,56,0.214794350457715,1
348,25,56,0.183529075860738,1
348,26,56,0.156465269358626,1
348,27,56,0.149583021167836,1
348,28,56,0.164892807424288,1
348,29,56,0.186172346634096,1
348,30,56,0.194175269746792,1
348,31,56,0.157426108636608,1
348,32,56,0.154889724711486,1
348,33,56,0.21504972004973,1
348,34,56,0.213613436859221,1
348,35,56,0.193482413085777,1
348,36,56,0.248596126748488,1
348,37,56,0.269484897722147,1
348,38,56,0.220060847776169,1
348,39,56,0.185825447228894,1
349,24,56,0.196806327908688,1
349,25,56,0.1894843903747,1
349,26,56,0.173368171348333,1
349,27,56,0.171597907976124,1
349,28,56,0.18352915829881,1
349,29,56,0.226915832519002,1
349,30,56,0.27139006511006,1
349,31,56,0.202274810279377,1
349,32,56,0.14964923071618,1
349,33,56,0.201983285704541,1
349,34,56,0.225721775936525,1
349,35,56,0.188486771939927,1
349,36,56,0.194989593017844,1
349,37,56,0.202336379741979,1
349,38,56,0.195610893432729,1
349,39,56,0.207451002578851,1
349,40,56,0.203565649157888,1
349,41,56,0.170552204591885,1
350,22,56,0.140976910462267,1
350,23,56,0.157432209053905,1
350,24,56,0.17143292584116,1
350,25,56,0.189113925457894,1
350,26,56,0.188414108668264,1
350,27,56,0.189523159822077,1
350,28,56,0.176118234754987,1
350,29,56,0.195714659411111,1
350,30,56,0.239034323255978,1
350,31,56,0.181734469703679,1
350,32,56,0.117581174178173,1
350,33,56,0.126692924684201,1
350,34,56,0.15641016539621,1
350,35,56,0.156259527485701,1
350,36,56,0.162655991674414,1
350,37,56,0.157115022685073,1
350,38,56,0.178220711778789,1
350,39,56,0.229174188159293,1
350,40,56,0.238772547048114,1
350,41,56,0.186309299824723,1
350,42,56,0.136017918927668,1
351,21,56,0.114785416526129,1
351,22,56,0.148927921143604,1
351,23,56,0.164342992594329,1
351,24,56,0.16961514280912,1
351,25,56,0.194206796420737,1
351,26,56,0.20034535899095,1
351,27,56,0.198278259676722,1
351,28,56,0.161105461093564,1
351,29,56,0.137695427692484,1
351,30,56,0.140389291888056,1
351,31,56,0.115251321176089,1
351,35,56,0.116205212102323,1
351,36,56,0.13756405673699,1
351,37,56,0.151222208006235,1
351,38,56,0.188831421963462,1
351,39,56,0.223843342037538,1
351,40,56,0.213191189056596,1
351,41,56,0.154660688194906,1
352,21,56,0.127242374431272,1
352,22,56,0.18540059673858,1
352,23,56,0.198464051536325,1
352,24,56,0.176550775539691,1
352,25,56,0.183557599433504,1
352,26,56,0.179097758645445,1
352,27,56,0.174144455337785,1
352,28,56,0.137657176427272,1
352,36,56,0.122332386441792,1
352,37,56,0.16830814606858,1
352,38,56,0.197423588858066,1
352,39,56,0.172700717390231,1
352,40,56,0.131609013090977,1
352,49,56,0.172163492031489,1
353,22,56,0.13063387669601,1
353,23,56,0.14172728534351,1
353,24,56,0.139446318117872,1
353,25,56,0.143625386611002,1
353,26,56,0.131732528875937,1
353,27,56,0.120857039382221,1
353,37,56,0.159513440608975,1
353,38,56,0.158990665466494,1
353,49,56,0.122394120780537,1
353,50,56,0.128264559411375,1
353,51,56,0.144545583919696,1
353,52,56,0.158286067268713,1
354,50,56,0.117569644625019,1
354,51,56,0.154406672942638,1
354,52,56,0.157846542801658,1
354,53,56,0.139808751211133,1
355,51,56,0.132436067155655,1
355,52,56,0.135390070574526,1
355,53,56,0.136468136790293,1
355,54,56,0.153280698430417,1
356,52,56,0.122342573432066,1
356,53,56,0.126626208730559,1
371,44,56,0.117849627869834,1
372,43,56,0.14398827900209,1
372,44,56,0.153585966609472,1
372,45,56,0.121558752247497,1
372,46,56,0.11601874896128,1
372,47,56,0.135516872105482,1
372,48,56,0.130275259307776,1
372,49,56,0.115759116143278,1
373,19,56,0.114316285014511,1
373,40,56,0.116794255677486,1
373,43,56,0.120016182828988,1
373,44,56,0.115918586704312,1
373,46,56,0.121167430498582,1
373,47,56,0.164713516395472,1
373,48,56,0.174856166763457,1
373,49,56,0.1435324906812,1
374,40,56,0.121839724749172,1
374,47,56,0.167018414215602,1
374,48,56,0.190558452455562,1
376,29,56,0.12224513163146,1
376,30,56,0.120490036864421,1
377,29,56,0.157575239108094,1
377,30,56,0.138225410277795,1
377,31,56,0.116240366051418,1
377,32,56,0.117352856050502,1
377,33,56,0.131932064339759,1
377,34,56,0.123112321260129,1
378,34,56,0.11937753508847,1
380,32,56,0.115920259019479,1
348,27,57,0.163360589872196,1
348,28,57,0.173135448672267,1
348,29,57,0.182952574649323,1
348,30,57,0.209621055267614,1
348,31,57,0.184291816452717,1
348,32,57,0.161933398423294,1
348,33,57,0.181191685663539,1
348,34,57,0.2043938455787,1
348,35,57,0.193473969071874,1
348,36,57,0.230583384554855,1
349,25,57,0.176889124939184,1
349,26,57,0.170872747367917,1
349,27,57,0.176947326217719,1
349,28,57,0.188450228320483,1
349,29,57,0.218027383195145,1
349,30,57,0.281070650086847,1
349,31,57,0.219047707430205,1
349,32,57,0.151912850616185,1
349,33,57,0.173189634039028,1
349,34,57,0.227330095605551,1
349,35,57,0.209203518211936,1
349,36,57,0.202222167682241,1
349,37,57,0.22645401444202,1
349,38,57,0.201357156774035,1
349,39,57,0.184326087136759,1
350,24,57,0.163563952817912,1
350,25,57,0.175052805117906,1
350,26,57,0.176279130316973,1
350,27,57,0.189690167578228,1
350,28,57,0.194303696485444,1
350,29,57,0.201958106762108,1
350,30,57,0.253623388783222,1
350,31,57,0.194475897840104,1
350,32,57,0.123712011123393,1
350,33,57,0.120154148830208,1
350,34,57,0.1583003997163,1
350,35,57,0.162089406585323,1
350,36,57,0.161761479713451,1
350,37,57,0.173501862346698,1
350,38,57,0.190473729671714,1
350,39,57,0.229939496108358,1
350,40,57,0.235218194261406,1
350,41,57,0.177115040585911,1
351,22,57,0.14126742222651,1
351,23,57,0.164540514213831,1
351,24,57,0.168605735730111,1
351,25,57,0.182836855150561,1
351,26,57,0.17966249476636,1
351,27,57,0.203808158410737,1
351,28,57,0.199461387326282,1
351,29,57,0.160204142103262,1
351,30,57,0.157346944534158,1
351,31,57,0.129554479694231,1
351,35,57,0.116549767910919,1
351,36,57,0.142562594992212,1
351,37,57,0.158523112055103,1
351,38,57,0.175372111322864,1
351,39,57,0.216938753129349,1
351,40,57,0.22880585485548,1
351,41,57,0.17033661725784,1
351,42,57,0.124445603968635,1
352,21,57,0.130684870531715,1
352,22,57,0.1649131578511,1
352,23,57,0.193738877926457,1
352,24,57,0.181183276980238,1
352,25,57,0.187791830773388,1
352,26,57,0.179489198163035,1
352,27,57,0.204177104111653,1
352,28,57,0.187549109536926,1
352,29,57,0.131345493906743,1
352,36,57,0.144031135022444,1
352,37,57,0.183976596820736,1
352,38,57,0.177545826617378,1
352,39,57,0.154309207588297,1
352,40,57,0.136650207159808,1
353,22,57,0.126430006120202,1
353,23,57,0.148766625168127,1
353,24,57,0.150756962860848,1
353,25,57,0.163377678106747,1
353,26,57,0.153878657094178,1
353,27,57,0.152470897476434,1
353,28,57,0.127423290667784,1
353,36,57,0.124862563957811,1
353,37,57,0.174029713319015,1
353,38,57,0.16029647274343,1
353,49,57,0.134061345513692,1
354,24,57,0.117977807294271,1
354,25,57,0.129781879226247,1
354,26,57,0.125603411353352,1
354,27,57,0.114739474966525,1
354,50,57,0.14225462991053,1
354,51,57,0.200087492703053,1
354,52,57,0.207426883554481,1
355,51,57,0.147356498400042,1
355,52,57,0.161512457852947,1
355,53,57,0.162017214388355,1
356,51,57,0.121860251828995,1
356,52,57,0.160465294137155,1
356,53,57,0.177824891266539,1
356,54,57,0.140162304546398,1
357,18,57,0.124365721477275,1
357,19,57,0.125771632126842,1
357,52,57,0.129412509558106,1
357,53,57,0.128000086300884,1
358,18,57,0.12191433120395,1
358,19,57,0.117018605000854,1
362,46,57,0.122401481322642,1
362,47,57,0.115720087604819,1
371,44,57,0.121314876878033,1
371,45,57,0.128757126889057,1
372,43,57,0.133726164091521,1
372,44,57,0.150437044258787,1
372,45,57,0.138494017068732,1
372,46,57,0.128759600031204,1
372,47,57,0.143697508146766,1
372,48,57,0.142030951868603,1
372,49,57,0.126267190928835,1
372,50,57,0.114965944126019,1
373,19,57,0.133984089263755,1
373,40,57,0.124329083642892,1
373,43,57,0.119092994195983,1
373,44,57,0.114371718729214,1
373,46,57,0.121378354193149,1
373,47,57,0.154136417390269,1
373,48,57,0.164112554630532,1
373,49,57,0.150229524078889,1
373,50,57,0.126061931907472,1
374,19,57,0.136736625812557,1
374,40,57,0.123193522760633,1
374,47,57,0.133981957650762,1
374,48,57,0.156683989339391,1
374,49,57,0.146943012586739,1
376,29,57,0.118469397291961,1
376,30,57,0.11475006237029,1
377,29,57,0.159281978057718,1
377,30,57,0.135412953027823,1
377,33,57,0.114371624514275,1
378,33,57,0.118440390867633,1
378,34,57,0.126542439872968,1
379,34,57,0.117342833936372,1
349,27,58,0.173879475821997,1
349,28,58,0.186707275503701,1
349,29,58,0.204115534649051,1
349,30,58,0.257724258877026,1
349,31,58,0.229554298330474,1
349,32,58,0.161962557946898,1
349,33,58,0.147364353570577,1
349,34,58,0.205316516029541,1
349,35,58,0.239627759602669,1
349,36,58,0.227919221618786,1
350,25,58,0.164701468660154,1
350,26,58,0.169961794900108,1
350,27,58,0.181062764296457,1
350,28,58,0.198440073834363,1
350,29,58,0.20103425862453,1
350,30,58,0.23859624734361,1
350,31,58,0.209457898547093,1
350,32,58,0.145715686353946,1
350,33,58,0.119184241364353,1
350,34,58,0.144304287684185,1
350,35,58,0.169113601358504,1
350,36,58,0.170737713806672,1
350,37,58,0.201582354031853,1
350,38,58,0.213876767613577,1
350,39,58,0.212228924777662,1
351,24,58,0.168372695078626,1
351,25,58,0.172708136816673,1
351,26,58,0.168923970240139,1
351,27,58,0.194581760100878,1
351,28,58,0.217978956716526,1
351,29,58,0.184136821101282,1
351,30,58,0.17417110638864,1
351,31,58,0.156800321235256,1
351,32,58,0.117635088676985,1
351,36,58,0.139722356112119,1
351,37,58,0.166587416200523,1
351,38,58,0.173778159432027,1
351,39,58,0.198988239902891,1
351,40,58,0.211765245955635,1
351,41,58,0.167724048777712,1
352,22,58,0.143554831398598,1
352,23,58,0.174720061507281,1
352,24,58,0.179635266649005,1
352,25,58,0.183658456525647,1
352,26,58,0.17778384888376,1
352,27,58,0.209620301548102,1
352,28,58,0.221199082007321,1
352,29,58,0.165243051459823,1
352,30,58,0.124865355075378,1
352,36,58,0.150264572036177,1
352,37,58,0.184174177324575,1
352,38,58,0.164171450744241,1
352,39,58,0.15133961159703,1
352,40,58,0.144846800856376,1
352,41,58,0.115819708125888,1
353,22,58,0.130309011809654,1
353,23,58,0.15465426980219,1
353,24,58,0.161015980455299,1
353,25,58,0.173328082891811,1
353,26,58,0.169531856803091,1
353,27,58,0.168319675621734,1
353,28,58,0.149402375799272,1
353,29,58,0.114251959764945,1
353,36,58,0.1229954711821,1
353,37,58,0.159350130789178,1
353,38,58,0.145714178914923,1
354,22,58,0.115907045374291,1
354,23,58,0.128420461581597,1
354,24,58,0.134406761033606,1
354,25,58,0.14841965510172,1
354,26,58,0.151281104119944,1
354,27,58,0.135646912274963,1
355,25,58,0.124634846450377,1
355,26,58,0.134522292102489,1
355,27,58,0.132112839253863,1
355,52,58,0.17472552597374,1
356,51,58,0.12256290684366,1
356,52,58,0.18592838882656,1
356,53,58,0.218795305608766,1
357,19,58,0.130517639015085,1
357,20,58,0.115054788813446,1
357,51,58,0.130454986080685,1
357,52,58,0.183908679626622,1
358,19,58,0.131817887610622,1
358,51,58,0.125149095140883,1
358,52,58,0.135053193283455,1
361,53,58,0.116767310204948,1
362,46,58,0.119718204530834,1
362,47,58,0.121518498914832,1
363,46,58,0.120107253344348,1
363,47,58,0.121109876947753,1
371,44,58,0.115182768031138,1
371,45,58,0.133009965679382,1
371,51,58,0.116011623956522,1
371,52,58,0.117714370548109,1
372,44,58,0.13428403429876,1
372,45,58,0.146729533311953,1
372,46,58,0.137664301432029,1
372,47,58,0.142301878702412,1
372,48,58,0.149418463000098,1
372,49,58,0.135784430755223,1
372,50,58,0.131127739629102,1
372,51,58,0.135405486493912,1
373,19,58,0.135228103317609,1
373,40,58,0.122384051558937,1
373,41,58,0.122255554159081,1
373,46,58,0.120121350254588,1
373,47,58,0.140465806195348,1
373,48,58,0.158604702192231,1
373,49,58,0.155376427309218,1
373,50,58,0.142687170695235,1
374,48,58,0.133722536816372,1
374,49,58,0.141041647902191,1
377,29,58,0.127453698539329,1
378,34,58,0.119084408859671,1
379,34,58,0.120544504876,1
350,29,59,0.189345282017345,1
350,30,59,0.201720214041267,1
350,31,59,0.218331037943371,1
350,32,59,0.198731056673301,1
351,27,59,0.182455685061317,1
351,28,59,0.215661080788556,1
351,29,59,0.206502116821248,1
351,30,59,0.188149647334641,1
351,37,59,0.187467366300522,1
351,38,59,0.192481132045252,1
352,25,59,0.172502618704228,1
352,26,59,0.177149393708025,1
352,27,59,0.197604481540844,1
352,28,59,0.229107389767579,1
352,29,59,0.203091583138842,1
352,37,59,0.179857849442266,1
352,38,59,0.170455457626454,1
353,23,59,0.146567083203474,1
353,24,59,0.158297219962111,1
353,25,59,0.171217503383258,1
353,26,59,0.175825921130037,1
353,27,59,0.172839531325902,1
353,37,59,0.135570574620681,1
353,38,59,0.134181163362298,1
354,25,59,0.157013847617511,1
354,26,59,0.172315519612347,1
358,51,59,0.165366590798517,1
359,51,59,0.114896672592158,1
360,53,59,0.117419701549685,1
361,52,59,0.135024069090453,1
361,53,59,0.149237417218044,1
361,54,59,0.13028007604653,1
362,53,59,0.115283554462076,1
362,54,59,0.133586690651278,1
362,55,59,0.183094109041355,1
363,46,59,0.114844807268268,1
363,47,59,0.118454864637629,1
363,55,59,0.130033503774439,1
366,54,59,0.141418307451233,1
366,55,59,0.140905530869148,1
367,54,59,0.152025190154011,1
367,55,59,0.149702968561982,1
370,52,59,0.128666998523087,1
371,45,59,0.120906384456495,1
371,51,59,0.132314647653087,1
371,52,59,0.15154712000006,1
372,44,59,0.118939046985744,1
372,45,59,0.141671309892908,1
372,46,59,0.137327223934212,1
372,47,59,0.135456762974433,1
372,48,59,0.152553677077166,1
372,49,59,0.147417149266989,1
372,50,59,0.14269157524363,1
372,51,59,0.151111729213452,1
373,41,59,0.115650874955295,1
373,44,59,0.123337801162763,1
373,45,59,0.130324639712652,1
373,46,59,0.12326988396865,1
373,47,59,0.13274889608356,1
373,48,59,0.161939911030949,1
373,49,59,0.163585363162788,1
374,44,59,0.126720423669506,1
374,48,59,0.124460537036458,1
359,51,60,0.12750014650423,1
360,52,60,0.12052732242651,1
360,53,60,0.140503598162733,1
361,52,60,0.145983822070189,1
361,53,60,0.170424343142867,1
361,54,60,0.153419606581027,1
362,49,60,0.115361093356829,1
362,50,60,0.116348524801329,1
362,51,60,0.115631996636904,1
362,52,60,0.123890348225952,1
362,53,60,0.132140962413139,1
362,54,60,0.157281264944845,1
366,53,60,0.125682127934842,1
366,54,60,0.176609447892921,1
366,55,60,0.173044707909193,1
367,53,60,0.14187599184777,1
367,54,60,0.196539946945684,1
367,55,60,0.177597468180789,1
368,50,60,0.120688017781751,1
368,54,60,0.119064081986594,1
369,52,60,0.124785437253416,1
370,51,60,0.124607818539766,1
370,52,60,0.181574622282888,1
370,53,60,0.142769514551874,1
371,49,60,0.113842372094741,1
371,51,60,0.138601433875999,1
371,52,60,0.177866828691238,1
372,45,60,0.126512067332025,1
372,46,60,0.123165764684246,1
372,47,60,0.127498262205451,1
372,48,60,0.157315818273703,1
372,49,60,0.163901454282955,1
372,50,60,0.148132193546126,1
373,44,60,0.155309405157024,1
373,45,60,0.151573865265854,1
373,46,60,0.119112002059915,1
373,47,60,0.123156873149383,1
373,48,60,0.16225495400992,1
373,49,60,0.168818849922009,1
374,43,60,0.118558371524929,1
374,44,60,0.174429749949783,1
374,45,60,0.137493501524586,1
360,52,61,0.127653257556886,1
361,48,61,0.123209621738326,1
361,49,61,0.117679087053473,1
361,50,61,0.115206415980813,1
361,51,61,0.119273192043586,1
361,52,61,0.140580936850741,1
361,53,61,0.168593499564915,1
362,49,61,0.12125685225251,1
362,50,61,0.126716030897978,1
362,51,61,0.130277379143903,1
362,52,61,0.134108676743645,1
362,53,61,0.149994516690553,1
362,54,61,0.174327020335729,1
363,54,61,0.119443108685977,1
366,52,61,0.125069448186871,1
366,53,61,0.147265863628775,1
366,54,61,0.18544875234925,1
366,55,61,0.177044756241457,1
367,52,61,0.126363937894266,1
367,53,61,0.163822949685077,1
367,54,61,0.208374968485103,1
367,55,61,0.175091880763834,1
368,50,61,0.12289187007986,1
368,51,61,0.115069027046094,1
368,52,61,0.121376057704012,1
368,53,61,0.138851727638178,1
368,54,61,0.137704177904939,1
369,51,61,0.114299738515858,1
369,52,61,0.15201096369823,1
369,53,61,0.140308985429471,1
370,42,61,0.130103199275525,1
370,51,61,0.131704594146539,1
370,52,61,0.207741655665502,1
371,41,61,0.119490875660023,1
371,42,61,0.158061164432579,1
371,43,61,0.125974806642681,1
371,48,61,0.121503130102917,1
371,49,61,0.11665121384643,1
371,51,61,0.129709227731451,1
372,42,61,0.115378216921983,1
372,45,61,0.113923667810185,1
372,47,61,0.135145865452776,1
372,48,61,0.18413477192636,1
372,49,61,0.180769202323566,1
372,50,61,0.140198647959097,1
373,44,61,0.176005518357404,1
373,45,61,0.163917211731493,1
373,46,61,0.114483799175958,1
373,47,61,0.123857302336116,1
373,48,61,0.170661470367329,1
373,49,61,0.167149219881463,1
374,43,61,0.122158018143536,1
374,44,61,0.187954928609572,1
374,45,61,0.148700462727251,1
360,48,62,0.116283869799477,1
361,47,62,0.123907931088932,1
361,48,62,0.140427472492064,1
361,49,62,0.12741941607842,1
361,50,62,0.119079592120918,1
361,51,62,0.1218060782391,1
361,52,62,0.131330254640368,1
362,48,62,0.122693217881091,1
362,49,62,0.123381681770578,1
362,50,62,0.127621919312819,1
362,51,62,0.137610127842135,1
362,52,62,0.144844598582178,1
362,53,62,0.158901279043168,1
363,53,62,0.114146344818386,1
365,48,62,0.120859524301236,1
365,52,62,0.12238515858447,1
365,53,62,0.118945477155327,1
366,48,62,0.119598563335239,1
366,51,62,0.115351742524139,1
366,52,62,0.148126246228105,1
366,53,62,0.156271469229213,1
366,54,62,0.167029319594785,1
367,51,62,0.116722511001478,1
367,52,62,0.141768268841951,1
367,53,62,0.172268777225762,1
367,54,62,0.190404399253516,1
368,51,62,0.119271178199266,1
368,52,62,0.146274439826238,1
368,53,62,0.176602487764306,1
369,51,62,0.121672928976634,1
369,52,62,0.175507239099049,1
370,41,62,0.124969073946291,1
370,42,62,0.173986398000834,1
370,43,62,0.142782739973929,1
370,51,62,0.128033143967587,1
371,41,62,0.150135179594401,1
371,42,62,0.204310112051711,1
371,43,62,0.150815258354321,1
371,48,62,0.132198339310957,1
371,49,62,0.117257757846503,1
372,42,62,0.122321763707426,1
372,47,62,0.143544185110497,1
372,48,62,0.210869403208659,1
372,49,62,0.184964852645951,1
373,44,62,0.164535179292913,1
373,45,62,0.158641740440104,1
366,53,63,0.153897394090161,1
367,52,63,0.153088806153517,1
367,53,63,0.167501077347827,1
368,52,63,0.167533075096467,1
371,42,63,0.217724717703778,1
