x,y,z,signal,mito.p
80,174,39,0.307103650941942,1
80,175,39,0.327177250710098,1
80,176,39,0.180151988481658,1
81,174,39,0.189728666157655,1
81,175,39,0.202124231253206,1
83,174,39,0.24309734249806,1
89,172,39,0.163486896774721,1
79,174,40,0.29492575768596,1
79,175,40,0.330914451139567,2
79,176,40,0.208446948698458,1
79,177,40,0.115601188351868,1
80,173,40,0.16940244080758,1
80,174,40,0.280446617438733,1
80,175,40,0.295245216990194,1
80,176,40,0.184884451972427,1
81,173,40,0.126244803103968,1
81,174,40,0.162840405640535,1
81,175,40,0.169133068520264,1
81,176,40,0.133922154718265,1
82,174,40,0.142489366430916,1
82,175,40,0.138537897676547,1
83,173,40,0.125628025006152,1
83,174,40,0.183886609777174,1
83,175,40,0.163910498917094,1
84,173,40,0.116998384119582,1
84,174,40,0.146043919424369,1
84,175,40,0.124077035127475,1
88,171,40,0.146766712882235,1
88,172,40,0.142354085555455,1
88,173,40,0.129204212104961,1
89,171,40,0.192147022318012,1
89,172,40,0.190727615378441,1
89,173,40,0.155128736234726,1
90,171,40,0.174874750660164,1
90,172,40,0.184345106777559,1
90,173,40,0.151288229124702,1
93,193,40,0.155365156847146,1
94,193,40,0.1752591358342,1
78,174,41,0.198263821237329,1
78,175,41,0.221240984101417,2
78,176,41,0.171442653533607,1
79,173,41,0.15389614574222,1
79,174,41,0.311347162453312,2
79,175,41,0.364164457640398,2
79,176,41,0.269398196424581,2
79,177,41,0.140852723395868,1
80,173,41,0.141020531979,1
80,174,41,0.230818073967772,1
80,175,41,0.25935022029337,2
80,176,41,0.201873713730546,1
80,187,41,0.134077786020538,1
81,174,41,0.129329553304363,1
81,175,41,0.133407105200778,1
81,176,41,0.11752300823024,1
81,189,41,0.122207810738769,1
83,174,41,0.126150034652255,1
88,171,41,0.127067923694944,1
88,172,41,0.11873003114369,1
88,192,41,0.1157443832822,1
89,170,41,0.122176790470121,1
89,171,41,0.169253710749585,1
89,172,41,0.186710737902708,1
89,173,41,0.141515195739073,1
90,170,41,0.114070230924584,1
90,171,41,0.160806034240724,1
90,172,41,0.205740789453354,1
90,173,41,0.166364821630393,1
91,171,41,0.114379114601921,1
91,172,41,0.129547955309709,1
93,193,41,0.119838175478716,1
93,194,41,0.124273932573006,1
94,193,41,0.132136805178958,1
94,194,41,0.155560676399195,1
78,173,42,0.119898496593376,1
78,174,42,0.21599441324255,1
78,175,42,0.234337849871887,2
78,176,42,0.192228070719241,1
78,177,42,0.115947498913702,1
78,180,42,0.14078008367794,1
78,181,42,0.142700325456085,1
79,173,42,0.148920772585111,1
79,174,42,0.295768345438697,2
79,175,42,0.356274780884316,2
79,176,42,0.294207722082512,2
79,177,42,0.151280432838504,1
79,180,42,0.132785981438903,1
79,181,42,0.127056453026127,1
80,174,42,0.185388925863018,1
80,175,42,0.225582879562782,2
80,176,42,0.201074511957195,1
80,187,42,0.114560466582526,1
80,188,42,0.16883822286883,1
80,189,42,0.159906057813301,1
81,189,42,0.123435490277584,1
81,190,42,0.172041636784829,1
82,190,42,0.168885083024089,1
88,192,42,0.129814925116082,1
89,171,42,0.129929961556536,1
89,172,42,0.152780558427018,1
89,173,42,0.118676352182225,1
90,171,42,0.143547494410228,1
90,172,42,0.188709307625719,1
90,173,42,0.155272096041201,1
91,172,42,0.124503345949342,1
77,174,43,0.12067446260741,1
77,175,43,0.132134532243555,1
77,176,43,0.126199968569896,1
78,173,43,0.13714156162015,1
78,174,43,0.220905531811297,1
78,175,43,0.241928370643077,1
78,176,43,0.20964684660715,1
78,177,43,0.134767981109528,1
78,180,43,0.165745699935972,1
78,181,43,0.170022952172352,1
78,182,43,0.135144358013753,1
79,173,43,0.143211735921556,1
79,174,43,0.253850517447288,1
79,175,43,0.313159881432384,2
79,176,43,0.275883575961925,1
79,177,43,0.152042808347594,1
79,180,43,0.142892453270332,1
79,181,43,0.140343809626279,1
79,188,43,0.125931656200643,1
80,174,43,0.151378333936937,1
80,175,43,0.199187928465989,1
80,176,43,0.1865125685555,1
80,188,43,0.123182428951572,1
80,189,43,0.144769803697522,1
81,189,43,0.116520396403703,1
81,190,43,0.1640756459282,1
82,190,43,0.14751362536447,1
82,191,43,0.189306783437918,1
83,191,43,0.125925508675877,1
87,192,43,0.114812503321077,1
88,192,43,0.131647558777874,1
90,171,43,0.118065603840502,1
90,172,43,0.141525005869591,1
90,173,43,0.121296080997714,1
77,174,44,0.13636772721911,1
77,175,44,0.17268022564101,1
77,176,44,0.166007970772265,1
77,177,44,0.115050042735896,1
78,173,44,0.146311949148806,1
78,174,44,0.214926651785731,1
78,175,44,0.251210709072936,1
78,176,44,0.221010016178589,1
78,177,44,0.141835820953176,1
78,180,44,0.160436181721021,1
78,181,44,0.167793991593013,1
78,182,44,0.136368645814765,1
79,173,44,0.130202172068888,1
79,174,44,0.201238540165901,1
79,175,44,0.251686188316066,1
79,176,44,0.226736800581268,1
79,177,44,0.136013267065058,1
79,180,44,0.125966998579616,1
79,181,44,0.129375129781078,1
79,189,44,0.15135057586055,1
80,174,44,0.123114005352162,1
80,175,44,0.165784080746725,1
80,176,44,0.157416498712836,1
80,189,44,0.125048638462231,1
80,190,44,0.165621265555357,1
81,190,44,0.148178064444526,1
81,191,44,0.191924003780657,1
82,190,44,0.117927779161691,1
82,191,44,0.149592689975945,1
88,192,44,0.117920995686086,1
77,174,45,0.140662020582572,1
77,175,45,0.20380031501707,1
77,176,45,0.19802708264949,1
77,177,45,0.125541406146658,1
78,173,45,0.142809261479242,1
78,174,45,0.198317994827223,1
78,175,45,0.258482477151935,1
78,176,45,0.229673338905833,1
78,177,45,0.142481735020861,1
78,180,45,0.125578373733327,1
78,181,45,0.139260008076105,1
78,182,45,0.123364146015066,1
79,174,45,0.15196227812853,1
79,175,45,0.193641495010188,1
79,176,45,0.176773428994158,1
79,177,45,0.115975551411773,1
80,175,45,0.12535782833812,1
80,176,45,0.120745430010171,1
80,190,45,0.157468352259858,1
81,190,45,0.137856464576879,1
81,191,45,0.167133038465698,1
82,191,45,0.117821716694171,1
77,174,46,0.137762744266361,1
77,175,46,0.206923375367014,1
77,176,46,0.204119797875039,1
77,177,46,0.125272281173556,1
78,173,46,0.123754890697481,1
78,174,46,0.175336333199799,1
78,175,46,0.25553121774316,1
78,176,46,0.240805069479749,1
78,177,46,0.144920724252847,1
79,174,46,0.120482405454367,1
79,175,46,0.160768642686829,1
79,176,46,0.152720378634765,1
79,190,46,0.144906132714178,1
80,190,46,0.140045101162349,1
80,191,46,0.159541493107047,1
81,190,46,0.123993619575905,1
81,191,46,0.139839747926047,1
92,167,46,0.131702474310413,1
77,169,47,0.149565485412324,1
77,174,47,0.133901980944463,1
77,175,47,0.18213780385731,1
77,176,47,0.179725018155219,1
77,177,47,0.11460260421397,1
78,168,47,0.131171490691376,1
78,169,47,0.149485720689638,1
78,174,47,0.151275357008668,1
78,175,47,0.230510203101028,1
78,176,47,0.237192798059323,1
78,177,47,0.143125164169531,1
79,175,47,0.148938614539174,1
79,176,47,0.149801882471009,1
79,190,47,0.116288545215822,1
80,190,47,0.119716897298556,1
80,191,47,0.126805040461548,1
92,167,47,0.135466290460134,1
92,168,47,0.123526313478728,1
76,174,48,0.126802178682777,1
76,175,48,0.121243933029007,1
77,169,48,0.235017728425062,1
77,170,48,0.160705212479183,1
77,174,48,0.147414110835208,1
77,175,48,0.160936027302736,1
77,176,48,0.150395636793119,1
78,168,48,0.158602464587431,1
78,169,48,0.203638877719184,1
78,170,48,0.13622125831965,1
78,174,48,0.129760398220167,1
78,175,48,0.187643053607923,1
78,176,48,0.209432978695741,1
78,177,48,0.132447950014829,1
79,175,48,0.13189768766391,1
79,176,48,0.142301890479279,1
92,168,48,0.116535541455138,1
75,175,49,0.126381921170737,1
76,170,49,0.157999712738651,1
76,174,49,0.166177192579481,1
76,175,49,0.14928715092894,1
77,169,49,0.283649666271843,1
77,170,49,0.21977895667884,1
77,171,49,0.116002108247689,1
77,174,49,0.156059367847908,1
77,175,49,0.145217536641132,1
77,176,49,0.120813653402836,1
78,168,49,0.158646792716205,1
78,169,49,0.21568397501872,1
78,170,49,0.161097323278213,1
78,175,49,0.142077187849891,1
78,176,49,0.159867888986161,1
79,176,49,0.123773451040453,1
75,174,50,0.158891492466385,1
75,175,50,0.158515162669629,1
76,169,50,0.182015642412098,1
76,170,50,0.18146399039083,1
76,173,50,0.125378885376975,1
76,174,50,0.196167585953231,1
76,175,50,0.179114658450119,1
77,168,50,0.184053381995977,1
77,169,50,0.27809769768838,1
77,170,50,0.246861488400068,1
77,171,50,0.131719115024004,1
77,174,50,0.151241286531372,1
77,175,50,0.136117103704644,1
78,168,50,0.143377177354347,1
78,169,50,0.196089152016558,1
78,170,50,0.170989338354864,1
74,174,51,0.131574601084527,1
75,173,51,0.15257097729533,1
75,174,51,0.193637055131191,1
75,175,51,0.172582006567158,1
76,169,51,0.173033979183021,1
76,170,51,0.181574386745541,1
76,171,51,0.119560394508098,1
76,173,51,0.150727873998448,1
76,174,51,0.211024033477206,1
76,175,51,0.188002660253016,1
77,168,51,0.158659111319473,1
77,169,51,0.237794690196785,1
77,170,51,0.240994771259318,1
77,171,51,0.138118570537029,1
77,174,51,0.136976544154585,1
77,175,51,0.128534779633142,1
78,168,51,0.122884509537755,1
78,169,51,0.170407667098674,1
78,170,51,0.171799457284266,1
74,173,52,0.138035838043766,1
74,174,52,0.136771132033946,1
75,172,52,0.144870978765083,1
75,173,52,0.204658589557141,1
75,174,52,0.224681124828387,1
75,175,52,0.166012893502825,1
76,169,52,0.161776436335009,1
76,170,52,0.169255712817038,1
76,171,52,0.128765382473082,1
76,172,52,0.128967944591818,1
76,173,52,0.189406003545497,1
76,174,52,0.22208215863007,1
76,175,52,0.172840249714811,1
77,168,52,0.127358953641351,1
77,169,52,0.193390365090426,1
77,170,52,0.215001835307011,1
77,171,52,0.142023626657099,1
77,174,52,0.125151415183755,1
78,169,52,0.15192916157749,1
78,170,52,0.168777112704055,1
78,171,52,0.117785926794239,1
74,172,53,0.134797823691439,1
74,173,53,0.141139902306645,1
74,174,53,0.130942878142021,1
75,170,53,0.157038955898741,1
75,171,53,0.153867374855239,1
75,172,53,0.176741089716364,1
75,173,53,0.237746970330208,1
75,174,53,0.2282713499531,1
75,175,53,0.143794938170504,1
76,169,53,0.159874754899836,1
76,170,53,0.167421736592366,1
76,171,53,0.154465274634663,1
76,172,53,0.161699038762664,1
76,173,53,0.219993860954578,1
76,174,53,0.222083548300419,1
76,175,53,0.148424884030832,1
77,169,53,0.153193113867798,1
77,170,53,0.180831066207852,1
77,171,53,0.150793777348241,1
77,172,53,0.117263493180911,1
77,173,53,0.118642623234082,1
77,174,53,0.118737061933509,1
78,169,53,0.135515188013448,1
78,170,53,0.152267357877707,1
78,171,53,0.12300034680519,1
91,159,53,0.124793516184431,1
92,159,53,0.201823426506883,1
94,162,53,0.118714038157804,1
74,172,54,0.138237611112388,1
74,173,54,0.141424160554315,1
74,174,54,0.125011282238939,1
75,169,54,0.235395907189994,1
75,170,54,0.2090188569316,1
75,171,54,0.185159418271744,1
75,172,54,0.194756846788043,1
75,173,54,0.243445796449755,1
75,174,54,0.219384148977184,1
75,175,54,0.129968872326321,1
76,168,54,0.122819171477595,1
76,169,54,0.161376199497495,1
76,170,54,0.17816673839564,1
76,171,54,0.185848188359782,1
76,172,54,0.190438387292741,1
76,173,54,0.22632647096842,1
76,174,54,0.20914326775848,1
76,175,54,0.12956665697509,1
77,169,54,0.11612615399168,1
77,170,54,0.148725041049449,1
77,171,54,0.164748222823607,1
77,172,54,0.142205449712399,1
77,173,54,0.124365756807877,1
78,167,54,0.132929882981277,1
78,168,54,0.119177693426096,1
78,170,54,0.119457982869463,1
78,171,54,0.117383311029517,1
79,167,54,0.125127767234079,1
91,158,54,0.141770930413977,1
91,159,54,0.128408990912781,1
92,158,54,0.190890854537033,1
92,159,54,0.191996584614248,1
92,160,54,0.119489485989673,1
93,159,54,0.165909233516249,1
94,162,54,0.13167720115304,1
94,163,54,0.113844374162194,1
74,171,55,0.163601415033011,1
74,172,55,0.148025895541259,1
74,173,55,0.144147890885534,1
74,174,55,0.123891855664975,1
75,169,55,0.290089398671268,1
75,170,55,0.271864084021636,1
75,171,55,0.213902818044196,1
75,172,55,0.199201566078401,1
75,173,55,0.228663025008037,1
75,174,55,0.204065765607553,1
75,175,55,0.122302072785186,1
76,168,55,0.121864833030401,1
76,169,55,0.178847252899653,1
76,170,55,0.212905317378096,1
76,171,55,0.222845087651926,1
76,172,55,0.210539297616324,1
76,173,55,0.209650850742056,1
76,174,55,0.180055559491646,1
77,170,55,0.142303433248904,1
77,171,55,0.185783144721307,1
77,172,55,0.167996930571504,1
77,173,55,0.126013399437047,1
78,167,55,0.141995456390354,1
78,168,55,0.117370309367942,1
79,166,55,0.113910783917284,1
79,167,55,0.132029388371691,1
88,157,55,0.128714753720265,1
90,157,55,0.16635351583772,1
90,158,55,0.117397007526266,1
91,157,55,0.189381601876309,1
91,158,55,0.144933985005504,1
91,159,55,0.130696635622216,1
92,158,55,0.167690838011733,1
92,159,55,0.166585025496447,1
92,160,55,0.117359745517913,1
93,159,55,0.138953444441639,1
94,162,55,0.120833968499047,1
73,172,56,0.149751689462285,1
74,170,56,0.242463699926173,1
74,171,56,0.180613994988519,1
74,172,56,0.153006415189408,1
74,173,56,0.141025348717754,1
74,174,56,0.121461404661831,1
75,168,56,0.196510716760875,1
75,169,56,0.305501361029008,1
75,170,56,0.308375693940133,1
75,171,56,0.226001664966401,1
75,172,56,0.189529825529007,1
75,173,56,0.2004536119558,1
75,174,56,0.180420018206095,1
76,168,56,0.122304498819864,1
76,169,56,0.189719491977975,1
76,170,56,0.241277816489649,1
76,171,56,0.241530736493252,1
76,172,56,0.214465328337178,1
76,173,56,0.181826871005051,1
76,174,56,0.144217492171681,1
77,170,56,0.143790910481864,1
77,171,56,0.191541632450941,1
77,172,56,0.181106868664752,1
77,173,56,0.122660678396552,1
78,167,56,0.131889879600845,1
79,166,56,0.119617606529774,1
79,167,56,0.12010545148364,1
87,157,56,0.143775105925856,1
88,156,56,0.255239198539895,1
88,157,56,0.169240061360305,1
89,157,56,0.144591678578575,1
90,156,56,0.213560605832206,1
90,157,56,0.173716271994006,1
90,158,56,0.134130770146828,1
91,157,56,0.22164730957936,1
91,158,56,0.172664597738012,1
91,159,56,0.143348347583029,1
92,157,56,0.192121631391965,1
92,158,56,0.159578931768411,1
92,159,56,0.146957545241072,1
93,158,56,0.119648014401319,1
73,170,57,0.172920885925682,1
73,171,57,0.17780421108744,1
73,172,57,0.167530896376004,1
73,173,57,0.124166397997066,1
73,185,57,0.126043889746664,1
74,168,57,0.225983057515959,1
74,169,57,0.275591038576495,1
74,170,57,0.261336200545165,1
74,171,57,0.199063800283926,1
74,172,57,0.156201502860177,1
74,173,57,0.135485404315873,1
74,174,57,0.117835413190921,1
74,185,57,0.137109104573683,1
75,167,57,0.11749307143339,1
75,168,57,0.189484225498557,1
75,169,57,0.284937160520021,1
75,170,57,0.302787782357461,1
75,171,57,0.226671886488334,1
75,172,57,0.176825412086721,1
75,173,57,0.168316955165372,1
75,174,57,0.15068879835252,1
76,168,57,0.138540865447123,1
76,169,57,0.202374607453457,1
76,170,57,0.251055254423674,1
76,171,57,0.239266398204339,1
76,172,57,0.203142836065629,1
76,173,57,0.154210811861435,1
76,174,57,0.114862672776066,1
77,168,57,0.118921381684691,1
77,169,57,0.12236412509935,1
77,170,57,0.146791291204432,1
77,171,57,0.175981128465084,1
77,172,57,0.170861524013315,1
77,173,57,0.115708287183716,1
85,157,57,0.115814950271471,1
85,158,57,0.127339168504172,1
85,159,57,0.123770589261683,1
86,156,57,0.161677757963329,1
86,157,57,0.13319909039245,1
86,158,57,0.116018324994055,1
87,156,57,0.250124434380614,1
87,157,57,0.172385403543311,1
88,156,57,0.292487215974934,1
88,157,57,0.201643122667474,1
88,158,57,0.123554884158964,1
89,156,57,0.198931145649889,1
89,157,57,0.150789525899121,1
90,156,57,0.186473080719214,1
90,157,57,0.175176203134192,1
90,158,57,0.153753633870195,1
90,159,57,0.123316273049214,1
91,156,57,0.269455808859747,1
91,157,57,0.261821336819537,1
91,158,57,0.228542265010041,1
91,159,57,0.185595857199548,1
91,160,57,0.119624248682969,1
92,155,57,0.279976131587367,3
92,156,57,0.294238129954057,3
92,157,57,0.240585478010799,1
92,158,57,0.183541182480393,1
92,159,57,0.155318814874052,1
72,171,58,0.154724330386164,1
72,172,58,0.168312067765414,1
72,173,58,0.151778382344573,1
73,168,58,0.161492119203002,1
73,169,58,0.181615511566391,1
73,170,58,0.197381616102765,1
73,171,58,0.192451454339484,1
73,172,58,0.172625463207747,1
73,173,58,0.131885922573409,1
73,184,58,0.113859095246404,1
73,185,58,0.14259634749409,1
73,186,58,0.124427714907102,1
74,167,58,0.146641454120905,1
74,168,58,0.199851719818339,1
74,169,58,0.244718381183845,1
74,170,58,0.250839007585056,1
74,171,58,0.199765042074507,1
74,172,58,0.151958403539165,1
74,173,58,0.123565530447065,1
74,185,58,0.149623875120736,1
74,186,58,0.130881697316043,1
75,167,58,0.13249685934501,1
75,168,58,0.181293225813989,1
75,169,58,0.238982010411128,1
75,170,58,0.25893247125408,1
75,171,58,0.208935547371837,1
75,172,58,0.159974811164998,1
75,173,58,0.134216635286811,1
75,174,58,0.114993761086743,1
76,167,58,0.116138649247958,1
76,168,58,0.153092668966014,1
76,169,58,0.19504877177637,1
76,170,58,0.223329611529195,1
76,171,58,0.207475663339121,1
76,172,58,0.17148260066772,1
76,173,58,0.124100223779323,1
77,168,58,0.123354159231538,1
77,169,58,0.126921890539577,1
77,170,58,0.133345924374799,1
77,171,58,0.141454344665381,1
77,172,58,0.138099927755985,1
85,156,58,0.150983903095036,1
85,157,58,0.141038927445829,1
85,158,58,0.154371636762217,1
85,159,58,0.152477598513967,1
86,155,58,0.187612516190837,1
86,156,58,0.189053533682029,1
86,157,58,0.165518206189017,1
86,158,58,0.142506631318478,1
86,159,58,0.120229650326907,1
87,155,58,0.230272993438495,1
87,156,58,0.245287557183757,1
87,157,58,0.194089180846329,1
87,158,58,0.133310334681612,1
88,155,58,0.249927642926889,1
88,156,58,0.275794495737151,1
88,157,58,0.211204596407697,1
88,158,58,0.138756853194659,1
89,155,58,0.196787508474634,1
89,156,58,0.192036413979688,1
89,157,58,0.151015500430185,1
89,158,58,0.114904056687998,1
90,155,58,0.177292459092816,1
90,156,58,0.16211873098507,1
90,157,58,0.164453459610244,1
90,158,58,0.162469481425902,1
90,159,58,0.14534745904194,1
91,155,58,0.247055830265381,3
91,156,58,0.260021996361796,3
91,157,58,0.271962326649223,1
91,158,58,0.268379850703239,1
91,159,58,0.240853071991142,1
91,160,58,0.143561567766733,1
92,154,58,0.234406297025031,3
92,155,58,0.332037681641692,3
92,156,58,0.35200189786573,3
92,157,58,0.277830833873813,3
92,158,58,0.20807107819953,1
92,159,58,0.176399878538101,1
92,160,58,0.12360936394741,1
92,163,58,0.117958775876604,1
93,155,58,0.273603645100616,3
93,156,58,0.273973156091165,3
93,161,58,0.117645252113524,1
71,171,59,0.144000373844878,1
71,172,59,0.151978506651763,1
71,173,59,0.152729435045771,1
72,169,59,0.155743794909906,1
72,170,59,0.170686496210487,1
72,171,59,0.169380771371623,1
72,172,59,0.167831088725223,1
72,173,59,0.150285570190695,1
73,168,59,0.14453759920362,1
73,169,59,0.187634468271612,1
73,170,59,0.212006365538135,1
73,171,59,0.19060911653898,1
73,172,59,0.160855673736681,1
73,173,59,0.126493648311461,1
73,185,59,0.138062241780406,1
73,186,59,0.149407074769352,1
74,167,59,0.137360858667416,1
74,168,59,0.169376355046359,1
74,169,59,0.200075456744603,1
74,170,59,0.211297916304724,1
74,171,59,0.17608411717022,1
74,172,59,0.140322045975383,1
74,185,59,0.137087917989287,1
74,186,59,0.130464701996264,1
75,167,59,0.153361758608513,1
75,168,59,0.174810849377823,1
75,169,59,0.188091245849361,1
75,170,59,0.196854424635021,1
75,171,59,0.172691401888143,1
75,172,59,0.138368122356564,1
76,167,59,0.131192583060832,1
76,168,59,0.159399122557431,1
76,169,59,0.169646846136076,1
76,170,59,0.17371929864892,1
76,171,59,0.158680062366521,1
76,172,59,0.129830717895223,1
77,168,59,0.114015126962167,1
77,169,59,0.113974296563001,1
85,155,59,0.189602076610312,1
85,156,59,0.177240758645069,1
85,157,59,0.15661928723007,1
85,158,59,0.160801311716909,1
85,159,59,0.158452191759811,1
85,160,59,0.120171849461863,1
86,155,59,0.21193791838499,1
86,156,59,0.214713019411669,1
86,157,59,0.196154113216962,1
86,158,59,0.16753189740973,1
86,159,59,0.135566111187949,1
87,155,59,0.228134691184157,1
87,156,59,0.229387137475047,1
87,157,59,0.208959925487289,1
87,158,59,0.158653328877595,1
88,155,59,0.245401180400127,1
88,156,59,0.229212345209566,1
88,157,59,0.196417785500472,1
88,158,59,0.145311033191169,1
89,155,59,0.207666142391936,1
89,156,59,0.17424418185066,1
89,157,59,0.144738206362373,1
89,158,59,0.117176721222141,1
90,155,59,0.188539544082605,1
90,156,59,0.157688709225188,1
90,157,59,0.156885691746809,1
90,158,59,0.162179464290089,1
90,159,59,0.153583104830701,1
91,155,59,0.262696334511271,3
91,156,59,0.248934664577859,3
91,157,59,0.252979170584438,1
91,158,59,0.271738683937898,1
91,159,59,0.266729440510238,1
91,160,59,0.16114852909753,1
91,163,59,0.116058637211057,1
91,164,59,0.121556620634504,1
92,154,59,0.25597984572869,3
92,155,59,0.352012944567322,3
92,156,59,0.3580278382533,3
92,157,59,0.283213780856806,3
92,158,59,0.226429330128015,1
92,159,59,0.199030306873131,1
92,160,59,0.143152203857009,1
92,161,59,0.127451025190437,1
92,162,59,0.134478847238767,1
92,163,59,0.141777890542591,1
93,155,59,0.271638038829368,3
93,156,59,0.275521908365043,3
93,158,59,0.121646089495901,1
93,161,59,0.136419510104929,1
93,162,59,0.12241889930948,1
70,172,60,0.12846363557737,1
70,173,60,0.14845657558092,1
71,169,60,0.152784279917106,1
71,170,60,0.143741706729999,1
71,171,60,0.14907829996303,1
71,172,60,0.162089736337609,1
71,173,60,0.163700741132396,1
71,174,60,0.122375701759973,1
72,168,60,0.132630020384344,1
72,169,60,0.17249867345366,1
72,170,60,0.188110665903651,1
72,171,60,0.173213576410388,1
72,172,60,0.154321384869156,1
72,173,60,0.134246984274019,1
72,185,60,0.131104633415325,1
73,168,60,0.125354801683206,1
73,169,60,0.180066665077575,1
73,170,60,0.201960886102807,1
73,171,60,0.168297805979031,1
73,172,60,0.133496044103144,1
73,185,60,0.119606689373723,1
73,186,60,0.168441507314659,1
74,167,60,0.12185391587435,1
74,168,60,0.141148522973559,1
74,169,60,0.159395883918904,1
74,170,60,0.164540184461545,1
74,171,60,0.141066791514023,1
74,172,60,0.119097681389196,1
74,186,60,0.120590034245246,1
75,167,60,0.158146829365817,1
75,168,60,0.169293987635985,1
75,169,60,0.153408630540639,1
75,170,60,0.144513491956117,1
75,171,60,0.131358601560124,1
76,167,60,0.132580616425734,1
76,168,60,0.152045363927813,1
76,169,60,0.137498471362616,1
76,170,60,0.124729308703538,1
84,156,60,0.123770306616866,1
85,155,60,0.217401254264639,1
85,156,60,0.193980291930641,1
85,157,60,0.169870100210778,1
85,158,60,0.156193094176876,1
85,159,60,0.144041298458983,1
85,160,60,0.11551691308898,1
86,155,60,0.241444647592789,1
86,156,60,0.235588317649058,1
86,157,60,0.218694966698788,1
86,158,60,0.184889421810457,1
86,159,60,0.142531562946697,1
87,155,60,0.226886955640215,1
87,156,60,0.213070593934744,1
87,157,60,0.209209971935254,1
87,158,60,0.17522932858289,1
87,159,60,0.124464494063894,1
88,155,60,0.227114249180424,1
88,156,60,0.180237900729111,1
88,157,60,0.164335620275356,1
88,158,60,0.135829277066162,1
89,155,60,0.20732499009801,1
89,156,60,0.150235742264859,1
89,157,60,0.128480876911197,1
90,155,60,0.216341312647753,3
90,156,60,0.162362417924656,1
90,157,60,0.15027641956475,1
90,158,60,0.155632173760989,1
90,159,60,0.148920431055957,1
90,164,60,0.114304861453164,1
91,154,60,0.300656758207158,3
91,155,60,0.300248148016945,3
91,156,60,0.241569270403281,3
91,157,60,0.220340407053759,1
91,158,60,0.241882864827566,1
91,159,60,0.24607279159241,1
91,160,60,0.164979108308363,1
91,162,60,0.122121274317347,1
91,163,60,0.149823975874192,1
91,164,60,0.134584697722674,1
92,154,60,0.265052061290963,3
92,155,60,0.345512231548664,3
92,156,60,0.314345599992764,3
92,157,60,0.25030949607444,3
92,158,60,0.216095246780958,1
92,159,60,0.197323085071944,1
92,160,60,0.161552181226581,1
92,161,60,0.155134071155644,1
92,162,60,0.16186512792316,1
92,163,60,0.14785941774414,1
93,155,60,0.233016603121831,3
93,156,60,0.235116018160118,3
93,157,60,0.179130651436005,1
93,158,60,0.129968860549454,1
93,160,60,0.119601330899071,1
93,161,60,0.141637204085009,1
93,162,60,0.122292816167434,1
70,172,61,0.132250404841593,1
70,173,61,0.153044242487395,1
70,175,61,0.131788233458589,1
71,168,61,0.175931041448167,1
71,169,61,0.152526378298606,1
71,170,61,0.137881690626782,1
71,171,61,0.144891505844906,1
71,172,61,0.161034258153455,1
71,173,61,0.164262109069243,1
71,174,61,0.138450878403562,1
71,182,61,0.118800362595614,1
72,167,61,0.115060641916528,1
72,168,61,0.143621983096333,1
72,169,61,0.184352078683041,1
72,170,61,0.189973354130967,1
72,171,61,0.163547370988658,1
72,172,61,0.137380926449412,1
72,173,61,0.11727768430609,1
72,184,61,0.122698482140805,1
73,168,61,0.120079754359043,1
73,169,61,0.168335527285212,1
73,170,61,0.178715328431393,1
73,171,61,0.142082346117798,1
74,168,61,0.126226407637138,1
74,169,61,0.135752197469236,1
74,170,61,0.131753786121537,1
75,161,61,0.126157807384718,1
75,167,61,0.146169884797741,1
75,168,61,0.157842208914467,1
75,169,61,0.135944702143239,1
75,170,61,0.113939354597519,1
76,167,61,0.121327843209006,1
76,168,61,0.135193926848507,1
76,169,61,0.114620528606105,1
84,155,61,0.148303806057418,1
84,156,61,0.129418657082872,1
84,157,61,0.130335380215692,1
85,155,61,0.223611196427973,1
85,156,61,0.193770286831729,1
85,157,61,0.18557978177559,1
85,158,61,0.157570893444035,1
85,159,61,0.124927148298459,1
86,154,61,0.237693644674764,1
86,155,61,0.270251524680357,1
86,156,61,0.244540008750684,1
86,157,61,0.228805006921029,1
86,158,61,0.193015507402091,1
86,159,61,0.139815758447217,1
87,155,61,0.238202358237608,1
87,156,61,0.208382529233953,1
87,157,61,0.199816483431172,1
87,158,61,0.177142162711461,1
87,159,61,0.132284769740574,1
88,155,61,0.207267189232966,1
88,156,61,0.156046990360304,1
88,157,61,0.140259722793269,1
88,158,61,0.12180316935286,1
89,155,61,0.209567753165905,1
89,156,61,0.148591126290603,1
89,157,61,0.124105676468915,1
90,155,61,0.268600007461823,3
90,156,61,0.194978970283478,1
90,157,61,0.154747036186451,1
90,158,61,0.147132902796186,1
90,159,61,0.134823037964475,1
90,163,61,0.114742737158786,1
90,164,61,0.120584875977339,1
91,154,61,0.30418572006782,3
91,155,61,0.345279614864404,3
91,156,61,0.252311233774774,3
91,157,61,0.196585664744808,1
91,158,61,0.204571605614758,1
91,159,61,0.199768245382432,1
91,160,61,0.158258203200519,1
91,161,61,0.141717098353236,1
91,162,61,0.161490894408796,1
91,163,61,0.162688707811964,1
91,164,61,0.120423038265963,1
92,155,61,0.31789218004701,3
92,156,61,0.256168558251401,3
92,157,61,0.202444938905381,1
92,158,61,0.19016769599628,1
92,159,61,0.175476866558106,1
92,160,61,0.165056529434443,1
92,161,61,0.170990633810274,1
92,162,61,0.165660906490919,1
92,163,61,0.128940351391574,1
93,157,61,0.15293999365745,1
93,158,61,0.127651856109669,1
93,160,61,0.117908323776798,1
93,161,61,0.127691155516077,1
69,175,62,0.134979034349636,1
70,172,62,0.132095645027505,1
70,173,62,0.150780375273176,1
70,174,62,0.172571054080506,1
70,175,62,0.171220058963477,1
70,176,62,0.143592328944299,1
71,169,62,0.15061540491508,1
71,170,62,0.133412169253746,1
71,171,62,0.132659250569152,1
71,172,62,0.14779676480974,1
71,173,62,0.15802218300159,1
71,174,62,0.158070232620453,1
71,175,62,0.136244741393183,1
71,182,62,0.166230376912516,1
71,183,62,0.237797705074831,1
72,167,62,0.119654597670178,1
72,168,62,0.14472546379188,1
72,169,62,0.174491672718406,1
72,170,62,0.169829316919081,1
72,171,62,0.141407413848918,1
72,172,62,0.122689767258952,1
72,183,62,0.117394557937854,1
72,184,62,0.143321837854583,1
73,169,62,0.1444684572153,1
73,170,62,0.144458258448159,1
73,171,62,0.115820202754317,1
73,186,62,0.176728241154065,1
74,161,62,0.1764737194965,1
74,187,62,0.121320247129553,1
75,160,62,0.152904427517998,1
75,161,62,0.146902559047329,1
75,167,62,0.120523400729676,1
75,168,62,0.127227311817907,1
83,155,62,0.140086296644403,1
84,154,62,0.183400307592933,1
84,155,62,0.160260741727834,1
84,156,62,0.134045010998652,1
84,157,62,0.140078853664226,1
84,158,62,0.118788373744633,1
85,154,62,0.210898374302385,1
85,155,62,0.213196724184259,1
85,156,62,0.184364091087757,1
85,157,62,0.19152561591132,1
85,158,62,0.160467873271109,1
86,154,62,0.247084000532126,1
86,155,62,0.281765014186885,1
86,156,62,0.237212512535298,1
86,157,62,0.220675953558819,1
86,158,62,0.189555852405892,1
86,159,62,0.131528588863719,1
87,154,62,0.239786323344917,1
87,155,62,0.252485460750622,1
87,156,62,0.208029717841332,1
87,157,62,0.184279073882225,1
87,158,62,0.166956573885051,1
87,159,62,0.127766174161214,1
88,155,62,0.187275992205787,1
88,156,62,0.147311392998021,1
88,157,62,0.129465470130661,1
88,158,62,0.114278799245678,1
89,155,62,0.197824402762081,1
89,156,62,0.149962813363598,1
89,157,62,0.122880175650564,1
90,155,62,0.290579339907526,3
90,156,62,0.214379333651654,1
90,157,62,0.150930659877664,1
90,158,62,0.128434617376174,1
90,163,62,0.11433870816998,1
91,154,62,0.275688551038305,3
91,155,62,0.340713205203529,3
91,156,62,0.244875673024416,3
91,157,62,0.169335230225509,1
91,158,62,0.160605379974502,1
91,159,62,0.151903664659637,1
91,160,62,0.142384481650133,1
91,161,62,0.161996545986123,1
91,162,62,0.169882195053565,1
91,163,62,0.139896382881221,1
92,155,62,0.26019068820998,3
92,156,62,0.19824403610015,1
92,157,62,0.155058086807384,1
92,158,62,0.151332981220702,1
92,159,62,0.143838606794706,1
92,160,62,0.146487236042716,1
92,161,62,0.160441610856877,1
92,162,62,0.140366597864637,1
93,157,62,0.12070220890693,1
109,190,62,0.116437534364899,1
69,174,63,0.134987819892693,1
69,175,63,0.16997503209903,1
69,176,63,0.176383767783541,1
70,172,63,0.126478197061474,1
70,173,63,0.142733559775799,1
70,174,63,0.180362688415746,1
70,175,63,0.203517717307699,1
70,176,63,0.170981942482157,1
70,177,63,0.129710016781565,1
70,178,63,0.131922513300323,1
70,179,63,0.147744181096941,1
70,180,63,0.150248414174148,1
70,181,63,0.18493115902841,1
70,182,63,0.235482561380091,1
70,183,63,0.239329875519454,1
71,168,63,0.148779002655731,1
71,169,63,0.137047546887949,1
71,170,63,0.123841109143484,1
71,171,63,0.114382188364304,1
71,172,63,0.123607255888151,1
71,173,63,0.143732897633208,1
71,174,63,0.169054917228408,1
71,175,63,0.154658144391554,1
71,176,63,0.115007163161808,1
71,181,63,0.134382123827071,1
71,182,63,0.201837912053746,1
71,183,63,0.257545698013987,1
71,184,63,0.268566561158497,1
72,166,63,0.11537805204584,1
72,167,63,0.120288416895075,1
72,168,63,0.132919413346187,1
72,169,63,0.143892167987497,1
72,170,63,0.13256935774053,1
72,174,63,0.118956959601011,1
72,183,63,0.122125937956825,1
72,184,63,0.14898682903418,1
72,185,63,0.154378761766975,1
72,186,63,0.174730613580443,1
73,161,63,0.127947738125432,1
73,169,63,0.118403329066025,1
73,186,63,0.159497435846222,1
73,187,63,0.20136747330985,1
74,160,63,0.178660931081018,1
74,161,63,0.177022698168876,1
74,162,63,0.119135049389355,1
74,187,63,0.13173716896168,1
75,159,63,0.142479626961602,1
75,160,63,0.15591857539852,1
75,161,63,0.151248058230108,1
76,159,63,0.117327606446864,1
76,160,63,0.115994535721971,1
83,154,63,0.196643265403106,1
83,155,63,0.178287215748818,1
83,156,63,0.121955797553954,1
84,154,63,0.193056879537156,1
84,155,63,0.192838524639279,1
84,156,63,0.147844096039694,1
84,157,63,0.139676767858536,1
84,158,63,0.117598768818021,1
85,154,63,0.189927412571363,1
85,155,63,0.205062324124263,1
85,156,63,0.177575457215677,1
85,157,63,0.180182843874164,1
85,158,63,0.150651571674769,1
86,154,63,0.23199686773014,1
86,155,63,0.264401200938984,1
86,156,63,0.218950548274416,1
86,157,63,0.196372844974594,1
86,158,63,0.16881718938371,1
87,155,63,0.252729383227555,1
87,156,63,0.205317363963992,1
87,157,63,0.167079960124469,1
87,158,63,0.148104612122749,1
88,155,63,0.174224914895646,1
88,156,63,0.148804817549002,1
88,157,63,0.12850368870329,1
89,155,63,0.17827526222844,1
89,156,63,0.150728698379164,1
89,157,63,0.124314209459406,1
90,155,63,0.270427706616188,1
90,156,63,0.210563652178042,1
90,157,63,0.141483786833801,1
91,155,63,0.294048946356652,3
91,156,63,0.224700391783402,1
91,157,63,0.149341477618111,1
91,158,63,0.126715300732201,1
91,159,63,0.117535927453743,1
91,160,63,0.127137077460131,1
91,161,63,0.161118686515619,1
91,162,63,0.145539198219564,1
92,157,63,0.134191103038356,1
92,158,63,0.123824762851577,1
92,159,63,0.117472862328986,1
92,160,63,0.123163173773425,1
92,161,63,0.135349887903066,1
108,193,63,0.124338564021124,1
109,190,63,0.12261146286782,1
109,191,63,0.150432357065574,1
69,173,64,0.13198020817356,1
69,174,64,0.144275069276245,1
69,175,64,0.203330229579195,1
69,176,64,0.235412983647678,1
69,177,64,0.194220940438446,1
69,178,64,0.195492783229892,1
69,179,64,0.202334307013322,1
69,180,64,0.157748724141297,1
69,181,64,0.141800678780949,1
70,171,64,0.116573722059147,1
70,172,64,0.12054987512752,1
70,173,64,0.132622683395974,1
70,174,64,0.172339485537442,1
70,175,64,0.212086966418404,1
70,176,64,0.194665057883774,1
70,177,64,0.145129798979238,1
70,178,64,0.152370476128384,1
70,179,64,0.182853860947041,1
70,180,64,0.194457726133754,1
70,181,64,0.24027763069779,1
70,182,64,0.261956511703191,1
70,183,64,0.232869298064787,1
71,168,64,0.122356458358693,1
71,169,64,0.117263175205492,1
71,173,64,0.125377460376023,1
71,174,64,0.164148780274557,1
71,175,64,0.158956076807033,1
71,176,64,0.119721596268636,1
71,180,64,0.118557688466622,1
71,181,64,0.167418556838177,1
71,182,64,0.216390492845883,1
71,183,64,0.239243598189114,1
71,184,64,0.238556323763231,1
72,174,64,0.12368947019925,1
72,183,64,0.123624320568968,1
72,184,64,0.143673789535886,1
72,185,64,0.140240844474878,1
72,186,64,0.139203490889604,1
73,160,64,0.121920890919074,1
73,161,64,0.119929834837443,1
73,186,64,0.133416373595397,1
73,187,64,0.176161020114136,1
74,159,64,0.14988408500524,1
74,160,64,0.156536142546449,1
74,161,64,0.154525371988843,1
74,162,64,0.125924707848896,1
74,187,64,0.136525984762806,1
74,188,64,0.117699943885582,1
75,158,64,0.150239145779529,1
75,159,64,0.166270064955547,1
75,160,64,0.150317002649701,1
75,161,64,0.139960083956816,1
75,162,64,0.124910166055714,1
75,163,64,0.120248775959513,1
75,164,64,0.129294152041054,1
75,165,64,0.124814314132203,1
76,158,64,0.143285906632242,1
76,159,64,0.151917643801203,1
76,160,64,0.132189801082115,1
76,161,64,0.116523328843677,1
77,159,64,0.122767211938766,1
77,160,64,0.125538096846927,1
82,155,64,0.116672164893479,1
83,154,64,0.19672053342991,1
83,155,64,0.193776622786373,1
83,156,64,0.140570267008906,1
84,154,64,0.192069718960606,1
84,155,64,0.219308376612536,1
84,156,64,0.170627081914613,1
84,157,64,0.135194221270191,1
85,154,64,0.170803994016221,1
85,155,64,0.206079421497663,1
85,156,64,0.183199088037077,1
85,157,64,0.158284442061016,1
85,158,64,0.125093402335098,1
86,154,64,0.198014528508875,1
86,155,64,0.228928664028397,1
86,156,64,0.197762150241171,1
86,157,64,0.163533356516489,1
86,158,64,0.132918541858002,1
87,154,64,0.204397896821075,1
87,155,64,0.226863519674152,1
87,156,64,0.189365655997893,1
87,157,64,0.146130667829405,1
87,158,64,0.121007818615138,1
88,155,64,0.16176448281463,1
88,156,64,0.146246929064065,1
88,157,64,0.124090083896519,1
89,155,64,0.158062118358836,1
89,156,64,0.144716395604006,1
89,157,64,0.121085487055433,1
90,155,64,0.219745157069493,1
90,156,64,0.183196190927704,1
90,157,64,0.129069084328777,1
91,156,64,0.190264607837854,1
91,157,64,0.132153693206764,1
91,161,64,0.13906205071251,1
92,157,64,0.12122776339011,1
108,193,64,0.129855885060789,1
109,190,64,0.120282658006932,1
109,191,64,0.141725401044731,1
68,173,65,0.179401472278008,1
68,174,65,0.148967750509043,1
68,175,65,0.183136340887738,1
68,176,65,0.233478845166039,1
68,177,65,0.216724155052163,1
68,178,65,0.225792107388449,1
69,172,65,0.183509184731753,1
69,173,65,0.162246839748303,1
69,174,65,0.15899932146401,1
69,175,65,0.221033075284897,1
69,176,65,0.266009991682705,1
69,177,65,0.209493087826789,1
69,178,65,0.201109512807014,1
69,179,65,0.217632410617345,1
69,180,65,0.181235566271353,1
69,181,65,0.160945778548917,1
69,182,65,0.129419092826964,1
70,170,65,0.145006919145116,1
70,171,65,0.138288298749542,1
70,172,65,0.132157944655884,1
70,173,65,0.133163076732038,1
70,174,65,0.159179283774266,1
70,175,65,0.196554632699292,1
70,176,65,0.198060057878121,1
70,177,65,0.154803223620665,1
70,178,65,0.157099877633637,1
70,179,65,0.195498777655382,1
70,180,65,0.228691642795742,1
70,181,65,0.266127006636877,1
70,182,65,0.233071506877502,1
70,183,65,0.182862552275159,1
70,184,65,0.153632791434129,1
71,167,65,0.117701887068698,1
71,170,65,0.114599506897853,1
71,173,65,0.117068527141628,1
71,174,65,0.154001595812636,1
71,175,65,0.155001004331249,1
71,176,65,0.125116779416825,1
71,179,65,0.115501932913687,1
71,180,65,0.146550042076392,1
71,181,65,0.189555605091677,1
71,182,65,0.194976073174105,1
71,183,65,0.186205698722483,1
71,184,65,0.175964452420891,1
71,185,65,0.143533338615651,1
72,174,65,0.123113286963253,1
72,183,65,0.122729019557891,1
72,184,65,0.132914679045505,1
72,185,65,0.125974488667262,1
73,186,65,0.114643399282534,1
73,187,65,0.140651362517604,1
74,159,65,0.153354515835082,1
74,160,65,0.14343413028494,1
74,161,65,0.129841046207905,1
74,162,65,0.126822729316335,1
74,163,65,0.118459575384576,1
74,164,65,0.114162066936322,1
74,187,65,0.130459496620887,1
75,158,65,0.19585728905181,1
75,159,65,0.199366018254333,1
75,160,65,0.152727079672298,1
75,161,65,0.131260877114701,1
75,162,65,0.142706967609281,1
75,163,65,0.150669849372924,1
75,164,65,0.15484907096533,1
75,165,65,0.140711895615877,1
76,157,65,0.175760783276622,1
76,158,65,0.220911938427146,1
76,159,65,0.197703689871555,1
76,160,65,0.146867958611,1
76,161,65,0.131480668790397,1
76,162,65,0.126726712516681,1
76,163,65,0.120158553378604,1
77,157,65,0.123248697384254,1
77,158,65,0.143685896155541,1
77,159,65,0.147203705322805,1
77,160,65,0.154577390412009,1
77,161,65,0.144564921535915,1
78,159,65,0.136712118151563,1
78,160,65,0.157567195507681,1
78,161,65,0.126219353293585,1
79,159,65,0.140134381593868,1
79,160,65,0.130878011156556,1
82,155,65,0.116438700274768,1
82,156,65,0.115118536996511,1
82,157,65,0.118348366426017,1
83,154,65,0.170888328163446,1
83,155,65,0.180845716630859,1
83,156,65,0.165169634468648,1
83,157,65,0.136967947041406,1
84,154,65,0.179335309837133,1
84,155,65,0.227784023181397,1
84,156,65,0.213078296006003,1
84,157,65,0.149146005173531,1
85,154,65,0.166053853447532,1
85,155,65,0.219804041406335,1
85,156,65,0.216193300978667,1
85,157,65,0.150900440435997,1
86,154,65,0.176262524933984,1
86,155,65,0.20417912973284,1
86,156,65,0.192946047438352,1
86,157,65,0.143446095582186,1
87,155,65,0.192212431039375,1
87,156,65,0.171240209183545,1
87,157,65,0.131801447103776,1
88,155,65,0.160876648337464,1
88,156,65,0.146200104239408,1
88,157,65,0.120682659307098,1
89,156,65,0.135236712207656,1
89,157,65,0.114877876711838,1
90,156,65,0.140834916772407,1
91,156,65,0.146002087991477,1
91,157,65,0.115278902599466,1
108,193,65,0.119969593541679,1
109,191,65,0.11670563475054,1
68,173,66,0.231606653006757,1
68,174,66,0.205236362670232,1
68,175,66,0.24033168651901,1
68,176,66,0.27789018928535,1
68,177,66,0.247898488679321,1
68,178,66,0.264311555424576,1
69,171,66,0.211760229010136,1
69,172,66,0.213243454793976,1
69,173,66,0.190866488198448,1
69,174,66,0.175959882996352,1
69,175,66,0.218281339563076,1
69,176,66,0.24781852374989,1
69,177,66,0.198993775030554,1
69,178,66,0.190440424690796,1
69,179,66,0.210519276941798,1
69,180,66,0.187087267906209,1
69,181,66,0.15411837522946,1
70,169,66,0.135485392539006,1
70,170,66,0.163673242147091,1
70,171,66,0.162398949767233,1
70,172,66,0.141347870007503,1
70,173,66,0.129838820379973,1
70,174,66,0.141814528376974,1
70,175,66,0.16733217351603,1
70,176,66,0.173028408724756,1
70,177,66,0.14502779953096,1
70,178,66,0.139528555982705,1
70,179,66,0.175570257116337,1
70,180,66,0.224716926505187,1
70,181,66,0.235414090673211,1
70,182,66,0.170584767630159,1
70,183,66,0.123646790831907,1
71,174,66,0.137053482429102,1
71,175,66,0.143886632859834,1
71,176,66,0.12221845702687,1
71,179,66,0.116958283886193,1
71,180,66,0.155204426161303,1
71,181,66,0.176973423755807,1
71,182,66,0.150345432007528,1
71,183,66,0.129598584062526,1
71,184,66,0.116190432133776,1
72,183,66,0.118177048336409,1
72,184,66,0.120836700732276,1
74,160,66,0.137384153311071,1
74,162,66,0.123846809147291,1
74,163,66,0.134555126008712,1
74,164,66,0.129431046347343,1
75,159,66,0.226431567732815,1
75,160,66,0.17022993061635,1
75,161,66,0.131563895912089,1
75,162,66,0.152243827696705,1
75,163,66,0.17550003165622,1
75,164,66,0.164312761375794,1
75,165,66,0.131981421190899,1
76,158,66,0.279796958327225,1
76,159,66,0.22871187545388,1
76,160,66,0.16147861113613,1
76,161,66,0.140422161124881,1
76,162,66,0.150289633209937,1
76,163,66,0.151476529457054,1
76,164,66,0.126803745006137,1
77,157,66,0.16111881606116,1
77,158,66,0.175883792656285,1
77,159,66,0.15789316741957,1
77,160,66,0.162761006000738,1
77,161,66,0.155933131606587,1
77,162,66,0.120518807751402,1
78,159,66,0.157000845955937,1
78,160,66,0.187974619531812,1
78,161,66,0.148023905250674,1
79,158,66,0.122471789220831,1
79,159,66,0.176784558133821,1
79,160,66,0.167435385981646,1
80,158,66,0.125151097208336,1
80,159,66,0.130107486055247,1
81,157,66,0.125495629463197,1
81,158,66,0.119490322147256,1
82,156,66,0.126405345359933,1
82,157,66,0.141075435734671,1
82,158,66,0.122869329155717,1
83,155,66,0.151545000163934,1
83,156,66,0.176301400373167,1
83,157,66,0.16328910428727,1
83,158,66,0.124210372819819,1
84,154,66,0.152314924645008,1
84,155,66,0.203090617435718,1
84,156,66,0.236878497022996,1
84,157,66,0.171700425606565,1
85,154,66,0.154608834647883,1
85,155,66,0.209414653890116,1
85,156,66,0.232405948995047,1
85,157,66,0.1499337598318,1
86,155,66,0.178246538448928,1
86,156,66,0.181532107791689,1
86,157,66,0.125024931628219,1
87,155,66,0.154807251309305,1
87,156,66,0.146978625833661,1
87,157,66,0.114014549895666,1
88,156,66,0.141681437998845,1
89,156,66,0.127182206415887,1
68,172,67,0.224937483677262,1
68,173,67,0.261996765035856,1
68,174,67,0.263180034007824,1
68,175,67,0.285898388434626,1
68,176,67,0.305202440581464,1
68,177,67,0.284833241442363,1
68,178,67,0.29471556415717,1
68,179,67,0.283150091558078,1
69,169,67,0.175953994562667,1
69,170,67,0.217591992408537,1
69,171,67,0.236624752638678,1
69,172,67,0.225758025134285,1
69,173,67,0.213644386466665,1
69,174,67,0.202020170853139,1
69,175,67,0.213074433193506,1
69,176,67,0.219909679906629,1
69,177,67,0.193432078754644,1
69,178,67,0.184568148868648,1
69,179,67,0.198918991922765,1
69,180,67,0.195938773197131,1
69,181,67,0.149184550860427,1
70,168,67,0.119875284387793,1
70,169,67,0.140948539988777,1
70,170,67,0.175978137140773,1
70,171,67,0.183937521174808,1
70,172,67,0.155091285796495,1
70,173,67,0.134186839812369,1
70,174,67,0.132733868800798,1
70,175,67,0.141374426843419,1
70,176,67,0.144728125363905,1
70,177,67,0.133371315300845,1
70,178,67,0.124837914974409,1
70,179,67,0.150342640889962,1
70,180,67,0.199002136606385,1
70,181,67,0.187680209624471,1
70,182,67,0.124616144784996,1
71,168,67,0.115269881519061,1
71,169,67,0.11393863620861,1
71,170,67,0.113966488499936,1
71,174,67,0.116387117595695,1
71,175,67,0.123544756053027,1
71,179,67,0.115051302860705,1
71,180,67,0.149919203623733,1
71,181,67,0.153151706402131,1
71,182,67,0.120096559948777,1
72,164,67,0.128240357948933,1
72,183,67,0.119608055490338,1
72,184,67,0.119416540073194,1
73,163,67,0.136424067752601,1
73,164,67,0.142834593520952,1
73,185,67,0.117774880092647,1
74,160,67,0.142244819780012,1
74,162,67,0.12472912027366,1
74,163,67,0.153216149420371,1
74,164,67,0.15314692499398,1
74,165,67,0.117594211170349,1
75,159,67,0.249812889131252,1
75,160,67,0.205685979912621,1
75,161,67,0.147859676835222,1
75,162,67,0.156490471854794,1
75,163,67,0.178761788173161,1
75,164,67,0.155126109993303,1
76,158,67,0.292809148421316,1
76,159,67,0.243149867326523,1
76,160,67,0.185581936942318,1
76,161,67,0.150362284704732,1
76,162,67,0.163678753721019,1
76,163,67,0.162159372954358,1
76,164,67,0.121920384513777,1
77,157,67,0.19124493783133,1
77,158,67,0.198379281645008,1
77,159,67,0.168667976474153,1
77,160,67,0.163508307119597,1
77,161,67,0.15514939286009,1
77,162,67,0.139991280878475,1
78,157,67,0.11808391686926,1
78,158,67,0.131342926549657,1
78,159,67,0.172420263070721,1
78,160,67,0.204399427813833,1
78,161,67,0.165439678037405,1
79,158,67,0.13460409422323,1
79,159,67,0.200439691698571,1
79,160,67,0.206322236949064,1
79,161,67,0.133302715048425,1
80,156,67,0.116893652438075,1
80,157,67,0.125116567433212,1
80,158,67,0.13400604134453,1
80,159,67,0.14653541520712,1
80,160,67,0.124852671389222,1
81,156,67,0.133545259631876,1
81,157,67,0.149017248682593,1
81,158,67,0.131497733471214,1
82,156,67,0.13371198474321,1
82,157,67,0.157167158876913,1
82,158,67,0.13590276471854,1
83,155,67,0.135318384782855,1
83,156,67,0.173360363285267,1
83,157,67,0.182350541189452,1
83,158,67,0.144646005267746,1
84,155,67,0.179232650884283,1
84,156,67,0.235946287309587,1
84,157,67,0.203729347614308,1
84,158,67,0.140965027603093,1
85,155,67,0.194318040709898,1
85,156,67,0.236857816843898,1
85,157,67,0.178948074661194,1
85,158,67,0.115406175205115,1
86,155,67,0.17405273709472,1
86,156,67,0.190648616152134,1
86,157,67,0.143507877028401,1
87,155,67,0.14813539685405,1
87,156,67,0.147601527902508,1
87,157,67,0.117638397976715,1
88,155,67,0.166698884250164,1
88,156,67,0.149917154448811,1
88,157,67,0.115162759133479,1
89,156,67,0.139640836636195,1
68,170,68,0.228559341467726,1
68,171,68,0.209413452649644,1
68,172,68,0.21080138002274,1
68,173,68,0.256234555816133,1
68,174,68,0.290543915090482,1
68,175,68,0.285324054166806,1
68,176,68,0.288046324166471,1
68,177,68,0.290886904575718,1
68,178,68,0.282491694010982,1
68,179,68,0.263039300442773,1
68,180,68,0.209950642677785,1
69,169,68,0.190770659828672,1
69,170,68,0.231826691996667,1
69,171,68,0.241548213364427,1
69,172,68,0.216479808608004,1
69,173,68,0.21173170543737,1
69,174,68,0.214847016608586,1
69,175,68,0.198391364710928,1
69,176,68,0.190686726094938,1
69,177,68,0.186237425603173,1
69,178,68,0.174527380180267,1
69,179,68,0.181271709477307,1
69,180,68,0.191917750264084,1
69,181,68,0.144465430560387,1
70,168,68,0.130512892937535,1
70,169,68,0.151468120773753,1
70,170,68,0.178698664164067,1
70,171,68,0.188778661597652,1
70,172,68,0.158839862679842,1
70,173,68,0.132390879315562,1
70,174,68,0.122586566570203,1
70,175,68,0.117685046148361,1
70,176,68,0.118832454559193,1
70,177,68,0.118404977827456,1
70,179,68,0.130313581234193,1
70,180,68,0.163148924234984,1
70,181,68,0.14500788484824,1
71,168,68,0.126995389968822,1
71,169,68,0.121616529558807,1
71,170,68,0.115064916919383,1
71,180,68,0.131421042510911,1
71,181,68,0.126233885947917,1
72,163,68,0.130919677713305,1
72,164,68,0.135141449127513,1
73,162,68,0.117682655444286,1
73,163,68,0.157983107355662,1
73,164,68,0.171160550452665,1
73,165,68,0.125533751182869,1
74,160,68,0.142041244850683,1
74,161,68,0.119186655622163,1
74,162,68,0.128801890761924,1
74,163,68,0.166472426867538,1
74,164,68,0.172348471287244,1
74,165,68,0.121493767493359,1
75,159,68,0.24370519373041,1
75,160,68,0.221638147176548,1
75,161,68,0.169438678228473,1
75,162,68,0.157003990379524,1
75,163,68,0.165125895183242,1
75,164,68,0.138510846212201,1
76,158,68,0.25749757773392,1
76,159,68,0.233223216482941,1
76,160,68,0.205844284563787,1
76,161,68,0.172146250697662,1
76,162,68,0.168836032371499,1
76,163,68,0.155392502733175,1
77,157,68,0.195970076110596,1
77,158,68,0.203631411185273,1
77,159,68,0.179577018263001,1
77,160,68,0.168781470144982,1
77,161,68,0.160324065943674,1
77,162,68,0.155978437215353,1
77,163,68,0.123477203941802,1
78,157,68,0.137979415072204,1
78,158,68,0.155888744593476,1
78,159,68,0.179550108121064,1
78,160,68,0.201337442298061,1
78,161,68,0.171555016625168,1
78,162,68,0.126238490703058,1
79,157,68,0.117940509955316,1
79,158,68,0.14344527120147,1
79,159,68,0.198529625133832,1
79,160,68,0.221508742957904,1
79,161,68,0.152966044088069,1
80,156,68,0.133231194132897,1
80,157,68,0.140726192732863,1
80,158,68,0.138261918566637,1
80,159,68,0.153365703859082,1
80,160,68,0.147427866216294,1
81,155,68,0.119784779162067,1
81,156,68,0.148178288205006,1
81,157,68,0.163919119584007,1
81,158,68,0.138744122401034,1
81,159,68,0.113793144789141,1
82,155,68,0.116654640914835,1
82,156,68,0.141606266254432,1
82,157,68,0.165251177498307,1
82,158,68,0.14269985438139,1
83,155,68,0.130098146999424,1
83,156,68,0.163115854791414,1
83,157,68,0.188146196712502,1
83,158,68,0.158625135057115,1
83,159,68,0.116307800393969,1
84,155,68,0.160993733952841,1
84,156,68,0.211428969284799,1
84,157,68,0.224453831288178,1
84,158,68,0.169360691812759,1
84,159,68,0.114770141929153,1
85,155,68,0.176593737551851,1
85,156,68,0.219908949740852,1
85,157,68,0.213438479717596,1
85,158,68,0.147224962568405,1
86,155,68,0.163249804880861,1
86,156,68,0.185657061579261,1
86,157,68,0.169702762702341,1
86,158,68,0.11542924608829,1
87,155,68,0.1452136502749,1
87,156,68,0.147183837747554,1
87,157,68,0.125713489732644,1
88,155,68,0.167313801602935,1
88,156,68,0.152070507539645,1
88,157,68,0.115816445933627,1
89,155,68,0.170574403986875,1
89,156,68,0.151301631199767,1
89,157,68,0.117389376116211,1
90,156,68,0.124201010210261,1
67,174,69,0.240728590503059,1
67,175,69,0.210799071756736,1
67,176,69,0.202528342680083,1
68,169,69,0.238237147103814,1
68,170,69,0.244158673785296,1
68,171,69,0.221313623819345,1
68,172,69,0.191550206010385,1
68,173,69,0.225067288309396,1
68,174,69,0.275881008604839,1
68,175,69,0.255482131759969,1
68,176,69,0.248650229677178,1
68,177,69,0.273328372602748,1
68,178,69,0.247155745208134,1
68,179,69,0.218446168598764,1
68,180,69,0.206823860837752,1
69,168,69,0.164496398068669,1
69,169,69,0.205392029303107,1
69,170,69,0.228190890395239,1
69,171,69,0.222214436404351,1
69,172,69,0.190754878826398,1
69,173,69,0.192710992942547,1
69,174,69,0.209910719097406,1
69,175,69,0.185820159415445,1
69,176,69,0.171791719882405,1
69,177,69,0.183657196400839,1
69,178,69,0.166842338271578,1
69,179,69,0.159647202268545,1
69,180,69,0.173675948000137,1
69,181,69,0.141312880934552,1
70,167,69,0.118793496681938,1
70,168,69,0.147645184749842,1
70,169,69,0.166125244817519,1
70,170,69,0.171177615133482,1
70,171,69,0.172921651422061,1
70,172,69,0.150947901211491,1
70,173,69,0.129838278644074,1
70,174,69,0.120881759026828,1
70,180,69,0.125950758279515,1
70,181,69,0.113906473583827,1
71,168,69,0.13409079945898,1
71,169,69,0.128679152250211,1
71,170,69,0.117154415835345,1
71,171,69,0.11599950556,1
72,163,69,0.132691095218516,1
72,164,69,0.138085618862132,1
72,165,69,0.116240601588765,1
73,162,69,0.136301741431246,1
73,163,69,0.175668770611873,1
73,164,69,0.191129972052081,1
73,165,69,0.142743134368969,1
74,161,69,0.137692012400947,1
74,162,69,0.143601891760602,1
74,163,69,0.181933522315939,1
74,164,69,0.187989882351921,1
74,165,69,0.132775276266465,1
75,160,69,0.217348352576421,1
75,161,69,0.192988267507868,1
75,162,69,0.161649116621889,1
75,163,69,0.155007681815047,1
75,164,69,0.132239958760237,1
76,159,69,0.206715490104228,1
76,160,69,0.218558166607437,1
76,161,69,0.204441918751298,1
76,162,69,0.173738789364415,1
76,163,69,0.145273500314866,1
77,158,69,0.193144499430376,1
77,159,69,0.183885573412846,1
77,160,69,0.177667964508856,1
77,161,69,0.174374351565683,1
77,162,69,0.17004117098617,1
77,163,69,0.13914967060573,1
78,157,69,0.158916765623758,1
78,158,69,0.178469651201222,1
78,159,69,0.180588627616208,1
78,160,69,0.183879025474589,1
78,161,69,0.167332032193621,1
78,162,69,0.144897559154734,1
79,156,69,0.131224604363207,1
79,157,69,0.142741391392599,1
79,158,69,0.15107164075693,1
79,159,69,0.178322028168759,1
79,160,69,0.203437893700676,1
79,161,69,0.156741413344679,1
80,156,69,0.1488271582664,1
80,157,69,0.153347131739242,1
80,158,69,0.138838561100461,1
80,159,69,0.149609201143995,1
80,160,69,0.157366376365316,1
81,156,69,0.16043018729553,1
81,157,69,0.1699834878898,1
81,158,69,0.144612052559123,1
81,159,69,0.12825961312708,1
82,155,69,0.131561717191626,1
82,156,69,0.154575435452026,1
82,157,69,0.168442944092478,1
82,158,69,0.149597070970606,1
82,159,69,0.126571481627898,1
83,155,69,0.135866904157404,1
83,156,69,0.158776114496777,1
83,157,69,0.182968037676177,1
83,158,69,0.166994801596529,1
83,159,69,0.136138478718918,1
84,155,69,0.157982153429405,1
84,156,69,0.189675964676181,1
84,157,69,0.222919399685021,1
84,158,69,0.186699644093647,1
84,159,69,0.13188095273538,1
85,155,69,0.170850936609551,1
85,156,69,0.203520119788642,1
85,157,69,0.23043268776001,1
85,158,69,0.175197095296903,1
86,155,69,0.153946409412148,1
86,156,69,0.176717818626444,1
86,157,69,0.189914304917982,1
86,158,69,0.141856795553959,1
87,155,69,0.141750356226684,1
87,156,69,0.145440190095598,1
87,157,69,0.135610156671906,1
88,155,69,0.159499402583072,1
88,156,69,0.149785995476929,1
88,157,69,0.117933950240192,1
89,156,69,0.159283615042282,1
89,157,69,0.123855618244082,1
90,157,69,0.123821771527266,1
68,174,70,0.232866777815171,1
68,175,70,0.21322616635268,1
68,176,70,0.200214023366059,1
69,169,70,0.201673554092753,1
69,170,70,0.208709455072099,1
69,171,70,0.192468000838136,1
69,172,70,0.165627954816023,1
69,173,70,0.167833585421105,1
69,174,70,0.182081557538759,1
69,175,70,0.162799422142093,1
69,176,70,0.149570372812282,1
69,177,70,0.161279534970136,1
69,178,70,0.149018838559687,1
69,179,70,0.137555471400678,1
69,180,70,0.144751349346356,1
70,168,70,0.150825362906523,1
70,169,70,0.164983724840372,1
70,170,70,0.157433410294376,1
70,171,70,0.149860707923514,1
70,172,70,0.135815557015678,1
70,173,70,0.12164488825543,1
71,168,70,0.128086151647612,1
71,169,70,0.12506108661104,1
71,170,70,0.114753772083511,1
72,164,70,0.138700029809607,1
72,165,70,0.122118848282669,1
73,163,70,0.17773041723651,1
73,164,70,0.187025086046504,1
73,165,70,0.148684658171243,1
74,162,70,0.160002062836088,1
74,163,70,0.184237407325475,1
74,164,70,0.183176582443536,1
74,165,70,0.13833113121616,1
75,161,70,0.196397623503537,1
75,162,70,0.168114051517482,1
75,163,70,0.153696457179122,1
75,164,70,0.132375569387984,1
76,160,70,0.211530556542719,1
76,161,70,0.214736054964242,1
76,162,70,0.178215765494495,1
76,163,70,0.143698933147717,1
77,159,70,0.178447251599487,1
77,160,70,0.180441628757716,1
77,161,70,0.182879075220077,1
77,162,70,0.17561490322053,1
77,163,70,0.1462100321386,1
78,158,70,0.181908696679526,1
78,159,70,0.17104667992208,1
78,160,70,0.162711543157791,1
78,161,70,0.157512162206469,1
78,162,70,0.150315436326341,1
78,163,70,0.117668016798147,1
79,157,70,0.158642941680576,1
79,158,70,0.154014974333966,1
79,159,70,0.154519907522385,1
79,160,70,0.165283410784294,1
79,161,70,0.143402474065454,1
80,157,70,0.155770811043649,1
80,158,70,0.138886763818599,1
80,159,70,0.140646675324391,1
80,160,70,0.14693289625767,1
80,161,70,0.114529964496042,1
81,157,70,0.163270956134655,1
81,158,70,0.146348386776443,1
81,159,70,0.137347409484882,1
81,160,70,0.12115906892275,1
82,156,70,0.156479448706938,1
82,157,70,0.16305424999821,1
82,158,70,0.15455031539393,1
82,159,70,0.14166906051124,1
83,156,70,0.152598511611237,1
83,157,70,0.171078124157954,1
83,158,70,0.169747868104362,1
83,159,70,0.149297526349092,1
84,156,70,0.1688097581804,1
84,157,70,0.201769747545418,1
84,158,70,0.188055243965816,1
84,159,70,0.143611843213528,1
85,156,70,0.181062410990436,1
85,157,70,0.217132058630333,1
85,158,70,0.185473142241569,1
85,159,70,0.122380035647164,1
86,156,70,0.161958141621635,1
86,157,70,0.187628367854315,1
86,158,70,0.156124882561079,1
87,156,70,0.138625329139889,1
87,157,70,0.13933104614007,1
87,158,70,0.114510226466333,1
88,156,70,0.139157148916509,1
88,157,70,0.11921088063834,1
89,157,70,0.126520888205684,1
91,158,70,0.11603513058379,1
