x,y,z,signal,mito.p
276,266,1,0.141898626986852,1
277,266,1,0.178391181933946,1
277,267,1,0.129675793204992,1
278,267,1,0.11462430898053,1
275,263,2,0.237159540185875,1
275,264,2,0.189284654704133,1
276,264,2,0.235254278583022,1
276,265,2,0.157849687225246,1
277,264,2,0.296101159710526,1
277,265,2,0.22508521270153,1
277,266,2,0.159186667870105,1
277,267,2,0.12783917896203,1
278,264,2,0.214959956766649,1
278,266,2,0.15240396953918,1
278,267,2,0.120344769205433,1
286,265,2,0.149847871138083,1
274,262,3,0.164636413244811,1
274,263,3,0.164712962882706,1
275,262,3,0.157513575430553,1
275,263,3,0.203016305402624,1
275,264,3,0.149914092463295,1
276,263,3,0.235093924756935,1
276,264,3,0.213928892028549,1
276,265,3,0.114435914433239,1
277,263,3,0.25217789608243,1
277,264,3,0.262291634241025,1
277,265,3,0.162285691633751,1
277,266,3,0.127004929231391,1
278,263,3,0.144698624311147,1
278,264,3,0.161520984304922,1
278,265,3,0.134642392595912,1
278,266,3,0.134559766094455,1
284,264,3,0.155853649528718,1
284,278,3,0.139889163661524,1
285,264,3,0.167177908330372,1
285,265,3,0.158684478691784,1
285,274,3,0.117446694129693,1
285,277,3,0.121765389162343,1
286,264,3,0.155433827760771,1
286,265,3,0.206911598499646,1
286,266,3,0.166615233161247,1
287,265,3,0.178383550523892,1
287,266,3,0.158907414791067,1
288,277,3,0.120071121915262,1
291,273,3,0.147943174824864,1
291,274,3,0.204176138408529,1
273,261,4,0.114303825088835,1
274,261,4,0.14307692612079,1
274,262,4,0.144810151245126,1
274,263,4,0.119667846645967,1
275,261,4,0.121352657068551,1
275,262,4,0.145658403671066,1
275,263,4,0.164307838645234,1
275,264,4,0.116406408104444,1
276,262,4,0.151298027478352,1
276,263,4,0.230726897460606,1
276,264,4,0.183082697256876,1
277,262,4,0.143361302137134,1
277,263,4,0.231656280725847,1
277,264,4,0.203110920755061,1
277,265,4,0.115155763674262,1
278,263,4,0.118470763408576,1
278,264,4,0.115314386300846,1
280,280,4,0.136378974127447,1
283,263,4,0.169960252130482,1
283,264,4,0.123943238137303,1
284,263,4,0.230096787948929,1
284,264,4,0.188785185982174,1
284,278,4,0.122541508275652,1
285,263,4,0.207167721811173,1
285,264,4,0.207057772977422,1
285,265,4,0.173938536811849,1
286,263,4,0.128760695279869,1
286,264,4,0.179444128091616,1
286,265,4,0.22361362246265,1
286,266,4,0.16481793010156,1
287,264,4,0.130926119659756,1
287,265,4,0.18762704884517,1
287,266,4,0.153136891102982,1
288,277,4,0.114890513290525,1
289,277,4,0.119471490936334,1
291,273,4,0.12228675108074,1
291,274,4,0.183876057704012,1
291,275,4,0.149268932115122,1
292,273,4,0.164079037666002,1
292,274,4,0.256998945169544,1
273,260,5,0.172049857038252,1
273,261,5,0.119227120938441,1
274,260,5,0.168124344499562,1
274,261,5,0.157183222524003,1
274,262,5,0.117606306013137,1
275,261,5,0.140171502279813,1
275,262,5,0.128946993544769,1
275,263,5,0.118425999535709,1
276,262,5,0.134941666349476,1
276,263,5,0.182927431037491,1
276,264,5,0.129307200810098,1
277,262,5,0.115304540839726,1
277,263,5,0.167907661916852,1
277,264,5,0.125783114572526,1
283,262,5,0.155997492186755,1
283,263,5,0.188411364658167,1
283,264,5,0.129625776849279,1
283,280,5,0.182713857547766,1
284,262,5,0.16977665076821,1
284,263,5,0.251744083396049,1
284,264,5,0.205073936115488,1
285,262,5,0.139382982125165,1
285,263,5,0.231877261865147,1
285,264,5,0.237636432653089,1
285,265,5,0.171101936983773,1
286,263,5,0.141765147972099,1
286,264,5,0.193296574118704,1
286,265,5,0.210014331976513,1
286,266,5,0.142537663363993,1
287,264,5,0.13006558396115,1
287,265,5,0.174734134863786,1
287,266,5,0.135290296954182,1
291,274,5,0.129944717971349,1
291,275,5,0.114173985126099,1
292,273,5,0.116029065497095,1
292,274,5,0.188681325788852,1
292,275,5,0.164851388181753,1
293,274,5,0.133340966313637,1
272,260,6,0.155517867486312,1
273,259,6,0.15583130881132,1
273,260,6,0.20148731471219,1
273,261,6,0.123715449968664,1
274,260,6,0.214967352639356,1
274,261,6,0.17516945498919,1
275,260,6,0.17086087628561,1
275,261,6,0.16739813575016,1
275,262,6,0.114854228762163,1
276,263,6,0.12488525798123,1
282,262,6,0.135648643474466,1
282,263,6,0.114208868207244,1
283,262,6,0.173996855859057,1
283,263,6,0.199335304184236,1
283,264,6,0.128070559075216,1
284,262,6,0.166782817983898,1
284,263,6,0.243503856405881,1
284,264,6,0.197920996628236,1
285,262,6,0.127880492212758,1
285,263,6,0.219649787997544,1
285,264,6,0.234899747767765,1
285,265,6,0.154540328610401,1
286,263,6,0.13634830716482,1
286,264,6,0.183160483465844,1
286,265,6,0.17801131907698,1
286,266,6,0.115234927776712,1
287,264,6,0.115485645506117,1
287,265,6,0.14717464001414,1
287,266,6,0.116038428106653,1
292,274,6,0.121324416140602,1
292,275,6,0.120470864124346,1
293,275,6,0.124817211241576,1
272,260,7,0.141156331036624,1
273,259,7,0.148916203160572,1
273,260,7,0.197332565450176,1
273,261,7,0.120256796006191,1
274,259,7,0.149248923217463,1
274,260,7,0.230705651991873,1
274,261,7,0.181674125035283,1
275,260,7,0.178686274899595,1
275,261,7,0.170812402699522,1
280,281,7,0.128579119538784,1
281,280,7,0.127932004230628,1
282,261,7,0.13046575013746,1
282,262,7,0.137480900276502,1
283,261,7,0.133284225366656,1
283,262,7,0.18307690303813,1
283,263,7,0.185460081695658,1
284,262,7,0.156577750218861,1
284,263,7,0.208519093787957,1
284,264,7,0.168085033316287,1
284,279,7,0.147628909119139,1
285,263,7,0.182664135613737,1
285,264,7,0.196589150697549,1
285,265,7,0.123792670887998,1
286,263,7,0.123596173855957,1
286,264,7,0.152858038437434,1
286,265,7,0.133552325752297,1
273,260,8,0.170997358401542,1
274,259,8,0.137535615602295,1
274,260,8,0.213735657188769,1
274,261,8,0.17095610403515,1
275,260,8,0.154234094728222,1
275,261,8,0.148764163802847,1
282,261,8,0.125302924582449,1
282,262,8,0.137062479955772,1
283,261,8,0.145565119104642,1
283,262,8,0.192855742419372,1
283,263,8,0.16029177377335,1
284,262,8,0.1473625046024,1
284,263,8,0.166827805617245,1
284,264,8,0.132633553444555,1
284,279,8,0.137404774605833,1
285,263,8,0.14068910737752,1
285,264,8,0.145288150737873,1
286,264,8,0.114821677500757,1
273,260,9,0.13108809869354,1
274,259,9,0.120108301485543,1
274,260,9,0.172707065121743,1
274,261,9,0.139198297291094,1
275,260,9,0.118699281742991,1
281,281,9,0.159527537519215,1
282,262,9,0.122069373662854,1
282,280,9,0.146315517539618,1
283,261,9,0.134885773336946,1
283,262,9,0.17931804494957,1
283,263,9,0.126459295189348,1
283,280,9,0.193726476885118,1
284,262,9,0.133458687879851,1
284,263,9,0.128837916199204,1
284,279,9,0.130960319682594,1
274,260,10,0.135488313202113,1
281,281,10,0.124616050570057,1
281,282,10,0.137414549405749,1
282,280,10,0.115604368106057,1
282,281,10,0.207670970907557,1
283,262,10,0.147455164994854,1
283,280,10,0.169812370006938,1
284,262,10,0.115583193298529,1
294,280,10,0.147335782890341,1
282,281,11,0.154972009683788,1
282,282,11,0.158539858760501,1
283,280,11,0.150015008439774,1
291,279,11,0.134617166546009,1
293,280,11,0.154168108940357,1
282,281,12,0.116007631598485,1
282,282,12,0.121862112574039,1
283,280,12,0.121826723087597,1
289,279,12,0.132627853440748,1
290,279,12,0.1192504862433,1
290,282,12,0.20772443788541,1
291,280,12,0.201935636499169,1
292,280,12,0.157764069399478,1
292,282,12,0.248469925837769,1
293,281,12,0.158972434875808,1
293,282,12,0.172998754572722,1
294,281,12,0.114157662387927,1
290,280,13,0.155461503399087,1
290,282,13,0.158153577510819,1
291,280,13,0.139161412142497,1
291,281,13,0.190544567528934,1
291,282,13,0.171360015255283,1
292,281,13,0.171790294881453,1
292,282,13,0.170556185173056,1
293,281,13,0.115429222534555,1
283,281,14,0.176748096952448,1
284,280,14,0.136338979885864,1
286,280,14,0.153763938629142,1
287,280,14,0.164579554529157,1
287,282,14,0.251362654215723,1
288,280,14,0.192296859401539,1
289,280,14,0.157812990506526,1
289,282,14,0.182766158615749,1
290,281,14,0.141560301141094,1
290,282,14,0.116529700128924,1
291,281,14,0.117975027953572,1
283,281,15,0.131762088813031,1
283,282,15,0.181924407020596,1
284,281,15,0.24681261440049,1
285,280,15,0.117662517001086,1
286,280,15,0.126481624129878,1
287,280,15,0.124978095026695,1
287,281,15,0.260604809974121,1
288,280,15,0.129235255927344,1
288,281,15,0.210524600085849,1
288,282,15,0.182730380492684,1
289,281,15,0.164766759612844,1
289,282,15,0.129119383329307,1
283,282,16,0.115564538740618,1
284,281,16,0.172393706234805,1
284,282,16,0.23149010912728,1
284,283,16,0.127933711876396,1
285,281,16,0.233055678767759,1
285,283,16,0.158668803681317,1
287,281,16,0.214195991380464,1
287,283,16,0.146888909658049,1
288,281,16,0.133314256378446,1
288,282,16,0.141381104327217,1
284,282,17,0.146400063670456,1
285,281,17,0.186664301714674,1
285,283,17,0.161533667991077,1
287,281,17,0.172718370914416,1
287,283,17,0.18252628738119,1
288,282,17,0.122758037759086,1
285,281,18,0.126516766302105,1
285,282,18,0.218516570711892,1
285,283,18,0.14527988337698,1
286,281,18,0.16995757878159,1
286,283,18,0.233339524825071,1
287,281,18,0.119790432058404,1
287,282,18,0.241277298307485,1
287,283,18,0.183710781147365,1
299,280,18,0.116258938171258,1
249,272,19,0.14008881689402,1
285,282,19,0.15396720735992,1
285,283,19,0.118021004843778,1
286,281,19,0.114720349333919,1
286,282,19,0.24571223102106,1
286,283,19,0.197808174238847,1
287,282,19,0.1747824906812,1
294,270,19,0.11655598609689,1
294,271,19,0.123784827494331,1
295,270,19,0.139033374040468,1
295,271,19,0.168541598910423,1
295,272,19,0.13340624548946,1
296,271,19,0.160535625589079,1
296,272,19,0.145130529145015,1
298,281,19,0.146751650268871,1
298,282,19,0.141620928454306,1
299,280,19,0.120170989750545,1
299,281,19,0.207401940149395,1
249,272,20,0.15883629428903,1
286,282,20,0.143120535860655,1
286,283,20,0.137529362085723,1
294,270,20,0.160276028101678,1
294,271,20,0.163792600697869,1
295,270,20,0.187596440766879,1
295,271,20,0.227460512634789,1
295,272,20,0.17686225012785,1
295,273,20,0.113772794362329,1
296,271,20,0.197747193619614,1
296,272,20,0.199084433355556,1
296,273,20,0.146969958059278,1
297,272,20,0.136717511956818,1
298,281,20,0.154686397096371,1
298,282,20,0.178787897488117,1
299,281,20,0.218099198532357,1
299,282,20,0.235123626016438,1
300,281,20,0.132033533829004,1
294,270,21,0.189220211685893,1
294,271,21,0.191840953311975,1
294,272,21,0.130562214458074,1
295,270,21,0.208555554969329,1
295,271,21,0.263270739440295,1
295,272,21,0.213604392225082,1
295,273,21,0.131469292336519,1
296,271,21,0.214800615751155,1
296,272,21,0.239978945787594,1
296,273,21,0.174041042665424,1
297,272,21,0.150006246450452,1
297,273,21,0.128150017599351,1
298,281,21,0.13813369203473,1
298,282,21,0.194402728163144,1
298,283,21,0.123452295867318,1
299,281,21,0.193927072267004,1
299,282,21,0.258615532199463,1
300,281,21,0.121951793419049,1
253,283,22,0.116552735681496,1
294,270,22,0.191945779208421,1
294,271,22,0.209139664037065,1
294,272,22,0.15631148702453,1
295,270,22,0.200944142035427,1
295,271,22,0.276122622815768,1
295,272,22,0.247773559670278,1
295,273,22,0.149962330512036,1
296,271,22,0.216941367593905,1
296,272,22,0.260716077817017,1
296,273,22,0.188504555009653,1
297,272,22,0.15067689193961,1
297,273,22,0.133903759251436,1
298,282,22,0.176319501418312,1
298,283,22,0.140332727594086,1
299,281,22,0.147821237140132,1
299,282,22,0.238197482614517,1
299,283,22,0.172965567360478,1
300,282,22,0.146925523938697,1
294,270,23,0.164767501555489,1
294,271,23,0.211736157093235,1
294,272,23,0.196993968736468,1
294,273,23,0.129901591083046,1
295,270,23,0.176570089602176,1
295,271,23,0.27747910595299,1
295,272,23,0.295016533779636,1
295,273,23,0.189772523211735,1
296,271,23,0.210018171235275,1
296,272,23,0.265149927058794,1
296,273,23,0.198006967760025,1
297,272,23,0.141185372791555,1
297,273,23,0.130006440533226,1
298,282,23,0.135990514157302,1
298,283,23,0.137468923202388,1
299,282,23,0.183721851402691,1
299,283,23,0.167082268390473,1
300,282,23,0.125712653575061,1
300,283,23,0.115379948121486,1
251,280,24,0.131467643575088,1
251,281,24,0.16845600463839,1
252,281,24,0.147948992597344,1
252,282,24,0.148515389256557,1
253,282,24,0.119002665623268,1
253,283,24,0.181945852696074,1
294,270,24,0.121666734344398,1
294,271,24,0.183276191187738,1
294,272,24,0.210330564419088,1
294,273,24,0.146015666719553,1
295,270,24,0.142256785077258,1
295,271,24,0.250065502936303,1
295,272,24,0.31243421441888,1
295,273,24,0.220043135367647,1
296,271,24,0.185387041564239,1
296,272,24,0.244793187845368,1
296,273,24,0.19410855379315,1
297,272,24,0.123659333195654,1
297,273,24,0.116506688130086,1
298,283,24,0.123741347300007,1
299,282,24,0.126538306192522,1
299,283,24,0.146972490085762,1
252,281,25,0.180592125345816,1
253,282,25,0.143808151815691,1
258,285,25,0.114472269622805,1
294,271,25,0.149131166320647,1
294,272,25,0.201697578902185,1
294,273,25,0.146797650712811,1
295,271,25,0.214929124927878,1
295,272,25,0.310083622353361,1
295,273,25,0.239154211765788,1
296,271,25,0.158505847167541,1
296,272,25,0.22733556007201,1
296,273,25,0.19595654448999,1
299,283,25,0.119453813858415,1
252,281,26,0.18375461464771,1
253,281,26,0.120844296811729,1
253,282,26,0.185949139666864,1
263,286,26,0.116271692518618,1
294,271,26,0.118051589368334,1
294,272,26,0.169558166324792,1
294,273,26,0.12900977602471,1
295,271,26,0.173404479430429,1
295,272,26,0.272996123620552,1
295,273,26,0.228468989341276,1
296,271,26,0.131200885752327,1
296,272,26,0.204809733872946,1
296,273,26,0.194290047096164,1
252,281,27,0.153052486294553,1
253,281,27,0.122975815590462,1
253,282,27,0.215196318494732,1
254,282,27,0.130377223425452,1
254,283,27,0.160867639033928,1
263,286,27,0.122943806064955,1
294,272,27,0.134053101706534,1
295,271,27,0.135345848437558,1
295,272,27,0.218775661793996,1
295,273,27,0.197274387725376,1
296,272,27,0.174264508723738,1
296,273,27,0.184330032387327,1
253,281,28,0.117989183748149,1
254,282,28,0.143739987307363,1
295,272,28,0.156845120438725,1
295,273,28,0.149451238021984,1
296,272,28,0.135930934985286,1
296,273,28,0.156153983200346,1
296,273,29,0.120053256407464,1
254,281,32,0.118886451496077,1
255,281,32,0.132401278289449,1
255,282,32,0.158237534798288,1
255,280,33,0.133158295323886,1
255,281,33,0.173653524844668,1
256,281,33,0.117194351192592,1
256,282,33,0.119073880340244,1
275,284,33,0.142270375582201,1
276,284,33,0.141620869569969,1
279,284,33,0.132572290180505,1
280,283,33,0.115395964661107,1
280,284,33,0.139424660458782,1
255,280,34,0.171985967532778,1
256,281,34,0.124595193737948,1
271,264,34,0.142324820040045,1
274,284,34,0.13283096907225,1
274,285,34,0.123081018346663,1
275,283,34,0.128028421443772,1
275,284,34,0.180707526869158,1
275,285,34,0.129352459311394,1
276,283,34,0.114196372950966,1
276,284,34,0.171325721017506,1
277,284,34,0.130292747955818,1
278,284,34,0.142823181736472,1
279,283,34,0.162775609316275,1
279,284,34,0.210550132334303,1
279,285,34,0.130418831097864,1
280,283,34,0.176094916557597,1
280,284,34,0.225210848322616,1
281,283,34,0.131624275911087,1
281,284,34,0.15463731111318,1
256,280,35,0.127779635120616,1
270,264,35,0.1279114064896,1
270,265,35,0.137276642288865,1
271,264,35,0.185130470731752,1
271,265,35,0.170799424591682,1
272,264,35,0.142834428644809,1
272,265,35,0.12122216937811,1
273,284,35,0.124136155001664,1
273,285,35,0.125906983663506,1
274,283,35,0.136474484521805,1
274,284,35,0.174813675825992,1
274,285,35,0.146543117278379,1
275,283,35,0.149251561235753,1
275,284,35,0.196912284384401,1
275,285,35,0.138460664980345,1
276,283,35,0.129027700416845,1
276,284,35,0.173705260623017,1
277,283,35,0.117695445122248,1
277,284,35,0.146778572187675,1
278,283,35,0.166607578197457,1
278,284,35,0.196547590132606,1
278,285,35,0.114738214841717,1
279,283,35,0.248405459265794,1
279,284,35,0.308894983129873,2
279,285,35,0.154780329390501,1
280,283,35,0.236188631686293,1
280,284,35,0.309009360065754,2
280,285,35,0.154309984861544,1
281,283,35,0.157800907440606,1
281,284,35,0.199531318364715,1
282,284,35,0.121290086572223,1
270,264,36,0.127955699287773,1
270,265,36,0.166115069604113,1
271,264,36,0.189799186039456,1
271,265,36,0.216524631365208,1
271,266,36,0.116965550213359,1
272,264,36,0.150503501121346,1
272,265,36,0.162096366713937,1
273,283,36,0.140287127563636,1
273,284,36,0.167752030614579,1
273,285,36,0.135988570974186,1
274,282,36,0.136696690455311,1
274,283,36,0.181992288884107,1
274,284,36,0.217336457940379,1
274,285,36,0.156573286786129,1
275,282,36,0.129055470270099,1
275,283,36,0.168806154458986,1
275,284,36,0.19498611884197,1
275,285,36,0.134990351919177,1
276,282,36,0.115994912581727,1
276,283,36,0.147012755195294,1
276,284,36,0.160088881902328,1
277,283,36,0.16115909294756,1
277,284,36,0.169309556654646,1
278,282,36,0.123435973129146,1
278,283,36,0.247678779441697,1
278,284,36,0.266819345115728,2
278,285,36,0.138515274314332,1
279,282,36,0.132865298640629,1
279,283,36,0.324562951030466,2
279,284,36,0.380532536752306,2
279,285,36,0.177996503777831,2
280,283,36,0.267140264751516,2
280,284,36,0.344739080205931,2
280,285,36,0.170085946635905,2
281,283,36,0.167492020936821,1
281,284,36,0.220482106321935,2
281,285,36,0.123520766574198,1
282,283,36,0.116776413723423,1
282,284,36,0.139146278867928,1
283,283,36,0.115510212051447,1
283,284,36,0.126658371355342,1
284,283,36,0.143188912352596,1
284,284,36,0.142514510042747,1
285,283,36,0.120175241199665,1
289,268,36,0.120973406608688,1
289,269,36,0.122505153086086,1
290,268,36,0.145400560936904,1
290,269,36,0.153488666131275,1
291,269,36,0.124409802291835,1
291,270,36,0.117524421454324,1
291,271,36,0.127129552041883,1
292,270,36,0.126739667070786,1
292,271,36,0.17793931530989,1
292,272,36,0.149843761011371,1
293,271,36,0.134328574411147,1
293,272,36,0.134616754355651,1
270,265,37,0.166926648865068,1
270,266,37,0.116887893549932,1
271,264,37,0.16083988095754,1
271,265,37,0.227455024614595,1
271,266,37,0.143109536266533,1
272,264,37,0.135531357652345,1
272,265,37,0.187544799203469,1
272,266,37,0.127213815527903,1
273,282,37,0.147916005591845,1
273,283,37,0.199324163267706,1
273,284,37,0.2044318848603,1
273,285,37,0.136309278626361,1
274,281,37,0.119708182416704,1
274,282,37,0.171376067125506,1
274,283,37,0.225670617224677,1
274,284,37,0.237970660149003,1
274,285,37,0.150623307193084,1
275,281,37,0.129913356173547,1
275,282,37,0.16752827013458,1
275,283,37,0.181032803945872,1
275,284,37,0.177542835293067,1
275,285,37,0.125275566919552,1
276,281,37,0.124046862793277,1
276,282,37,0.168524899312495,1
276,283,37,0.166110441295237,1
276,284,37,0.143097194109531,1
277,282,37,0.157176450825266,1
277,283,37,0.212992866610113,1
277,284,37,0.191545047742478,1
277,285,37,0.117919629569472,1
278,282,37,0.161242143416241,1
278,283,37,0.320276595275611,2
278,284,37,0.32218795729576,2
278,285,37,0.162996484463768,1
279,282,37,0.147114177577071,2
279,283,37,0.348209110622282,2
279,284,37,0.391907459637378,2
279,285,37,0.193441794670223,2
280,283,37,0.255336805216643,2
280,284,37,0.318455067199747,2
280,285,37,0.170550744260332,1
281,283,37,0.157164897718378,1
281,284,37,0.204860162419018,1
281,285,37,0.127572079610116,1
282,283,37,0.113973142429999,1
282,284,37,0.14577236841659,1
283,283,37,0.133328365065553,1
283,284,37,0.159430425470896,1
284,283,37,0.170984804260927,1
284,284,37,0.178213151029939,1
285,283,37,0.130921032053053,1
285,284,37,0.122249017997691,1
289,268,37,0.163090181220551,1
289,269,37,0.17887232585028,1
290,268,37,0.211714935178238,1
290,269,37,0.252585681891926,1
290,270,37,0.144311377358341,1
291,268,37,0.145129704764299,1
291,269,37,0.187966858576216,1
291,270,37,0.153417357199359,1
291,271,37,0.150079757656565,1
292,270,37,0.161506345658783,1
292,271,37,0.227518973004405,1
292,272,37,0.190194735683757,1
293,271,37,0.164818895804684,1
293,272,37,0.161294880228317,1
293,273,37,0.117306431639336,1
267,269,38,0.130188628671415,1
268,269,38,0.138321226870704,1
268,270,38,0.117881566734137,1
270,266,38,0.11729804650977,1
271,265,38,0.207680321740248,1
271,266,38,0.153065841262149,1
272,264,38,0.115909330086561,1
272,265,38,0.192483616964267,1
272,266,38,0.15311420885643,1
272,282,38,0.116052784107975,1
272,283,38,0.150920060697032,1
272,284,38,0.126741186286676,1
273,265,38,0.131184339253674,1
273,266,38,0.121313075017326,1
273,281,38,0.119495539299501,1
273,282,38,0.193973308248292,1
273,283,38,0.265430475593243,1
273,284,38,0.224937436569792,1
273,285,38,0.135417628444168,1
274,281,38,0.146143610606642,1
274,282,38,0.202098110161383,1
274,283,38,0.256935185209611,1
274,284,38,0.231919140405509,1
274,285,38,0.142505359416802,1
275,281,38,0.172829462104302,1
275,282,38,0.203169687323229,1
275,283,38,0.18768231768373,1
275,284,38,0.161075324089968,1
275,285,38,0.123060185068289,1
276,281,38,0.168508870996006,1
276,282,38,0.215302192532373,1
276,283,38,0.182820791503471,1
276,284,38,0.138956400435348,1
277,281,38,0.119143410965187,1
277,282,38,0.200863117187933,1
277,283,38,0.252730608021761,2
277,284,38,0.20763184815416,2
277,285,38,0.12277784645,1
278,282,38,0.191076893710851,2
278,283,38,0.354208553058273,2
278,284,38,0.339195261214687,2
278,285,38,0.171575249283307,2
279,282,38,0.152212736766852,2
279,283,38,0.326318999723762,2
279,284,38,0.36039185594762,2
279,285,38,0.194943062614872,2
280,283,38,0.223791311837504,2
280,284,38,0.266502146970029,2
280,285,38,0.159839059214843,1
281,283,38,0.139422623060727,1
281,284,38,0.171266707135123,1
281,285,38,0.123425856800076,1
282,284,38,0.146807649273207,1
283,283,38,0.143658750476257,1
283,284,38,0.183770548749259,1
283,285,38,0.124703446702797,1
284,283,38,0.168283296878433,1
284,284,38,0.187374470370721,1
285,266,38,0.115123612826346,1
285,267,38,0.139545184919429,1
285,283,38,0.119607160448418,1
285,284,38,0.118645002161291,1
286,266,38,0.125291548128571,1
286,267,38,0.160088340166429,1
287,267,38,0.128187526921919,1
288,268,38,0.115152360159593,1
289,268,38,0.177436254643383,1
289,269,38,0.209210584332357,1
289,270,38,0.127742985509366,1
290,268,38,0.233902694622626,1
290,269,38,0.320597444250194,1
290,270,38,0.190159463965989,1
291,269,38,0.238315675255426,1
291,270,38,0.188748477486587,1
291,271,38,0.160343662650975,1
291,272,38,0.120594639000387,1
292,270,38,0.178004983122336,1
292,271,38,0.236601434441288,1
292,272,38,0.197895346611107,1
292,273,38,0.133314209270976,1
293,271,38,0.169740307355511,1
293,272,38,0.166757733256404,1
293,273,38,0.1496204598292,1
293,274,38,0.115807059770334,1
294,274,38,0.11419430022231,1
267,269,39,0.150062563430208,1
267,270,39,0.145837341393861,1
268,269,39,0.179975253033062,1
268,270,39,0.170383512743701,1
269,269,39,0.115217780657824,1
271,266,39,0.137212776337127,1
272,265,39,0.159370964067553,1
272,266,39,0.145099296892754,1
272,282,39,0.141708454132588,1
272,283,39,0.201241602151417,1
272,284,39,0.158738864265291,1
273,265,39,0.124246492472038,1
273,266,39,0.128688291099289,1
273,281,39,0.130356307709005,1
273,282,39,0.219891355101004,1
273,283,39,0.30061002759744,1
273,284,39,0.226266762250863,1
274,281,39,0.161250033917378,1
274,282,39,0.215885948294088,1
274,283,39,0.258761800892178,1
274,284,39,0.207713461845022,1
275,280,39,0.116767981486388,1
275,281,39,0.200472290067447,1
275,282,39,0.223308742920218,1
275,283,39,0.194229137138135,1
275,284,39,0.157024293698867,1
276,281,39,0.196984311705226,1
276,282,39,0.241574546439862,1
276,283,39,0.202621615469641,1
276,284,39,0.154113028531675,1
277,266,39,0.11553566186183,1
277,281,39,0.140512631020005,1
277,282,39,0.232691561582464,1
277,283,39,0.277599465537494,2
277,284,39,0.220044854790283,2
278,282,39,0.216124264982154,2
278,283,39,0.361396752486426,2
278,284,39,0.327320009896337,2
278,285,39,0.165411189795241,2
279,282,39,0.164039879582002,2
279,283,39,0.312266653149963,2
279,284,39,0.327229139587723,2
279,285,39,0.181724235605936,2
280,283,39,0.194214486715128,2
280,284,39,0.21745794810415,2
280,285,39,0.141248602792455,1
281,266,39,0.149419699571171,1
281,283,39,0.121080387671862,1
281,284,39,0.13856625637317,1
281,285,39,0.114877876711838,1
282,266,39,0.155736328375994,1
282,267,39,0.117685870529077,1
282,283,39,0.123210964301206,1
282,284,39,0.148509371277332,1
282,285,39,0.127805332245214,1
283,283,39,0.154875321602694,1
283,284,39,0.185213532977301,1
283,285,39,0.128989696465847,1
284,267,39,0.121664767607547,1
284,283,39,0.14290566691552,1
284,284,39,0.159374414689692,1
285,266,39,0.125892239025561,1
285,267,39,0.177595595658877,1
286,266,39,0.136453038846327,1
286,267,39,0.203227252650926,1
286,268,39,0.126405698665954,1
287,267,39,0.141998011970573,1
287,268,39,0.116948355987001,1
288,268,39,0.130746781523471,1
288,269,39,0.123799501471072,1
289,268,39,0.167590711085367,1
289,269,39,0.217396449302753,1
289,270,39,0.153148302887462,1
290,269,39,0.332999639722073,1
290,270,39,0.241002072917087,1
290,271,39,0.128866757747389,1
291,270,39,0.227543256904919,1
291,271,39,0.168442367025977,1
291,272,39,0.122939872591254,1
292,271,39,0.210823544087127,1
292,272,39,0.182123212318641,1
292,273,39,0.162852535813925,1
292,274,39,0.132221198210519,1
292,283,39,0.114328250311757,1
293,272,39,0.156681257106162,1
293,273,39,0.178199160111505,1
293,274,39,0.175903766223341,1
293,275,39,0.135109474932608,1
294,273,39,0.118085059225395,1
294,274,39,0.14151811640218,1
294,275,39,0.125256193972731,1
295,275,39,0.12271613566499,1
267,269,40,0.142543245599126,1
267,270,40,0.157769074568109,1
268,269,40,0.180918403456256,1
268,270,40,0.188645948079278,1
269,269,40,0.129707378763274,1
269,270,40,0.129184085438629,1
271,266,40,0.118534546922243,1
272,266,40,0.126070046169089,1
272,282,40,0.156856155363449,1
272,283,40,0.242809751396925,1
273,266,40,0.118573916989855,1
273,281,40,0.133516347422487,1
273,282,40,0.218365826809577,1
273,283,40,0.294961771346373,1
274,281,40,0.171576638953656,1
274,282,40,0.218400780551926,1
274,283,40,0.24075843308497,1
275,280,40,0.134897726857325,1
275,281,40,0.211177038538056,1
275,282,40,0.231103568786515,1
275,283,40,0.205856626720789,1
275,284,40,0.163188600501148,1
276,266,40,0.116745628992122,1
276,280,40,0.118699234635522,1
276,281,40,0.206063499172981,1
276,282,40,0.249265335459827,1
276,283,40,0.23081597768538,1
276,284,40,0.176401786390614,1
277,266,40,0.161273846743197,1
277,267,40,0.129884891485118,1
277,281,40,0.154725142990013,1
277,282,40,0.246349689297974,1
277,283,40,0.291423293776877,2
277,284,40,0.222861198406486,1
278,266,40,0.137955201832895,1
278,267,40,0.120707638042786,1
278,281,40,0.115881560233306,1
278,282,40,0.239735659261498,2
278,283,40,0.363509899352065,2
278,284,40,0.297467770953685,2
279,282,40,0.19535495855108,2
279,283,40,0.32866302029729,2
279,284,40,0.29589824428577,2
280,266,40,0.130070695121588,1
280,267,40,0.116455211442819,1
280,282,40,0.120626036128791,1
280,283,40,0.183390862545303,2
280,284,40,0.181420592634578,1
280,285,40,0.122977134599607,1
281,265,40,0.114934735427493,1
281,266,40,0.192867425071801,1
281,267,40,0.160736892252404,1
281,283,40,0.115606417280979,1
281,284,40,0.123212271533484,1
282,266,40,0.200774625806527,1
282,267,40,0.181576624350341,1
282,283,40,0.146085762634129,1
282,284,40,0.151513249729509,1
282,285,40,0.12538038103913,1
283,266,40,0.127987732367015,1
283,267,40,0.135152142523084,1
283,283,40,0.167633202022832,1
283,284,40,0.16843166185354,1
283,285,40,0.117943242188545,1
284,267,40,0.128003902005911,1
284,283,40,0.120204318285198,1
284,284,40,0.121407030865191,1
285,266,40,0.123953201367096,1
285,267,40,0.195032755236749,1
285,268,40,0.12757935771415,1
286,266,40,0.131701826582707,1
286,267,40,0.216763301359295,1
286,268,40,0.149225122168511,1
287,267,40,0.142021966118801,1
287,268,40,0.13011682511107,1
288,268,40,0.134547023523963,1
288,269,40,0.141007235895741,1
289,268,40,0.145097129949158,1
289,269,40,0.2116896855746,1
289,270,40,0.183385421632579,1
290,269,40,0.299952407323591,1
290,270,40,0.287938589383785,1
290,271,40,0.171649278671584,1
291,270,40,0.249257680496038,1
291,271,40,0.181489463754948,1
291,272,40,0.132339119983478,1
291,273,40,0.120832814366045,1
291,283,40,0.127204346926539,1
292,271,40,0.169796730327073,1
292,272,40,0.161507853097806,1
292,273,40,0.184259477174924,1
292,274,40,0.186944579381174,1
292,275,40,0.145861978600396,1
292,283,40,0.131822186167212,1
293,272,40,0.13170870427325,1
293,273,40,0.18480259096735,1
293,274,40,0.229470329266137,1
293,275,40,0.19198095671125,1
293,276,40,0.127199895270674,1
293,277,40,0.11952288518553,1
294,274,40,0.153321646598257,1
294,275,40,0.147766686690482,1
267,269,41,0.118872507685113,1
267,270,41,0.14342379019539,1
268,269,41,0.154640231776287,1
268,270,41,0.172520872848649,1
269,269,41,0.131930710000011,1
269,270,41,0.137571829469453,1
272,282,41,0.154556969323993,1
273,281,41,0.134394642637084,1
273,282,41,0.196853435378162,1
273,283,41,0.254518430703217,1
274,280,41,0.125740541196989,1
274,281,41,0.179202831856106,1
274,282,41,0.220179723475386,1
274,283,41,0.22313143040512,1
275,280,41,0.148513905371269,1
275,281,41,0.213449408650514,1
275,282,41,0.247394580078364,1
275,283,41,0.230993172431804,1
276,266,41,0.121136351345597,1
276,267,41,0.120382313858603,1
276,280,41,0.13216677730641,1
276,281,41,0.201125882652656,1
276,282,41,0.256321068683821,1
276,283,41,0.265125619604546,2
276,284,41,0.194325377698269,1
277,266,41,0.182995089140522,1
277,267,41,0.184627492503317,1
277,268,41,0.114497566333912,1
277,281,41,0.164541915661048,1
277,282,41,0.251687625093885,2
277,283,41,0.301690837823303,2
277,284,41,0.222899449671699,2
278,266,41,0.162455207862651,1
278,267,41,0.178215047105585,1
278,268,41,0.11889954737259,1
278,281,41,0.14582674221323,1
278,282,41,0.267744842014737,2
278,283,41,0.366806385850876,2
278,284,41,0.270141905598892,2
279,266,41,0.125147964561616,1
279,267,41,0.140384357380629,1
279,281,41,0.125097265147595,1
279,282,41,0.238419146812124,2
279,283,41,0.34355967404646,2
279,284,41,0.261101935099474,2
280,266,41,0.138810473271787,1
280,267,41,0.146039149793085,1
280,282,41,0.141585856943283,1
280,283,41,0.185278411739634,2
280,284,41,0.160293775840802,1
281,266,41,0.202727889920773,1
281,267,41,0.20983873888405,1
281,268,41,0.117893166948495,1
281,283,41,0.124742275034511,1
281,284,41,0.127869198196952,1
282,266,41,0.208868395674102,1
282,267,41,0.230072551155885,1
282,268,41,0.126038342842133,1
282,282,41,0.121840796444102,1
282,283,41,0.16544905242383,1
282,284,41,0.155521424100257,1
282,285,41,0.122198766104631,1
283,266,41,0.127589097183463,1
283,267,41,0.150362402473406,1
283,282,41,0.13228509949286,1
283,283,41,0.173100412491846,1
283,284,41,0.147821354908806,1
284,267,41,0.123267575702646,1
285,267,41,0.177551809266002,1
285,268,41,0.141454827516943,1
286,267,41,0.197065701635609,1
286,268,41,0.165810354937824,1
287,268,41,0.140794522117334,1
287,269,41,0.121666204385366,1
288,268,41,0.131811704755254,1
288,269,41,0.153392931976437,1
288,270,41,0.122557006633109,1
289,269,41,0.200140889019701,1
289,270,41,0.213502169016324,1
289,271,41,0.143209674969766,1
290,270,41,0.335000034859527,3
290,271,41,0.238282393828243,1
290,272,41,0.134897373551304,1
291,271,41,0.217571901072807,1
291,272,41,0.164745832119531,1
291,273,41,0.14918829590425,1
291,274,41,0.145466829369585,1
291,275,41,0.116371395477758,1
291,283,41,0.129562558625246,1
292,272,41,0.159016386144826,1
292,273,41,0.204425007169757,1
292,274,41,0.245604213593557,1
292,275,41,0.200806140703605,1
292,276,41,0.143154264808798,1
292,277,41,0.126510983860227,1
293,273,41,0.175482154371554,1
293,274,41,0.255916085768758,1
293,275,41,0.2256721246637,1
293,276,41,0.151292056606596,1
293,277,41,0.13873644388351,1
293,278,41,0.116669821296872,1
294,274,41,0.147664651911602,1
294,275,41,0.149998473717989,1
294,276,41,0.118342807744619,1
268,269,42,0.114702530933591,1
268,270,42,0.131173151229675,1
269,269,42,0.11376191253688,1
269,270,42,0.121036601278987,1
272,281,42,0.115412440498555,1
273,281,42,0.140539093640982,1
273,282,42,0.176256153648737,1
274,280,42,0.135969410010978,1
274,281,42,0.186753452600653,1
274,282,42,0.221403457763631,1
275,280,42,0.155647672118446,1
275,281,42,0.220188626787116,1
275,282,42,0.26805320750991,1
275,283,42,0.254680127092184,1
276,267,42,0.135521453306888,1
276,280,42,0.145798006656851,1
276,281,42,0.198707031863869,1
276,282,42,0.26275634942738,1
276,283,42,0.291682243536573,2
277,266,42,0.175194940130175,1
277,267,42,0.226770788620494,1
277,268,42,0.152024742633051,1
277,280,42,0.139883310558442,1
277,281,42,0.193001033632095,1
277,282,42,0.265259122173034,2
277,283,42,0.318730598788697,2
277,284,42,0.225934607483606,2
278,266,42,0.171484449635897,1
278,267,42,0.236376566935757,1
278,268,42,0.168552881149362,1
278,280,42,0.13768747830701,1
278,281,42,0.212395308359842,2
278,282,42,0.305792767835171,2
278,283,42,0.363253823148008,2
278,284,42,0.246669643230638,2
279,266,42,0.127940118492244,1
279,267,42,0.166602514144489,1
279,268,42,0.137035781797448,1
279,280,42,0.114084422049763,1
279,281,42,0.185702944254528,1
279,282,42,0.269990125332249,2
279,283,42,0.310664857865459,2
279,284,42,0.210912412328289,1
280,266,42,0.136885685622838,1
280,267,42,0.168728109158936,1
280,268,42,0.135465383641347,1
280,281,42,0.133706331846873,1
280,282,42,0.16676992231413,1
280,283,42,0.174911836015507,1
280,284,42,0.142462609388255,1
281,266,42,0.18966514173507,1
281,267,42,0.244847856063692,1
281,268,42,0.160653252940354,1
281,282,42,0.125629650213849,1
281,283,42,0.135276070498401,1
281,284,42,0.139084473867979,1
282,266,42,0.191141701811979,1
282,267,42,0.2547234659641,1
282,268,42,0.157147467954673,1
282,281,42,0.117458765418746,1
282,282,42,0.148409456334579,1
282,283,42,0.166423894397113,1
282,284,42,0.157560612238822,1
283,267,42,0.158317111091096,1
283,268,42,0.114159499579236,1
283,281,42,0.126811329308722,1
283,282,42,0.157120828680686,1
283,283,42,0.160201386316298,1
283,284,42,0.132521838080698,1
285,268,42,0.136733964240531,1
286,267,42,0.156298073172598,1
286,268,42,0.167665399978217,1
286,269,42,0.121289615497528,1
286,275,42,0.11457445750096,1
287,268,42,0.145056417318665,1
287,269,42,0.130220614643187,1
287,274,42,0.11902413485248,1
288,269,42,0.145904693298341,1
288,270,42,0.122876454160475,1
289,269,42,0.179870933541913,1
289,270,42,0.221607456660186,3
289,271,42,0.162390329100319,1
290,269,42,0.23441444661725,3
290,270,42,0.361431800443715,3
290,271,42,0.289198431547382,3
290,272,42,0.169846028293877,1
290,273,42,0.114926503397202,1
290,280,42,0.125912141931414,1
291,270,42,0.274128021897059,3
291,271,42,0.255213548522766,1
291,272,42,0.208147062547791,1
291,273,42,0.181672240736505,1
291,274,42,0.189243188354129,1
291,275,42,0.161024871990162,1
291,276,42,0.119014489598105,1
291,279,42,0.121525258836702,1
291,280,42,0.141347057403655,1
291,281,42,0.12034505185025,1
292,272,42,0.167706206823649,1
292,273,42,0.218559155864296,1
292,274,42,0.293505844341093,1
292,275,42,0.258513097007093,1
292,276,42,0.181992253553505,1
292,277,42,0.135896593640039,1
292,278,42,0.117443361276228,1
292,279,42,0.115694425810823,1
292,280,42,0.134030172145768,1
292,281,42,0.142314962802058,1
292,282,42,0.123303919115344,1
293,273,42,0.15636921722837,1
293,274,42,0.246801190839142,1
293,275,42,0.227830117840277,1
293,276,42,0.160369948618941,1
293,277,42,0.130918146720548,1
293,278,42,0.113819607410118,1
293,280,42,0.119139230177271,1
293,281,42,0.154908709021683,1
294,275,42,0.133230381529048,1
270,277,43,0.119195818024976,1
271,281,43,0.130435589580129,1
272,280,43,0.132365135083495,1
272,281,43,0.150532460438205,1
272,282,43,0.157414214000566,1
273,280,43,0.135456704090097,1
273,281,43,0.159168260626409,1
273,282,43,0.172360954766654,1
274,269,43,0.138667419663864,1
274,270,43,0.165592871528132,1
274,271,43,0.124884563146055,1
274,278,43,0.120022636552306,1
274,280,43,0.137922992100643,1
274,281,43,0.188945692907537,1
274,282,43,0.218216825883633,1
275,269,43,0.12535161015215,1
275,270,43,0.142976069028648,1
275,271,43,0.120180046161551,1
275,277,43,0.117332847152843,1
275,278,43,0.142122399243718,1
275,279,43,0.12705885550707,1
275,280,43,0.151706967420851,1
275,281,43,0.216827061319228,1
275,282,43,0.264963122388597,1
276,267,43,0.138826254274061,1
276,268,43,0.12856293812302,1
276,269,43,0.116250529487957,1
276,270,43,0.115218699253479,1
276,278,43,0.122798561959701,1
276,279,43,0.130613844244617,1
276,280,43,0.153093045825769,1
276,281,43,0.195851377064391,1
276,282,43,0.256613464746843,1
276,283,43,0.291277142852836,2
277,266,43,0.149722965682774,1
277,267,43,0.233617953523394,1
277,268,43,0.191279279176576,1
277,269,43,0.137412476677092,1
277,279,43,0.128475848188831,1
277,280,43,0.178040831906605,1
277,281,43,0.224727031057389,1
277,282,43,0.27817601385638,2
277,283,43,0.330878390371685,2
277,284,43,0.233241541288566,2
278,266,43,0.16085447249621,1
278,267,43,0.258033071893159,1
278,268,43,0.218786260974627,1
278,269,43,0.148389235453308,1
278,280,43,0.197959742521878,1
278,281,43,0.286209227071947,2
278,282,43,0.325766499768043,2
278,283,43,0.340109216783675,2
278,284,43,0.228741835804466,2
279,266,43,0.123032803851657,1
279,267,43,0.177516502217631,1
279,268,43,0.172055969232416,1
279,269,43,0.136244953376795,1
279,280,43,0.155800488749417,1
279,281,43,0.245244995585088,1
279,282,43,0.268768322450252,2
279,283,43,0.248107834273661,2
280,266,43,0.123284322408043,1
280,267,43,0.17239261098614,1
280,268,43,0.166674835886998,1
280,269,43,0.131516117161176,1
280,280,43,0.115357477858547,1
280,281,43,0.179002719325783,1
280,282,43,0.188616976985552,1
280,283,43,0.162740372929109,1
281,266,43,0.154554154652692,1
281,267,43,0.239215828335859,1
281,268,43,0.196319283781803,1
281,269,43,0.124649072906158,1
281,281,43,0.153817735359281,1
281,282,43,0.159290869592581,1
281,283,43,0.1471348106487,1
282,267,43,0.238263857039005,1
282,268,43,0.178933494899392,1
282,281,43,0.16480472823324,1
282,282,43,0.166908700919199,1
282,283,43,0.153295749266914,1
283,267,43,0.155373259331895,1
283,268,43,0.124615414619219,1
283,281,43,0.16726661169539,1
283,282,43,0.162886370753874,1
283,283,43,0.138073983317172,1
284,281,43,0.128989873118857,1
284,282,43,0.11743578875051,1
285,271,43,0.120206932749753,1
285,274,43,0.115355887981452,1
285,275,43,0.127738392531092,1
285,281,43,0.120637883657364,1
286,268,43,0.155108256262373,1
286,269,43,0.130672080853753,1
286,270,43,0.116929454114875,1
286,271,43,0.120422296323319,1
286,274,43,0.141383047510333,1
286,275,43,0.163120424215953,1
286,276,43,0.124861127179992,1
286,280,43,0.13154545333779,1
286,281,43,0.137688714878084,1
287,269,43,0.129420741588396,1
287,274,43,0.151064621743979,1
287,275,43,0.15597621138742,1
287,276,43,0.114344773256675,1
287,280,43,0.143112562921447,1
287,281,43,0.136484271098588,1
288,273,43,0.122617975475475,1
288,274,43,0.137630949343642,1
288,275,43,0.120794987068057,1
288,279,43,0.114405129701938,1
288,280,43,0.135259735983361,1
288,281,43,0.116306481384824,1
289,270,43,0.195125356744866,1
289,271,43,0.165890991148695,1
289,272,43,0.126244779550233,1
289,273,43,0.116666959518102,1
289,279,43,0.134318422751476,1
289,280,43,0.142276687983111,1
290,270,43,0.342959360009226,3
290,271,43,0.297254115025888,1
290,272,43,0.202917850791424,1
290,273,43,0.150685877689413,1
290,274,43,0.123572478798812,1
290,279,43,0.15799873525866,1
290,280,43,0.1712730313129,1
290,281,43,0.121616176252785,1
291,272,43,0.250237657183493,1
291,273,43,0.229724379849007,1
291,274,43,0.225301624416291,1
291,275,43,0.193620473301936,1
291,276,43,0.135230870881441,1
291,278,43,0.11720272454529,1
291,279,43,0.157874465754189,1
291,280,43,0.184613466254282,1
291,281,43,0.154223648646866,1
292,273,43,0.229070740156329,1
292,274,43,0.300937448064015,1
292,275,43,0.282177275205982,1
292,276,43,0.194794709416632,1
292,277,43,0.126577794028808,1
292,278,43,0.120559697034905,1
292,279,43,0.136985011722223,1
292,280,43,0.177596938221757,1
292,281,43,0.203084375696013,1
293,274,43,0.204726565635591,1
293,275,43,0.199415575312219,1
293,276,43,0.148103505097217,1
293,280,43,0.15607779864534,1
269,271,44,0.114295015992044,1
270,276,44,0.120484431075554,1
270,277,44,0.13275090992788,1
271,275,44,0.11711304370028,1
271,280,44,0.1318012940045,1
271,281,44,0.170946152582224,1
272,275,44,0.142176549279878,1
272,279,44,0.114960397221488,1
272,280,44,0.163220292051236,1
272,281,44,0.188444881622698,1
272,282,44,0.179968587326131,1
273,270,44,0.117135843715506,1
273,275,44,0.13009874761966,1
273,276,44,0.123213661203833,1
273,280,44,0.153823400032485,1
273,281,44,0.190012523991834,1
273,282,44,0.193965417747155,1
274,268,44,0.117631826484724,1
274,269,44,0.166965865833405,1
274,270,44,0.195678186452872,1
274,271,44,0.161957752985012,1
274,276,44,0.116123704403267,1
274,277,44,0.145856137274181,1
274,278,44,0.143044822380344,1
274,279,44,0.114954379242263,1
274,280,44,0.138425357931975,1
274,281,44,0.199217111543327,1
274,282,44,0.229270640703039,1
275,268,44,0.12069231633834,1
275,269,44,0.148915908738888,1
275,270,44,0.17707517588987,1
275,271,44,0.178894018839973,1
275,272,44,0.115089483464713,1
275,277,44,0.156023837039058,1
275,278,44,0.187335206294915,1
275,279,44,0.139416840618849,1
275,280,44,0.142465459390158,1
275,281,44,0.206988619212235,1
275,282,44,0.247320079615392,1
275,283,44,0.241634584909706,1
276,267,44,0.130979021347975,1
276,268,44,0.149487239905529,1
276,269,44,0.140349015001656,1
276,270,44,0.137988471483211,1
276,271,44,0.14928182778489,1
276,278,44,0.157225583915927,1
276,279,44,0.148158703274572,1
276,280,44,0.154180027130134,1
276,281,44,0.200472784695876,1
276,282,44,0.248792376466314,2
276,283,44,0.275486860407755,2
277,267,44,0.20712101475519,1
277,268,44,0.218929326359418,1
277,269,44,0.173442118298539,1
277,270,44,0.126366776119302,1
277,279,44,0.148854433491225,1
277,280,44,0.196605355667047,1
277,281,44,0.25634572944409,2
277,282,44,0.291190700646352,2
277,283,44,0.330248445736152,2
277,284,44,0.232609759461724,2
278,267,44,0.231266819721975,1
278,268,44,0.238765104067937,1
278,269,44,0.182562713231961,1
278,270,44,0.119027903450038,1
278,279,44,0.129229343939926,1
278,280,44,0.230308536024212,2
278,281,44,0.334507526266183,2
278,282,44,0.318412034526383,2
278,283,44,0.296969562356534,2
279,267,44,0.172857196626954,1
279,268,44,0.191535331826899,1
279,269,44,0.16065582029744,1
279,280,44,0.18069082727123,1
279,281,44,0.281400402373161,2
279,282,44,0.248032509429973,2
279,283,44,0.192854929815523,1
280,267,44,0.168386038269354,1
280,268,44,0.190966520909875,1
280,269,44,0.14944821136707,1
280,272,44,0.134734428814395,1
280,273,44,0.119871704220113,1
280,280,44,0.139231425619002,1
280,281,44,0.230843135141532,1
280,282,44,0.211262797686232,1
280,283,44,0.15426802388311,1
281,267,44,0.214609288763889,1
281,268,44,0.224041876467633,1
281,269,44,0.14348179126718,1
281,272,44,0.123719053690079,1
281,273,44,0.125446095959046,1
281,280,44,0.131387266455299,1
281,281,44,0.229855103076796,1
281,282,44,0.212255705374058,1
281,283,44,0.157402813992953,1
282,268,44,0.196255064524043,1
282,269,44,0.121424837488652,1
282,273,44,0.121535551818782,1
282,280,44,0.130571647728836,1
282,281,44,0.215137057298134,1
282,282,44,0.184574991228589,1
282,283,44,0.141982042538422,1
283,268,44,0.134652803346665,1
283,273,44,0.123115724774798,1
283,274,44,0.12326111020246,1
283,275,44,0.116611066505572,1
283,280,44,0.12932173346443,1
283,281,44,0.19229345588687,1
283,282,44,0.157866351492572,1
283,283,44,0.126606788676269,1
284,274,44,0.121559305760264,1
284,275,44,0.129610113615679,1
284,276,44,0.127808488445668,1
284,277,44,0.134446048663147,1
284,278,44,0.117139612313063,1
284,280,44,0.115232160212881,1
284,281,44,0.158265210436603,1
284,282,44,0.132096822714242,1
285,270,44,0.115349752233554,1
285,271,44,0.13385420219355,1
285,272,44,0.116514449085682,1
285,274,44,0.134689676718396,1
285,275,44,0.171468456650011,1
285,276,44,0.149231422792553,1
285,280,44,0.1293497506319,1
285,281,44,0.158813741588019,1
285,282,44,0.118584963691447,1
286,269,44,0.132653974532571,1
286,270,44,0.119736847311878,1
286,271,44,0.121621994025265,1
286,274,44,0.168071643018089,1
286,275,44,0.226221609741372,1
286,276,44,0.175211686835573,1
286,280,44,0.174354436882963,1
286,281,44,0.183747242328737,1
287,273,44,0.117953900253514,1
287,274,44,0.173256361769537,1
287,275,44,0.202815085846768,1
287,276,44,0.150531942256041,1
287,279,44,0.120807623646744,1
287,280,44,0.189983965088466,1
287,281,44,0.179146891736106,1
288,273,44,0.137291280935004,1
288,274,44,0.159394953546382,1
288,275,44,0.157493684301568,1
288,276,44,0.122820643586017,1
288,279,44,0.133469169291809,1
288,280,44,0.161775871045375,1
288,281,44,0.134297919225387,1
289,271,44,0.153966170995592,1
289,272,44,0.144010607942621,1
289,273,44,0.138897492544772,1
289,274,44,0.126948117623206,1
289,275,44,0.117438626975546,1
289,278,44,0.118590110182487,1
289,279,44,0.17287413176223,1
289,280,44,0.172116867413578,1
289,281,44,0.116605719807786,1
290,272,44,0.214263873243975,1
290,273,44,0.189468091190263,1
290,274,44,0.148317514331034,1
290,275,44,0.12256541531641,1
290,278,44,0.131314874051585,1
290,279,44,0.206302687349233,1
290,280,44,0.20826516097376,1
290,281,44,0.136266022192517,1
291,273,44,0.267942292973035,1
291,274,44,0.243707619765088,1
291,275,44,0.20489035830695,1
291,276,44,0.1415178926417,1
291,278,44,0.131388408811433,1
291,279,44,0.194575577245509,1
291,280,44,0.218579152985087,1
292,274,44,0.272346582277718,1
292,275,44,0.266414974597768,1
292,276,44,0.182721653833964,1
292,278,44,0.119075128688185,1
292,279,44,0.162150033898535,1
292,280,44,0.215325157423741,1
293,275,44,0.166629165195343,1
293,276,44,0.130207412774867,1
270,276,45,0.127681510261703,1
270,277,45,0.125829574314294,1
271,275,45,0.125592482420435,1
271,276,45,0.124460890342479,1
271,280,45,0.157679181739487,1
272,275,45,0.159028033466654,1
272,276,45,0.127455606391843,1
272,279,45,0.120465482095958,1
272,280,45,0.180623345821209,1
272,281,45,0.22370755475678,1
272,282,45,0.221312775884895,1
273,269,45,0.118727251802991,1
273,275,45,0.146979638644255,1
273,276,45,0.141186962668649,1
273,280,45,0.165274801894248,1
273,281,45,0.234222789877698,1
273,282,45,0.241385598379805,1
274,268,45,0.120148896347362,1
274,269,45,0.173464435462202,1
274,270,45,0.190631151057826,1
274,271,45,0.180843325926783,1
274,272,45,0.123111520433148,1
274,276,45,0.131946420341081,1
274,277,45,0.157597261850072,1
274,278,45,0.145260392661485,1
274,280,45,0.140141188623207,1
274,281,45,0.21747450637967,1
274,282,45,0.249903994977213,1
274,283,45,0.225369553387272,1
275,268,45,0.125705611008375,1
275,269,45,0.16616005723746,1
275,270,45,0.198734424857368,1
275,271,45,0.238951649647052,1
275,272,45,0.176602534871775,1
275,277,45,0.168045321719521,1
275,278,45,0.201716068583953,1
275,279,45,0.143975736638343,1
275,280,45,0.134046259346593,1
275,281,45,0.187540689076758,1
275,282,45,0.222728755756062,1
275,283,45,0.222244608738549,1
276,268,45,0.168650275842498,1
276,269,45,0.171426083481219,1
276,270,45,0.164076482085783,1
276,271,45,0.202693737005405,1
276,272,45,0.164208983620544,1
276,277,45,0.11724550990444,1
276,278,45,0.176643329940339,1
276,279,45,0.1595127457738,1
276,280,45,0.15685856962126,1
276,281,45,0.208389194940884,1
276,282,45,0.251691888319873,2
276,283,45,0.265801187824264,2
277,268,45,0.233547810501348,1
277,269,45,0.209134529322892,1
277,270,45,0.144166357013567,1
277,271,45,0.13675240681483,1
277,272,45,0.123061056556474,1
277,278,45,0.13603809270147,1
277,279,45,0.16799730743126,1
277,280,45,0.210339797483104,1
277,281,45,0.291115564232542,2
277,282,45,0.316937123210905,2
277,283,45,0.318131391776996,2
277,284,45,0.228070507257,2
278,268,45,0.226585326513177,1
278,269,45,0.202397124823865,1
278,270,45,0.132051493551741,1
278,272,45,0.115720488018309,1
278,279,45,0.152671327982176,1
278,280,45,0.243444783639161,2
278,281,45,0.346157674541654,2
278,282,45,0.305926388172332,2
278,283,45,0.251825861963055,2
279,268,45,0.195540773964418,1
279,269,45,0.178216684090149,1
279,270,45,0.121355919260812,1
279,272,45,0.14814613735709,1
279,273,45,0.13652324075271,1
279,279,45,0.124690044627732,1
279,280,45,0.201973934871851,1
279,281,45,0.290147529288598,2
279,282,45,0.235499001886937,2
279,283,45,0.166399987356355,1
280,268,45,0.210425509523811,1
280,269,45,0.17081415745276,1
280,272,45,0.174807504747491,1
280,273,45,0.170477433260964,1
280,274,45,0.115687065268718,1
280,280,45,0.175058611113519,1
280,281,45,0.269378929469566,1
280,282,45,0.230610918870762,1
280,283,45,0.157711721224025,1
281,268,45,0.236480368244742,1
281,269,45,0.163959961760041,1
281,272,45,0.139764375974889,1
281,273,45,0.158525514536046,1
281,274,45,0.127074165434649,1
281,280,45,0.1676986814054,1
281,281,45,0.279393129545164,1
281,282,45,0.242419089152582,1
281,283,45,0.163086601052871,1
282,269,45,0.138271116300051,1
282,272,45,0.115119997328064,1
282,273,45,0.15182963527136,1
282,274,45,0.152149754080166,1
282,275,45,0.138466871389448,1
282,279,45,0.120792820124462,1
282,280,45,0.154859611261625,1
282,281,45,0.231914688749643,1
282,282,45,0.188478740116382,1
282,283,45,0.13623338849304,1
283,272,45,0.126882885554852,1
283,273,45,0.159374061383671,1
283,274,45,0.163199223235514,1
283,275,45,0.158653152224584,1
283,276,45,0.137617629706649,1
283,277,45,0.142889980128185,1
283,278,45,0.146313303488553,1
283,279,45,0.135003436018823,1
283,280,45,0.14494801125454,1
283,281,45,0.191276994464307,1
283,282,45,0.154340946245855,1
284,271,45,0.116883123918648,1
284,272,45,0.133918527443116,1
284,273,45,0.134777508595229,1
284,274,45,0.140426224144123,1
284,275,45,0.165612374020494,1
284,276,45,0.170859474838393,1
284,277,45,0.169530643785752,1
284,278,45,0.141721797323316,1
284,280,45,0.129690455404866,1
284,281,45,0.180545583165976,1
284,282,45,0.161245240732359,1
285,270,45,0.114517999198796,1
285,271,45,0.13411049038122,1
285,272,45,0.137870043304955,1
285,273,45,0.119518798612553,1
285,274,45,0.150029917953863,1
285,275,45,0.224309211356895,1
285,276,45,0.210030324962399,1
285,277,45,0.142686676066805,1
285,280,45,0.148208154340652,1
285,281,45,0.192602622209024,1
285,282,45,0.159535781326373,1
286,271,45,0.115574796392095,1
286,272,45,0.114387146425466,1
286,273,45,0.115274580489141,1
286,274,45,0.18125061710785,1
286,275,45,0.285008339906396,1
286,276,45,0.241276403265565,1
286,277,45,0.129726987247443,1
286,280,45,0.200211620885115,1
286,281,45,0.208696641840402,1
286,282,45,0.135340595954712,1
287,273,45,0.122621744073032,1
287,274,45,0.175857930655544,1
287,275,45,0.238007003561702,1
287,276,45,0.195926124841578,1
287,277,45,0.119489627312082,1
287,279,45,0.12922941460113,1
287,280,45,0.208919012650051,1
287,281,45,0.191940444287503,1
288,272,45,0.12043450893478,1
288,273,45,0.141012335279311,1
288,274,45,0.167296218739954,1
288,275,45,0.193499454212859,1
288,276,45,0.165061299065727,1
288,277,45,0.11753021567307,1
288,279,45,0.145046053675381,1
288,280,45,0.169284354158478,1
288,281,45,0.137816175913612,1
289,272,45,0.15556208962328,1
289,273,45,0.160437006101736,1
289,274,45,0.154195384165182,1
289,275,45,0.161046223450701,1
289,276,45,0.143672411642404,1
289,277,45,0.113998662901586,1
289,278,45,0.137877721822479,1
289,279,45,0.19766741712006,1
289,280,45,0.183125765260842,1
289,281,45,0.121789661285989,1
290,273,45,0.229870059698354,1
290,274,45,0.187733794370997,1
290,275,45,0.156376589547342,1
290,276,45,0.129345817158199,1
290,278,45,0.146831509206495,1
290,279,45,0.231368713178446,1
290,280,45,0.221123945593511,1
291,274,45,0.251944855430945,1
291,275,45,0.196324430272843,1
291,276,45,0.139737666039698,1
291,278,45,0.141026373305215,1
291,279,45,0.222135413624309,1
292,275,45,0.213506479349781,1
292,276,45,0.151317365094571,1
270,276,46,0.120049181611354,1
271,275,46,0.122398442890861,1
271,276,46,0.129071769454537,1
271,281,46,0.233941181425186,1
271,282,46,0.256997272854377,1
272,275,46,0.150669943587863,1
272,276,46,0.133807718898047,1
272,279,46,0.118829392573677,1
272,280,46,0.178659988931629,1
272,281,46,0.243052519740856,1
272,282,46,0.263384857285095,1
272,283,46,0.212104207752231,1
273,275,46,0.139827923951209,1
273,276,46,0.140816097338353,1
273,280,46,0.165977657115659,1
273,281,46,0.264844576441668,1
273,282,46,0.286867106436878,1
273,283,46,0.210308117709884,1
274,269,46,0.159190825104287,1
274,270,46,0.1728909609057,1
274,271,46,0.191530821286697,1
274,272,46,0.157568043442131,1
274,276,46,0.12982232098879,1
274,277,46,0.146469099666969,1
274,278,46,0.132553388308378,1
274,280,46,0.141259060650679,1
274,281,46,0.230580864305238,1
274,282,46,0.267605050599075,1
275,269,46,0.166553993450931,1
275,270,46,0.20649700566081,1
275,271,46,0.280718027124104,1
275,272,46,0.24939433926498,1
275,273,46,0.130439487723228,1
275,277,46,0.15302877946054,1
275,278,46,0.184256697834225,1
275,279,46,0.147967505832847,1
275,280,46,0.132841733129025,1
275,281,46,0.176517941633468,1
275,282,46,0.219354329949007,1
276,269,46,0.188865645540034,1
276,270,46,0.183858368849225,1
276,271,46,0.237148399269344,1
276,272,46,0.228388412014741,1
276,273,46,0.139349582929308,1
276,277,46,0.116191009200277,1
276,278,46,0.176172490782953,1
276,279,46,0.173606535143868,1
276,280,46,0.166555018038392,1
276,281,46,0.221199293990934,2
276,282,46,0.274878750084322,2
277,269,46,0.221537666944161,1
277,270,46,0.154836375502307,1
277,271,46,0.148445528879328,1
277,272,46,0.157009348854177,1
277,273,46,0.127334316434816,1
277,278,46,0.152670256287246,1
277,279,46,0.18670764058659,1
277,280,46,0.224810105079806,2
277,281,46,0.319508979060541,2
277,282,46,0.347620149485191,2
277,283,46,0.300307055907522,2
278,269,46,0.195699255268594,1
278,270,46,0.134825511106622,1
278,271,46,0.119029987955562,1
278,272,46,0.144256838685558,1
278,273,46,0.140873921757131,1
278,274,46,0.118900112662224,1
278,276,46,0.132099448955665,1
278,277,46,0.116593448311989,1
278,278,46,0.129981614896814,1
278,279,46,0.175722096267317,1
278,280,46,0.241263236727847,2
278,281,46,0.324324092606502,2
278,282,46,0.295263376919676,2
278,283,46,0.217070277184119,2
279,269,46,0.176976332642047,1
279,270,46,0.12454063151143,1
279,271,46,0.122958880455186,1
279,272,46,0.18244023381133,1
279,273,46,0.189660183673908,1
279,274,46,0.138296907639588,1
279,279,46,0.164496645382884,1
279,280,46,0.225181594584073,1
279,281,46,0.279364393988785,2
279,282,46,0.2386749639251,2
280,269,46,0.179888987479588,1
280,271,46,0.117051344692138,1
280,272,46,0.19394843550441,1
280,273,46,0.21764402260857,1
280,274,46,0.154428990106301,1
280,279,46,0.160839574758989,1
280,280,46,0.222312090188569,1
280,281,46,0.282692089186122,1
280,282,46,0.24698526327611,1
281,272,46,0.141149582891622,1
281,273,46,0.177679788483693,1
281,274,46,0.155784213118714,1
281,275,46,0.12066994029034,1
281,278,46,0.116492497004907,1
281,279,46,0.143116649494424,1
281,280,46,0.199079369302587,1
281,281,46,0.276477035862351,1
281,282,46,0.23949658885392,1
282,272,46,0.118698740007093,1
282,273,46,0.16464031138791,1
282,274,46,0.183611396163643,1
282,275,46,0.171080185109743,1
282,276,46,0.13329709748269,1
282,277,46,0.130057069286043,1
282,278,46,0.140192629979872,1
282,279,46,0.144231153337828,1
282,280,46,0.165334593049877,1
282,281,46,0.211676424821943,1
282,282,46,0.174177206805936,1
283,272,46,0.136017812935862,1
283,273,46,0.177040599007276,1
283,274,46,0.193035846052036,1
283,275,46,0.19034235871622,1
283,276,46,0.168802609621908,1
283,277,46,0.169366580246444,1
283,278,46,0.171743599602338,1
283,279,46,0.153468268596993,1
283,280,46,0.147214799131866,1
283,281,46,0.171708104124089,1
284,271,46,0.12046601205499,1
284,272,46,0.148711674304986,1
284,273,46,0.155120256890221,1
284,274,46,0.161624997597519,1
284,275,46,0.196298591825837,1
284,276,46,0.207577792332939,1
284,277,46,0.184329514205163,1
284,278,46,0.148119686512981,1
284,279,46,0.120323723943445,1
284,280,46,0.133853766449457,1
284,281,46,0.182150899733824,1
285,272,46,0.15246344271939,1
285,273,46,0.140348496819492,1
285,274,46,0.167261005906523,1
285,275,46,0.2580231322171,1
285,276,46,0.256222684733826,1
285,277,46,0.16076586334613,1
285,280,46,0.158507024854278,1
285,281,46,0.213765193572129,1
286,272,46,0.129625105567839,1
286,273,46,0.133999128323385,1
286,274,46,0.184918133813101,1
286,275,46,0.29792582043311,1
286,276,46,0.274492892801866,1
286,277,46,0.145136134933882,1
286,279,46,0.118609436021838,1
286,280,46,0.205406656172379,1
286,281,46,0.218942021822441,1
287,273,46,0.134468036074523,1
287,274,46,0.170141710102894,1
287,275,46,0.240378699773545,1
287,276,46,0.225448552613579,1
287,277,46,0.137056485530281,1
287,279,46,0.133831684823142,1
287,280,46,0.201906429868095,1
287,281,46,0.182618099839194,1
288,273,46,0.144199791540026,1
288,274,46,0.168125910822922,1
288,275,46,0.212510674552583,1
288,276,46,0.20168010203101,1
288,277,46,0.141380456599512,1
288,278,46,0.127542036821459,1
288,279,46,0.155523649928189,1
288,280,46,0.17001615691988,1
289,273,46,0.178237882451412,1
289,274,46,0.192646184841419,1
289,275,46,0.215597980333197,1
289,276,46,0.187415712960245,1
289,277,46,0.140558266381057,1
289,278,46,0.15866538838978,1
289,279,46,0.211364384944151,1
289,280,46,0.188020890843702,1
290,274,46,0.2442706246865,1
290,275,46,0.21561868406603,1
290,276,46,0.163049916111018,1
290,277,46,0.128229688107098,1
290,278,46,0.164441988941427,1
290,279,46,0.240646458630032,1
291,275,46,0.186788159028787,1
270,281,47,0.21357459675064,1
270,282,47,0.198568700779761,1
271,280,47,0.173591920051464,1
271,281,47,0.24679068587345,1
271,282,47,0.272637612224125,1
271,283,47,0.230058324700104,1
272,280,47,0.162799846109319,1
272,281,47,0.241228447861641,1
272,282,47,0.288721421311495,1
272,283,47,0.262210727162205,1
273,280,47,0.154719266333196,1
273,281,47,0.253538854429252,1
273,282,47,0.292464604389587,1
273,283,47,0.23555998250617,1
274,271,47,0.210609110886084,1
274,280,47,0.141511933546812,1
274,281,47,0.224575439220624,1
274,282,47,0.260308127131377,1
274,283,47,0.215487442656077,1
275,271,47,0.305701897526556,1
275,272,47,0.310036656206296,1
275,278,47,0.147193035480969,1
275,280,47,0.146821498869232,1
275,281,47,0.189820737706741,1
275,282,47,0.234756258415749,1
276,271,47,0.248186857053703,1
276,272,47,0.285547367125845,1
276,278,47,0.159389112220167,1
276,279,47,0.194097931058784,1
276,280,47,0.190931213861505,1
276,281,47,0.241637152266793,2
276,282,47,0.292130777307164,2
277,271,47,0.154293202825544,1
277,272,47,0.194140033359626,1
277,279,47,0.208361872608589,1
277,280,47,0.23875412802755,2
277,281,47,0.315482350338627,2
277,282,47,0.334535178350764,2
277,283,47,0.257195171333635,2
278,272,47,0.167647369594277,1
278,279,47,0.194452132121754,1
278,280,47,0.234334528795289,1
278,281,47,0.28509249740061,2
278,282,47,0.272756770568158,2
279,272,47,0.194750699263277,1
279,273,47,0.225710022622891,1
279,279,47,0.198261795616141,1
279,280,47,0.239650159204404,1
279,281,47,0.266629619782424,1
280,272,47,0.188264942866177,1
280,273,47,0.235633281728671,1
280,280,47,0.251075439974343,1
280,281,47,0.267827704053541,1
281,273,47,0.172859881752714,1
281,274,47,0.169431023264683,1
281,280,47,0.214274990606771,1
281,281,47,0.233470436482738,1
282,273,47,0.151766947006358,1
282,274,47,0.183895925279262,1
282,275,47,0.182036522797942,1
282,279,47,0.161489787383263,1
282,280,47,0.174558223795905,1
282,281,47,0.182694402162873,1
283,273,47,0.165175028273903,1
283,274,47,0.189744670920408,1
283,275,47,0.198855797252466,1
283,276,47,0.190796663151821,1
283,277,47,0.190717475495637,1
283,278,47,0.177773956315171,1
283,279,47,0.154448080408305,1
283,280,47,0.149177508293741,1
284,272,47,0.15508392525439,1
284,273,47,0.161550002506117,1
284,274,47,0.175230435608423,1
284,275,47,0.218350045807303,1
284,276,47,0.223073982846098,1
284,277,47,0.177590036977479,1
284,280,47,0.133107537025529,1
285,273,47,0.159427504807788,1
285,274,47,0.187459228485171,1
285,275,47,0.274268590585968,1
285,276,47,0.272204812348337,1
285,277,47,0.168667375853917,1
285,280,47,0.152678217449587,1
286,273,47,0.16192437734289,1
286,274,47,0.191083559417782,1
286,275,47,0.278813165934742,1
286,276,47,0.274307501355753,1
286,277,47,0.159663925420208,1
286,280,47,0.180096507659486,1
287,274,47,0.173127970361488,1
287,275,47,0.227610502817592,1
287,276,47,0.238940061209562,1
287,280,47,0.171350099132959,1
288,274,47,0.17629932764451,1
288,275,47,0.219444046124619,1
288,276,47,0.223993214451667,1
288,277,47,0.165432305718432,1
288,279,47,0.165017924863209,1
289,275,47,0.27504313159905,1
289,276,47,0.22388870653064,1
289,277,47,0.167552271390277,1
289,278,47,0.181189542273678,1
270,281,48,0.209905984796724,1
270,282,48,0.188280311678092,1
271,280,48,0.173048087870128,1
271,281,48,0.256534182875719,1
271,282,48,0.284677621916957,1
271,283,48,0.241924978905275,1
272,280,48,0.149008274709658,1
272,281,48,0.232149448823764,1
272,282,48,0.3032253636414,1
272,283,48,0.322925778036387,4
272,284,48,0.239942390391282,1
273,281,48,0.2147420611666,1
273,282,48,0.272152593718426,1
273,283,48,0.275729157676991,1
274,282,48,0.249905949937196,1
277,281,48,0.29128705897516,2
277,282,48,0.292827449673206,2
271,281,49,0.261466829558015,1
271,282,49,0.284998800643827,1
271,283,49,0.236547472835007,4
272,281,49,0.21778628716638,1
272,282,49,0.291782394016673,4
272,283,49,0.342356973243334,4
272,284,49,0.280605346057124,4
273,282,49,0.234840627893576,1
273,283,49,0.295812014062899,4
271,283,50,0.223963748729512,4
272,282,50,0.273513952478738,4
272,283,50,0.324327649220447,4
272,284,50,0.290408410454542,4
273,283,50,0.29884853799142,4
272,283,51,0.2818066571899,4
