x,y,z,signal,mito.p
1018,152,30,0.120678172320631,1
1018,153,30,0.126147820601189,1
1018,154,30,0.126891741759113,1
1019,151,30,0.124557024910807,1
1019,152,30,0.126502268978375,1
1019,153,30,0.130609557464895,1
1019,154,30,0.129893865458052,1
1020,152,30,0.123909038114465,1
1020,153,30,0.126166180737417,1
1023,161,30,0.185085589090212,1
1023,162,30,0.201196426088192,1
1023,163,30,0.180922124946345,1
1017,152,31,0.118495824582336,1
1017,153,31,0.117583458890442,1
1017,154,31,0.118228666346085,1
1018,151,31,0.137143269265919,1
1018,152,31,0.136157639682126,1
1018,153,31,0.139371629225022,1
1018,154,31,0.136751158466889,1
1018,155,31,0.126827157418465,1
1019,150,31,0.143024330631123,1
1019,151,31,0.138672943014659,1
1019,152,31,0.14481106984078,1
1019,153,31,0.149188755202078,1
1019,154,31,0.142747173834476,1
1019,155,31,0.130544878909308,1
1020,151,31,0.134708931896543,1
1020,152,31,0.138308731614426,1
1020,153,31,0.139620921953475,1
1020,154,31,0.134619733903095,1
1021,152,31,0.121247171667533,1
1021,153,31,0.119939986497115,1
1022,161,31,0.187213845676684,1
1022,162,31,0.191801759897374,1
1022,163,31,0.174315384790769,1
1023,160,31,0.173581721284323,1
1023,161,31,0.211061578130376,1
1023,162,31,0.241554360889193,1
1023,163,31,0.224935293179931,1
1023,164,31,0.175036505933468,1
1024,161,31,0.196330919326763,1
1024,162,31,0.239625521997869,1
1024,163,31,0.231770351463177,1
1017,151,32,0.146906563182234,1
1017,152,32,0.131268049226929,1
1017,153,32,0.12416602113731,1
1017,154,32,0.121421940379279,1
1018,150,32,0.158723624998917,1
1018,151,32,0.155151194720798,1
1018,152,32,0.154686161559024,1
1018,153,32,0.154474766789762,1
1018,154,32,0.144672456111855,1
1018,155,32,0.125396150264537,1
1019,150,32,0.148098900342076,1
1019,151,32,0.149805580407363,1
1019,152,32,0.160490025558629,1
1019,153,32,0.163269154273948,1
1019,154,32,0.150288620399343,1
1019,155,32,0.129787979643543,1
1020,151,32,0.143983214949122,1
1020,152,32,0.150501934797986,1
1020,153,32,0.149413457831466,1
1020,154,32,0.140324943084755,1
1020,155,32,0.12753679611548,1
1021,152,32,0.124083512404527,1
1021,153,32,0.119679682397672,1
1021,154,32,0.116942385115246,1
1021,162,32,0.161399435256813,1
1022,161,32,0.204949077767649,1
1022,162,32,0.221827424988892,1
1022,163,32,0.205440856195216,1
1023,160,32,0.189731669258834,1
1023,161,32,0.23793111342838,1
1023,162,32,0.290526815079063,2
1023,163,32,0.287031134645584,2
1023,164,32,0.211975698575508,1
1024,161,32,0.23009231273933,1
1024,162,32,0.30079028432938,1
1024,163,32,0.313575369313139,2
1024,164,32,0.228279570206523,1
1017,151,33,0.153937600315356,1
1017,152,33,0.135489514442585,1
1017,153,33,0.125480472634894,1
1017,154,33,0.120880593116958,1
1018,150,33,0.163939234473472,1
1018,151,33,0.157772536967116,1
1018,152,33,0.153685080725244,1
1018,153,33,0.150366135740362,1
1018,154,33,0.140807924192399,1
1018,155,33,0.119685394178346,1
1019,150,33,0.149581242860863,1
1019,151,33,0.152551180381284,1
1019,152,33,0.157142227248694,1
1019,153,33,0.156588102085278,1
1019,154,33,0.146829754453258,1
1019,155,33,0.12748739215687,1
1020,150,33,0.143531466093739,1
1020,151,33,0.148178099775128,1
1020,152,33,0.149426683253521,1
1020,153,33,0.145200931258143,1
1020,154,33,0.138988103762304,1
1020,155,33,0.129129299451631,1
1021,151,33,0.125949545262176,1
1021,152,33,0.121546056784474,1
1021,153,33,0.11509289875625,1
1021,154,33,0.113940732491002,1
1021,161,33,0.170627482328104,1
1021,162,33,0.171699247919828,1
1021,163,33,0.15901006196705,1
1022,160,33,0.173816398920372,1
1022,161,33,0.213418812349091,1
1022,162,33,0.242782358403426,2
1022,163,33,0.228565088579001,2
1022,164,33,0.177990214930656,1
1023,160,33,0.196923543069606,1
1023,161,33,0.25694736249047,2
1023,162,33,0.328349920501435,2
1023,163,33,0.33453287008476,2
1023,164,33,0.244417929743543,2
1023,165,33,0.153983200345807,1
1024,160,33,0.205679903049059,1
1024,161,33,0.264796880128826,1
1024,162,33,0.355446466694831,2
1024,163,33,0.381139540050205,2
1024,164,33,0.274980243127303,2
1024,165,33,0.156994839753579,1
1017,151,34,0.146518586063651,1
1017,152,34,0.12987637681001,1
1017,153,34,0.119309029050988,1
1018,150,34,0.153124666714653,1
1018,151,34,0.146127923819308,1
1018,152,34,0.140037481529161,1
1018,153,34,0.135431949114888,1
1018,154,34,0.127680014599547,1
1019,150,34,0.14661256546525,1
1019,151,34,0.145687280549853,1
1019,152,34,0.144397737126753,1
1019,153,34,0.141857019314439,1
1019,154,34,0.133531374705249,1
1019,155,34,0.116579716484637,1
1020,150,34,0.140645780282471,1
1020,151,34,0.140796959928879,1
1020,152,34,0.13806146450716,1
1020,153,34,0.133248835880214,1
1020,154,34,0.1267057732465,1
1021,151,34,0.116160766204875,1
1021,162,34,0.170708966473426,1
1021,163,34,0.16295830385976,1
1022,161,34,0.192575370537933,1
1022,162,34,0.230075919339953,2
1022,163,34,0.221708831934493,2
1022,164,34,0.175732165488917,1
1023,160,34,0.171883014158244,1
1023,161,34,0.237082071952326,2
1023,162,34,0.313404345645216,2
1023,163,34,0.32501572447331,2
1023,164,34,0.239985964800545,2
1023,165,34,0.150059854750713,1
1024,160,34,0.193711979561388,1
1024,161,34,0.263846981560629,2
1024,162,34,0.356783871306916,2
1024,163,34,0.383258269150976,2
1024,164,34,0.278412705336749,2
1024,165,34,0.155388533928872,1
1017,149,35,0.175965524115821,1
1017,151,35,0.143340916379719,1
1017,152,35,0.131506424799332,1
1017,153,35,0.120772210606567,1
1018,149,35,0.155834417904306,1
1018,150,35,0.149024138150003,1
1018,151,35,0.140809302085881,1
1018,152,35,0.13326241460829,1
1018,153,35,0.12688267357124,1
1018,154,35,0.11662065287561,1
1019,149,35,0.140911890377527,1
1019,150,35,0.14903310034607,1
1019,151,35,0.141274688553676,1
1019,152,35,0.136931379868227,1
1019,153,35,0.13418115158543,1
1019,154,35,0.122530673557673,1
1020,150,35,0.139980705251578,1
1020,151,35,0.133535296402082,1
1020,152,35,0.129831130085581,1
1020,153,35,0.127488369636862,1
1020,154,35,0.117824790456554,1
1021,162,35,0.176040719413968,1
1021,163,35,0.175185047561585,1
1022,161,35,0.182537722719405,1
1022,162,35,0.232767946344215,2
1022,163,35,0.231259211865656,2
1022,164,35,0.183190043402938,1
1023,160,35,0.152098430492175,1
1023,161,35,0.22741382913254,2
1023,162,35,0.309937306553177,2
1023,163,35,0.325091850143979,2
1023,164,35,0.241831352809697,2
1023,165,35,0.158054263188301,1
1024,160,35,0.171475699423442,1
1024,161,35,0.254836523890836,1
1024,162,35,0.347166622322835,2
1024,163,35,0.372363936669472,2
1024,164,35,0.276192577407936,2
1024,165,35,0.167782120510705,1
1016,149,36,0.171388091307089,1
1016,150,36,0.156466034855005,1
1017,148,36,0.180116575441482,1
1017,149,36,0.176085542171172,1
1017,150,36,0.156984782308846,1
1017,151,36,0.143540286967398,1
1017,152,36,0.135225783274738,1
1017,153,36,0.123839542820124,1
1018,148,36,0.157799070249296,1
1018,149,36,0.158213945732949,1
1018,150,36,0.153923503405116,1
1018,151,36,0.142571368758402,1
1018,152,36,0.133031882429555,1
1018,153,36,0.125113305240951,1
1018,160,36,0.116122055641836,1
1018,161,36,0.132383754310805,1
1019,149,36,0.148852737622324,1
1019,150,36,0.155295308246784,1
1019,151,36,0.140073448082104,1
1019,152,36,0.134376117624713,1
1019,153,36,0.133107525248661,1
1019,154,36,0.118176565484847,1
1019,160,36,0.12741270326402,1
1019,161,36,0.153180748157062,1
1019,162,36,0.172512746810165,1
1019,163,36,0.171325332380883,1
1020,146,36,0.135069174492474,1
1020,147,36,0.13968024203441,1
1020,148,36,0.130468447040087,1
1020,149,36,0.133509316632668,1
1020,150,36,0.137505890789058,1
1020,151,36,0.125187075538146,1
1020,152,36,0.123331806737273,1
1020,153,36,0.125782278414943,1
1020,154,36,0.114445595018216,1
1020,160,36,0.121975523806796,1
1020,161,36,0.145188883522825,1
1020,162,36,0.170612266615464,1
1020,163,36,0.186576587606515,1
1020,164,36,0.179466892776239,1
1020,165,36,0.150560654258685,1
1021,143,36,0.130188098712383,1
1021,144,36,0.128511590981294,1
1021,145,36,0.124208782942724,1
1021,146,36,0.141820781893547,1
1021,147,36,0.15288414775239,1
1021,148,36,0.132475460777002,1
1021,149,36,0.114239052318309,1
1021,161,36,0.144527471097683,1
1021,162,36,0.176159618666919,1
1021,163,36,0.19167146063681,1
1021,164,36,0.180112712628985,1
1021,165,36,0.158565002372332,1
1021,166,36,0.132236920328456,1
1022,141,36,0.132704473739847,1
1022,143,36,0.120457791801567,1
1022,161,36,0.169379487693079,1
1022,162,36,0.227156174828256,1
1022,163,36,0.238642271341285,2
1022,164,36,0.192142888637565,1
1022,165,36,0.154052707417015,1
1022,166,36,0.132208761838578,1
1023,160,36,0.130651188691042,1
1023,161,36,0.204828105786041,1
1023,162,36,0.287216219893145,2
1023,163,36,0.307362836238985,2
1023,164,36,0.229390505659115,2
1023,165,36,0.166635677802998,1
1024,161,36,0.218534283120414,1
1024,162,36,0.301153341596612,1
1024,163,36,0.325138392323819,2
1024,164,36,0.248086070622765,1
1024,165,36,0.180116292796665,1
1015,149,37,0.136933735241701,1
1015,150,37,0.136689918756574,1
1016,148,37,0.166016355901831,1
1016,149,37,0.182761436091934,1
1016,150,37,0.160054988078042,1
1016,151,37,0.143506687564796,1
1016,152,37,0.149937610867429,1
1017,147,37,0.150771106878557,1
1017,148,37,0.174461559268545,1
1017,149,37,0.173661285800264,1
1017,150,37,0.154307346843253,1
1017,151,37,0.14171341219375,1
1017,152,37,0.13807126286081,1
1017,153,37,0.126287541355647,1
1017,161,37,0.114908908757354,1
1018,148,37,0.155635035539759,1
1018,149,37,0.157572707081609,1
1018,150,37,0.153619483574002,1
1018,151,37,0.142797790810426,1
1018,152,37,0.130544113412929,1
1018,153,37,0.122351782942348,1
1018,160,37,0.121848027440666,1
1018,161,37,0.150959501425849,1
1018,162,37,0.159021002676835,1
1018,163,37,0.143862831810883,1
1019,146,37,0.116276568141708,1
1019,147,37,0.126009041996121,1
1019,148,37,0.13740433886174,1
1019,149,37,0.151295118592112,1
1019,150,37,0.15212083009391,1
1019,151,37,0.134170976372024,1
1019,152,37,0.125187075538146,1
1019,153,37,0.128448054781842,1
1019,154,37,0.114260180018368,1
1019,160,37,0.130697989961964,1
1019,161,37,0.1758012485929,1
1019,162,37,0.210868131306984,1
1019,163,37,0.212923854167334,1
1019,164,37,0.180866597016703,1
1019,165,37,0.136773287200674,1
1020,143,37,0.118982162097179,1
1020,146,37,0.128338989213143,1
1020,147,37,0.131514668606489,1
1020,148,37,0.126970434786869,1
1020,149,37,0.133067107039853,1
1020,150,37,0.130860616723453,1
1020,151,37,0.116012401229769,1
1020,152,37,0.113878680176838,1
1020,153,37,0.123658308608193,1
1020,160,37,0.115578082138091,1
1020,161,37,0.148712781330518,1
1020,162,37,0.191275275041671,1
1020,163,37,0.227643854905979,1
1020,164,37,0.223281773893945,1
1020,165,37,0.183136246672799,1
1020,166,37,0.132423454130703,1
1021,141,37,0.138061829590048,1
1021,142,37,0.126904472552739,1
1021,143,37,0.120276840234452,1
1021,144,37,0.115833875697332,1
1021,146,37,0.130005392392031,1
1021,147,37,0.139932973608134,1
1021,148,37,0.123650971619822,1
1021,161,37,0.13314834387096,1
1021,162,37,0.172828731938525,1
1021,163,37,0.209524037434233,1
1021,164,37,0.211641070666103,1
1021,165,37,0.193471225061777,1
1021,166,37,0.155521848067482,1
1021,167,37,0.118499263427607,1
1022,140,37,0.183167738016142,1
1022,141,37,0.146357101658296,1
1022,142,37,0.114373850342207,1
1022,144,37,0.11847709936322,1
1022,161,37,0.159961291321259,1
1022,162,37,0.228138271351837,1
1022,163,37,0.260142191070157,1
1022,164,37,0.219441078354042,1
1022,165,37,0.179192597758363,1
1022,166,37,0.149656709026959,1
1022,167,37,0.120249353026014,1
1023,141,37,0.122439402835568,1
1023,161,37,0.189027294821532,1
1023,162,37,0.274983776187513,1
1023,163,37,0.303372810020852,2
1023,164,37,0.236876754046626,1
1023,165,37,0.190026915323758,1
1023,166,37,0.164291798551879,1
1023,167,37,0.134978315960727,1
1024,161,37,0.187206756002528,1
1024,162,37,0.257961397878355,1
1024,163,37,0.279375888211337,1
1024,164,37,0.232577490845134,1
1015,148,38,0.125028005390602,1
1015,149,38,0.143891402491118,1
1015,150,38,0.142515322646596,1
1015,151,38,0.147100928601281,1
1015,152,38,0.156812098102624,1
1016,147,38,0.139415545163438,1
1016,148,38,0.166878422593195,1
1016,149,38,0.191349339760551,1
1016,150,38,0.168285876012387,1
1016,151,38,0.15418801184621,1
1016,152,38,0.158773358709813,1
1016,153,38,0.137631090666051,1
1017,147,38,0.149406085512493,1
1017,148,38,0.170556420710403,1
1017,149,38,0.178993439154297,1
1017,150,38,0.162786420480519,1
1017,151,38,0.151816021212682,1
1017,152,38,0.145141081218177,1
1017,153,38,0.127380964606462,1
1017,161,38,0.118607198417038,1
1018,146,38,0.119527254403324,1
1018,147,38,0.141676550598887,1
1018,148,38,0.156693175295939,1
1018,149,38,0.162041392297062,1
1018,150,38,0.158057772694777,1
1018,151,38,0.147905547733622,1
1018,152,38,0.132025843534613,1
1018,153,38,0.118972069321845,1
1018,160,38,0.121377176506412,1
1018,161,38,0.157473498750898,1
1018,162,38,0.163674266734552,1
1018,163,38,0.143309872557336,1
1018,164,38,0.116837853640484,1
1019,146,38,0.117447153427521,1
1019,147,38,0.129520774299823,1
1019,148,38,0.139924117403873,1
1019,149,38,0.150145602122022,1
1019,150,38,0.146010214029961,1
1019,151,38,0.129546082787797,1
1019,152,38,0.117424282751091,1
1019,153,38,0.118535394856693,1
1019,160,38,0.122295124433438,1
1019,161,38,0.175899950518314,1
1019,162,38,0.214643747877808,1
1019,163,38,0.21417488723414,1
1019,164,38,0.174726008825302,1
1019,165,38,0.129613729113961,1
1020,142,38,0.114403681147252,1
1020,146,38,0.11933882452543,1
1020,147,38,0.126029792836424,1
1020,148,38,0.125071308931915,1
1020,149,38,0.128810428990766,1
1020,150,38,0.120369382858233,1
1020,161,38,0.136585976125181,1
1020,162,38,0.183811025842404,1
1020,163,38,0.226543094666794,1
1020,164,38,0.219835085228718,1
1020,165,38,0.1781168398086,1
1020,166,38,0.127765055358814,1
1021,140,38,0.152893793006764,1
1021,141,38,0.137853002177873,1
1021,142,38,0.120157305030663,1
1021,147,38,0.121348346735094,1
1021,148,38,0.113763066669883,1
1021,162,38,0.151313949803034,1
1021,163,38,0.198202534419544,1
1021,164,38,0.208660015782887,1
1021,165,38,0.192970331338866,1
1021,166,38,0.154915963571982,1
1021,167,38,0.115115357242321,1
1022,139,38,0.159957475616232,1
1022,140,38,0.184152189913198,1
1022,141,38,0.146459466189462,1
1022,161,38,0.131981715612584,1
1022,162,38,0.196450383869347,1
1022,163,38,0.248325635658772,1
1022,164,38,0.225400691424594,1
1022,165,38,0.184593822439511,1
1022,166,38,0.153884333544249,1
1022,167,38,0.121002731008435,1
1023,140,38,0.142436123213543,1
1023,161,38,0.150822053606793,1
1023,162,38,0.224510901987445,1
1023,163,38,0.263961287835306,1
1023,164,38,0.228237385467609,1
1023,165,38,0.202337157015226,1
1023,166,38,0.190895859705665,1
1023,167,38,0.152426251372241,1
1023,168,38,0.121808445389441,1
1024,161,38,0.14348398176451,1
1024,162,38,0.195802903478302,1
1024,163,38,0.216815425774268,1
1024,164,38,0.207276045437227,1
1024,165,38,0.230530482866636,1
1024,166,38,0.245097078130941,1
1024,167,38,0.196250813074923,1
1014,151,39,0.119641631339205,1
1014,152,39,0.123548347997575,1
1015,148,39,0.132627794556412,1
1015,149,39,0.144036540604566,1
1015,150,39,0.141058429938191,1
1015,151,39,0.142343451044222,1
1015,152,39,0.146932342744903,1
1015,153,39,0.13429146550207,1
1015,154,39,0.12303283918226,1
1016,147,39,0.148390966652811,1
1016,148,39,0.165233064676294,1
1016,149,39,0.178969508559804,1
1016,150,39,0.159033898346603,1
1016,151,39,0.147755369120941,1
1016,152,39,0.147427265596058,1
1016,153,39,0.134586075616156,1
1016,154,39,0.120501048235411,1
1017,147,39,0.151827715641979,1
1017,148,39,0.165927205015853,1
1017,149,39,0.172826152804571,1
1017,150,39,0.15688649257379,1
1017,151,39,0.147472700750365,1
1017,152,39,0.140621378613284,1
1017,153,39,0.126982400084115,1
1017,154,39,0.113920228964913,1
1017,159,39,0.116670469024578,1
1017,160,39,0.119378453684124,1
1017,161,39,0.124300124326033,1
1017,162,39,0.115140406639214,1
1018,146,39,0.127583891808086,1
1018,147,39,0.14236534424066,1
1018,148,39,0.151533329288372,1
1018,149,39,0.157645252584598,1
1018,150,39,0.151162310858799,1
1018,151,39,0.144355069536278,1
1018,152,39,0.131287928579047,1
1018,153,39,0.119372471035501,1
1018,160,39,0.128185548408201,1
1018,161,39,0.160413475920734,1
1018,162,39,0.16383994370469,1
1018,163,39,0.14361349197496,1
1019,146,39,0.124814078594856,1
1019,147,39,0.13560087650042,1
1019,148,39,0.137401394644898,1
1019,149,39,0.141284027609499,1
1019,150,39,0.136667507377972,1
1019,151,39,0.126595812635881,1
1019,152,39,0.114648263128758,1
1019,160,39,0.117642131243671,1
1019,161,39,0.168943036988408,1
1019,162,39,0.204764840454538,1
1019,163,39,0.20082799856944,1
1019,164,39,0.160178068118908,1
1019,165,39,0.119998246659986,1
1020,146,39,0.116898763598513,1
1020,147,39,0.129814383380183,1
1020,148,39,0.129440809370392,1
1020,149,39,0.127781884502283,1
1020,150,39,0.117317278134182,1
1020,161,39,0.125304585120748,1
1020,162,39,0.170397491885267,1
1020,163,39,0.207336366551888,1
1020,164,39,0.197986923531764,1
1020,165,39,0.161314335613209,1
1020,166,39,0.120241321202469,1
1021,139,39,0.142382114499792,1
1021,140,39,0.157205704563809,1
1021,141,39,0.140124865885034,1
1021,142,39,0.117609532874796,1
1021,148,39,0.114024148042572,1
1021,162,39,0.137498918883576,1
1021,163,39,0.190019696104062,1
1021,164,39,0.208796533229421,1
1021,165,39,0.185963860751074,1
1021,166,39,0.145658156356852,1
1022,138,39,0.119075517324808,1
1022,139,39,0.155854344363893,1
1022,140,39,0.177557921460166,1
1022,141,39,0.146712021110176,1
1022,162,39,0.164754393902108,1
1022,163,39,0.235822724417158,1
1022,164,39,0.244694827449108,1
1022,165,39,0.197708777478258,1
1022,166,39,0.156962712459398,1
1022,167,39,0.120209040809012,1
1023,139,39,0.122397006113042,1
1023,140,39,0.127437434685494,1
1023,161,39,0.118381565415128,1
1023,162,39,0.173286392781327,1
1023,163,39,0.222216155826987,1
1023,164,39,0.22600484472059,1
1023,165,39,0.215935552459443,1
1023,166,39,0.217001547386157,1
1023,167,39,0.172290552653526,1
1023,168,39,0.126158619988566,1
1024,162,39,0.147142312513214,1
1024,163,39,0.167006590240764,1
1024,164,39,0.186994866604837,1
1024,165,39,0.240536392027607,1
1024,166,39,0.288694169640404,1
1024,167,39,0.234735436914242,1
1014,150,40,0.114870139309977,1
1014,151,40,0.117706927567932,1
1014,152,40,0.120886999732806,1
1014,153,40,0.122044383150299,1
1015,148,40,0.136733693372582,1
1015,149,40,0.142212598270892,1
1015,150,40,0.143210899763973,1
1015,151,40,0.144175060118553,1
1015,152,40,0.140465323343786,1
1015,153,40,0.13288579038985,1
1015,154,40,0.123782813650011,1
1016,147,40,0.156033694277045,1
1016,148,40,0.163096175646041,1
1016,149,40,0.166818360569616,1
1016,150,40,0.16175190512028,1
1016,151,40,0.158844314335707,1
1016,152,40,0.147607322121253,1
1016,153,40,0.132569027988243,1
1016,154,40,0.124117347344477,1
1017,145,40,0.121218235904409,1
1017,146,40,0.142332086367211,1
1017,147,40,0.159041164673769,1
1017,148,40,0.168132706075394,1
1017,149,40,0.174462548525404,1
1017,150,40,0.165336088712033,1
1017,151,40,0.158184173812242,1
1017,152,40,0.145093785318825,1
1017,153,40,0.128349070211611,1
1017,154,40,0.118454935298833,1
1017,158,40,0.118411784856795,1
1017,159,40,0.126674858969658,1
1017,160,40,0.125886974765848,1
1017,161,40,0.122637430860367,1
1018,145,40,0.121516697054125,1
1018,146,40,0.136180451474219,1
1018,147,40,0.144424270408934,1
1018,148,40,0.152123880302558,1
1018,149,40,0.160440056310385,1
1018,150,40,0.150979875406396,1
1018,151,40,0.141692767345253,1
1018,152,40,0.12986026605545,1
1018,153,40,0.118036208779551,1
1018,159,40,0.116908232199877,1
1018,160,40,0.129644325415384,1
1018,161,40,0.147959462232434,1
1018,162,40,0.150087153529273,1
1018,163,40,0.134641179578573,1
1019,145,40,0.114351874707698,1
1019,146,40,0.130530617122924,1
1019,147,40,0.137680459294059,1
1019,148,40,0.134538779716805,1
1019,149,40,0.135141825987269,1
1019,150,40,0.129433071968531,1
1019,151,40,0.120206273245181,1
1019,161,40,0.145650383624388,1
1019,162,40,0.17251272325643,1
1019,163,40,0.169005348393654,1
1019,164,40,0.135701462724613,1
1020,139,40,0.122006061223882,1
1020,140,40,0.118378138346724,1
1020,146,40,0.114718783010559,1
1020,147,40,0.129488529236968,1
1020,148,40,0.127348837312281,1
1020,149,40,0.120564655096067,1
1020,162,40,0.144001210002461,1
1020,163,40,0.169379546577416,1
1020,164,40,0.162039767089365,1
1020,165,40,0.133966176648488,1
1021,136,40,0.11486341471871,1
1021,138,40,0.123155471702166,1
1021,139,40,0.144708293119257,1
1021,140,40,0.150701764683492,1
1021,141,40,0.130978220520994,1
1021,162,40,0.118458892326269,1
1021,163,40,0.167107894853867,1
1021,164,40,0.192272587277893,1
1021,165,40,0.164069239312352,1
1021,166,40,0.126609697562509,1
1022,136,40,0.137377570042212,1
1022,137,40,0.119866522398471,1
1022,138,40,0.121344283715852,1
1022,139,40,0.143802946440315,1
1022,140,40,0.155902971049257,1
1022,141,40,0.131109026186854,1
1022,162,40,0.127168910332628,1
1022,163,40,0.199379797189154,1
1022,164,40,0.239086659654563,1
1022,165,40,0.196540347359174,1
1022,166,40,0.150642515263762,1
1022,167,40,0.114502701048085,1
1023,162,40,0.123792835764142,1
1023,163,40,0.170158468585159,1
1023,164,40,0.205877542437235,1
1023,165,40,0.213740815456677,1
1023,166,40,0.224020913643718,1
1023,167,40,0.180163164728791,1
1023,168,40,0.123489993619764,1
1024,163,40,0.125618002892022,1
1024,164,40,0.160826926403435,1
1024,165,40,0.229772712112687,1
1024,166,40,0.299402875138449,1
1024,167,40,0.252720315039681,1
1024,168,40,0.157571340964995,1
1014,150,41,0.116392075656857,1
1014,151,41,0.11789582852052,1
1014,152,41,0.122698800116224,1
1014,153,41,0.124103839277605,1
1015,147,41,0.128618489606396,1
1015,148,41,0.13924902025885,1
1015,149,41,0.141079710737526,1
1015,150,41,0.145919190622071,1
1015,151,41,0.147448534618526,1
1015,152,41,0.14224545573085,1
1015,153,41,0.13436346926916,1
1015,154,41,0.127319065391574,1
1016,146,41,0.144203359930839,1
1016,147,41,0.166633793504219,1
1016,148,41,0.164502192287414,1
1016,149,41,0.159648415285884,1
1016,150,41,0.165055163317828,1
1016,151,41,0.166941440610483,1
1016,152,41,0.153115162782687,1
1016,153,41,0.136215016579945,1
1016,154,41,0.133861291867706,1
1016,155,41,0.11850596446514,1
1016,158,41,0.118686209420213,1
1016,159,41,0.118644107119371,1
1017,145,41,0.147549309272597,1
1017,146,41,0.159876026801512,1
1017,147,41,0.172653951449911,1
1017,148,41,0.172672829768303,1
1017,149,41,0.173186630937849,1
1017,150,41,0.169420812720675,1
1017,151,41,0.163922252230727,1
1017,152,41,0.150495846157557,1
1017,153,41,0.131715252211507,1
1017,154,41,0.125550427227062,1
1017,158,41,0.132343960275967,1
1017,159,41,0.143562910329613,1
1017,160,41,0.136322692478294,1
1017,161,41,0.123144236570697,1
1018,143,41,0.127886239324034,1
1018,144,41,0.139860687196227,1
1018,145,41,0.14359805250184,1
1018,146,41,0.147783032982389,1
1018,147,41,0.150183311651335,1
1018,148,41,0.153611993486356,1
1018,149,41,0.160562618169087,1
1018,150,41,0.149080372691687,1
1018,151,41,0.138182601364911,1
1018,152,41,0.128674064643508,1
1018,153,41,0.11604497604491,1
1018,159,41,0.123286242037424,1
1018,160,41,0.129334652687933,1
1018,161,41,0.135333211858872,1
1018,162,41,0.14059047611331,1
1018,163,41,0.131026270139856,1
1019,143,41,0.119026019151259,1
1019,144,41,0.121951122137609,1
1019,145,41,0.12541707775785,1
1019,146,41,0.138361480203369,1
1019,147,41,0.141077355364052,1
1019,148,41,0.13295381357577,1
1019,149,41,0.130804829702729,1
1019,150,41,0.12228267628463,1
1019,161,41,0.122199743584622,1
1019,162,41,0.145198422785393,1
1019,163,41,0.147261400196042,1
1019,164,41,0.118763277240271,1
1020,138,41,0.119015137325811,1
1020,139,41,0.131292486226718,1
1020,140,41,0.122539435546995,1
1020,146,41,0.116445778172057,1
1020,147,41,0.128613307784754,1
1020,148,41,0.12224155146378,1
1020,162,41,0.11995030303293,1
1020,163,41,0.13868291802132,1
1020,164,41,0.133734384344944,1
1021,136,41,0.135445786934046,1
1021,137,41,0.13005153415838,1
1021,138,41,0.146370550840831,1
1021,139,41,0.16193690792977,1
1021,140,41,0.149644060671406,1
1021,141,41,0.120932069804225,1
1021,163,41,0.144976240405622,1
1021,164,41,0.17283027470815,1
1021,165,41,0.144543558298508,1
1022,137,41,0.131739088591061,1
1022,138,41,0.133845569749769,1
1022,139,41,0.146220242682608,1
1022,140,41,0.139874619230324,1
1022,163,41,0.163551351569828,1
1022,164,41,0.221670321578198,1
1022,165,41,0.192357310061741,1
1022,166,41,0.145590180278401,1
1023,136,41,0.131628303599727,1
1023,163,41,0.132160464905501,1
1023,164,41,0.18462228712794,1
1023,165,41,0.211461661868614,1
1023,166,41,0.225393766626581,1
1023,167,41,0.180834929020349,1
1023,168,41,0.119362213384023,1
1024,164,41,0.139161494580568,1
1024,165,41,0.216243941508351,1
1024,166,41,0.296235086246239,1
1024,167,41,0.25615741733487,1
1014,151,42,0.114380398280464,1
1014,152,42,0.121342222764063,1
1014,153,42,0.11934240469311,1
1015,147,42,0.123834879180647,1
1015,148,42,0.132137535344734,1
1015,149,42,0.134954891771531,1
1015,150,42,0.140443854114574,1
1015,151,42,0.14281509102859,1
1015,152,42,0.139906287226678,1
1015,153,42,0.12975631164719,1
1015,154,42,0.124062973547837,1
1016,145,42,0.14788716404366,1
1016,146,42,0.145471787430747,1
1016,147,42,0.162052227015041,1
1016,148,42,0.15423383563714,1
1016,149,42,0.147887376027273,1
1016,150,42,0.156497361322205,1
1016,151,42,0.160211514422234,1
1016,152,42,0.148097051373899,1
1016,153,42,0.131506189261984,1
1016,154,42,0.132305049506182,1
1016,155,42,0.119522343449631,1
1016,158,42,0.123050268945965,1
1016,159,42,0.124473444483094,1
1017,142,42,0.13233248960715,1
1017,146,42,0.166608485016245,1
1017,147,42,0.171748663655306,1
1017,148,42,0.162590088324621,1
1017,149,42,0.157370981120457,1
1017,150,42,0.158632260061873,1
1017,151,42,0.156430445161818,1
1017,152,42,0.145606773884523,1
1017,153,42,0.12728972921496,1
1017,154,42,0.124078201037344,1
1017,155,42,0.113779931143954,1
1017,158,42,0.135512408672749,1
1017,159,42,0.149687823510547,1
1017,160,42,0.137853261268955,1
1017,161,42,0.119683757193782,1
1018,142,42,0.126699131093304,1
1018,143,42,0.159562408823493,1
1018,145,42,0.169377721162974,1
1018,146,42,0.152062251955619,1
1018,147,42,0.149500017806623,1
1018,148,42,0.145048550371263,1
1018,149,42,0.144362854045608,1
1018,150,42,0.134634737632122,1
1018,151,42,0.125387941787981,1
1018,152,42,0.118577803356087,1
1018,159,42,0.120158282510655,1
1018,160,42,0.122736957166497,1
1018,161,42,0.123616818704454,1
1018,162,42,0.129224009019008,1
1018,163,42,0.120482264131958,1
1019,142,42,0.115715365081004,1
1019,143,42,0.124618123298714,1
1019,144,42,0.130478869567708,1
1019,145,42,0.131763996665545,1
1019,146,42,0.138303773553264,1
1019,147,42,0.137584206957057,1
1019,148,42,0.125688075252863,1
1019,149,42,0.117753222433557,1
1019,162,42,0.12271054165299,1
1019,163,42,0.128242159809641,1
1020,138,42,0.128652783844173,1
1020,139,42,0.135674305268462,1
1020,140,42,0.123183441762166,1
1020,147,42,0.11778175778319,1
1020,163,42,0.117116294115674,1
1020,164,42,0.113952674234513,1
1021,138,42,0.166806901677667,1
1021,139,42,0.172703579169002,1
1021,140,42,0.140839639296222,1
1021,163,42,0.1225602217179,1
1021,164,42,0.147216612769441,1
1021,165,42,0.125584509481226,1
1022,138,42,0.142718037864607,1
1022,139,42,0.144520982043763,1
1022,140,42,0.120584864200471,1
1022,163,42,0.127072587334422,1
1022,164,42,0.182037029203239,1
1022,165,42,0.169933283104209,1
1022,166,42,0.131977511270933,1
1023,164,42,0.152301663892351,1
1023,165,42,0.190156661071555,1
1023,166,42,0.20538418590944,1
1023,167,42,0.165412449920049,1
1024,164,42,0.114877264314735,1
1024,165,42,0.18789537299129,1
1024,166,42,0.262940045004592,1
1024,167,42,0.229187519573154,1
1014,151,43,0.11515120602659,1
1014,152,43,0.119520671134465,1
1015,147,43,0.121392274450378,1
1015,148,43,0.128659296451828,1
1015,149,43,0.13684593869547,1
1015,150,43,0.140412492316772,1
1015,151,43,0.141860905680671,1
1015,152,43,0.141831404627913,1
1015,153,43,0.128823183338126,1
1015,154,43,0.119763345263457,1
1016,142,43,0.153098698722106,1
1016,146,43,0.147911695258388,1
1016,147,43,0.156837053284578,1
1016,148,43,0.150413054779957,1
1016,149,43,0.148910656256042,1
1016,150,43,0.152271267797673,1
1016,151,43,0.154276232359666,1
1016,152,43,0.148587946536414,1
1016,153,43,0.134561332417815,1
1016,154,43,0.13144619789961,1
1016,155,43,0.122258039078096,1
1016,156,43,0.115600399301754,1
1016,157,43,0.124063067762776,1
1016,158,43,0.13719526413535,1
1016,159,43,0.13339187771127,1
1017,141,43,0.11775580156751,1
1017,147,43,0.169366650907648,1
1017,148,43,0.156282386385263,1
1017,149,43,0.15107795315784,1
1017,150,43,0.150247424917289,1
1017,151,43,0.148095037529579,1
1017,152,43,0.142499364991311,1
1017,153,43,0.127749816092439,1
1017,154,43,0.124065340698178,1
1017,155,43,0.116864375145798,1
1017,157,43,0.123725684066407,1
1017,158,43,0.147459016030483,1
1017,159,43,0.158253033155744,1
1017,160,43,0.135856140100629,1
1017,161,43,0.114027681102782,1
1018,141,43,0.118635038931497,1
1018,142,43,0.142804998253255,1
1018,146,43,0.156933022976762,1
1018,147,43,0.153858671750254,1
1018,148,43,0.140574306474413,1
1018,149,43,0.134901342355607,1
1018,150,43,0.127268577961166,1
1018,151,43,0.119032225560362,1
1018,159,43,0.115564173657729,1
1018,160,43,0.116165182530138,1
1018,161,43,0.117870390487005,1
1018,162,43,0.121602008681341,1
1019,140,43,0.118165483452653,1
1019,141,43,0.123267210619757,1
1019,142,43,0.119106726023334,1
1019,143,43,0.124519857117392,1
1019,145,43,0.133534837104255,1
1019,146,43,0.137284803657952,1
1019,147,43,0.135602749022332,1
1019,148,43,0.119408838001935,1
1019,163,43,0.115941410273272,1
1020,138,43,0.138329447124127,1
1020,139,43,0.146554835261411,1
1020,140,43,0.131700825548981,1
1021,139,43,0.17904117079774,1
1021,140,43,0.135962873849588,1
1021,164,43,0.12776337126678,1
1021,165,43,0.114174915498621,1
1022,138,43,0.151326869026537,1
1022,139,43,0.137764216374783,1
1022,164,43,0.145619445793812,1
1022,165,43,0.150346621471132,1
1022,166,43,0.12563828265763,1
1023,137,43,0.115404067145856,1
1023,164,43,0.126098746394865,1
1023,165,43,0.168614580157505,1
1023,166,43,0.186414090390566,1
1023,167,43,0.153299718071217,1
1024,132,43,0.158951648704903,1
1024,165,43,0.165651402558953,1
1024,166,43,0.227156127720786,1
1014,150,44,0.116015474992152,1
1014,151,44,0.119710219814758,1
1014,152,44,0.118538386181005,1
1015,142,44,0.116023412600758,1
1015,145,44,0.134612879766287,1
1015,146,44,0.118408275350319,1
1015,147,44,0.118802847514629,1
1015,148,44,0.12719955374152,1
1015,149,44,0.137354063414945,1
1015,150,44,0.140355916245934,1
1015,151,44,0.142489601968263,1
1015,152,44,0.143966162045173,1
1015,153,44,0.131449766290422,1
1015,154,44,0.119337069772192,1
1016,141,44,0.133382456217376,1
1016,146,44,0.146853873477628,1
1016,147,44,0.144968726764241,1
1016,148,44,0.146079838869843,1
1016,149,44,0.147819058419669,1
1016,150,44,0.143995816197206,1
1016,151,44,0.144408147877507,1
1016,152,44,0.147197051392742,1
1016,153,44,0.140734306994479,1
1016,154,44,0.132286748254291,1
1016,155,44,0.128795872782699,1
1016,156,44,0.137015384263166,1
1016,157,44,0.148211004342555,1
1016,158,44,0.147036968434604,1
1016,159,44,0.129183213950444,1
1017,147,44,0.154669179316278,1
1017,148,44,0.146953917965922,1
1017,149,44,0.142294211961755,1
1017,150,44,0.135531934718846,1
1017,151,44,0.13232246749302,1
1017,152,44,0.133553538769636,1
1017,153,44,0.127876429193516,1
1017,154,44,0.122219151862045,1
1017,155,44,0.118465828901149,1
1017,156,44,0.124144893437251,1
1017,157,44,0.13938032055314,1
1017,158,44,0.154316415031127,1
1017,159,44,0.152134726797404,1
1017,160,44,0.123114382211918,1
1018,140,44,0.118814636158864,1
1018,146,44,0.152357227152595,1
1018,147,44,0.149279613733825,1
1018,148,44,0.133860314387714,1
1018,149,44,0.123571701525566,1
1018,150,44,0.114324140185046,1
1019,139,44,0.116719331247289,1
1019,140,44,0.133607382607244,1
1019,141,44,0.137127488263645,1
1019,142,44,0.124934862146586,1
1019,145,44,0.126904013254911,1
1019,146,44,0.128645140657251,1
1019,147,44,0.127009957953757,1
1020,138,44,0.145778256850274,1
1020,139,44,0.159353369427705,1
1020,140,44,0.142767736244902,1
1020,141,44,0.116333697725312,1
1021,139,44,0.171962013384551,1
1021,140,44,0.128238214559072,1
1022,139,44,0.122105246000858,1
1022,165,44,0.127759602669222,1
1022,166,44,0.115007728451442,1
1023,165,44,0.143562015287693,1
1023,166,44,0.1619256727983,1
1023,167,44,0.14254716729596,1
1024,131,44,0.154382389042124,1
1024,132,44,0.172566319779823,1
1024,165,44,0.1433031008586,1
1024,166,44,0.186587657861841,1
1014,150,45,0.122140941685852,1
1014,151,45,0.125847486929562,1
1014,152,45,0.12080442033882,1
1015,146,45,0.12333960302347,1
1015,147,45,0.115806506257568,1
1015,148,45,0.127707066063892,1
1015,149,45,0.140510452299542,1
1015,150,45,0.146238732364377,1
1015,151,45,0.151981757067157,1
1015,152,45,0.157501197942949,1
1015,153,45,0.148618189531816,1
1015,154,45,0.130015661820376,1
1015,155,45,0.118003951939829,1
1015,156,45,0.11487410811428,1
1016,147,45,0.130542087791741,1
1016,148,45,0.138299545657878,1
1016,149,45,0.146670919843061,1
1016,150,45,0.144594281266264,1
1016,151,45,0.15029941978672,1
1016,152,45,0.163157556678765,1
1016,153,45,0.160929444033877,1
1016,154,45,0.141858173447441,1
1016,155,45,0.133807047616607,1
1016,156,45,0.145733810952826,1
1016,157,45,0.155463964764367,1
1016,158,45,0.141138347760153,1
1016,159,45,0.118381636076332,1
1017,147,45,0.133705648788565,1
1017,148,45,0.129399048598704,1
1017,149,45,0.130345720305241,1
1017,150,45,0.126387821381289,1
1017,151,45,0.128005327006863,1
1017,152,45,0.13604592431827,1
1017,153,45,0.133883609031369,1
1017,154,45,0.121082801929673,1
1017,155,45,0.11428572404369,1
1017,156,45,0.122495166302557,1
1017,157,45,0.139608780003218,1
1017,158,45,0.146627215888257,1
1017,159,45,0.136960551168699,1
1018,146,45,0.141192674449323,1
1018,147,45,0.130593588032743,1
1018,148,45,0.114024678001603,1
1019,139,45,0.127140457421066,1
1019,140,45,0.144005296575438,1
1019,145,45,0.12261477216755,1
1019,146,45,0.117694267435511,1
1020,138,45,0.154109153942311,1
1020,139,45,0.162920558999844,1
1020,140,45,0.144850133709841,1
1020,141,45,0.114489722940245,1
1021,139,45,0.154848258361482,1
1021,140,45,0.117704642855662,1
1023,165,45,0.127164658883508,1
1023,166,45,0.144388716046349,1
1023,167,45,0.135682560852487,1
1024,131,45,0.180497486439644,1
1024,132,45,0.183294869299384,1
1024,165,45,0.135098463561619,1
1024,166,45,0.166446564866797,1
1013,157,46,0.118271487035836,1
1014,150,46,0.11870966894001,1
1014,151,46,0.122572257676351,1
1014,152,46,0.119196654182559,1
1014,153,46,0.113938907076559,1
1015,146,46,0.12767664641548,1
1015,148,46,0.123919225104739,1
1015,149,46,0.133737776082746,1
1015,150,46,0.141002336718916,1
1015,151,46,0.149875711652541,1
1015,152,46,0.162035291879765,1
1015,153,46,0.164065223400579,1
1015,154,46,0.143292113041345,1
1015,155,46,0.120378780798392,1
1015,156,46,0.113793827847449,1
1015,157,46,0.114950834405185,1
1016,140,46,0.116398258512226,1
1016,147,46,0.122190216098921,1
1016,148,46,0.12897956835991,1
1016,149,46,0.13646165951324,1
1016,150,46,0.137367500820612,1
1016,151,46,0.146875601797923,1
1016,152,46,0.166444680568018,1
1016,153,46,0.170669313760996,1
1016,154,46,0.147770278635029,1
1016,155,46,0.132694910923544,1
1016,156,46,0.142216225546042,1
1016,157,46,0.152909880207589,1
1016,158,46,0.138740459795282,1
1016,159,46,0.117470035880817,1
1017,147,46,0.120510163530754,1
1017,148,46,0.115836219293938,1
1017,149,46,0.115965717727521,1
1017,150,46,0.114310043274806,1
1017,151,46,0.118394296208753,1
1017,152,46,0.128626862959095,1
1017,153,46,0.129274166697129,1
1017,154,46,0.114911228800226,1
1017,156,46,0.116395090534903,1
1017,157,46,0.13285093086244,1
1017,158,46,0.133911590868236,1
1017,159,46,0.121753070559075,1
1018,139,46,0.117412635429264,1
1018,146,46,0.130685212060869,1
1019,138,46,0.116945882844854,1
1019,139,46,0.132104301025021,1
1019,140,46,0.144720352631442,1
1019,145,46,0.117287388444802,1
1020,138,46,0.153827910572687,1
1020,139,46,0.149624122434951,1
1020,140,46,0.13261858504613,1
1021,139,46,0.128552068074439,1
1023,165,46,0.115711478714773,1
1023,166,46,0.130966596752901,1
1024,130,46,0.146588764416299,1
1024,131,46,0.194907826227705,1
1024,165,46,0.129284212364995,1
1013,156,47,0.116950252062648,1
1014,151,47,0.118668002383261,1
1014,152,47,0.123785463445169,1
1014,153,47,0.12571615130467,1
1015,146,47,0.134229766493927,1
1015,147,47,0.115225129423062,1
1015,148,47,0.120525814987486,1
1015,149,47,0.126263999397778,1
1015,150,47,0.132499344264025,1
1015,151,47,0.146736163688281,1
1015,152,47,0.175617764999301,1
1015,153,47,0.193566264381439,1
1015,154,47,0.163019955760433,1
1015,155,47,0.12193379836571,1
1015,156,47,0.115888638130595,1
1015,157,47,0.134583119622447,1
1015,158,47,0.141536676745153,1
1016,147,47,0.125181516856748,1
1016,148,47,0.124905231548287,1
1016,149,47,0.125188359216689,1
1016,150,47,0.124176066805175,1
1016,151,47,0.137061113839157,1
1016,152,47,0.167661902248609,1
1016,153,47,0.184266778832692,1
1016,154,47,0.158939047456818,1
1016,155,47,0.131606139535339,1
1016,156,47,0.131456114021934,1
1016,157,47,0.142145387688821,1
1016,158,47,0.141490699854947,1
1016,159,47,0.119931471822008,1
1017,146,47,0.14356207417203,1
1017,147,47,0.119757503937242,1
1017,152,47,0.115388733664543,1
1017,153,47,0.120945778077842,1
1017,157,47,0.115370491296989,1
1017,158,47,0.115876425519134,1
1018,138,47,0.126533324577625,1
1018,146,47,0.123837917612428,1
1019,137,47,0.133017337998355,1
1019,138,47,0.130975629610173,1
1019,139,47,0.134069059361818,1
1020,138,47,0.150822771995702,1
1020,139,47,0.128344606778878,1
1023,137,47,0.117583011369482,1
1023,166,47,0.124344770430227,1
1024,130,47,0.161353587912148,1
1024,165,47,0.128225931286407,1
1013,156,48,0.11664830496019,1
1013,157,48,0.124093004559626,1
1014,145,48,0.114946971592688,1
1014,151,48,0.121460509619911,1
1014,152,48,0.133980838848362,1
1014,153,48,0.135119932790831,1
1014,156,48,0.117344671127681,1
1014,157,48,0.148484616302124,1
1014,158,48,0.139504024767977,1
1015,146,48,0.139327053782033,1
1015,147,48,0.115513462466841,1
1015,148,48,0.115958321854813,1
1015,149,48,0.120114213472962,1
1015,150,48,0.127880209567942,1
1015,151,48,0.151097337881528,1
1015,152,48,0.193976535109951,1
1015,153,48,0.21374545554242,1
1015,154,48,0.168551291272267,1
1015,155,48,0.120458616182283,1
1015,156,48,0.126701568904849,1
1015,157,48,0.176453286631616,1
1015,158,48,0.19257363933843,1
1015,159,48,0.134407738513597,1
1016,139,48,0.127327850934631,1
1016,147,48,0.127448222296003,1
1016,148,48,0.120247892694461,1
1016,149,48,0.115331615857806,1
1016,150,48,0.11419228637799,1
1016,151,48,0.12991710121737,1
1016,152,48,0.164725658345729,1
1016,153,48,0.185873767715706,1
1016,154,48,0.159085457471942,1
1016,155,48,0.126137056544415,1
1016,156,48,0.120931987366154,1
1016,157,48,0.142132821771339,1
1016,158,48,0.157675895993491,1
1016,159,48,0.129705364918954,1
1017,138,48,0.151539041069046,1
1017,146,48,0.146485139760325,1
1017,147,48,0.120061653313897,1
1018,137,48,0.126066301125266,1
1018,146,48,0.122227595875948,1
1019,137,48,0.158350062765992,1
1019,138,48,0.149400208855677,1
1019,139,48,0.143362562261942,1
1020,138,48,0.144787351229901,1
1020,139,48,0.114210399200002,1
1021,138,48,0.127617632533097,1
1024,130,48,0.167942851196549,1
1024,134,48,0.129395703968371,1
1013,157,49,0.119496469672023,1
1014,145,49,0.118968854237053,1
1014,151,49,0.124718002910865,1
1014,152,49,0.138605614663915,1
1014,153,49,0.133944130352775,1
1014,156,49,0.125534528456115,1
1014,157,49,0.162706632204098,1
1014,158,49,0.146420084344982,1
1015,146,49,0.147242910514274,1
1015,147,49,0.12157664130903,1
1015,148,49,0.118024596788326,1
1015,149,49,0.119592192049993,1
1015,150,49,0.127885850687411,1
1015,151,49,0.157877386417296,1
1015,152,49,0.203637393833896,1
1015,153,49,0.20974351113451,1
1015,154,49,0.158428096289175,1
1015,155,49,0.116312570025253,1
1015,156,49,0.127003551337909,1
1015,157,49,0.187901025887627,1
1015,158,49,0.203169027818657,1
1015,159,49,0.130559164249425,1
1016,138,49,0.115660119796179,1
1016,147,49,0.134291218187855,1
1016,148,49,0.121365682283861,1
1016,151,49,0.124489119493561,1
1016,152,49,0.160152924507077,1
1016,153,49,0.180153590135621,1
1016,154,49,0.156541559905438,1
1016,155,49,0.124019823105799,1
1016,157,49,0.134149012514382,1
1016,158,49,0.155582086744071,1
1016,159,49,0.126391142457887,1
1017,137,49,0.141013230321231,1
1017,146,49,0.152858179759842,1
1017,147,49,0.125084546130837,1
1018,136,49,0.137434782063888,1
1018,146,49,0.129163711458082,1
1019,135,49,0.116198016436361,1
1019,136,49,0.175277590185366,1
1020,137,49,0.202558138154525,1
1020,138,49,0.153558432293565,1
1020,139,49,0.114457371885584,1
1021,138,49,0.117955160378322,1
1022,137,49,0.141878570981723,1
1023,135,49,0.133155798628004,1
1023,136,49,0.125648634524047,1
1024,129,49,0.13955543079404,1
1024,130,49,0.161264601902313,1
1024,134,49,0.126521300396042,1
1014,145,50,0.119948265634875,1
1014,150,50,0.1155882926821,1
1014,151,50,0.129460629838173,1
1014,152,50,0.138625340916757,1
1014,153,50,0.126977300700545,1
1014,156,50,0.118778304523033,1
1014,157,50,0.147701030654903,1
1014,158,50,0.130910185558207,1
1015,146,50,0.153513421106483,1
1015,147,50,0.128894268509561,1
1015,148,50,0.12137664654738,1
1015,149,50,0.12071200726058,1
1015,150,50,0.130609003952128,1
1015,151,50,0.161892167610638,1
1015,152,50,0.195647566597714,1
1015,153,50,0.183899505446942,1
1015,154,50,0.14180662609897,1
1015,156,50,0.118109449117715,1
1015,157,50,0.166378011721846,1
1015,158,50,0.175053912143439,1
1015,159,50,0.11489089015028,1
1016,147,50,0.140951107345863,1
1016,148,50,0.122219410953127,1
1016,151,50,0.122226924594508,1
1016,152,50,0.151638096300481,1
1016,153,50,0.164058816784731,1
1016,154,50,0.147774848059568,1
1016,155,50,0.119141397120867,1
1016,157,50,0.120762188492437,1
1016,158,50,0.136054945398674,1
1017,136,50,0.123388335700641,1
1017,146,50,0.159684970682195,1
1017,147,50,0.129496290192564,1
1017,154,50,0.115911685460035,1
1018,135,50,0.114495057861163,1
1018,146,50,0.135955301323871,1
1019,135,50,0.135154874756313,1
1020,134,50,0.14212059738301,1
1020,135,50,0.167792861013745,1
1020,136,50,0.2043048831226,1
1020,139,50,0.114751452040639,1
1021,137,50,0.15918696229179,1
1022,135,50,0.172944333668613,1
1022,136,50,0.17208329156471,1
1022,137,50,0.12519950013322,1
1023,129,50,0.124997432642914,1
1023,134,50,0.138099079821534,1
1023,135,50,0.121483910255371,1
1023,136,50,0.113771675559929,1
1024,129,50,0.139890800646088,1
1024,130,50,0.14544586654567,1
1024,133,50,0.140254764732107,1
1024,134,50,0.115035957602524,1
1011,150,51,0.114484611779807,1
1011,151,51,0.116590315665269,1
1012,149,51,0.115658047067522,1
1012,150,51,0.120884738574272,1
1012,151,51,0.122730114806556,1
1012,152,51,0.119675972684451,1
1013,150,51,0.11817655370798,1
1013,151,51,0.122369118491114,1
1013,152,51,0.119106985114417,1
1014,144,51,0.120700607252967,1
1014,145,51,0.11806964330601,1
1014,150,51,0.115892760034174,1
1014,151,51,0.131000938098147,1
1014,152,51,0.13516366029937,1
1014,153,51,0.119330250965986,1
1014,157,51,0.119742405993276,1
1015,146,51,0.160691256891352,1
1015,147,51,0.137640394391272,1
1015,148,51,0.125979164083607,1
1015,149,51,0.120326503284144,1
1015,150,51,0.127323352171296,1
1015,151,51,0.152762728249822,1
1015,152,51,0.168084727117735,1
1015,153,51,0.150533273042053,1
1015,154,51,0.122580371937967,1
1015,157,51,0.130226691506749,1
1015,158,51,0.132024500971733,1
1016,147,51,0.151135824684088,1
1016,148,51,0.12477096348342,1
1016,151,51,0.117920371512116,1
1016,152,51,0.137736128546109,1
1016,153,51,0.145642481346384,1
1016,154,51,0.135656840174154,1
1017,146,51,0.173966153565828,1
1017,147,51,0.140018450111494,1
1017,154,51,0.12347520187435,1
1017,155,51,0.118351416634665,1
1018,134,51,0.116058813864067,1
1018,145,51,0.164568484273831,1
1018,146,51,0.145777149824741,1
1018,147,51,0.113810939635735,1
1019,134,51,0.132154929777837,1
1019,144,51,0.12334273567019,1
1019,145,51,0.117332199425138,1
1020,134,51,0.150859103631534,1
1020,135,51,0.174795033044948,1
1021,135,51,0.175673728673035,1
1021,136,51,0.175820645093456,1
1021,137,51,0.14289112248432,1
1022,129,51,0.123148758887766,1
1022,135,51,0.150243432559251,1
1022,136,51,0.14167358282831,1
1023,128,51,0.116146527972227,1
1023,129,51,0.137366440902549,1
1023,134,51,0.131398372041227,1
1023,135,51,0.115674358028828,1
1024,128,51,0.126620638272294,1
1024,129,51,0.128110482655595,1
1024,130,51,0.122285290749186,1
1024,133,51,0.120423203142106,1
1011,148,52,0.121029982679526,1
1011,149,52,0.124052739450094,1
1011,150,52,0.123450859089499,1
1012,148,52,0.118282945927785,1
1012,149,52,0.128644139623525,1
1012,150,52,0.132469937426206,1
1012,151,52,0.134037850663292,1
1012,152,52,0.128578872224569,1
1012,153,52,0.114252089310486,1
1013,149,52,0.118954769103681,1
1013,150,52,0.128899191240121,1
1013,151,52,0.139304135998134,1
1013,152,52,0.136701636739605,1
1013,153,52,0.116316138416066,1
1014,144,52,0.119976812761376,1
1014,145,52,0.117842031790382,1
1014,150,52,0.118101275971761,1
1014,151,52,0.136292720350841,1
1014,152,52,0.140592643056905,1
1014,153,52,0.121702276930116,1
1015,146,52,0.161494969204905,1
1015,147,52,0.139218942139591,1
1015,148,52,0.12569288021475,1
1015,149,52,0.117453807357584,1
1015,150,52,0.120727788262854,1
1015,151,52,0.13836160974891,1
1015,152,52,0.143308847969875,1
1015,153,52,0.129622526433885,1
1016,147,52,0.157052770164164,1
1016,148,52,0.124633515664364,1
1016,152,52,0.124235916845141,1
1016,153,52,0.130204904302118,1
1016,154,52,0.124069250618144,1
1017,135,52,0.136658839603589,1
1017,147,52,0.15483519781557,1
1017,153,52,0.113798762354876,1
1017,154,52,0.125948826873266,1
1017,155,52,0.117717326541818,1
1018,134,52,0.157936270754138,1
1018,146,52,0.160239296052356,1
1018,147,52,0.12147885797927,1
1019,133,52,0.130421610438563,1
1019,144,52,0.129518336488278,1
1019,145,52,0.123646343310947,1
1020,133,52,0.151170955079448,1
1020,134,52,0.17126922738474,1
1021,134,52,0.161051593702221,1
1021,135,52,0.159997658287692,1
1022,134,52,0.14913244999919,1
1022,135,52,0.133931870633844,1
1022,136,52,0.122671960635491,1
1023,128,52,0.137770034147262,1
1023,129,52,0.140302567036756,1
1023,133,52,0.15451182859137,1
1023,134,52,0.125405277336747,1
1024,127,52,0.167146040127273,1
1024,128,52,0.14281012119056,1
1024,129,52,0.113999758150252,1
1024,132,52,0.113936952116576,1
1011,147,53,0.128021838174913,1
1011,148,53,0.134946777509914,1
1011,149,53,0.146130338077118,1
1011,150,53,0.145327202830066,1
1012,147,53,0.122135006144698,1
1012,148,53,0.13809654779505,1
1012,149,53,0.147042809760818,1
1012,150,53,0.146189823034196,1
1012,151,53,0.142500118710823,1
1012,152,53,0.136156991954421,1
1012,153,53,0.119787216973613,1
1013,148,53,0.123258377969231,1
1013,149,53,0.129274013597854,1
1013,150,53,0.137199056286643,1
1013,151,53,0.152046942028041,1
1013,152,53,0.155480134403263,1
1013,153,53,0.133383363036163,1
1014,143,53,0.118682758798074,1
1014,144,53,0.11674895006872,1
1014,145,53,0.115842166611959,1
1014,150,53,0.117741068706433,1
1014,151,53,0.140039789795165,1
1014,152,53,0.151353790945341,1
1014,153,53,0.132840743872166,1
1015,146,53,0.163452944066098,1
1015,147,53,0.141222882114123,1
1015,148,53,0.123691248506222,1
1015,151,53,0.120445732289382,1
1015,152,53,0.127436998941401,1
1015,153,53,0.120737904591923,1
1016,147,53,0.172585068552674,1
1016,148,53,0.12903707480327,1
1016,153,53,0.124223456919465,1
1016,154,53,0.126516365888615,1
1017,134,53,0.118317711240257,1
1017,147,53,0.180393767568731,1
1017,148,53,0.118820406823875,1
1017,153,53,0.121472604462698,1
1017,154,53,0.132328932993205,1
1017,155,53,0.119787110981806,1
1018,146,53,0.174769877656249,1
1018,147,53,0.129588408849119,1
1019,144,53,0.132256116622266,1
1019,145,53,0.125064678555587,1
1020,132,53,0.144226619243891,1
1020,133,53,0.165246584520033,1
1021,133,53,0.175019335260845,1
1021,134,53,0.151416067019985,1
1022,134,53,0.138283164035369,1
1022,135,53,0.126479457186282,1
1022,136,53,0.114583984986661,1
1023,129,53,0.143021468852353,1
1023,130,53,0.157265872579194,1
1023,133,53,0.140138385728773,1
1023,134,53,0.121649033712743,1
1024,128,53,0.164280504536072,1
1024,129,53,0.114050799093426,1
1012,146,54,0.121961827310047,1
1012,147,54,0.142352307248483,1
1012,148,54,0.151930468809768,1
1012,149,54,0.162712049563088,1
1012,150,54,0.160409483562696,1
1012,151,54,0.144645369316908,1
1013,147,54,0.125258101825245,1
1013,148,54,0.13201516191591,1
1013,149,54,0.128268222017127,1
1013,150,54,0.131476064035256,1
1013,151,54,0.148156665876517,1
1013,152,54,0.161591103773233,1
1013,153,54,0.148957410419494,1
1014,143,54,0.119823525055709,1
1014,144,54,0.117816593756866,1
1014,145,54,0.116244593946803,1
1014,146,54,0.11400173666397,1
1014,151,54,0.136427306391127,1
1014,152,54,0.153715099960166,1
1014,153,54,0.140215959954129,1
1015,146,54,0.157331446176701,1
1015,147,54,0.13771460043256,1
1015,148,54,0.117032277943868,1
1015,152,54,0.11831921867928,1
1015,153,54,0.114835574204251,1
1016,147,54,0.180080526450467,1
1016,148,54,0.130344801709587,1
1016,153,54,0.117813366895207,1
1016,154,54,0.124118159948325,1
1016,155,54,0.114581959365474,1
1017,148,54,0.122660042445714,1
1017,153,54,0.123653315216429,1
1017,154,54,0.131492339665959,1
1017,155,54,0.119039538994998,1
1018,147,54,0.128733420055044,1
1019,145,54,0.121237043561596,1
1020,132,54,0.15845564238195,1
1021,131,54,0.19167593584641,1
1021,132,54,0.190021215319952,1
1021,133,54,0.166886595739148,1
1022,133,54,0.15138431658556,1
1022,134,54,0.129017230781754,1
1022,135,54,0.120491485419108,1
1023,130,54,0.142941480369187,1
1023,131,54,0.148487607626436,1
1023,132,54,0.142480875309543,1
1023,133,54,0.128703047514101,1
1023,134,54,0.118253845288518,1
1024,129,54,0.121665709756937,1
1012,145,55,0.119026737540169,1
1012,146,55,0.14151632631834,1
1012,147,55,0.157385501997922,1
1012,148,55,0.15521298794388,1
1012,149,55,0.163064107236197,1
1012,150,55,0.160547214026569,1
1013,144,55,0.120480214957036,1
1013,145,55,0.119256845751679,1
1013,146,55,0.134436756714793,1
1013,147,55,0.149281321379593,1
1013,148,55,0.138464775107056,1
1013,149,55,0.122663516621588,1
1013,150,55,0.121374715141132,1
1013,151,55,0.136449670662259,1
1013,152,55,0.157566806871058,1
1013,153,55,0.153668687325867,1
1014,142,55,0.121683127743775,1
1014,143,55,0.12163589072876,1
1014,144,55,0.119874613106353,1
1014,145,55,0.11937015099263,1
1014,146,55,0.125269808031409,1
1014,147,55,0.126975628385378,1
1014,148,55,0.114863956454609,1
1014,151,55,0.128958958842015,1
1014,152,55,0.148634983344683,1
1014,153,55,0.13870484654836,1
1015,146,55,0.152387293494986,1
1015,147,55,0.137721383908164,1
1015,148,55,0.114485695251605,1
1015,152,55,0.116309967337565,1
1016,147,55,0.18064495637283,1
1016,148,55,0.130100879232653,1
1016,153,55,0.113990689962378,1
1016,154,55,0.118131471859694,1
1017,148,55,0.121288696901874,1
1017,153,55,0.119476743419181,1
1017,154,55,0.125588136756376,1
1017,155,55,0.115591743304239,1
1018,147,55,0.120435981043201,1
1019,145,55,0.118094916463382,1
1020,140,55,0.122706113550859,1
1021,132,55,0.186156659846761,1
1022,131,55,0.162524738487594,1
1022,132,55,0.155158991006996,1
1022,133,55,0.131847965729881,1
1022,134,55,0.116621736347407,1
1023,130,55,0.130227645433006,1
1023,131,55,0.127950552796733,1
1023,132,55,0.124055648336334,1
1023,133,55,0.115272872843373,1
1024,129,55,0.131423645198599,1
1024,134,55,0.117087099261468,1
1024,135,55,0.11921535584794,1
1012,144,56,0.126921195704402,1
1012,145,56,0.146569850767305,1
1012,146,56,0.158875275720019,1
1012,147,56,0.162303250942997,1
1012,148,56,0.157685317487386,1
1013,143,56,0.127296253599482,1
1013,144,56,0.145306051576272,1
1013,145,56,0.152498808652097,1
1013,146,56,0.166816605816378,1
1013,147,56,0.166444551022477,1
1013,148,56,0.140222920082743,1
1013,149,56,0.119727790900872,1
1013,150,56,0.114388559649551,1
1013,152,56,0.14429854057291,1
1014,141,56,0.119146461173835,1
1014,142,56,0.123917729442583,1
1014,143,56,0.126596059950096,1
1014,144,56,0.126205621466233,1
1014,145,56,0.132091158041038,1
1014,146,56,0.149186364498002,1
1014,147,56,0.148300049236727,1
1014,148,56,0.12051747696539,1
1014,151,56,0.115507314942075,1
1014,152,56,0.133823923867546,1
1014,153,56,0.126997333151938,1
1015,146,56,0.154356515264516,1
1015,147,56,0.143469896631138,1
1015,148,56,0.115380642956661,1
1016,147,56,0.175552144294324,1
1016,148,56,0.1290974430254,1
1017,148,56,0.118818228103412,1
1021,139,56,0.120103096110167,1
1022,131,56,0.139437603236019,1
1022,132,56,0.133934673528278,1
1022,133,56,0.115277560036586,1
1023,130,56,0.125196661908184,1
1023,131,56,0.116832283182219,1
1024,129,56,0.136958501993777,1
1024,130,56,0.117775633812159,1
1024,133,56,0.116293691706862,1
1024,134,56,0.13184358473522,1
1024,135,56,0.139915202315276,1
1024,136,56,0.123397674756464,1
1012,144,57,0.151344098583497,1
1012,145,57,0.17301344032633,1
1012,146,57,0.166715348310745,1
1012,147,57,0.157869307486281,1
1013,143,57,0.133003983030759,1
1013,144,57,0.162064109874216,1
1013,145,57,0.181209421625796,1
1013,146,57,0.189418769669724,1
1013,147,57,0.168982183295541,1
1013,148,57,0.136919355686644,1
1014,141,57,0.114431886744599,1
1014,142,57,0.120683519018416,1
1014,143,57,0.124796389740069,1
1014,144,57,0.127930331915461,1
1014,145,57,0.143391356702658,1
1014,146,57,0.172137912675565,1
1014,147,57,0.164335149200662,1
1014,148,57,0.123434559905061,1
1014,152,57,0.115596053637695,1
1015,146,57,0.157401471430073,1
1015,147,57,0.148076877600097,1
1015,148,57,0.117693678592142,1
1016,147,57,0.160732805679427,1
1016,148,57,0.122829323137267,1
1017,147,57,0.152767768749055,1
1018,146,57,0.146124002122474,1
1020,141,57,0.127537702934268,1
1021,139,57,0.14410660118854,1
1022,132,57,0.12432479686317,1
1023,134,57,0.115515075897671,1
1023,135,57,0.122042593066459,1
1024,130,57,0.115826762469441,1
1024,133,57,0.129545470390694,1
1024,134,57,0.158826013083817,1
1024,135,57,0.176259934023163,1
1024,136,57,0.162541237878777,1
1024,137,57,0.114905269705337,1
1013,142,58,0.115386413621671,1
1013,143,58,0.132445335550274,1
1013,144,58,0.166150023346462,1
1013,145,58,0.193406746712935,1
1013,146,58,0.199880478928452,1
1013,147,58,0.164960359535513,1
1013,148,58,0.131217691342062,1
1014,142,58,0.116468754840292,1
1014,143,58,0.119924264379178,1
1014,144,58,0.127783427271908,1
1014,145,58,0.151014193197908,1
1014,146,58,0.184220766611884,1
1014,147,58,0.166247135394781,1
1014,148,58,0.121036636609589,1
1015,139,58,0.122705454046287,1
1015,140,58,0.123792612003662,1
1015,146,58,0.156047567426805,1
1015,147,58,0.14389014236631,1
1015,148,58,0.114220185776785,1
1016,147,58,0.13928544610962,1
1017,147,58,0.134405182933378,1
1018,146,58,0.138487245369995,1
1019,142,58,0.155541150353099,1
1019,145,58,0.118886003975117,1
1020,141,58,0.152670586039532,1
1021,140,58,0.120460206059377,1
1022,131,58,0.11414574419815,1
1023,130,58,0.116760385406935,1
1023,134,58,0.123422253078662,1
1023,135,58,0.13308685684643,1
1023,136,58,0.126616233723898,1
1024,129,58,0.135367765187731,1
1024,133,58,0.14004612574981,1
1024,134,58,0.179101739226616,1
1024,135,58,0.204079497434904,1
1024,136,58,0.199002890325897,1
1024,137,58,0.1503488708528,1
1014,141,59,0.113898936388711,1
1014,142,59,0.117648478975183,1
1014,143,59,0.121329845276459,1
1014,144,59,0.131574165340434,1
1014,145,59,0.153944595774573,1
1014,146,59,0.178291879388296,1
1014,147,59,0.15663127608105,1
1014,148,59,0.116769594917217,1
1015,140,59,0.113883473361857,1
1015,141,59,0.129565408627149,1
1015,146,59,0.15245941503075,1
1015,147,59,0.135494401842543,1
1016,147,59,0.123403292322199,1
1017,147,59,0.120995087821513,1
1018,146,59,0.130840996462417,1
1018,147,59,0.114176375830175,1
1018,148,59,0.121114352157353,1
1018,149,59,0.116423013487434,1
1019,143,59,0.149324813350784,1
1019,144,59,0.150909614615677,1
1019,145,59,0.127788844630898,1
1019,148,59,0.12295944574482,1
1019,149,59,0.131276622786373,1
1020,142,59,0.116631581808527,1
1022,137,59,0.114714943751797,1
1022,138,59,0.115211856893537,1
1023,133,59,0.120664275617136,1
1023,134,59,0.133349210120795,1
1023,135,59,0.141038797900288,1
1023,136,59,0.142128228793065,1
1023,137,59,0.126065535628887,1
1024,133,59,0.153788034099778,1
1024,134,59,0.191668116006477,1
1024,135,59,0.215229552814445,1
1024,136,59,0.2243490171686,1
1024,137,59,0.189414200245185,1
1024,138,59,0.116888729707515,1
1015,141,60,0.119771235764594,1
1015,142,60,0.137046039448926,1
1015,145,60,0.153550942205918,1
1015,146,60,0.139591432677585,1
1015,147,60,0.119999801206479,1
1016,146,60,0.147185168533567,1
1017,146,60,0.148240281634833,1
1018,145,60,0.168123779209929,1
1018,146,60,0.126635700885658,1
1018,147,60,0.115323960894017,1
1018,148,60,0.12871392933955,1
1018,149,60,0.124059004743534,1
1019,143,60,0.162398796667957,1
1019,144,60,0.157156830564231,1
1019,145,60,0.132316685051142,1
1019,147,60,0.118693817276533,1
1019,148,60,0.158021641265691,1
1019,149,60,0.171190852332404,1
1019,150,60,0.116159647402475,1
1020,142,60,0.127873920720767,1
1020,148,60,0.114589355238181,1
1020,149,60,0.140670499927078,1
1020,150,60,0.113931734964332,1
1022,136,60,0.129291337369753,1
1022,137,60,0.128740262414985,1
1022,138,60,0.11986778252328,1
1023,133,60,0.132310419757702,1
1023,134,60,0.142417445101897,1
1023,135,60,0.149237688085993,1
1023,136,60,0.163359259086183,1
1023,137,60,0.160020776278337,1
1023,138,60,0.121959318837297,1
1024,138,60,0.151890050600959,1
1016,142,61,0.150041612383159,1
1016,146,61,0.125090293242113,1
1017,145,61,0.160491980518612,1
1017,146,61,0.12361294411509,1
1018,144,61,0.182583581840937,1
1018,145,61,0.149275220962296,1
1018,146,61,0.123588978189995,1
1018,147,61,0.114584726929305,1
1018,148,61,0.124663169816398,1
1018,149,61,0.122478560919568,1
1019,143,61,0.177023310565979,1
1019,144,61,0.155333429966456,1
1019,145,61,0.131337191215248,1
1019,148,61,0.178951183754179,1
1019,149,61,0.188339914403844,1
1020,142,61,0.145971209045237,1
1022,133,61,0.116727551500712,1
1022,134,61,0.12726891949032,1
1022,135,61,0.138992826286119,1
1022,136,61,0.157979056113287,1
1022,137,61,0.15706388752696,1
1022,138,61,0.130655428363294,1
1023,138,61,0.154486060805568,1
