x,y,z,signal,mito.p
283,95,48,0.167513207521216,1
284,96,48,0.159568203042238,1
285,97,48,0.167592642491616,1
285,98,48,0.15748857314113,1
287,100,48,0.180165331672387,1
299,103,48,0.183762811347398,1
299,104,48,0.19588096055522,1
299,105,48,0.161223818610616,1
300,103,48,0.216888842765442,1
300,104,48,0.251426202192042,1
300,105,48,0.201008726376075,1
300,106,48,0.159238910053752,1
301,98,48,0.174591022371526,1
301,103,48,0.18078498332584,1
301,104,48,0.232397446096807,1
301,105,48,0.233544065457525,1
301,106,48,0.224308010116423,1
301,107,48,0.165561945474423,1
301,110,48,0.13409755938085,1
301,111,48,0.168061126275529,1
301,112,48,0.197743990311689,1
302,98,48,0.19593085914226,1
302,103,48,0.139784903054712,1
302,104,48,0.181905446264133,1
302,105,48,0.198690308712206,1
302,106,48,0.190396343876236,1
302,110,48,0.184733814061919,1
302,111,48,0.200261861001309,1
302,112,48,0.239823420477127,1
302,113,48,0.243732398294031,1
302,114,48,0.184297210257972,1
303,98,48,0.148356660638167,1
303,104,48,0.168284109482281,1
303,105,48,0.157592056474696,1
303,111,48,0.180944866077233,1
303,112,48,0.205644572446954,1
303,113,48,0.200501308268642,1
303,114,48,0.178485597079638,1
304,104,48,0.189967995656314,1
304,112,48,0.16418971666553,1
304,113,48,0.160818882803023,1
305,112,48,0.146580332179263,1
305,113,48,0.150342099154063,1
306,112,48,0.146496009808906,1
275,103,49,0.183484547525219,1
276,98,49,0.16743058101976,1
276,99,49,0.154242267874176,1
276,100,49,0.131600957713697,1
276,101,49,0.125471133579071,1
276,102,49,0.131149279519519,1
276,103,49,0.154979558655771,1
276,104,49,0.184878857960427,1
276,105,49,0.135615350270416,1
276,107,49,0.138300016732573,1
276,108,49,0.156680256072435,1
277,96,49,0.127573127751312,1
277,97,49,0.148133194579852,1
277,98,49,0.146638451019726,1
277,99,49,0.122342090580503,1
277,100,49,0.114501276047133,1
277,101,49,0.120938299767063,1
277,102,49,0.120578328039082,1
277,108,49,0.123984068536469,1
277,109,49,0.133112000458261,1
277,110,49,0.139602550040381,1
278,97,49,0.11450648142251,1
278,109,49,0.122715287730539,1
278,110,49,0.141515537268227,1
278,111,49,0.12035547437787,1
279,110,49,0.116037556618468,1
279,111,49,0.119217016386239,1
280,100,49,0.116117556878501,1
281,95,49,0.119823619270648,1
281,100,49,0.122095636077086,1
282,94,49,0.123064836930899,1
282,95,49,0.13959118536337,1
282,96,49,0.120274484860978,1
282,100,49,0.119994678269174,1
282,101,49,0.121768851561349,1
283,94,49,0.138654300233615,1
283,95,49,0.168729451721816,1
283,96,49,0.147287745048345,1
283,97,49,0.120472983960472,1
284,95,49,0.145427388640769,1
284,96,49,0.145719490282106,1
284,97,49,0.137252169958474,1
284,98,49,0.120554432775191,1
285,95,49,0.121806643528734,1
285,96,49,0.14577840994955,1
285,97,49,0.164012180389952,1
285,98,49,0.155633233679052,1
285,99,49,0.120813500303561,1
286,96,49,0.121319599401848,1
286,97,49,0.140182654973211,1
286,98,49,0.146566282376493,1
286,99,49,0.137433097971854,1
286,100,49,0.119799782891095,1
287,98,49,0.114552364097777,1
287,99,49,0.135661232945683,1
287,100,49,0.157426308843353,1
287,101,49,0.140089335076184,1
288,96,49,0.118910358536834,1
288,99,49,0.1158053756783,1
288,100,49,0.147549603694281,1
288,101,49,0.147035355003774,1
289,96,49,0.130802756974072,1
289,97,49,0.127190038032687,1
289,98,49,0.121299001660821,1
290,98,49,0.125555526610633,1
290,99,49,0.129262012970005,1
295,122,49,0.122880034328155,1
296,111,49,0.114980488557219,1
298,103,49,0.126007028151801,1
298,104,49,0.135162070422275,1
298,105,49,0.13695463918128,1
298,106,49,0.11683039888344,1
298,108,49,0.114767786555679,1
298,109,49,0.120064691745678,1
299,99,49,0.129448323011773,1
299,100,49,0.143870133468651,1
299,101,49,0.129791712910499,1
299,102,49,0.144066889591774,1
299,103,49,0.172756893047578,1
299,104,49,0.173695744914183,1
299,105,49,0.14440321337008,1
299,106,49,0.118754161944928,1
299,108,49,0.12600331843858,1
299,109,49,0.136380293136592,1
299,110,49,0.114089073912373,1
299,119,49,0.118993279459975,1
300,98,49,0.120079825020247,1
300,99,49,0.124072771901487,1
300,100,49,0.133027195236342,1
300,101,49,0.12344494710208,1
300,102,49,0.137848385645864,1
300,103,49,0.183262365145447,1
300,104,49,0.211458317238281,1
300,105,49,0.185741325065282,1
300,106,49,0.166206257888146,1
300,107,49,0.136353371217788,1
300,108,49,0.120761729194609,1
300,109,49,0.121507970395405,1
300,110,49,0.117864619821994,1
300,111,49,0.12625132748849,1
300,112,49,0.114341640609955,1
300,117,49,0.124998998966274,1
300,118,49,0.182436547651843,1
301,97,49,0.154752912843267,1
301,98,49,0.167177437255677,1
301,99,49,0.121796197447378,1
301,102,49,0.123447879542055,1
301,103,49,0.161059554864562,1
301,104,49,0.219957046467185,1
301,105,49,0.251768178866685,1
301,106,49,0.256547867595601,1
301,107,49,0.188366812768913,1
301,108,49,0.132427894009701,1
301,109,49,0.125940159098883,1
301,110,49,0.142482971591935,1
301,111,49,0.156863068384594,1
301,112,49,0.160639685989146,1
301,113,49,0.16545956916639,1
301,114,49,0.126139093942469,1
301,116,49,0.119081158444278,1
301,117,49,0.155099458942449,1
302,97,49,0.169165702219742,1
302,98,49,0.198521640417757,1
302,99,49,0.133525250734217,1
302,102,49,0.126201605554461,1
302,103,49,0.152035977764521,1
302,104,49,0.202673009718836,1
302,105,49,0.223443917803872,1
302,106,49,0.205014698472625,1
302,107,49,0.149184350653682,1
302,108,49,0.126647607298568,1
302,109,49,0.145705193165121,1
302,110,49,0.177576658456149,1
302,111,49,0.18415960933964,1
302,112,49,0.189672584715247,1
302,113,49,0.195373883976941,1
302,114,49,0.153574649039931,1
302,115,49,0.132686855546264,1
303,97,49,0.145189437035591,1
303,98,49,0.169872655790997,1
303,99,49,0.12546361993769,1
303,103,49,0.131320974468882,1
303,104,49,0.172135769285704,1
303,105,49,0.158741137200693,1
303,106,49,0.125341599814886,1
303,108,49,0.117878339872478,1
303,109,49,0.138047944663421,1
303,110,49,0.152464691067331,1
303,111,49,0.158184173812242,1
303,112,49,0.168655410556671,1
303,113,49,0.16427823160067,1
303,114,49,0.147994486635988,1
303,115,49,0.140067159234929,1
304,97,49,0.120715799411873,1
304,98,49,0.131138327032866,1
304,103,49,0.118789822299319,1
304,104,49,0.154882399499982,1
304,105,49,0.12899102725186,1
304,111,49,0.126434551991007,1
304,112,49,0.151054646737318,1
304,113,49,0.14756397147247,1
304,114,49,0.139668995126073,1
305,104,49,0.11768787259653,1
305,111,49,0.120861114178331,1
305,112,49,0.147887376027273,1
305,113,49,0.14842350613735,1
305,114,49,0.139423647648188,1
306,111,49,0.121782736487976,1
306,112,49,0.148884382064943,1
306,113,49,0.175137292364407,1
307,111,49,0.116539686912452,1
307,112,49,0.158575118701402,1
308,112,49,0.135260513256607,1
274,103,50,0.135417086708269,1
275,98,50,0.159756526928325,1
275,99,50,0.18288886179686,1
275,100,50,0.152883464694082,1
275,101,50,0.133989801044429,1
275,102,50,0.13283678684473,1
275,103,50,0.155940668801703,1
275,104,50,0.176083292789505,1
275,105,50,0.132606254665995,1
275,107,50,0.118556122143262,1
275,108,50,0.120686074598635,1
276,97,50,0.130733426555875,1
276,98,50,0.142205767687818,1
276,99,50,0.138839420811779,1
276,100,50,0.132189895297054,1
276,101,50,0.131275468653371,1
276,102,50,0.127341241232829,1
276,103,50,0.135336203183184,1
276,104,50,0.143152133195805,1
276,105,50,0.114872636005859,1
276,107,50,0.114175928309215,1
276,108,50,0.130504130948213,1
277,96,50,0.13085575287723,1
277,97,50,0.14468657657583,1
277,98,50,0.132512734562223,1
277,101,50,0.120295836321517,1
277,102,50,0.118075602400898,1
277,108,50,0.119660309450851,1
277,109,50,0.124945920625045,1
277,110,50,0.117530910508244,1
278,96,50,0.114253749848785,1
278,97,50,0.121006852912014,1
278,109,50,0.121402167018968,1
278,110,50,0.128473999220654,1
282,94,50,0.114350178838797,1
282,95,50,0.12952844104048,1
282,96,50,0.118499593179894,1
282,100,50,0.117085356285097,1
282,101,50,0.12530009813428,1
283,94,50,0.124042069608258,1
283,95,50,0.151734301530013,1
283,96,50,0.134515885486641,1
284,95,50,0.133225246814876,1
284,96,50,0.130503577435447,1
284,97,50,0.129435921970434,1
284,98,50,0.117162800964912,1
285,96,50,0.12632485047147,1
285,97,50,0.147419893277086,1
285,98,50,0.138910717966827,1
286,97,50,0.12032334708369,1
286,98,50,0.120417797559984,1
287,100,50,0.125358193421009,1
287,101,50,0.117940769046398,1
288,100,50,0.125470650727509,1
288,101,50,0.12764196354108,1
289,96,50,0.122765563177335,1
289,97,50,0.11566052020967,1
290,98,50,0.123632022640227,1
290,99,50,0.126191289018646,1
294,123,50,0.1289805105093,1
295,111,50,0.115103615705555,1
295,112,50,0.13851814786997,1
295,122,50,0.118284217829461,1
295,123,50,0.158206231884823,1
296,111,50,0.118905953988439,1
296,112,50,0.126243307441812,1
297,108,50,0.114730524547325,1
297,109,50,0.12315536571036,1
298,104,50,0.115108832857799,1
298,105,50,0.116693763668232,1
298,108,50,0.129307718992262,1
298,109,50,0.133112707070304,1
299,99,50,0.115624306342512,1
299,100,50,0.126220613418393,1
299,101,50,0.117552839035284,1
299,102,50,0.128531953184974,1
299,103,50,0.151305482235396,1
299,104,50,0.141490841177355,1
299,105,50,0.122095541862147,1
299,108,50,0.120151404820112,1
299,109,50,0.127284429624644,1
300,99,50,0.114087130729258,1
300,100,50,0.12068251798469,1
300,101,50,0.115739295675497,1
300,102,50,0.1232651378911,1
300,103,50,0.149227618864393,1
300,104,50,0.163812574264926,1
300,105,50,0.163626217115689,1
300,106,50,0.156893970884569,1
300,107,50,0.132989203062212,1
300,108,50,0.120901826808823,1
300,109,50,0.128192708743561,1
300,110,50,0.121155677184948,1
300,117,50,0.117556902054526,1
300,118,50,0.164910661155218,1
300,119,50,0.172600908439284,1
301,97,50,0.13143496276814,1
301,98,50,0.140658664175372,1
301,102,50,0.116742790767087,1
301,103,50,0.141627123086542,1
301,104,50,0.193543122837061,1
301,105,50,0.24524077946657,1
301,106,50,0.242313168007471,1
301,107,50,0.176380046293452,1
301,108,50,0.130906334522577,1
301,109,50,0.135100500959673,1
301,110,50,0.14537381567111,1
301,111,50,0.140180134723594,1
301,112,50,0.127531543632634,1
301,113,50,0.126930099016132,1
301,117,50,0.133231676984459,1
301,118,50,0.166901481699502,1
302,96,50,0.123632552599258,1
302,97,50,0.163347917962907,1
302,98,50,0.174515791742777,1
302,99,50,0.123238392625307,1
302,102,50,0.13010456539214,1
302,103,50,0.153733530757597,1
302,104,50,0.201650047465486,1
302,105,50,0.229189262549524,1
302,106,50,0.195643044280644,1
302,107,50,0.137023828277069,1
302,109,50,0.126347838916573,1
302,110,50,0.151541808632877,1
302,111,50,0.155372588050455,1
302,112,50,0.14478587912148,1
302,113,50,0.143115919328647,1
302,114,50,0.12440691695933,1
302,117,50,0.114238663681686,1
303,96,50,0.131124654089852,1
303,97,50,0.173620361186159,1
303,98,50,0.179999324949962,1
303,99,50,0.127908485826493,1
303,103,50,0.131808254133115,1
303,104,50,0.162243448010501,1
303,105,50,0.152578396721772,1
303,106,50,0.115800076087985,1
303,110,50,0.1233770181311,1
303,111,50,0.130926378750838,1
303,112,50,0.1355820806201,1
303,113,50,0.132234034995951,1
303,114,50,0.121354930003953,1
304,96,50,0.115276523672257,1
304,97,50,0.142511565825905,1
304,98,50,0.143465810058161,1
304,104,50,0.11939896898708,1
304,112,50,0.133266406966328,1
304,113,50,0.133981580791006,1
304,114,50,0.123366336512397,1
304,115,50,0.114801338850811,1
305,112,50,0.139500868567522,1
305,113,50,0.142836195174914,1
305,114,50,0.132802186408402,1
306,111,50,0.119598162921748,1
306,112,50,0.145093349574733,1
306,113,50,0.167038022699771,1
306,114,50,0.185050717785934,1
307,111,50,0.12224217563775,1
307,112,50,0.157079915843448,1
307,113,50,0.222620950312172,1
308,111,50,0.120611868557347,1
308,112,50,0.150425738466113,1
308,113,50,0.199258377686586,1
309,111,50,0.121680006873922,1
309,112,50,0.133084289489344,1
310,111,50,0.124713621916204,1
311,110,50,0.123259532102233,1
274,98,51,0.172099838063363,1
274,99,51,0.193052498542495,1
274,100,51,0.166417322905121,1
274,101,51,0.145849448013516,1
274,102,51,0.135405604262585,1
274,103,51,0.124392584511742,1
274,104,51,0.11377914209384,1
275,97,51,0.124452175460626,1
275,98,51,0.150639300178971,1
275,99,51,0.171748981630725,1
275,100,51,0.159730782696258,1
275,101,51,0.147608299601245,1
275,102,51,0.136177907670867,1
275,103,51,0.132413125818021,1
275,104,51,0.123361708203521,1
276,97,51,0.1220393662048,1
276,98,51,0.126061578601451,1
276,99,51,0.130838170014249,1
276,100,51,0.13981860844912,1
276,101,51,0.139542770661619,1
276,102,51,0.127338403007793,1
276,103,51,0.125452290591282,1
276,104,51,0.120385540720262,1
277,96,51,0.135186448537728,1
277,97,51,0.145344644370639,1
277,98,51,0.127044923472974,1
277,101,51,0.116555067501235,1
277,103,51,0.118047090604999,1
277,108,51,0.121125940594843,1
277,109,51,0.122000290558872,1
278,96,51,0.12412288247214,1
278,97,51,0.138728058753943,1
278,98,51,0.119236742639081,1
278,109,51,0.133743417202216,1
278,110,51,0.128377570230642,1
279,97,51,0.123495010565263,1
282,95,51,0.116576206978161,1
282,101,51,0.117721401337928,1
283,95,51,0.128716060952543,1
283,96,51,0.119808615541621,1
284,95,51,0.119231148627081,1
284,96,51,0.117448531321003,1
284,97,51,0.118848600644355,1
285,97,51,0.126973414334313,1
285,98,51,0.11457495212939,1
289,95,51,0.120488941615756,1
289,96,51,0.128547098236409,1
290,99,51,0.117029027528475,1
294,123,51,0.123855688905286,1
294,124,51,0.126926212649901,1
295,111,51,0.130037131049588,1
295,112,51,0.182864931202367,1
295,113,51,0.132124804551109,1
295,123,51,0.153702274951602,1
295,124,51,0.14594882122037,1
296,111,51,0.119926784628795,1
296,112,51,0.148936129620159,1
296,123,51,0.138756193690086,1
297,109,51,0.122919180635288,1
298,108,51,0.129697745285767,1
298,109,51,0.133580401804103,1
298,110,51,0.115445403950319,1
299,103,51,0.121052464719332,1
300,103,51,0.12345282582635,1
300,104,51,0.12950489908261,1
300,105,51,0.139264023987877,1
300,106,51,0.137426597141067,1
300,107,51,0.118421806970926,1
300,109,51,0.122180417745271,1
300,118,51,0.126003966166285,1
300,119,51,0.132498319676564,1
300,120,51,0.123626723049911,1
301,103,51,0.126442148070459,1
301,104,51,0.164763085230226,1
301,105,51,0.209433473324171,1
301,106,51,0.198583563186379,1
301,107,51,0.146070794235704,1
301,108,51,0.116886468548981,1
301,109,51,0.128364898321354,1
301,110,51,0.131591418451129,1
301,111,51,0.118486791725064,1
301,118,51,0.133958050610004,1
301,119,51,0.146891700775615,1
302,96,51,0.133920871039722,1
302,97,51,0.147635362842457,1
302,98,51,0.144155887378477,1
302,99,51,0.116616672294439,1
302,102,51,0.119956179689746,1
302,103,51,0.144045090610275,1
302,104,51,0.182265629975726,1
302,105,51,0.207404790151298,1
302,106,51,0.17228189665601,1
302,107,51,0.119235835820294,1
302,110,51,0.118522263649578,1
302,111,51,0.121791015625736,1
303,96,51,0.162239420321861,1
303,97,51,0.190946747549564,1
303,98,51,0.178360173442165,1
303,99,51,0.133261166260349,1
303,102,51,0.113846105361697,1
303,103,51,0.132396249567082,1
303,104,51,0.147165748479277,1
303,105,51,0.140138161968293,1
304,96,51,0.135688437509304,1
304,97,51,0.161772632406849,1
304,98,51,0.14818037271053,1
304,112,51,0.115415985335633,1
304,113,51,0.120671247522618,1
305,97,51,0.113779848705882,1
305,112,51,0.126767095394887,1
305,113,51,0.136137783883743,1
305,114,51,0.133110057275146,1
305,115,51,0.128539749471172,1
306,111,51,0.118016694510322,1
306,112,51,0.140831089290513,1
306,113,51,0.160281186369586,1
306,114,51,0.182205297084198,1
306,115,51,0.172779339756782,1
307,111,51,0.132573927165069,1
307,112,51,0.163907283832302,1
307,113,51,0.200896516383789,1
307,114,51,0.247612122372392,1
308,110,51,0.115396965694833,1
308,111,51,0.14147851079722,1
308,112,51,0.180381119213177,1
308,113,51,0.209068154898404,1
309,110,51,0.12288274300765,1
309,111,51,0.150877711081976,1
309,112,51,0.174866659952282,1
309,113,51,0.172782060213144,1
310,110,51,0.144092468947698,1
310,111,51,0.160700807930787,1
310,112,51,0.153010572423589,1
311,109,51,0.130796574118704,1
311,110,51,0.153615432331628,1
311,111,51,0.155826456741964,1
312,109,51,0.12403946692057,1
312,110,51,0.131560468843685,1
274,99,52,0.186634235372283,1
274,100,52,0.161403203854371,1
274,101,52,0.13541149269627,1
274,102,52,0.121512339613199,1
275,96,52,0.133004077245698,1
275,97,52,0.128722797320678,1
275,98,52,0.137657141096669,1
275,99,52,0.149653541049637,1
275,100,52,0.153400622270829,1
275,101,52,0.149254811651147,1
275,102,52,0.132968770197328,1
276,95,52,0.126386749686358,1
276,96,52,0.126307338269694,1
276,97,52,0.115857629638814,1
276,99,52,0.121645406437594,1
276,100,52,0.136978075147343,1
276,101,52,0.134596380375104,1
276,102,52,0.118253645081773,1
277,95,52,0.120322346049963,1
277,96,52,0.136344255922445,1
277,97,52,0.140055241045153,1
277,98,52,0.119358586108874,1
277,103,52,0.115099058057883,1
277,104,52,0.120805786455434,1
278,95,52,0.116833366654017,1
278,96,52,0.130959613070552,1
278,97,52,0.150676338426844,1
278,98,52,0.127801869846207,1
278,109,52,0.12644456232827,1
278,110,52,0.117763279878289,1
279,97,52,0.133220371191785,1
279,98,52,0.125347676678449,1
289,95,52,0.129770714755981,1
289,96,52,0.141846926539105,1
294,112,52,0.11413231856935,1
294,124,52,0.117022703350698,1
294,125,52,0.164841295406419,1
295,111,52,0.129684354987569,1
295,112,52,0.193536763328682,1
295,113,52,0.144469917546854,1
295,123,52,0.128732442575053,1
295,124,52,0.132106891935842,1
296,112,52,0.147347371327831,1
296,113,52,0.116033634921634,1
296,123,52,0.129017690079581,1
296,124,52,0.136677600153307,1
298,108,52,0.117054618661266,1
298,109,52,0.123036913978369,1
298,111,52,0.117933349619956,1
298,112,52,0.114345574083656,1
301,104,52,0.132114923759387,1
301,105,52,0.156701207119484,1
301,106,52,0.146825797425822,1
301,107,52,0.114275277962334,1
301,119,52,0.118555898382782,1
301,120,52,0.12332264433446,1
302,96,52,0.133251085261882,1
302,97,52,0.128594841656721,1
302,98,52,0.120338256597778,1
302,103,52,0.125267005136975,1
302,104,52,0.147549132619586,1
302,105,52,0.161835673977872,1
302,106,52,0.137905986304163,1
303,96,52,0.178603719059343,1
303,97,52,0.185072516767433,1
303,98,52,0.164356253346986,1
303,99,52,0.135171197494486,1
303,103,52,0.121357697567785,1
303,104,52,0.122638066811205,1
303,105,52,0.11702560046007,1
304,96,52,0.153805192995534,1
304,97,52,0.169371349877728,1
304,98,52,0.145794779795192,1
305,97,52,0.124192954832981,1
305,113,52,0.125108099865574,1
305,114,52,0.134574204533849,1
305,115,52,0.131841429568492,1
306,111,52,0.113768837334893,1
306,112,52,0.13309379342131,1
306,113,52,0.156034542211496,1
306,114,52,0.190911016533968,1
306,115,52,0.199589519643249,1
306,116,52,0.149387112979163,1
307,108,52,0.130048260189251,1
307,109,52,0.129907891707088,1
307,110,52,0.124559839582108,1
307,111,52,0.138030420684777,1
307,112,52,0.1664941669647,1
307,113,52,0.187311829213188,1
307,114,52,0.221724212523276,1
307,115,52,0.227936769151165,1
307,116,52,0.160781243934913,1
308,110,52,0.124393302900652,1
308,111,52,0.154938374950584,1
308,112,52,0.202029733669442,1
308,113,52,0.213426349544207,1
308,114,52,0.208435006954947,1
308,115,52,0.191177055967819,1
309,110,52,0.131518319435374,1
309,111,52,0.173326905205074,1
309,112,52,0.214997996048249,1
309,113,52,0.201830327751161,1
310,109,52,0.116683977091449,1
310,110,52,0.171787232895937,1
310,111,52,0.192007395778492,1
310,112,52,0.181688846119494,1
311,109,52,0.152776000779346,1
311,110,52,0.18877790787814,1
311,111,52,0.180320668552975,1
312,109,52,0.134711652352905,1
312,110,52,0.144651705271552,1
273,100,53,0.139589701478082,1
274,97,53,0.167882895164776,1
274,99,53,0.167562293504408,1
274,100,53,0.148455963183817,1
274,101,53,0.119496846531779,1
275,96,53,0.172523075122847,1
275,97,53,0.14195018611219,1
275,98,53,0.129944211566052,1
275,99,53,0.128757150442791,1
275,100,53,0.136095139847002,1
275,101,53,0.134162555911856,1
275,102,53,0.121448202793511,1
276,95,53,0.168600424362928,1
276,96,53,0.155842979686882,1
276,97,53,0.121045834343003,1
276,99,53,0.115303492698531,1
276,100,53,0.127593289748246,1
276,101,53,0.122526740083972,1
277,95,53,0.13535398625291,1
277,96,53,0.139786622477348,1
277,97,53,0.132477945696017,1
277,98,53,0.116393477104074,1
277,104,53,0.116857332579111,1
278,94,53,0.113980538302707,1
278,95,53,0.130536164027455,1
278,96,53,0.139217646684181,1
278,97,53,0.151597407223723,1
278,98,53,0.132374850999074,1
279,93,53,0.120358489255917,1
279,94,53,0.12082714969284,1
279,95,53,0.119582311258271,1
279,96,53,0.120585464820707,1
279,97,53,0.138304315289163,1
279,98,53,0.131053580695284,1
282,93,53,0.118690743514149,1
283,93,53,0.114503737412413,1
284,93,53,0.117441418093112,1
284,94,53,0.117244979945408,1
288,96,53,0.121155453424468,1
289,95,53,0.127302530669789,1
289,96,53,0.144001951945105,1
293,125,53,0.119950067495582,1
294,125,53,0.149726769610934,1
295,111,53,0.1179251411434,1
295,112,53,0.169821909269506,1
295,113,53,0.138020080595227,1
295,124,53,0.115860173442165,1
295,125,53,0.145793378347975,1
296,112,53,0.135238702498241,1
296,113,53,0.113940449846185,1
296,124,53,0.125073723189726,1
297,124,53,0.129158670958848,1
298,112,53,0.120585994779739,1
301,121,53,0.119841967630008,1
301,122,53,0.152134373491383,1
302,96,53,0.123049232581636,1
302,121,53,0.144450049971604,1
303,95,53,0.121764070153197,1
303,96,53,0.169213963822217,1
303,97,53,0.157442066291892,1
303,98,53,0.141236979024363,1
303,99,53,0.132437739470821,1
304,96,53,0.159239546004589,1
304,97,53,0.162440003926879,1
304,98,53,0.140223344049969,1
304,99,53,0.120002980960668,1
305,97,53,0.131781014238892,1
305,98,53,0.113840994201259,1
305,114,53,0.127587283545889,1
305,115,53,0.125766120552914,1
306,108,53,0.128191036428395,1
306,109,53,0.135790872701674,1
306,110,53,0.114302070335597,1
306,112,53,0.121885136349744,1
306,113,53,0.146482195543483,1
306,114,53,0.191666726336128,1
306,115,53,0.204704707769755,1
306,116,53,0.146274310280696,1
306,117,53,0.125815312527911,1
307,108,53,0.149676293957393,1
307,109,53,0.158139033079619,1
307,110,53,0.137642537781133,1
307,111,53,0.138997419264392,1
307,112,53,0.162187413675562,1
307,113,53,0.179509336606235,1
307,114,53,0.206107262012122,1
307,115,53,0.225399584399061,1
307,116,53,0.165990835430244,1
307,117,53,0.126259194435892,1
308,108,53,0.114876757909438,1
308,109,53,0.124909918741499,1
308,110,53,0.133786308553171,1
308,111,53,0.162194303142973,1
308,112,53,0.207192641662524,1
308,113,53,0.209101860292812,1
308,114,53,0.186149970586096,1
308,115,53,0.185047420263071,1
308,116,53,0.148498913419109,1
309,110,53,0.135080668715025,1
309,111,53,0.182283813458943,1
309,112,53,0.231495926899759,1
309,113,53,0.208141762957475,1
309,114,53,0.154387394210756,1
309,115,53,0.134583967556897,1
310,109,53,0.118122745200974,1
310,110,53,0.177882444817368,1
310,111,53,0.201578208574539,1
310,112,53,0.199889217364039,1
310,113,53,0.156237092553364,1
311,109,53,0.155394681453639,1
311,110,53,0.202485474882863,1
311,111,53,0.19095334259529,1
311,112,53,0.15844400683699,1
312,108,53,0.115930740431437,1
312,109,53,0.139483014836592,1
312,110,53,0.155874635906368,1
312,111,53,0.153350605915115,1
313,106,53,0.121463889580845,1
313,110,53,0.118493622308138,1
314,106,53,0.165174568976076,1
274,100,54,0.130467516667565,1
275,96,54,0.217015232106039,1
275,97,54,0.158524866808341,1
275,98,54,0.123213166575404,1
275,100,54,0.11498509331236,1
276,95,54,0.19587934712439,1
276,96,54,0.182810840050544,1
276,97,54,0.12794989329216,1
277,94,54,0.116030914465272,1
277,95,54,0.141316402217895,1
277,96,54,0.138007302694133,1
277,97,54,0.119979898300626,1
278,93,54,0.126678533352277,1
278,94,54,0.125458685430263,1
278,95,54,0.131565273805571,1
278,96,54,0.136351734233224,1
278,97,54,0.133548333394259,1
278,98,54,0.12328017695073,1
279,93,54,0.148743507177482,1
279,94,54,0.135757108422929,1
279,95,54,0.127104973719685,1
279,96,54,0.127782178923967,1
279,97,54,0.126997250713867,1
279,98,54,0.118188259914144,1
280,93,54,0.133853895994998,1
280,94,54,0.120330625187723,1
281,93,54,0.116020868797407,1
282,93,54,0.12285745807341,1
282,94,54,0.11922905234469,1
283,93,54,0.132854228385303,1
283,94,54,0.125668737636645,1
284,93,54,0.132563116000825,1
284,94,54,0.126034456475902,1
288,96,54,0.13345256390882,1
288,97,54,0.122339852975703,1
289,96,54,0.132281130688557,1
294,125,54,0.127255823613806,1
295,112,54,0.129791324273876,1
295,113,54,0.118848294445803,1
295,125,54,0.135109675139353,1
296,112,54,0.1229551942957,1
296,113,54,0.114706323084884,1
296,124,54,0.116187299487056,1
296,125,54,0.140229267814255,1
297,112,54,0.129468084595217,1
297,113,54,0.123280247611934,1
297,124,54,0.12496760183787,1
297,125,54,0.167752360366865,1
298,112,54,0.118357564159431,1
298,124,54,0.135174071050123,1
301,122,54,0.123126665484583,1
301,123,54,0.134403357518936,1
302,94,54,0.115284261074118,1
302,95,54,0.120898152426204,1
302,121,54,0.121488938977738,1
302,122,54,0.178146576398706,1
303,95,54,0.129401262649769,1
303,96,54,0.138018160965846,1
303,97,54,0.118923383752144,1
303,99,54,0.121271102262025,1
303,121,54,0.126926106658094,1
303,122,54,0.205560838919965,1
304,96,54,0.140955653216668,1
304,97,54,0.136821654794956,1
304,98,54,0.125323345670466,1
304,99,54,0.120814148031266,1
304,121,54,0.124513886245636,1
305,96,54,0.114123627241232,1
305,97,54,0.126993599884982,1
305,114,54,0.115151276687795,1
306,108,54,0.133655903300802,1
306,109,54,0.155359468620207,1
306,110,54,0.126547433264732,1
306,113,54,0.139093459617781,1
306,114,54,0.18479923456015,1
306,115,54,0.1873875426935,1
306,116,54,0.134041089301818,1
307,97,54,0.113883155386438,1
307,98,54,0.118201862195954,1
307,108,54,0.154932698500513,1
307,109,54,0.177008931010923,1
307,110,54,0.149697362773115,1
307,111,54,0.142051820477579,1
307,112,54,0.157533419452069,1
307,113,54,0.181636945465002,1
307,114,54,0.20654359494812,1
307,115,54,0.2096191474151,1
307,116,54,0.160912238030652,1
307,117,54,0.116261010899915,1
308,108,54,0.120864470585531,1
308,109,54,0.135041545961627,1
308,110,54,0.140577074038244,1
308,111,54,0.169060428802336,1
308,112,54,0.205237375480826,1
308,113,54,0.20416749418788,1
308,114,54,0.178255877504751,1
308,115,54,0.170945210432835,1
308,116,54,0.148569715945728,1
309,110,54,0.138411225691133,1
309,111,54,0.191170107616072,1
309,112,54,0.234307230016729,1
309,113,54,0.20114067439807,1
309,114,54,0.147212431981525,1
309,115,54,0.126460143123798,1
309,116,54,0.114390349733391,1
310,109,54,0.114490900626982,1
310,110,54,0.172804836674635,1
310,111,54,0.208997540801664,1
310,112,54,0.219660646269258,1
310,113,54,0.165213102886105,1
310,114,54,0.11755124915819,1
311,109,54,0.148862724405852,1
311,110,54,0.20458981265171,1
311,111,54,0.203614099190241,1
311,112,54,0.185007496682692,1
311,113,54,0.136630516237568,1
312,108,54,0.119893102788122,1
312,109,54,0.14421686799771,1
312,110,54,0.169233489868314,1
312,111,54,0.164289254748527,1
312,112,54,0.15293220914812,1
313,106,54,0.133032341727382,1
313,107,54,0.130563462806015,1
313,108,54,0.122285655832074,1
313,109,54,0.121121795137529,1
313,110,54,0.131520875015593,1
313,111,54,0.139000834555929,1
314,105,54,0.152161366071392,1
314,106,54,0.204438880319517,1
314,107,54,0.155363296102102,1
315,106,54,0.150124580413769,1
275,97,55,0.16952998428118,1
276,95,55,0.195194428071982,1
276,96,55,0.195275288043333,1
276,97,55,0.138286567550038,1
277,94,55,0.129390793014678,1
277,95,55,0.136507000452609,1
277,96,55,0.12963597561642,1
278,94,55,0.134909656823969,1
278,95,55,0.125000518182164,1
278,96,55,0.122069726968876,1
279,93,55,0.178432177209256,1
279,94,55,0.151011920262505,1
279,95,55,0.130383500495759,1
279,96,55,0.123522050252741,1
280,92,55,0.122353255050769,1
280,93,55,0.153608625302289,1
280,94,55,0.134520172266363,1
280,95,55,0.116048144022232,1
281,93,55,0.117335496948001,1
281,94,55,0.119849045527297,1
282,93,55,0.127194277704939,1
282,94,55,0.140105280954601,1
282,95,55,0.126696634397422,1
283,93,55,0.147708497188815,1
283,94,55,0.14965778072189,1
283,95,55,0.123794142996419,1
284,93,55,0.140068513574677,1
284,94,55,0.135695091439367,1
284,95,55,0.117513775166223,1
285,93,55,0.11579821534294,1
285,94,55,0.126523432009036,1
285,95,55,0.123819651691139,1
286,94,55,0.118073612110313,1
286,95,55,0.121463818919641,1
287,95,55,0.114582194902821,1
287,96,55,0.128916444350816,1
287,97,55,0.129545941465389,1
288,96,55,0.143966527128061,1
288,97,55,0.142191423463364,1
295,125,55,0.126865514675484,1
296,124,55,0.119779726885966,1
296,125,55,0.151838114615865,1
296,126,55,0.1741681975024,1
297,112,55,0.132043897472289,1
297,113,55,0.134404570536275,1
297,124,55,0.134564900808628,1
297,125,55,0.172511251148009,1
297,126,55,0.211062284742418,1
298,124,55,0.132273405063563,1
298,125,55,0.189898488585106,1
299,124,55,0.118259062440762,1
300,124,55,0.113826697084274,1
301,123,55,0.114696901590989,1
301,124,55,0.127593313301981,1
302,93,55,0.11383110163267,1
302,94,55,0.153736357205766,1
302,95,55,0.130599370474621,1
302,122,55,0.140385629282305,1
302,123,55,0.169235221067817,1
303,94,55,0.137624401405385,1
303,95,55,0.134881474780357,1
303,100,55,0.117136891856701,1
303,122,55,0.17717313587264,1
303,123,55,0.249481228992424,1
304,121,55,0.120260635264953,1
304,122,55,0.185042191333959,1
305,121,55,0.13152195848739,1
306,108,55,0.123165670469307,1
306,109,55,0.15375293903502,1
306,110,55,0.133061913441344,1
306,113,55,0.131454017739542,1
306,114,55,0.159106066989836,1
306,115,55,0.150009685295724,1
307,108,55,0.145172101486825,1
307,109,55,0.175785973995923,1
307,110,55,0.151600174787555,1
307,111,55,0.1382808793231,1
307,112,55,0.149987309247724,1
307,113,55,0.181129692233712,1
307,114,55,0.199742242059282,1
307,115,55,0.182056790786683,1
307,116,55,0.140661101986918,1
308,97,55,0.116214645373086,1
308,98,55,0.116687898788283,1
308,108,55,0.120808106498306,1
308,109,55,0.138856638591871,1
308,110,55,0.138375895089027,1
308,111,55,0.160433743909475,1
308,112,55,0.186545261139315,1
308,113,55,0.191197736146918,1
308,114,55,0.174460770218432,1
308,115,55,0.156172567097053,1
308,116,55,0.133295024754033,1
309,110,55,0.13283678684473,1
309,111,55,0.180495990777488,1
309,112,55,0.207985083514006,1
309,113,55,0.178162074756162,1
309,114,55,0.139840030570863,1
309,115,55,0.118737780322419,1
310,110,55,0.153252504609937,1
310,111,55,0.200089188571954,1
310,112,55,0.213236529995964,1
310,113,55,0.161210498973622,1
310,114,55,0.117020442192163,1
311,109,55,0.130672928788204,1
311,110,55,0.180050024363983,1
311,111,55,0.199642539100142,1
311,112,55,0.194917836564969,1
311,113,55,0.147800686506574,1
312,109,55,0.140429403898313,1
312,110,55,0.169732652391722,1
312,111,55,0.166950155492335,1
312,112,55,0.161349501339171,1
312,113,55,0.1435604607412,1
313,106,55,0.135043689351488,1
313,107,55,0.14716322822966,1
313,108,55,0.138397564524985,1
313,109,55,0.143256099380932,1
313,110,55,0.148990703623544,1
313,111,55,0.144760912162659,1
313,112,55,0.155580649966252,1
314,105,55,0.144029627583421,1
314,106,55,0.208133000968153,1
314,107,55,0.185974801460859,1
314,108,55,0.1494017162947,1
314,109,55,0.146102379793986,1
314,110,55,0.138444648440724,1
315,106,55,0.164193061295862,1
274,97,56,0.149788386181005,1
275,95,56,0.197471956452348,1
275,96,56,0.225927941776675,1
275,97,56,0.165788885708611,1
276,94,56,0.13834259010811,1
276,95,56,0.168563609875535,1
276,96,56,0.180049812380371,1
276,97,56,0.138183025332136,1
277,93,56,0.124528666214184,1
277,94,56,0.134854694183961,1
277,95,56,0.123291706503883,1
278,93,56,0.161931007719218,1
278,94,56,0.145924101575764,1
278,95,56,0.116479365797791,1
279,92,56,0.165716198883214,1
279,93,56,0.201634007372131,1
279,94,56,0.168970288659499,1
279,95,56,0.129174899482082,1
280,92,56,0.132220326722334,1
280,93,56,0.160927335974618,1
280,94,56,0.14374206003602,1
280,95,56,0.118268377942851,1
281,93,56,0.117073461649055,1
281,94,56,0.12694420770324,1
281,95,56,0.117180454489097,1
282,93,56,0.1340525364169,1
282,94,56,0.16162562177149,1
282,95,56,0.141867971801092,1
283,92,56,0.127796699801433,1
283,93,56,0.159866240224729,1
283,94,56,0.172540234018603,1
283,95,56,0.139842668589154,1
284,92,56,0.124102108078102,1
284,93,56,0.141713777276638,1
284,94,56,0.144558962441026,1
284,95,56,0.129288699351462,1
285,93,56,0.118917954616287,1
285,94,56,0.140892540984441,1
285,95,56,0.141749932259459,1
285,96,56,0.117296444855808,1
286,94,56,0.130748124086351,1
286,95,56,0.134585227681706,1
286,96,56,0.116622113207163,1
287,95,56,0.121315677705015,1
287,96,56,0.13918010203101,1
287,97,56,0.14176259239188,1
288,96,56,0.14097063339196,1
288,97,56,0.143268029347577,1
292,126,56,0.114981360045404,1
295,125,56,0.117739985234635,1
295,126,56,0.131078005918206,1
296,124,56,0.123163209104027,1
296,125,56,0.168428741190432,1
296,126,56,0.179672752417838,1
297,112,56,0.116083027103377,1
297,113,56,0.124195180660914,1
297,124,56,0.140516517386236,1
297,125,56,0.178031645950058,1
297,126,56,0.195344700899602,1
298,124,56,0.124157459354733,1
298,125,56,0.164333194240678,1
298,126,56,0.197916380096227,1
299,125,56,0.141929835685378,1
301,124,56,0.124771305012574,1
302,93,56,0.130925931229878,1
302,94,56,0.171346342312268,1
302,95,56,0.133463186643186,1
302,101,56,0.115200951514354,1
302,123,56,0.135877291354423,1
302,124,56,0.185513937310133,1
303,93,56,0.118697609427825,1
303,94,56,0.162565710209168,1
303,95,56,0.132755137823266,1
303,100,56,0.115021896022886,1
303,122,56,0.145274937092685,1
303,123,56,0.208403421396665,1
304,122,56,0.168494974292512,1
304,123,56,0.250886986542715,1
305,121,56,0.122605774640881,1
305,122,56,0.174696036697849,1
306,109,56,0.142986644655545,1
306,110,56,0.142486422214074,1
306,111,56,0.122091808595191,1
306,112,56,0.127016764983096,1
306,113,56,0.138067270502772,1
306,114,56,0.133783175906451,1
306,115,56,0.11466933194448,1
306,121,56,0.136516692814453,1
307,108,56,0.12920189206209,1
307,109,56,0.165313041382593,1
307,110,56,0.156798012969252,1
307,111,56,0.141377394613996,1
307,112,56,0.157136079723928,1
307,113,56,0.180006767930139,1
307,114,56,0.180823116822379,1
307,115,56,0.154539845758839,1
307,116,56,0.116507441849598,1
307,120,56,0.153690321431223,1
308,108,56,0.114703732174062,1
308,109,56,0.137061384707106,1
308,110,56,0.137391596291248,1
308,111,56,0.14854710436038,1
308,112,56,0.167783839933341,1
308,113,56,0.173184758415938,1
308,114,56,0.167794168246023,1
308,115,56,0.149310975531627,1
308,116,56,0.115760647136035,1
308,119,56,0.139549365707345,1
308,120,56,0.235556119693673,1
309,110,56,0.126220554534056,1
309,111,56,0.16395177683722,1
309,112,56,0.180762077318809,1
309,113,56,0.156965915767322,1
309,114,56,0.134210735076259,1
309,115,56,0.116597546661833,1
309,119,56,0.163106185983304,1
310,110,56,0.133211338334514,1
310,111,56,0.185492138328635,1
310,112,56,0.198140281898635,1
310,113,56,0.154516398015909,1
310,114,56,0.115408825000273,1
311,110,56,0.150838470559904,1
311,111,56,0.19049912059776,1
311,112,56,0.192532008112283,1
311,113,56,0.154114064896004,1
311,114,56,0.116404417813859,1
312,109,56,0.130382299255287,1
312,110,56,0.159591827438179,1
312,111,56,0.166135184493578,1
312,112,56,0.161436744372636,1
312,113,56,0.154350355962882,1
312,114,56,0.137416845894886,1
313,106,56,0.121620215718293,1
313,107,56,0.147221606161205,1
313,108,56,0.155157377576166,1
313,109,56,0.177131551753962,1
313,110,56,0.169215035517148,1
313,111,56,0.153346931532496,1
313,112,56,0.168602155562431,1
313,113,56,0.188355978050934,1
314,105,56,0.11711102985596,1
314,106,56,0.172388076892203,1
314,107,56,0.195067426334281,1
314,108,56,0.198048351671957,1
314,109,56,0.210520007107575,1
314,110,56,0.170575864318428,1
314,111,56,0.154059596884425,1
314,112,56,0.195560629762801,1
315,106,56,0.158474332270463,1
315,107,56,0.159433958531106,1
315,108,56,0.155069168839577,1
273,100,57,0.116728258112754,1
274,95,57,0.139374667656803,1
274,96,57,0.165775507187281,1
274,97,57,0.136218973607381,1
275,94,57,0.11465474040581,1
275,95,57,0.156461194562517,1
275,96,57,0.182420966856315,1
275,97,57,0.145192734558454,1
276,94,57,0.125099467421793,1
276,95,57,0.132000252401821,1
276,96,57,0.145919673473633,1
276,97,57,0.126517284484269,1
277,93,57,0.128381433043139,1
277,94,57,0.131962707748651,1
278,92,57,0.120648859697751,1
278,93,57,0.169457568323732,1
278,94,57,0.15821631288329,1
279,92,57,0.158920169138427,1
279,93,57,0.203188318327406,1
279,94,57,0.177240370008445,1
279,95,57,0.123925914365404,1
280,92,57,0.130928274826484,1
280,93,57,0.156574911993826,1
280,94,57,0.143850195232196,1
280,95,57,0.115401382020096,1
281,93,57,0.121127530471938,1
281,94,57,0.132440259720438,1
281,95,57,0.120647846887157,1
282,93,57,0.139040687475104,1
282,94,57,0.165168068145288,1
282,95,57,0.146311713611458,1
283,92,57,0.139766884447639,1
283,93,57,0.166234310386217,1
283,94,57,0.178965480871164,1
283,95,57,0.152313982495618,1
283,96,57,0.114864686620386,1
284,92,57,0.13087544379947,1
284,93,57,0.148743813376034,1
284,94,57,0.157631520757247,1
284,95,57,0.147396951939452,1
284,96,57,0.116984381424281,1
285,93,57,0.121352339093132,1
285,94,57,0.147625705811215,1
285,95,57,0.151195427409839,1
285,96,57,0.122720481329049,1
286,94,57,0.129274861532304,1
286,95,57,0.138426335411966,1
286,96,57,0.124103674401462,1
287,95,57,0.125280301220234,1
287,96,57,0.139284303753485,1
287,97,57,0.136761663432582,1
288,96,57,0.124979154944758,1
288,97,57,0.124631796241728,1
291,126,57,0.118221423572653,1
292,126,57,0.118487298130361,1
295,125,57,0.125960792170512,1
295,126,57,0.133419152936096,1
296,124,57,0.131149526833734,1
296,125,57,0.201972074126807,1
296,126,57,0.197937036721591,1
297,124,57,0.141538537490197,1
297,125,57,0.191632962057383,1
297,126,57,0.192514119050751,1
298,124,57,0.116776154632341,1
298,125,57,0.145930143108724,1
298,126,57,0.17516000994156,1
299,99,57,0.114945428823063,1
299,125,57,0.124661097087741,1
301,124,57,0.127556074847362,1
302,93,57,0.131582491585664,1
302,94,57,0.162107107216977,1
302,95,57,0.136781601669036,1
302,101,57,0.121608026660567,1
302,123,57,0.124282176380164,1
302,124,57,0.185904517116405,1
302,125,57,0.239307970546149,1
303,93,57,0.129304068163378,1
303,94,57,0.164223433836805,1
303,95,57,0.133505288944028,1
303,122,57,0.121746640389492,1
303,123,57,0.180291567913708,1
303,124,57,0.254502202179983,1
304,94,57,0.114571006878821,1
304,122,57,0.154757164292387,1
304,123,57,0.240105853310355,1
304,124,57,0.300419360114746,1
305,121,57,0.11679710567939,1
305,122,57,0.174208179967115,1
305,123,57,0.257897496596014,1
306,109,57,0.129124423828541,1
306,110,57,0.140755199157191,1
306,111,57,0.136138372727112,1
306,112,57,0.159148216398148,1
306,113,57,0.155755618884744,1
306,114,57,0.118078417072199,1
306,121,57,0.133310982409317,1
306,122,57,0.170743826000836,1
307,109,57,0.141948431358953,1
307,110,57,0.150382105172513,1
307,111,57,0.153902764341681,1
307,112,57,0.184020500982285,1
307,113,57,0.183697767708923,1
307,114,57,0.151972029374711,1
307,115,57,0.129055894237324,1
307,120,57,0.139490398932432,1
307,121,57,0.173202671031205,1
308,109,57,0.125549779499357,1
308,110,57,0.134675721130564,1
308,111,57,0.145317168939068,1
308,112,57,0.162061601401466,1
308,113,57,0.159232703644648,1
308,114,57,0.150671451026886,1
308,115,57,0.139254531832778,1
308,119,57,0.131011808146728,1
308,120,57,0.233458282755614,1
308,121,57,0.234141717922734,1
309,110,57,0.127047019755365,1
309,111,57,0.154831405664277,1
309,112,57,0.167773829596078,1
309,113,57,0.150766184147997,1
309,114,57,0.134869238615161,1
309,115,57,0.118910488082376,1
309,119,57,0.165111833603605,1
309,120,57,0.288511039352826,1
310,110,57,0.127766821888919,1
310,111,57,0.173702775704002,1
310,112,57,0.189942510515329,1
310,113,57,0.160321251272373,1
310,114,57,0.126856693801825,1
310,119,57,0.140313766837623,1
311,110,57,0.132494821946955,1
311,111,57,0.176101217181639,1
311,112,57,0.184520864746164,1
311,113,57,0.159314517542256,1
311,114,57,0.130043349235559,1
312,109,57,0.12214940925349,1
312,110,57,0.148217446289005,1
312,111,57,0.166109770013797,1
312,112,57,0.16568166910809,1
312,113,57,0.162598073040697,1
312,114,57,0.152362585627247,1
312,115,57,0.133099976276678,1
313,107,57,0.132059230953602,1
313,108,57,0.165914709759575,1
313,109,57,0.204409815010852,1
313,110,57,0.186625756027778,1
313,111,57,0.170526118830664,1
313,112,57,0.185720397571968,1
313,113,57,0.200635470341703,1
313,114,57,0.182298028137857,1
314,106,57,0.12832522205519,1
314,107,57,0.185167073235533,1
314,108,57,0.24213027325724,1
314,109,57,0.269079961914553,1
314,110,57,0.202330750399377,1
314,111,57,0.17892177691636,1
314,112,57,0.22062210972121,1
314,113,57,0.218004724502328,1
315,107,57,0.170770111968802,1
315,108,57,0.189236263556117,1
315,109,57,0.190973728352705,1
315,110,57,0.152271868417909,1
275,95,58,0.116298732206096,1
275,96,58,0.128311808203257,1
277,94,58,0.124607677217358,1
278,93,58,0.168822324097883,1
278,94,58,0.163895448080597,1
279,92,58,0.138726869290339,1
279,93,58,0.188949284852084,1
279,94,58,0.169615295908396,1
280,92,58,0.128133188455881,1
280,93,58,0.155638698145511,1
280,94,58,0.140920970342268,1
281,93,58,0.129279843147201,1
281,94,58,0.133252192287414,1
281,95,58,0.118702084637425,1
282,93,58,0.131359390610238,1
282,94,58,0.14556700340342,1
282,95,58,0.134424155466709,1
283,92,58,0.136618221188035,1
283,93,58,0.159040387400523,1
283,94,58,0.166608402578173,1
283,95,58,0.152344861441858,1
283,96,58,0.118180675611559,1
284,92,58,0.127321974277814,1
284,93,58,0.155484409406118,1
284,94,58,0.167859459198713,1
284,95,58,0.157449956793029,1
284,96,58,0.119985433428289,1
285,93,58,0.120774671971847,1
285,94,58,0.144934726948148,1
285,95,58,0.147425086875595,1
285,96,58,0.121992529603276,1
286,94,58,0.118555321316281,1
286,95,58,0.135850699187905,1
286,96,58,0.132720831808622,1
287,95,58,0.12134447214573,1
287,96,58,0.129273189217138,1
287,97,58,0.113821762576846,1
290,126,58,0.114877652951358,1
291,126,58,0.114166153509299,1
295,125,58,0.139308587653999,1
295,126,58,0.137328860918777,1
296,124,58,0.137956579726377,1
296,125,58,0.236171037046445,1
296,126,58,0.223913202414767,1
296,127,58,0.160419187701408,1
297,124,58,0.136729877667555,1
297,125,58,0.20271559487124,1
297,126,58,0.203688222793458,1
298,98,58,0.118659558369358,1
298,99,58,0.122312142006786,1
298,125,58,0.131613464746843,1
299,98,58,0.122047127160396,1
299,99,58,0.125936166740845,1
301,95,58,0.115612553028878,1
301,96,58,0.121207118541613,1
301,124,58,0.126159986105181,1
302,93,58,0.114480089462737,1
302,94,58,0.135781156786095,1
302,95,58,0.136090888397882,1
302,96,58,0.131022065798206,1
302,97,58,0.116033552483562,1
302,101,58,0.118210447532266,1
302,123,58,0.116965208684205,1
302,124,58,0.183661659833571,1
302,125,58,0.246031784540233,1
303,93,58,0.124865696604531,1
303,94,58,0.145869197820092,1
303,95,58,0.128130797751805,1
303,123,58,0.159579014206482,1
303,124,58,0.236569283593373,1
304,94,58,0.122021818672421,1
304,122,58,0.145338320192862,1
304,123,58,0.227899012514382,1
304,124,58,0.296283795369675,1
305,121,58,0.115824772178856,1
305,122,58,0.178234891127101,1
305,123,58,0.262827693689898,1
306,95,58,0.119166882261852,1
306,109,58,0.117907534726684,1
306,110,58,0.125111032305549,1
306,111,58,0.13277937461631,1
306,112,58,0.167929719989433,1
306,113,58,0.15587113817676,1
306,121,58,0.132404599366047,1
306,122,58,0.174976114157604,1
307,109,58,0.114252595715783,1
307,110,58,0.130450075126992,1
307,111,58,0.155680647347077,1
307,112,58,0.197722320875732,1
307,113,58,0.174843070886943,1
307,114,58,0.122955029419557,1
307,120,58,0.127871553570426,1
307,121,58,0.170745616084676,1
307,122,58,0.178455801605196,1
308,110,58,0.124333052447195,1
308,111,58,0.138795975948057,1
308,112,58,0.154129056848164,1
308,113,58,0.140664375956046,1
308,114,58,0.125880120629039,1
308,115,58,0.119276960641144,1
308,119,58,0.119064776821768,1
308,120,58,0.209929491423991,1
308,121,58,0.23075068673269,1
309,110,58,0.12781836923739,1
309,111,58,0.145399783663657,1
309,112,58,0.153989830722135,1
309,113,58,0.143565936984527,1
309,114,58,0.131115385695233,1
309,115,58,0.116961157441831,1
309,119,58,0.155355806014456,1
309,120,58,0.281104261266317,1
310,110,58,0.127695053659176,1
310,111,58,0.158729949176693,1
310,112,58,0.177066437454282,1
310,113,58,0.166432809485711,1
310,114,58,0.142229816050985,1
310,115,58,0.118842488450191,1
310,119,58,0.133883185064143,1
311,110,58,0.122002233741987,1
311,111,58,0.157783159701482,1
311,112,58,0.175244273427581,1
311,113,58,0.169868875416571,1
311,114,58,0.152126329890971,1
311,115,58,0.13084863964934,1
311,116,58,0.119854486440021,1
312,109,58,0.117995460818456,1
312,110,58,0.143060261853464,1
312,111,58,0.169425240822805,1
312,112,58,0.178441210066527,1
312,113,58,0.177392927548335,1
312,114,58,0.168009826241272,1
312,115,58,0.146039821074525,1
312,116,58,0.128364344808587,1
313,108,58,0.163448374641559,1
313,109,58,0.209369666256769,1
313,110,58,0.199319900041718,1
313,111,58,0.198652104554463,1
313,112,58,0.209641994537795,1
313,113,58,0.207476393504897,1
313,114,58,0.185227794763684,1
313,115,58,0.145996965054172,1
314,107,58,0.161738821020634,1
314,108,58,0.248352510470106,1
314,109,58,0.275414974409338,1
314,110,58,0.215005321259752,1
314,111,58,0.20002601745539,1
314,112,58,0.223780406458321,1
314,113,58,0.205146858478233,1
315,108,58,0.204745290854707,1
315,109,58,0.195827199155683,1
315,110,58,0.170208908908098,1
279,93,59,0.160575337185845,1
280,93,59,0.163992359922171,1
280,94,59,0.145511699234259,1
281,93,59,0.145655294578081,1
281,94,59,0.135972260012881,1
282,93,59,0.117748841438896,1
282,94,59,0.118595068243649,1
283,92,59,0.117141791033527,1
283,93,59,0.139236254134623,1
283,94,59,0.142602082828498,1
283,95,59,0.137431001689462,1
284,93,59,0.149952661703926,1
284,94,59,0.159146744289727,1
284,95,59,0.145073540883819,1
285,94,59,0.123860988495602,1
285,95,59,0.124211314969209,1
286,95,59,0.119395977662769,1
286,96,59,0.127881045725525,1
295,125,59,0.143144607777556,1
295,126,59,0.138264368155049,1
296,88,59,0.124330155337823,1
296,124,59,0.130907429771242,1
296,125,59,0.226596302553564,1
296,126,59,0.221332089947379,1
296,127,59,0.15284185702167,1
297,124,59,0.12084330755487,1
297,125,59,0.184303051584187,1
297,126,59,0.195575433285083,1
298,98,59,0.122133675358686,1
298,99,59,0.126089301347236,1
298,125,59,0.118340711462227,1
298,126,59,0.145384485512946,1
299,98,59,0.125936131410243,1
299,99,59,0.128856052574951,1
301,95,59,0.119885553816138,1
301,96,59,0.135831502894094,1
301,97,59,0.12681469749279,1
301,98,59,0.114800172940942,1
301,124,59,0.118272876706185,1
301,125,59,0.153827474828595,1
302,95,59,0.129188207342208,1
302,96,59,0.154595409019083,1
302,97,59,0.142575231570898,1
302,98,59,0.117136032145383,1
302,124,59,0.179210910787121,1
302,125,59,0.233193421008499,1
303,94,59,0.113997073024492,1
303,95,59,0.114525359740901,1
303,96,59,0.120417550245769,1
303,123,59,0.152793842733409,1
303,124,59,0.23265837437022,1
303,125,59,0.274197552522002,1
304,94,59,0.118096777208426,1
304,122,59,0.136017153431289,1
304,123,59,0.211551095399409,1
304,124,59,0.28371747747415,1
305,121,59,0.114604005661187,1
305,122,59,0.173386943674918,1
305,123,59,0.246111961453277,1
306,109,59,0.118575412652011,1
306,111,59,0.121899798549618,1
306,112,59,0.152871310966958,1
306,113,59,0.142973925638787,1
306,121,59,0.130886490501061,1
306,122,59,0.177391184571965,1
306,123,59,0.214233512479899,1
307,111,59,0.148980351757127,1
307,112,59,0.194064449424855,1
307,113,59,0.167159583524747,1
307,120,59,0.117428098456119,1
307,121,59,0.166506014493272,1
307,122,59,0.188345673291987,1
308,110,59,0.115537981904702,1
308,111,59,0.135360911050922,1
308,112,59,0.15287604526764,1
308,113,59,0.134461240822052,1
308,120,59,0.174687898882498,1
308,121,59,0.216117245969202,1
309,110,59,0.13243917624864,1
309,111,59,0.14265139257217,1
309,112,59,0.144973225527575,1
309,113,59,0.135397678430846,1
309,114,59,0.121913059302274,1
309,119,59,0.135328300905179,1
309,120,59,0.232071321085643,1
310,109,59,0.113758768113293,1
310,110,59,0.136629161897821,1
310,111,59,0.149158947950769,1
310,112,59,0.158346482598312,1
310,113,59,0.161698179051346,1
310,114,59,0.152343401110304,1
310,115,59,0.137522225304098,1
310,116,59,0.119004302607832,1
311,110,59,0.124226295144501,1
311,111,59,0.143351668659627,1
311,112,59,0.163020226628383,1
311,113,59,0.179645606738554,1
311,114,59,0.178689666637397,1
311,115,59,0.161180738829783,1
311,116,59,0.133055495048628,1
312,109,59,0.12380904073364,1
312,110,59,0.149535289524392,1
312,111,59,0.174515438436756,1
312,112,59,0.190575387590837,1
312,113,59,0.193255190206772,1
312,114,59,0.182372340170951,1
312,115,59,0.159002948739159,1
313,108,59,0.15319118246155,1
313,109,59,0.194442957942074,1
313,110,59,0.204399168722751,1
313,111,59,0.216779812527346,1
313,112,59,0.220071706047883,1
313,113,59,0.197636067099126,1
313,114,59,0.170310107529394,1
314,107,59,0.146318709070675,1
314,108,59,0.220592125816891,1
314,109,59,0.236495890155933,1
314,110,59,0.208025219077998,1
314,111,59,0.202781027146339,1
314,112,59,0.205495689289683,1
315,108,59,0.202403766977061,1
315,109,59,0.186767537734025,1
283,93,60,0.114182358478798,1
283,94,60,0.120373163232658,1
283,95,60,0.116437793455981,1
284,93,60,0.126257887203614,1
284,94,60,0.134942172754773,1
284,95,60,0.121376528778707,1
295,125,60,0.142750730448422,1
295,126,60,0.142815409004009,1
296,88,60,0.11769006309386,1
296,124,60,0.117460496618249,1
296,125,60,0.188537224039733,1
296,126,60,0.200420189206209,1
296,127,60,0.142723266793719,1
297,125,60,0.149678637553999,1
297,126,60,0.172295392946014,1
297,127,60,0.155882243762688,1
298,98,60,0.122659901123306,1
298,99,60,0.123329828223555,1
298,126,60,0.124665183660718,1
299,98,60,0.124025134472982,1
299,99,60,0.123632046193961,1
300,98,60,0.114013678407481,1
301,95,60,0.117052687255018,1
301,96,60,0.143772868321056,1
301,97,60,0.140043358185978,1
301,98,60,0.127036820988224,1
301,99,60,0.1182764804276,1
301,125,60,0.131423468545589,1
302,95,60,0.120793149876748,1
302,96,60,0.168191449089827,1
302,97,60,0.166910856085927,1
302,98,60,0.135136408628279,1
302,123,60,0.115346384049486,1
302,124,60,0.176390315721798,1
302,125,60,0.202027802263194,1
303,96,60,0.126586720894273,1
303,97,60,0.123316131726805,1
303,123,60,0.164110458348141,1
303,124,60,0.244703707207104,1
303,125,60,0.260243189484708,1
304,122,60,0.128877839779582,1
304,123,60,0.198294158447669,1
304,124,60,0.269626432114179,1
305,94,60,0.117168842497872,1
305,122,60,0.16115238013316,1
305,123,60,0.218860761437599,1
305,124,60,0.26832341595481,1
306,109,60,0.118873508718839,1
306,112,60,0.125647268407432,1
306,113,60,0.121461969951464,1
306,121,60,0.128336198095577,1
306,122,60,0.183442939852806,1
306,123,60,0.226603321566516,1
307,111,60,0.131680851981924,1
307,112,60,0.164729191405939,1
307,113,60,0.146880418536676,1
307,121,60,0.160211608637173,1
307,122,60,0.208110954672439,1
308,111,60,0.130181409451718,1
308,112,60,0.144197707034502,1
308,113,60,0.125318693807855,1
308,120,60,0.141713824384108,1
308,121,60,0.198135123630727,1
309,110,60,0.134449028210591,1
309,111,60,0.137917574741653,1
309,112,60,0.131793474164568,1
309,113,60,0.119482325654313,1
309,120,60,0.179469507240795,1
310,109,60,0.118437116898505,1
310,110,60,0.142938807020294,1
310,111,60,0.141654021451611,1
310,112,60,0.138314443395099,1
310,113,60,0.146915042526739,1
310,114,60,0.154300268945965,1
310,115,60,0.151558025379243,1
310,116,60,0.130631438884465,1
311,110,60,0.129148825497728,1
311,111,60,0.138010576663261,1
311,112,60,0.156146610881373,1
311,113,60,0.187683813345885,1
311,114,60,0.205873184996309,1
311,115,60,0.189229385865573,1
311,116,60,0.144540496312993,1
312,109,60,0.12446549509762,1
312,110,60,0.1529906106334,1
312,111,60,0.174858133500307,1
312,112,60,0.193432750036084,1
312,113,60,0.203698303791925,1
312,114,60,0.196399272264969,1
312,115,60,0.168269894803368,1
313,108,60,0.131201015297868,1
313,109,60,0.163701223983958,1
313,110,60,0.192607686261992,1
313,111,60,0.213505749184004,1
313,112,60,0.209998598081708,1
313,113,60,0.180068620037558,1
313,114,60,0.152886043828036,1
314,107,60,0.127729524549964,1
314,108,60,0.173546496674024,1
314,109,60,0.184888432553598,1
314,110,60,0.186953306039894,1
314,111,60,0.190915538851038,1
315,108,60,0.175089313406748,1
294,125,61,0.115455708709267,1
295,125,61,0.138806551574953,1
295,126,61,0.144411574945911,1
296,125,61,0.144785419823652,1
296,126,61,0.163933887775687,1
296,127,61,0.128591025951693,1
297,125,61,0.12225470622463,1
297,126,61,0.14287501172976,1
298,98,61,0.113921842395743,1
299,98,61,0.115853825710654,1
300,96,61,0.115620514191219,1
300,97,61,0.119246046364302,1
300,98,61,0.115665902238057,1
301,96,61,0.142304328290824,1
301,97,61,0.145864722610492,1
301,98,61,0.134001542581195,1
301,99,61,0.123866971144225,1
301,125,61,0.117322094872936,1
302,95,61,0.118368198670665,1
302,96,61,0.16364576671552,1
302,97,61,0.170720778671396,1
302,98,61,0.144489549584757,1
302,99,61,0.120216707549669,1
302,123,61,0.124494348422672,1
302,124,61,0.175445351661028,1
302,125,61,0.171078830769996,1
303,96,61,0.127766657012776,1
303,97,61,0.131799586358732,1
303,123,61,0.180520404223543,1
303,124,61,0.247487476008166,1
303,125,61,0.231610916232744,1
304,122,61,0.12508968084501,1
304,123,61,0.186041694067511,1
304,124,61,0.246541416698731,1
305,94,61,0.115088918175079,1
305,122,61,0.142176254858193,1
305,123,61,0.191223739470067,1
306,121,61,0.121287507438269,1
306,122,61,0.181886155755383,1
306,123,61,0.227970450991838,1
307,111,61,0.116511387100166,1
307,112,61,0.127417896862529,1
307,113,61,0.12224759299674,1
307,121,61,0.152992612700852,1
307,122,61,0.222575279620517,1
308,110,61,0.118709009435438,1
308,111,61,0.128326847262886,1
308,112,61,0.130011963884022,1
308,113,61,0.115330285071794,1
308,120,61,0.113768778450556,1
308,121,61,0.174753390041933,1
309,109,61,0.114737449345338,1
309,110,61,0.134322709531198,1
309,111,61,0.134711934997722,1
309,112,61,0.126984590581446,1
310,109,61,0.118821749386755,1
310,110,61,0.142274238394698,1
310,111,61,0.144261502325036,1
310,112,61,0.143058919290584,1
310,113,61,0.144769450391501,1
310,114,61,0.153621874278078,1
310,115,61,0.154126536598547,1
310,116,61,0.13484158653058,1
311,109,61,0.114962634826288,1
311,110,61,0.138546812765144,1
311,111,61,0.152789237978268,1
311,112,61,0.17207859259463,1
311,113,61,0.197269523879153,1
311,114,61,0.221170464219616,1
311,115,61,0.203067982296636,1
311,116,61,0.15377491466953,1
312,109,61,0.125877317734606,1
312,110,61,0.156434708387805,1
312,111,61,0.175740091320656,1
312,112,61,0.191541656004676,1
312,113,61,0.203455723877872,1
312,114,61,0.20505002907473,1
312,115,61,0.173849845223698,1
313,109,61,0.139868377490619,1
313,110,61,0.17734958867642,1
313,111,61,0.19781415688747,1
313,112,61,0.190363427531942,1
313,113,61,0.165248798571099,1
314,108,61,0.13018305821315,1
314,110,61,0.172084539912651,1
314,111,61,0.181851519988453,1
294,125,62,0.132832323411998,1
294,126,62,0.118397546624147,1
295,125,62,0.121207047880409,1
295,126,62,0.129398177110518,1
296,126,62,0.123410487988161,1
298,96,62,0.115534331075818,1
299,96,62,0.117600134934636,1
299,97,62,0.119427845865867,1
300,96,62,0.12011999591484,1
300,97,62,0.132540645737886,1
300,98,62,0.120268808410907,1
301,96,62,0.129472112283857,1
301,97,62,0.144871120087492,1
301,98,62,0.13736567540617,1
301,99,62,0.124754169670553,1
301,124,62,0.114485318391849,1
302,96,62,0.139913612438181,1
302,97,62,0.154781283316758,1
302,98,62,0.144787033254482,1
302,99,62,0.125359382884613,1
302,102,62,0.124264581740316,1
302,103,62,0.115539501120592,1
302,123,62,0.143660964527322,1
302,124,62,0.187038912088794,1
303,96,62,0.118279624851188,1
303,97,62,0.128548805882178,1
303,98,62,0.120328999980026,1
303,122,62,0.126976146567542,1
303,123,62,0.189552919965917,1
303,124,62,0.238509663814718,1
304,122,62,0.124349964028736,1
304,123,62,0.170232121113681,1
305,122,62,0.124537687294588,1
306,122,62,0.171118577697364,1
307,121,62,0.143866671069645,1
308,110,62,0.129533799515132,1
308,111,62,0.125012118396522,1
309,109,62,0.115072842751121,1
309,110,62,0.128287524302744,1
309,111,62,0.126540755780934,1
309,112,62,0.120603106568025,1
310,109,62,0.117431914161146,1
310,110,62,0.13456046092963,1
310,111,62,0.146781575288854,1
310,112,62,0.154215499054647,1
310,113,62,0.148963463729321,1
310,114,62,0.150817472405387,1
310,115,62,0.150828837082397,1
310,116,62,0.132009426581501,1
311,109,62,0.121140202381226,1
311,110,62,0.146082959739695,1
311,111,62,0.174231721924985,1
311,112,62,0.195824584691128,1
311,113,62,0.20391344360501,1
311,114,62,0.22057203448116,1
311,115,62,0.210425980598506,1
312,109,62,0.126623134968176,1
312,110,62,0.154188153168618,1
312,111,62,0.174645808358523,1
312,112,62,0.189109485578896,1
312,113,62,0.19858978137235,1
312,114,62,0.205382937561499,1
313,109,62,0.126912186400865,1
313,110,62,0.162953993526303,1
313,111,62,0.176315485506539,1
313,112,62,0.169552466320986,1
298,96,63,0.12446388166679,1
298,97,63,0.115158378138818,1
299,96,63,0.12086792120767,1
299,97,63,0.123871034163467,1
300,96,63,0.116497796595223,1
300,97,63,0.138269573530426,1
300,98,63,0.125202915424757,1
301,97,63,0.13402389507546,1
301,98,63,0.134156479048293,1
301,99,63,0.122038235625533,1
302,96,63,0.115104157441454,1
302,97,63,0.127539634340516,1
302,98,63,0.132764264895476,1
302,99,63,0.125809471201696,1
302,100,63,0.117416462911159,1
302,101,63,0.120076044645822,1
302,102,63,0.126605175245439,1
303,95,63,0.118770991088397,1
303,97,63,0.114680272654265,1
303,98,63,0.122046502986425,1
303,123,63,0.193902682374684,1
307,110,63,0.121401837266681,1
308,109,63,0.115008387956014,1
308,110,63,0.135538800632521,1
308,111,63,0.125692762446076,1
309,109,63,0.115689196881712,1
309,110,63,0.122946773835532,1
309,111,63,0.122926458739321,1
309,112,63,0.121055385382439,1
309,113,63,0.117669206261751,1
310,109,63,0.121686978779404,1
310,110,63,0.130229141095162,1
310,111,63,0.148200157847709,1
310,112,63,0.160546636960068,1
310,113,63,0.153179170056834,1
310,114,63,0.144423104499065,1
310,115,63,0.140681358198791,1
311,108,63,0.114277185814848,1
311,109,63,0.130055974037378,1
311,110,63,0.148932443460673,1
311,111,63,0.183900965778496,1
311,112,63,0.202968868180864,1
311,113,63,0.196459711148303,1
311,114,63,0.198922736966588,1
312,108,63,0.118674938958141,1
312,109,63,0.12711882331571,1
312,110,63,0.144767542538987,1
312,111,63,0.168667116762835,1
312,112,63,0.185377031226976,1
312,113,63,0.191799993367268,1
313,109,63,0.121767520775336,1
313,110,63,0.147583897932057,1
313,111,63,0.156113211685517,1
298,96,64,0.124425736393384,1
298,97,64,0.116425239315366,1
299,96,64,0.122717784426421,1
299,97,64,0.129231534437256,1
300,96,64,0.113991290582614,1
300,97,64,0.14190122967454,1
300,98,64,0.131014893685979,1
301,97,64,0.130716161668313,1
301,98,64,0.137807296155616,1
301,99,64,0.123436703294923,1
301,123,64,0.117690816813372,1
302,98,64,0.127010888326279,1
302,99,64,0.130875408468868,1
302,100,64,0.124333664844299,1
302,101,64,0.12563716385523,1
302,102,64,0.121829196229744,1
302,122,64,0.120040973134799,1
302,123,64,0.185233459436889,1
303,94,64,0.126859767564208,1
303,95,64,0.126649809572765,1
303,98,64,0.127262960395431,1
303,99,64,0.130587440507977,1
303,100,64,0.116950075409637,1
303,110,64,0.119425302062516,1
303,111,64,0.117540697085027,1
303,122,64,0.15694646038243,1
304,94,64,0.114028211061814,1
304,95,64,0.114181416329409,1
304,98,64,0.118056688751905,1
304,110,64,0.132876404226558,1
304,111,64,0.134989916175085,1
307,110,64,0.124730227299193,1
308,109,64,0.117507980947478,1
308,110,64,0.134342930412469,1
308,111,64,0.121080458333066,1
309,109,64,0.120686639888269,1
309,110,64,0.12399135841737,1
309,111,64,0.120558389802627,1
309,112,64,0.1224998063883,1
309,113,64,0.127819028741963,1
309,114,64,0.118359625111221,1
310,109,64,0.131495802064965,1
310,110,64,0.133960347099141,1
310,111,64,0.144231435982645,1
310,112,64,0.15535498163374,1
310,113,64,0.150419060982315,1
310,114,64,0.137813019713157,1
310,115,64,0.131256566781245,1
311,108,64,0.123017658800222,1
311,109,64,0.139380885842773,1
311,110,64,0.150372059504648,1
311,111,64,0.178620253781128,1
311,112,64,0.194917636358223,1
311,113,64,0.182627274018874,1
311,114,64,0.174485984491467,1
312,108,64,0.123516644670619,1
312,109,64,0.127828202921643,1
312,110,64,0.138794715823248,1
312,111,64,0.165872077499701,1
312,112,64,0.188983072684564,1
312,113,64,0.19233995095924,1
313,110,64,0.135106754476246,1
299,96,65,0.114098636728676,1
299,97,65,0.12329516890289,1
300,97,65,0.13587909321513,1
300,98,65,0.129721122367493,1
301,97,65,0.133375778733578,1
301,98,65,0.142190398875903,1
301,99,65,0.126806618561775,1
302,97,65,0.115082629327905,1
302,98,65,0.130114905481689,1
302,99,65,0.138298815492102,1
302,100,65,0.131277682704436,1
302,101,65,0.123198492598663,1
302,111,65,0.118051506930262,1
302,122,65,0.121175697859474,1
303,94,65,0.12730583996952,1
303,95,65,0.127928082533794,1
303,98,65,0.133865460878754,1
303,99,65,0.148477444189897,1
303,100,65,0.139875973570072,1
303,101,65,0.122281239506811,1
303,107,65,0.119009307776463,1
303,108,65,0.124985655775545,1
303,110,65,0.137947994390066,1
303,111,65,0.154060539033815,1
304,94,65,0.119240487682904,1
304,95,65,0.128111707449801,1
304,98,65,0.133739095091892,1
304,99,65,0.130050839323205,1
304,107,65,0.123106939231741,1
304,108,65,0.124051514655887,1
304,109,65,0.116032410127428,1
304,110,65,0.147035237235101,1
304,111,65,0.165913202320552,1
304,112,65,0.120178197193375,1
305,111,65,0.11446709957803,1
308,110,65,0.118119259248233,1
309,109,65,0.119181144048235,1
309,110,65,0.122024704004926,1
309,111,65,0.116138025073987,1
309,112,65,0.122127186304766,1
309,113,65,0.137638863398514,1
309,114,65,0.135902376081917,1
309,115,65,0.119130727279031,1
310,109,65,0.13184985002866,1
310,110,65,0.13192968541255,1
310,111,65,0.1312759632818,1
310,112,65,0.139257240512273,1
310,113,65,0.142162852783128,1
310,114,65,0.136216465134631,1
310,115,65,0.130266791740139,1
311,108,65,0.124196864752948,1
311,109,65,0.13780266784674,1
311,110,65,0.141726849599417,1
311,111,65,0.157780604121263,1
311,112,65,0.173224646665714,1
311,113,65,0.164625201667077,1
311,114,65,0.151464411060532,1
312,108,65,0.120885939814743,1
312,109,65,0.127772203917306,1
312,110,65,0.139803852034308,1
312,111,65,0.171423822322685,1
312,112,65,0.199005952311413,1
312,113,65,0.194681675043631,1
300,97,66,0.116599018770254,1
301,97,66,0.120238530084903,1
301,98,66,0.127250771337705,1
301,99,66,0.115305176790564,1
301,111,66,0.119759871087583,1
302,98,66,0.12339755698779,1
302,99,66,0.132488427107974,1
302,100,66,0.123187069037316,1
302,110,66,0.118258073183903,1
302,111,66,0.140971740417493,1
303,98,66,0.130934175037036,1
303,99,66,0.154383295860912,1
303,100,66,0.148541675224524,1
303,101,66,0.120259233817736,1
303,108,66,0.125916935116433,1
303,109,66,0.117416380473087,1
303,110,66,0.142142361033907,1
303,111,66,0.176051283263997,1
303,112,66,0.128480017199879,1
304,95,66,0.122470847071442,1
304,96,66,0.11404191933543,1
304,98,66,0.130490552220137,1
304,99,66,0.137453236415054,1
304,100,66,0.123492666968657,1
304,107,66,0.116198522841658,1
304,108,66,0.119108857636328,1
304,109,66,0.115568978619615,1
304,110,66,0.140048457569549,1
304,111,66,0.168891159887651,1
304,112,66,0.127009345556654,1
305,111,66,0.119674842105184,1
309,113,66,0.128353474760006,1
309,114,66,0.138936579967567,1
309,115,66,0.137348610725353,1
310,109,66,0.118325354427179,1
310,110,66,0.118994245163099,1
310,112,66,0.118029601956957,1
310,113,66,0.124827150917635,1
310,114,66,0.126816593568436,1
311,108,66,0.118077463145942,1
311,109,66,0.123296641011311,1
311,110,66,0.123786370263956,1
311,111,66,0.134563440477074,1
311,112,66,0.147494723492344,1
311,113,66,0.140427920013024,1
312,109,66,0.118657049896609,1
312,110,66,0.133249648484063,1
312,111,66,0.169407080893323,1
312,112,66,0.194011641951576,1
301,111,67,0.121852502650266,1
302,98,67,0.116805502585823,1
302,99,67,0.126833776017926,1
302,100,67,0.114968228838288,1
302,110,67,0.128181803364378,1
302,111,67,0.149731150605595,1
303,98,67,0.126140495389686,1
303,99,67,0.152567032044762,1
303,100,67,0.144519568819679,1
303,101,67,0.113795676815626,1
303,109,67,0.118537396924146,1
303,110,67,0.138480132142105,1
303,111,67,0.173453035454589,1
303,112,67,0.134209698711931,1
304,96,67,0.117582057443225,1
304,98,67,0.119242218882407,1
304,99,67,0.135400999507444,1
304,100,67,0.132057311324221,1
304,101,67,0.115035651403972,1
304,110,67,0.123073210283598,1
304,111,67,0.14720256296667,1
304,112,67,0.123114323327581,1
305,96,67,0.123898332942027,1
305,111,67,0.114855971738533,1
308,115,67,0.116833001571128,1
309,113,67,0.115135260148174,1
309,114,67,0.134622289483314,1
309,115,67,0.153416285504429,1
310,113,67,0.117058905440988,1
310,114,67,0.123453567768994,1
311,111,67,0.12291782629554,1
311,112,67,0.132535581684917,1
311,113,67,0.126233591526233,1
312,109,67,0.114118916494285,1
312,111,67,0.164354074626523,1
301,111,68,0.11390372957373,1
302,99,68,0.117629141358964,1
302,109,68,0.11402254638861,1
302,110,68,0.131793980569865,1
302,111,68,0.14276608748347,1
303,98,68,0.120822415392158,1
303,99,68,0.142724456257323,1
303,100,68,0.13399977605109,1
303,109,68,0.115229675293866,1
303,110,68,0.131220588451434,1
303,111,68,0.155384317810354,1
303,112,68,0.134003415103107,1
304,96,68,0.124771057698359,1
304,97,68,0.116494534402962,1
304,99,68,0.13083002042203,1
304,100,68,0.136353724523809,1
304,101,68,0.123489369445794,1
304,111,68,0.127563376505131,1
304,112,68,0.12055027554101,1
305,96,68,0.133296991490884,1
305,97,68,0.123266539338317,1
305,100,68,0.118129140039955,1
305,105,68,0.116909303894808,1
308,115,68,0.123119022297661,1
309,114,68,0.127308466210943,1
309,115,68,0.158047043968605,1
309,116,68,0.14347503134531,1
310,114,68,0.118853252506965,1
310,115,68,0.128907093518125,1
311,111,68,0.116440148829455,1
311,112,68,0.1212662030852,1
312,110,68,0.122987780887708,1
312,111,68,0.151063597156518,1
312,112,68,0.155802172841451,1
302,109,69,0.114443345636548,1
302,110,69,0.123911087289387,1
302,111,69,0.120931704721337,1
303,99,69,0.124704636166402,1
303,100,69,0.120599467516008,1
303,110,69,0.122264363255872,1
303,111,69,0.12953465922645,1
303,112,69,0.125024495884126,1
304,96,69,0.13011100733859,1
304,97,69,0.124624977435522,1
304,99,69,0.12350496201819,1
304,100,69,0.135723509020327,1
304,101,69,0.127033994540056,1
304,111,69,0.116484288528351,1
304,112,69,0.119113803920623,1
305,96,69,0.130205599137293,1
305,97,69,0.127142871678876,1
305,100,69,0.129982698368612,1
305,101,69,0.12825943647407,1
308,115,69,0.125806998059549,1
308,116,69,0.118487934081199,1
309,114,69,0.120683236373599,1
309,115,69,0.147755404451543,1
310,114,69,0.11540687004029,1
311,111,69,0.114655670778332,1
311,112,69,0.116688534739121,1
312,110,69,0.113980550079574,1
312,111,69,0.131513785341437,1
304,96,70,0.124661921468457,1
304,97,70,0.124327022691103,1
304,99,70,0.115037052851189,1
304,100,70,0.128632621847238,1
304,101,70,0.123218737033669,1
305,96,70,0.116584662768932,1
305,97,70,0.120214469944869,1
305,100,70,0.134024637018105,1
305,101,70,0.134127696384445,1
306,101,70,0.11663980206195,1
308,115,70,0.120786802145236,1
