x,y,z,signal,mito.p
1008,233,24,0.117912469234112,1
1008,234,24,0.122020699870021,1
1008,235,24,0.114962646603156,1
1009,234,24,0.115065965060578,1
1009,235,24,0.117963368854878,1
1006,233,25,0.115883833168708,1
1007,231,25,0.140944476969535,1
1007,232,25,0.163868066863965,1
1007,235,25,0.140369742288225,1
1007,236,25,0.125827395593831,1
1008,231,25,0.143997241198158,1
1008,232,25,0.168634176864806,1
1008,236,25,0.160396057933897,1
1008,237,25,0.140469527685437,1
1008,238,25,0.114775453296336,1
1009,232,25,0.115890663751782,1
1009,233,25,0.144234568629365,1
1009,234,25,0.168184889374703,1
1009,235,25,0.171431371294668,1
1009,236,25,0.157324745139169,1
1009,237,25,0.136961399103149,1
1009,238,25,0.116935825400121,1
1009,240,25,0.113900231844122,1
1009,241,25,0.118634815171017,1
1010,235,25,0.122026293882021,1
1010,236,25,0.123130787388162,1
1010,237,25,0.117946363058398,1
1010,238,25,0.116044881829971,1
1010,239,25,0.123922157544713,1
1010,240,25,0.136486072959295,1
1010,241,25,0.139798375790982,1
1010,242,25,0.123988520192334,1
1011,236,25,0.113844456600265,1
1011,238,25,0.117993446974136,1
1011,239,25,0.134651566775592,1
1011,240,25,0.14507031402216,1
1011,241,25,0.140936880890082,1
1011,242,25,0.131972258788087,1
1011,243,25,0.117334213269458,1
1012,236,25,0.122701779663668,1
1012,237,25,0.115891346810089,1
1012,238,25,0.114031708791422,1
1012,239,25,0.129669421919746,1
1012,240,25,0.138578280554753,1
1012,241,25,0.133343898753612,1
1012,242,25,0.138034224612937,1
1012,243,25,0.143000188053018,1
1012,244,25,0.125319094221346,1
1013,236,25,0.125549072887315,1
1013,237,25,0.125472005067256,1
1013,239,25,0.115394928296779,1
1013,240,25,0.120619558851738,1
1013,241,25,0.116755521560712,1
1013,242,25,0.127042144132275,1
1013,243,25,0.148764375786459,1
1013,244,25,0.141039704719076,1
1014,237,25,0.127909051116127,1
1014,238,25,0.116407621121783,1
1014,243,25,0.134199452837321,1
1014,244,25,0.134331259536907,1
1015,243,25,0.115715812601964,1
1019,252,25,0.12425216892211,1
1019,253,25,0.129034896082807,1
1020,252,25,0.129504781313937,1
1020,253,25,0.133970322105802,1
1006,230,26,0.128218782727914,1
1006,231,26,0.153295890589322,1
1007,229,26,0.121661246324204,1
1007,230,26,0.167192629414582,1
1007,237,26,0.153670677616452,1
1008,230,26,0.142587208645012,1
1008,231,26,0.184658430333894,1
1008,237,26,0.194641292165425,1
1008,238,26,0.139772101599883,1
1009,232,26,0.143896902288179,1
1009,237,26,0.186637839093698,1
1009,238,26,0.146415114506952,1
1009,239,26,0.131558042809007,1
1009,240,26,0.141462188059048,1
1009,241,26,0.151796978018147,1
1009,242,26,0.140054251788294,1
1010,234,26,0.132097270235202,1
1010,235,26,0.151640534112026,1
1010,236,26,0.166778860956463,1
1010,237,26,0.159363261996294,1
1010,238,26,0.146317672706347,1
1010,239,26,0.151526274944818,1
1010,240,26,0.166730528692783,1
1010,241,26,0.177017163041213,1
1010,242,26,0.168442096158028,1
1010,243,26,0.133557130714183,1
1011,235,26,0.12288229548669,1
1011,236,26,0.148496169409012,1
1011,237,26,0.150749649426212,1
1011,238,26,0.150788866394549,1
1011,239,26,0.167366879944164,1
1011,240,26,0.177770105279541,1
1011,241,26,0.173440116231086,1
1011,242,26,0.166534090545079,1
1011,243,26,0.149265222401901,1
1011,244,26,0.134037933101364,1
1011,245,26,0.131774996259667,1
1011,246,26,0.141225261041331,1
1012,235,26,0.120903534454592,1
1012,236,26,0.145129904971044,1
1012,237,26,0.145334009859405,1
1012,238,26,0.145560314142755,1
1012,239,26,0.162498240536015,1
1012,240,26,0.172187092873695,1
1012,241,26,0.162535832296655,1
1012,242,26,0.162430876854668,1
1012,243,26,0.169760563567385,1
1012,244,26,0.163456453572574,1
1012,245,26,0.144072024305947,1
1012,246,26,0.132566472408025,1
1013,236,26,0.129122256884945,1
1013,237,26,0.137283461095072,1
1013,238,26,0.133920529510568,1
1013,239,26,0.142327434504601,1
1013,240,26,0.152966232517947,1
1013,241,26,0.148390931322209,1
1013,242,26,0.154291813155194,1
1013,243,26,0.180002563588489,1
1013,244,26,0.183611219510633,1
1013,245,26,0.147581636773523,1
1013,246,26,0.119446158894625,1
1014,237,26,0.127230997977394,1
1014,238,26,0.127568664318579,1
1014,239,26,0.130735558168869,1
1014,240,26,0.146304753482844,1
1014,241,26,0.146807649273207,1
1014,242,26,0.146585690653916,1
1014,243,26,0.169373057523496,1
1014,244,26,0.17678035379217,1
1014,245,26,0.140409442108123,1
1015,240,26,0.128078826436109,1
1015,241,26,0.13530050749819,1
1015,242,26,0.129430221966628,1
1015,243,26,0.139774103667335,1
1015,244,26,0.142657010137904,1
1015,245,26,0.116688122548763,1
1018,252,26,0.122541414060713,1
1018,253,26,0.12615426254764,1
1019,252,26,0.146646635942547,1
1019,253,26,0.150546003835679,1
1019,254,26,0.117661574851696,1
1020,252,26,0.136800927508388,1
1020,253,26,0.141006317300086,1
1020,254,26,0.115988435304674,1
1023,254,26,0.121997287457693,1
1006,229,27,0.135809539036453,1
1007,228,27,0.127920109594586,1
1007,229,27,0.165412391035712,1
1007,238,27,0.116395172972975,1
1008,228,27,0.120058214468626,1
1008,229,27,0.136630045162873,1
1008,230,27,0.164510600970715,1
1008,238,27,0.151609914256868,1
1008,239,27,0.124633633433038,1
1008,240,27,0.119156871924589,1
1009,231,27,0.119207477123671,1
1009,239,27,0.155650109929991,1
1009,240,27,0.161365517878792,1
1009,241,27,0.173078201319989,1
1009,242,27,0.169810250170812,1
1009,243,27,0.133882078038611,1
1010,233,27,0.117685988297751,1
1010,239,27,0.175389058235007,1
1010,240,27,0.186902429972862,1
1010,241,27,0.202815745351341,1
1010,242,27,0.207919227271682,1
1010,243,27,0.174796823128788,1
1010,244,27,0.146146637261556,1
1010,245,27,0.134854305547338,1
1010,246,27,0.125641379973748,1
1011,235,27,0.154171877537915,1
1011,240,27,0.196632254032117,1
1011,241,27,0.195761778657452,1
1011,242,27,0.195121835461523,1
1011,243,27,0.183833519659078,1
1011,244,27,0.174606344075972,1
1011,245,27,0.16511874662475,1
1011,246,27,0.152026744700504,1
1011,247,27,0.11580296142049,1
1012,235,27,0.126429782359722,1
1012,236,27,0.164803456331564,1
1012,237,27,0.179010916025471,1
1012,238,27,0.182337610189082,1
1012,239,27,0.191371609816744,1
1012,240,27,0.196596746777001,1
1012,241,27,0.183051959633044,1
1012,242,27,0.173721159393964,1
1012,243,27,0.181955509727316,1
1012,244,27,0.192221463896647,1
1012,245,27,0.181899958243939,1
1012,246,27,0.161530676666766,1
1012,247,27,0.125359877513042,1
1013,236,27,0.126985414962161,1
1013,237,27,0.149340759229201,1
1013,238,27,0.161878270907143,1
1013,239,27,0.175640035055494,1
1013,240,27,0.191186712999061,1
1013,241,27,0.187780842956133,1
1013,242,27,0.180629893759466,1
1013,243,27,0.198835847239144,1
1013,245,27,0.189824129444543,1
1013,246,27,0.165746171010666,1
1013,247,27,0.133567164605181,1
1014,237,27,0.117826486325455,1
1014,238,27,0.133806635426249,1
1014,239,27,0.154612862336523,1
1014,240,27,0.18820446865224,1
1014,241,27,0.202109839921282,1
1014,242,27,0.195287229786844,1
1014,243,27,0.208244998976826,1
1014,244,27,0.215367671914941,1
1014,245,27,0.181683369876168,1
1014,246,27,0.153043276784271,1
1014,247,27,0.124463587245106,1
1015,239,27,0.115483478562521,1
1015,240,27,0.151861161945305,1
1015,241,27,0.169148072249291,1
1015,242,27,0.160853730553566,1
1015,243,27,0.166677179483604,1
1015,244,27,0.17222895963719,1
1015,245,27,0.14477822415769,1
1015,246,27,0.118872036610418,1
1017,252,27,0.123198492598663,1
1017,253,27,0.125026592166518,1
1018,252,27,0.152503684275188,1
1018,253,27,0.158472436194817,1
1018,254,27,0.128414914677067,1
1019,252,27,0.160753309205516,1
1019,253,27,0.163922511321809,1
1019,254,27,0.133013781384409,1
1020,252,27,0.134577761147794,1
1020,253,27,0.138412721353288,1
1020,254,27,0.122521899791483,1
1021,254,27,0.121371782701157,1
1021,255,27,0.131018438523056,1
1021,256,27,0.125381676494541,1
1022,254,27,0.13752248439518,1
1022,255,27,0.159021191106713,1
1022,256,27,0.139617353562663,1
1023,254,27,0.153644815615712,1
1023,255,27,0.172757505444681,1
1024,254,27,0.146440046135171,1
1006,228,28,0.120320049560826,1
1007,227,28,0.13265366833402,1
1007,228,28,0.157667181111638,1
1008,226,28,0.128418801043299,1
1008,227,28,0.145720915283057,1
1008,228,28,0.155033956006146,1
1008,229,28,0.168771871998077,1
1008,239,28,0.149187283093657,1
1008,240,28,0.131723107382042,1
1009,227,28,0.122675140389681,1
1009,228,28,0.135630601313658,1
1009,229,28,0.143442009009209,1
1009,230,28,0.134973087031615,1
1009,231,28,0.135864796098145,1
1009,240,28,0.177442084192731,1
1009,241,28,0.18313503365546,1
1009,242,28,0.194301659087389,1
1009,243,28,0.170049826983686,1
1010,233,28,0.122818276435675,1
1010,240,28,0.201465456846355,1
1010,241,28,0.213911792017131,1
1010,245,28,0.18368166873123,1
1010,246,28,0.159052717780658,1
1011,234,28,0.114208985975918,1
1011,241,28,0.208813044397471,1
1011,242,28,0.210277238763644,1
1011,246,28,0.177465897018549,1
1011,247,28,0.125048132056934,1
1012,235,28,0.121064771545732,1
1012,241,28,0.196503921508404,1
1012,242,28,0.176716794038983,1
1012,243,28,0.186637497564544,1
1012,246,28,0.190004138862268,1
1012,247,28,0.143064937269809,1
1013,236,28,0.113961966182867,1
1013,237,28,0.151115356488602,1
1013,238,28,0.183498609104856,1
1013,239,28,0.207500441868064,1
1013,242,28,0.19784364616336,1
1013,246,28,0.207283276433791,1
1013,247,28,0.166503871103411,1
1014,238,28,0.126127211083295,1
1014,239,28,0.166671609025339,1
1014,240,28,0.221394931311657,1
1014,242,28,0.229744588953411,1
1014,243,28,0.230875592187999,1
1014,246,28,0.183962688340374,1
1014,247,28,0.147567857838702,1
1015,240,28,0.156075101742713,1
1015,241,28,0.182318013481781,1
1015,242,28,0.17242751762102,1
1015,243,28,0.175153061589813,1
1015,244,28,0.188065666493437,1
1015,245,28,0.163925667522264,1
1015,246,28,0.131716771427398,1
1017,252,28,0.124574360459573,1
1017,253,28,0.136134686567625,1
1017,254,28,0.120645303083806,1
1018,252,28,0.154060892339836,1
1018,253,28,0.174767510505908,1
1018,254,28,0.151515581549248,1
1018,255,28,0.1187240367182,1
1018,256,28,0.115925829477744,1
1019,252,28,0.150320253065095,1
1019,253,28,0.163403139693997,1
1019,254,28,0.143604659324434,1
1019,255,28,0.122430228655888,1
1019,256,28,0.127746495015841,1
1019,257,28,0.148649975296843,1
1020,252,28,0.118270615547651,1
1020,253,28,0.125767580884467,1
1020,254,28,0.122080373256977,1
1020,255,28,0.127938799483099,1
1020,256,28,0.139496393357922,1
1020,257,28,0.144993187317765,1
1021,254,28,0.125189642895233,1
1021,255,28,0.163004975585141,1
1021,256,28,0.170047177188528,1
1022,254,28,0.147686297793825,1
1022,255,28,0.20114693969151,1
1022,256,28,0.18815327460979,1
1023,254,28,0.16450077906333,1
1023,255,28,0.206587098696178,1
1024,254,28,0.156249481817836,1
1006,228,29,0.133858394758333,1
1007,226,29,0.124508763308331,1
1007,227,29,0.147888365284132,1
1007,228,29,0.169725786478046,1
1008,226,29,0.139667970538612,1
1008,227,29,0.177551043769623,1
1008,239,29,0.168771977989883,1
1008,240,29,0.13984165577856,1
1009,226,29,0.123086423928786,1
1009,227,29,0.167382766938244,1
1009,230,29,0.165301134969684,1
1009,240,29,0.179010810033665,1
1009,241,29,0.182694967452507,1
1010,227,29,0.120207474485652,1
1010,228,29,0.133120621125175,1
1010,229,29,0.127965580079495,1
1010,233,29,0.123231244066814,1
1010,246,29,0.192384797270179,1
1010,247,29,0.135631990984007,1
1011,247,29,0.135025529422006,1
1012,242,29,0.175582599273339,1
1012,247,29,0.148987182340201,1
1013,237,29,0.144725086932124,1
1013,247,29,0.182888956011799,1
1013,248,29,0.124178045318893,1
1014,238,29,0.116001036552758,1
1014,239,29,0.172228182363943,1
1014,247,29,0.167930697469424,1
1014,248,29,0.118642894102032,1
1015,240,29,0.149741160942858,1
1015,242,29,0.155747822598546,1
1015,243,29,0.161095132780882,1
1015,246,29,0.145846880656429,1
1015,247,29,0.121994519893861,1
1015,252,29,0.129160849679311,1
1015,253,29,0.123277138518949,1
1016,253,29,0.115500531466471,1
1017,252,29,0.113782463170438,1
1017,253,29,0.134402462477016,1
1017,254,29,0.13102795423189,1
1017,255,29,0.118985824702931,1
1017,256,29,0.127769471684077,1
1018,252,29,0.141027998512911,1
1018,253,29,0.174348395350003,1
1018,254,29,0.166008901144787,1
1018,255,29,0.140246862454103,1
1018,256,29,0.158120625835922,1
1018,257,29,0.206632698726629,1
1018,258,29,0.197457164706933,2
1019,252,29,0.132797581653261,1
1019,253,29,0.15436446464999,1
1019,254,29,0.148046234191204,1
1019,255,29,0.134751929239305,1
1019,256,29,0.160616862420186,1
1019,257,29,0.218688442314266,1
1019,258,29,0.222083312763072,2
1020,254,29,0.116635856811382,1
1020,255,29,0.136649630093307,1
1020,256,29,0.165041349052405,1
1020,257,29,0.192396244385261,1
1020,258,29,0.19442570483138,1
1021,254,29,0.122742115434404,1
1021,255,29,0.185843748480784,1
1021,256,29,0.207358224417723,1
1021,257,29,0.180305594162744,1
1022,254,29,0.148210462606656,1
1022,255,29,0.231582392659978,1
1022,256,29,0.233630389895335,1
1022,257,29,0.173237389236207,1
1023,213,29,0.125869592109612,1
1023,214,29,0.130416487501258,1
1023,254,29,0.165699852591307,1
1023,255,29,0.229263315491536,1
1023,256,29,0.213390430098733,1
1024,214,29,0.114904198010407,1
1024,254,29,0.160758326151014,1
1024,255,29,0.197188263494311,1
1006,228,30,0.134482297860906,1
1007,226,30,0.126212063412684,1
1007,227,30,0.1569661041972,1
1008,226,30,0.154632623919967,1
1008,240,30,0.15295073416049,1
1008,241,30,0.164775439164095,1
1009,226,30,0.159837316238472,1
1010,226,30,0.115125426463921,1
1010,227,30,0.149816992191843,1
1010,230,30,0.114051352606192,1
1010,233,30,0.125755721579027,1
1010,247,30,0.161752729500996,1
1010,248,30,0.118036361878827,1
1011,247,30,0.148052146178623,1
1011,248,30,0.1203492561919,1
1011,250,30,0.115326210275684,1
1012,242,30,0.194816637943672,1
1012,247,30,0.147734771379913,1
1012,248,30,0.118260322565571,1
1012,251,30,0.117959364719972,1
1013,237,30,0.13189952485522,1
1013,247,30,0.175336792497627,1
1013,248,30,0.126666120534071,1
1013,251,30,0.119965200770151,1
1013,252,30,0.116212172230938,1
1014,239,30,0.159184548033979,1
1014,242,30,0.194673513674545,1
1014,243,30,0.198088133929927,1
1014,246,30,0.205120925816288,1
1014,247,30,0.169022354190134,1
1014,248,30,0.126466691062055,1
1014,252,30,0.124824018270915,1
1014,253,30,0.123237509360254,1
1014,254,30,0.114404010899538,1
1015,240,30,0.127726851201071,1
1015,241,30,0.143219061133059,1
1015,242,30,0.127034383176679,1
1015,243,30,0.1321498186174,1
1015,244,30,0.168602096678094,1
1015,245,30,0.171195621963688,1
1015,246,30,0.139027049862691,1
1015,247,30,0.120876011915552,1
1015,252,30,0.125810801987709,1
1015,253,30,0.1303914616581,1
1015,254,30,0.128948606975599,1
1015,255,30,0.139147786306952,1
1015,256,30,0.135992174695601,1
1016,254,30,0.113924162438614,1
1016,255,30,0.130981046969162,1
1016,256,30,0.146759446555068,1
1016,257,30,0.155321182024393,1
1017,253,30,0.114321667042898,1
1017,254,30,0.122879645691532,1
1017,255,30,0.130125116025697,1
1017,256,30,0.167840934186343,1
1017,257,30,0.228245040431399,2
1017,258,30,0.233424506700001,2
1017,259,30,0.169973677759282,1
1018,252,30,0.114983150129244,1
1018,253,30,0.148273280417199,1
1018,254,30,0.15270339639202,1
1018,255,30,0.144013705258739,1
1018,256,30,0.192919290395691,1
1018,257,30,0.300438108887597,2
1018,258,30,0.324080405666916,2
1018,259,30,0.22751810151622,2
1019,253,30,0.130769228232675,1
1019,254,30,0.1327573989818,1
1019,255,30,0.130503589212314,1
1019,256,30,0.1782768285518,1
1019,257,30,0.287565333349413,2
1019,258,30,0.327728290334263,2
1019,259,30,0.238918203343726,2
1020,255,30,0.132044662968668,1
1020,256,30,0.178371950309534,1
1020,257,30,0.240109880998995,1
1020,258,30,0.2645939175966,2
1020,259,30,0.212451860876945,1
1021,254,30,0.114417118552919,1
1021,255,30,0.187815054755838,1
1021,256,30,0.231579330674462,1
1021,257,30,0.2250158940602,1
1021,258,30,0.205214858110418,1
1022,254,30,0.137051998543814,1
1022,255,30,0.23809212675904,1
1022,256,30,0.274704405339801,1
1022,257,30,0.230509308059108,1
1022,258,30,0.178293799017677,1
1023,213,30,0.137216368281674,1
1023,214,30,0.123425609485862,1
1023,254,30,0.152090068916344,1
1023,255,30,0.23514402355072,1
1023,256,30,0.258810015387184,1
1023,257,30,0.221154447679995,1
1024,213,30,0.118197728515508,1
1024,254,30,0.150830191422144,1
1024,255,30,0.203056935595045,1
1024,256,30,0.208512380973557,1
1006,228,31,0.126782558421741,1
1007,226,31,0.125845626184517,1
1008,225,31,0.125373703555333,1
1008,240,31,0.16828263737386,1
1009,225,31,0.144158666719176,1
1010,226,31,0.136052366264721,1
1010,230,31,0.120054775623354,1
1010,233,31,0.127805379352683,1
1010,248,31,0.160119619526159,1
1010,249,31,0.148078761898876,1
1010,250,31,0.145591534618149,1
1011,247,31,0.181068499630866,1
1011,248,31,0.170017793904444,1
1011,249,31,0.165284824008378,1
1011,250,31,0.155812454046664,1
1011,251,31,0.1459655561489,1
1011,252,31,0.118075084218734,1
1012,246,31,0.18924824063023,1
1012,247,31,0.163544992061449,1
1012,248,31,0.149524843443036,1
1012,249,31,0.143349866798919,1
1012,250,31,0.141714189466996,1
1012,251,31,0.146892536933198,1
1012,252,31,0.1294622079384,1
1013,237,31,0.120441704600742,1
1013,242,31,0.220082211013576,1
1013,243,31,0.221420251576499,1
1013,247,31,0.170378801996754,1
1013,248,31,0.135300860804211,1
1013,249,31,0.114702472049254,1
1013,250,31,0.119501262857042,1
1013,251,31,0.145018307375861,1
1013,252,31,0.148353280677232,1
1013,253,31,0.13314816721795,1
1014,239,31,0.139828512794577,1
1014,241,31,0.18952063957246,1
1014,242,31,0.164353002931592,1
1014,243,31,0.170722038796204,1
1014,244,31,0.21148083460869,1
1014,246,31,0.191544246915497,1
1014,247,31,0.160825218757667,1
1014,248,31,0.128153279791612,1
1014,251,31,0.115641712552482,1
1014,252,31,0.139904096729347,1
1014,253,31,0.148296716383262,1
1014,254,31,0.135254895690872,1
1014,255,31,0.126082470764162,1
1015,241,31,0.114452590477432,1
1015,244,31,0.136388866696037,1
1015,245,31,0.144218281221794,1
1015,246,31,0.120496561248943,1
1015,252,31,0.115337292307878,1
1015,253,31,0.132341899324177,1
1015,254,31,0.140110180131426,1
1015,255,31,0.159979286374598,1
1015,256,31,0.169833403492058,1
1016,254,31,0.120691256420277,1
1016,255,31,0.15468980061104,1
1016,256,31,0.194131412692712,1
1016,257,31,0.223506005448638,2
1016,258,31,0.207581914236518,2
1016,259,31,0.149557006067819,1
1017,255,31,0.135670360017893,1
1017,256,31,0.199084409801821,2
1017,257,31,0.307310876700156,2
1017,258,31,0.343823946950206,2
1017,259,31,0.252871977537651,2
1017,260,31,0.148902059142863,1
1018,253,31,0.114984669345135,1
1018,254,31,0.125800791650446,1
1018,255,31,0.134421411456612,1
1018,256,31,0.201250293479535,2
1018,257,31,0.355217147533434,2
1018,258,31,0.442032704266467,2
1018,259,31,0.343145693604728,2
1018,260,31,0.201893757958807,2
1019,255,31,0.12293863602018,1
1019,256,31,0.178614930637078,2
1019,257,31,0.314199873035948,2
1019,258,31,0.40869375886327,2
1019,259,31,0.33517737092836,2
1019,260,31,0.217670120146659,2
1020,255,31,0.124016961327029,1
1020,256,31,0.177986104803944,1
1020,257,31,0.263239389419361,2
1020,258,31,0.313056339214481,2
1020,259,31,0.268760691040197,2
1020,260,31,0.208653161646078,1
1021,255,31,0.167817698427025,1
1021,256,31,0.230410146835867,1
1021,257,31,0.256932452976382,1
1021,258,31,0.243433477846488,2
1021,259,31,0.219306021239062,1
1022,254,31,0.120546671819596,1
1022,255,31,0.213938007323892,1
1022,256,31,0.289076305432773,1
1022,257,31,0.281997889962227,2
1022,258,31,0.226973020986943,1
1022,259,31,0.193327476618679,1
1023,212,31,0.129476269518038,1
1023,213,31,0.13509322285564,1
1023,254,31,0.130607037215278,1
1023,255,31,0.219816360009602,1
1023,256,31,0.290887728956434,1
1023,257,31,0.280077624630348,2
1023,258,31,0.216063614115207,1
1024,212,31,0.12727115709512,1
1024,213,31,0.127417837978193,1
1024,254,31,0.132073893153476,1
1024,255,31,0.197261727592955,1
1024,256,31,0.24230426469574,1
1024,257,31,0.228717905209973,1
1006,228,32,0.122284949220032,1
1007,226,32,0.129222513356852,1
1008,225,32,0.148545184730999,1
1009,225,32,0.171934055101419,1
1010,226,32,0.139602703139656,1
1010,230,32,0.128088660120361,1
1010,231,32,0.116590763186229,1
1010,232,32,0.118608858955337,1
1010,233,32,0.14271041823142,1
1010,249,32,0.189041262186231,1
1010,250,32,0.182047934582422,1
1011,234,32,0.125095734154837,1
1011,250,32,0.191378511061022,1
1011,251,32,0.166628529244505,1
1011,252,32,0.132869126122524,1
1012,235,32,0.118468243158959,1
1012,247,32,0.185966993397794,1
1012,249,32,0.190939198577581,1
1012,250,32,0.170663189789965,1
1012,251,32,0.1549929018465,1
1012,252,32,0.133239791246075,1
1013,243,32,0.21455459699183,1
1013,244,32,0.219186344712865,1
1013,246,32,0.199712517246045,1
1013,247,32,0.173833746246006,1
1013,248,32,0.157968103626634,1
1013,249,32,0.143731943706951,1
1013,250,32,0.132876828193783,1
1013,251,32,0.140909970748146,1
1013,252,32,0.146226696405926,1
1013,253,32,0.138202951791723,1
1013,254,32,0.115939891057382,1
1014,240,32,0.14819061858514,1
1014,241,32,0.145551175293677,1
1014,242,32,0.135053240390924,1
1014,243,32,0.141641479087864,1
1014,244,32,0.165817209074632,1
1014,245,32,0.180389009714314,1
1014,246,32,0.164616946083052,1
1014,247,32,0.144100724531723,1
1014,248,32,0.127114041907559,1
1014,252,32,0.128395647722052,1
1014,253,32,0.143944633931623,1
1014,254,32,0.135685045771502,1
1014,255,32,0.130569987190537,1
1014,256,32,0.137723362421882,1
1015,253,32,0.115837561856818,1
1015,254,32,0.133867427615605,1
1015,255,32,0.163424679584414,1
1015,256,32,0.198691698382556,1
1015,257,32,0.212382777772962,1
1015,258,32,0.178185734482705,2
1016,254,32,0.118211095259971,1
1016,255,32,0.164842484870023,1
1016,256,32,0.234111074513841,1
1016,257,32,0.303214646692095,2
1016,258,32,0.293118244082265,2
1016,259,32,0.205567151320875,2
1017,255,32,0.131665082756518,1
1017,256,32,0.212432546814461,2
1017,257,32,0.36459096866901,2
1017,258,32,0.449384767027183,2
1017,259,32,0.353811319321939,2
1017,260,32,0.197053854107036,2
1018,255,32,0.117344624020212,1
1018,256,32,0.189639739032156,2
1018,257,32,0.366754167220965,2
1018,258,32,0.530843285885434,2
1018,259,32,0.476473634703055,2
1018,260,32,0.27644808832236,2
1018,261,32,0.134672270508425,1
1019,256,32,0.169392136048633,2
1019,257,32,0.311119845359368,2
1019,258,32,0.467368891433111,2
1019,259,32,0.454539972949007,2
1019,260,32,0.296119296086274,2
1019,261,32,0.157519770062789,2
1020,256,32,0.169715363950425,1
1020,257,32,0.270108883262791,2
1020,258,32,0.348658610095997,2
1020,259,32,0.331071413227853,2
1020,260,32,0.25650504690585,2
1020,261,32,0.166002023454244,1
1021,255,32,0.137948724555843,1
1021,256,32,0.220947528120333,1
1021,257,32,0.289038313258642,2
1021,258,32,0.286224277908443,2
1021,259,32,0.249793575068767,2
1021,260,32,0.220080538698409,1
1022,255,32,0.176005023728975,1
1022,256,32,0.28860240428987,2
1022,257,32,0.331224347627498,2
1022,258,32,0.281751400128208,2
1022,259,32,0.223321273507098,1
1023,211,32,0.120888566056166,1
1023,212,32,0.141503253995561,1
1023,213,32,0.121853327030982,1
1023,255,32,0.191844427487849,1
1023,256,32,0.306578473318518,2
1023,257,32,0.328238158030109,2
1023,258,32,0.267108066796131,2
1023,259,32,0.199628524627973,1
1024,211,32,0.132643646219889,1
1024,212,32,0.158830099656794,1
1024,213,32,0.132080076008844,1
1024,255,32,0.183507276879239,1
1024,256,32,0.270188165133915,1
1024,257,32,0.274039483408184,2
1024,258,32,0.217846726049715,1
1006,228,33,0.12092314293876,1
1007,226,33,0.130188181150455,1
1008,225,33,0.164132822619273,1
1009,224,33,0.121149211684763,1
1009,225,33,0.188906899906426,1
1010,226,33,0.139155959452905,1
1010,231,33,0.134294268396503,1
1010,232,33,0.129507160241145,1
1010,233,33,0.156132537524868,1
1010,250,33,0.192837335175675,1
1010,251,33,0.170257064518767,1
1011,251,33,0.173365297792695,1
1011,252,33,0.134201537342845,1
1012,250,33,0.191418269765258,1
1012,251,33,0.154069336353739,1
1012,252,33,0.124228662294842,1
1013,243,33,0.211464912284008,1
1013,244,33,0.19832673326281,1
1013,245,33,0.193277848899588,1
1013,246,33,0.191318613913587,1
1013,247,33,0.186735928622009,1
1013,249,33,0.175648643945541,1
1013,250,33,0.142592920425686,1
1013,251,33,0.128391643587147,1
1013,252,33,0.128069416719082,1
1013,253,33,0.127053767900367,1
1013,254,33,0.114581829819933,1
1014,240,33,0.12296767777511,1
1014,241,33,0.125369534544284,1
1014,242,33,0.124785708121365,1
1014,243,33,0.130305667179322,1
1014,244,33,0.139134890637183,1
1014,245,33,0.146565929070472,1
1014,246,33,0.140530437643466,1
1014,247,33,0.127632671592726,1
1014,248,33,0.122302908942769,1
1014,253,33,0.125576736748763,1
1014,254,33,0.124129536402203,1
1014,255,33,0.129748456476655,1
1014,256,33,0.147823875158422,1
1014,257,33,0.157095649738252,1
1014,258,33,0.140062566256656,1
1015,254,33,0.120694353736395,1
1015,255,33,0.158605055498252,1
1015,256,33,0.219469248620788,1
1015,257,33,0.266570829660521,2
1015,258,33,0.234895131235757,2
1015,259,33,0.15712112310237,1
1016,255,33,0.159120175676944,1
1016,256,33,0.249707391953366,2
1016,257,33,0.3600161267711,2
1016,258,33,0.370978505992259,2
1016,259,33,0.259992624854579,2
1016,260,33,0.149101783036563,1
1017,255,33,0.118010876737842,1
1017,256,33,0.199494857183343,2
1017,257,33,0.364615912074097,2
1017,258,33,0.49455461206622,2
1017,259,33,0.418565081983956,2
1017,260,33,0.232218437712808,2
1017,261,33,0.11939521216639,1
1018,256,33,0.161376493919179,2
1018,257,33,0.324405352991343,2
1018,258,33,0.536342470549352,2
1018,259,33,0.547085658715051,2
1018,260,33,0.322937531350021,2
1018,261,33,0.151233195823489,2
1019,256,33,0.148850417579452,1
1019,257,33,0.272763554043762,2
1019,258,33,0.466863381178192,2
1019,259,33,0.534773933138296,2
1019,260,33,0.355977768289287,2
1019,261,33,0.178017819907767,2
1020,256,33,0.152795632817249,1
1020,257,33,0.246281878095667,2
1020,258,33,0.348025085292784,2
1020,259,33,0.382553588515124,2
1020,260,33,0.298490568330892,2
1020,261,33,0.182123812938877,2
1021,255,33,0.114052247648112,1
1021,256,33,0.198859471635085,1
1021,257,33,0.291000127378597,2
1021,258,33,0.30393206989844,2
1021,259,33,0.265690014196307,2
1021,260,33,0.225404389360948,2
1022,255,33,0.138309461780203,1
1022,256,33,0.260177451011058,2
1022,257,33,0.347514487431162,2
1022,258,33,0.317647668726708,2
1022,259,33,0.236541113326628,2
1022,260,33,0.180487688085993,1
1023,210,33,0.123176505187286,1
1023,211,33,0.149055229079855,1
1023,212,33,0.149760898972567,1
1023,255,33,0.159664526040444,1
1023,256,33,0.291864949856925,2
1023,257,33,0.346161749337763,2
1023,258,33,0.301815366418856,2
1023,259,33,0.219305974131593,2
1024,211,33,0.174945682732324,1
1024,212,33,0.188660622056019,1
1024,213,33,0.134445860233269,1
1024,255,33,0.166315841639008,1
1024,256,33,0.281004699629585,1
1024,257,33,0.303642076316362,2
1024,258,33,0.249918833830097,2
1006,228,34,0.11626631049023,1
1007,226,34,0.12953023112432,1
1008,225,34,0.163254704057687,1
1009,224,34,0.12097836466985,1
1009,225,34,0.177880171881966,1
1009,226,34,0.223894594964325,1
1010,226,34,0.121243061540821,1
1010,227,34,0.129382737637398,1
1010,231,34,0.150810524053639,1
1010,232,34,0.140240396953918,1
1010,233,34,0.16319064967607,1
1010,251,34,0.168818520169723,1
1010,252,34,0.138135847201458,1
1011,241,34,0.175407901222797,1
1011,251,34,0.171880976760189,1
1011,252,34,0.131681099296139,1
1012,244,34,0.205733652671728,1
1012,245,34,0.195034721973599,1
1012,251,34,0.151278159903102,1
1012,252,34,0.118016329427433,1
1013,240,34,0.187481074574139,1
1013,241,34,0.198731315764383,1
1013,243,34,0.205452491740176,1
1013,244,34,0.185690119245964,1
1013,245,34,0.180007050574956,1
1013,246,34,0.19857854624088,1
1013,250,34,0.154921098286155,1
1013,251,34,0.121050509759349,1
1013,253,34,0.114398346226334,1
1014,241,34,0.116422518859004,1
1014,242,34,0.120671695043578,1
1014,243,34,0.124443013057814,1
1014,244,34,0.125413120730414,1
1014,245,34,0.127694759237492,1
1014,246,34,0.127347565410606,1
1014,247,34,0.122201828090146,1
1014,248,34,0.12201614222235,1
1014,255,34,0.120365084301643,1
1014,256,34,0.147199018129592,1
1014,257,34,0.167544934401907,1
1014,258,34,0.15683954998046,1
1015,255,34,0.143929783301872,1
1015,256,34,0.219697225219304,1
1015,257,34,0.294944812657362,2
1015,258,34,0.28214389956386,2
1015,259,34,0.186909225225334,2
1016,255,34,0.136739146062174,1
1016,256,34,0.229190793542282,2
1016,257,34,0.361021918351826,2
1016,258,34,0.408501136420594,2
1016,259,34,0.29667605926798,2
1016,260,34,0.168018823767942,2
1017,256,34,0.165326243250913,2
1017,257,34,0.309893308176688,2
1017,258,34,0.461480175104117,2
1017,259,34,0.424979894532029,2
1017,260,34,0.251935151292233,2
1017,261,34,0.130507192933729,1
1018,256,34,0.127321479649385,1
1018,257,34,0.255876303510788,2
1018,258,34,0.462900276878863,2
1018,259,34,0.521660297108694,2
1018,260,34,0.327550860050492,2
1018,261,34,0.161095957161598,2
1019,256,34,0.118139539013841,1
1019,257,34,0.217500227058003,2
1019,258,34,0.407679911905263,2
1019,259,34,0.524500547765655,2
1019,260,34,0.362120488093681,2
1019,261,34,0.182315575670236,2
1020,256,34,0.122356529019897,1
1020,257,34,0.197882768916758,2
1020,258,34,0.30421704653502,2
1020,259,34,0.380753918305096,2
1020,260,34,0.300875690171535,2
1020,261,34,0.178913509555468,2
1021,256,34,0.156078034182687,1
1021,257,34,0.247378657753682,1
1021,258,34,0.277492437366851,2
1021,259,34,0.253877769118378,2
1021,260,34,0.213456851630691,2
1022,210,34,0.117197896029669,1
1022,256,34,0.199089096995033,1
1022,257,34,0.304940923464683,2
1022,258,34,0.305662445020872,2
1022,259,34,0.229039837656354,2
1022,260,34,0.179753094207025,1
1023,210,34,0.15916297281296,1
1023,211,34,0.176374310959044,1
1023,212,34,0.14822664402242,1
1023,255,34,0.122416190629985,1
1023,256,34,0.23764886902503,2
1023,257,34,0.317623596809807,2
1023,258,34,0.300672845407983,2
1023,259,34,0.220747085837723,1
1023,260,34,0.162234638913709,1
1024,211,34,0.214871088525487,1
1024,212,34,0.201173955825253,1
1024,213,34,0.123707253268976,1
1024,255,34,0.137942129510116,1
1024,256,34,0.252960445365322,1
1024,257,34,0.301535972017409,2
1024,258,34,0.261917388949794,1
1024,259,34,0.182328118033983,1
1005,229,35,0.129078682475682,1
1006,228,35,0.115141443003542,1
1007,226,35,0.130051628373319,1
1007,227,35,0.143539403702346,1
1008,225,35,0.155269340254237,1
1008,226,35,0.208563586792874,1
1009,221,35,0.133687830388237,1
1009,222,35,0.145142635764669,1
1009,223,35,0.119720913210329,1
1009,224,35,0.117315087636852,1
1009,225,35,0.159263570814021,1
1009,226,35,0.193261761698763,1
1009,227,35,0.194832701590763,1
1010,221,35,0.130423129654454,1
1010,222,35,0.128660497692299,1
1010,228,35,0.122337980453792,1
1010,232,35,0.163698656626872,1
1010,241,35,0.136996046646947,1
1010,250,35,0.177128631090854,1
1010,251,35,0.157372429675143,1
1010,252,35,0.143991812062301,1
1011,232,35,0.114152221475202,1
1011,233,35,0.13003296203854,1
1011,241,35,0.167920145396262,1
1011,242,35,0.177589401026641,1
1011,251,35,0.159413113475864,1
1011,252,35,0.130937554997971,1
1011,253,35,0.118472235516997,1
1012,241,35,0.236422049197534,1
1012,243,35,0.235779456206447,1
1012,244,35,0.211120014946258,1
1012,251,35,0.148150235706934,1
1012,252,35,0.120554715420008,1
1012,253,35,0.114456959695226,1
1013,240,35,0.183839678960711,1
1013,241,35,0.202665166325169,1
1013,242,35,0.216715086864289,1
1013,243,35,0.210789391171759,1
1013,244,35,0.193040344815371,1
1013,245,35,0.191163218148661,1
1013,250,35,0.160179139813839,1
1013,251,35,0.122104739595562,1
1013,253,35,0.117643155831132,1
1014,241,35,0.118443664836761,1
1014,242,35,0.124901733818678,1
1014,243,35,0.126707999074432,1
1014,244,35,0.124601623907531,1
1014,245,35,0.123645047855536,1
1014,246,35,0.12623096528481,1
1014,255,35,0.118793284698326,1
1014,256,35,0.151778924080472,1
1014,257,35,0.179803004570932,2
1014,258,35,0.171473826901531,2
1014,259,35,0.134461252598919,1
1015,255,35,0.136420887998411,1
1015,256,35,0.223190738709188,2
1015,257,35,0.319193618106152,2
1015,258,35,0.324587588237001,2
1015,259,35,0.216234590675661,2
1015,260,35,0.128296392283872,1
1016,255,35,0.120492015378139,1
1016,256,35,0.210667335718353,2
1016,257,35,0.34972474634512,2
1016,258,35,0.426775913913172,2
1016,259,35,0.325279903162117,2
1016,260,35,0.180944194795793,2
1017,256,35,0.140926646792339,1
1017,257,35,0.25883048358267,2
1017,258,35,0.407824202084261,2
1017,259,35,0.411300968868746,2
1017,260,35,0.266577000739022,2
1017,261,35,0.139399976144777,1
1018,257,35,0.20251793192933,2
1018,258,35,0.381842713247035,2
1018,259,35,0.47410615460973,2
1018,260,35,0.336544311923805,2
1018,261,35,0.173947122148161,2
1019,257,35,0.172393894664683,2
1019,258,35,0.335518711652164,2
1019,259,35,0.468863375902155,2
1019,260,35,0.353341704958758,2
1019,261,35,0.184850628809346,2
1020,257,35,0.15330346311504,1
1020,258,35,0.246072980022287,2
1020,259,35,0.336839675757403,2
1020,260,35,0.279057865684922,2
1020,261,35,0.16959903205456,1
1021,256,35,0.116842835255381,1
1021,257,35,0.187648223652698,1
1021,258,35,0.231385318561436,1
1021,259,35,0.232583355725084,2
1021,260,35,0.200401275557215,1
1022,209,35,0.116516533591206,1
1022,210,35,0.133785225081373,1
1022,211,35,0.118335706293596,1
1022,256,35,0.141624932589211,1
1022,257,35,0.237896795636868,1
1022,258,35,0.270742196082392,2
1022,259,35,0.227086055359944,1
1022,260,35,0.188053041691618,1
1023,209,35,0.146002229313885,1
1023,210,35,0.200427867723733,1
1023,211,35,0.206973733251881,1
1023,212,35,0.147671058527451,1
1023,256,35,0.183050416863419,1
1023,257,35,0.27402594001071,2
1023,258,35,0.282420655947017,1
1023,259,35,0.225284571512342,1
1023,260,35,0.175255390790377,1
1024,210,35,0.218166821304786,1
1024,211,35,0.252998084233431,1
1024,212,35,0.203190084857511,1
1024,255,35,0.117803745194567,1
1024,256,35,0.215663648145643,1
1024,257,35,0.28704269952934,1
1024,258,35,0.262731264699886,1
1024,259,35,0.190595796901987,1
1006,228,36,0.118440555743776,1
1006,229,36,0.149101476838011,1
1007,226,36,0.126588463870644,1
1007,227,36,0.141563810647569,1
1007,228,36,0.156723924696637,1
1008,225,36,0.138589044611527,1
1008,226,36,0.189657722308628,1
1008,227,36,0.196254605226216,1
1008,240,36,0.144791131604326,1
1009,221,36,0.151233125162285,1
1009,222,36,0.15222393656772,1
1009,223,36,0.116738739524712,1
1009,225,36,0.132901865813808,1
1009,226,36,0.160444661065526,1
1009,227,36,0.163067498973999,1
1009,228,36,0.182796189627538,1
1009,240,36,0.161552063457907,1
1009,248,36,0.174025391208691,1
1010,221,36,0.139557409307758,1
1010,222,36,0.123926526762507,1
1010,229,36,0.148355117868542,1
1010,241,36,0.136310291436955,1
1010,250,36,0.147942091353066,1
1010,251,36,0.136723647704717,1
1010,252,36,0.143662377751406,1
1010,253,36,0.153136643788767,1
1011,230,36,0.124869088342333,1
1011,231,36,0.159997304981671,1
1011,232,36,0.169354732717871,1
1011,241,36,0.160262060736979,1
1011,242,36,0.160819612968799,1
1011,251,36,0.141524004835864,1
1011,252,36,0.131512937406986,1
1011,253,36,0.138836347049395,1
1011,254,36,0.137467144895416,1
1012,233,36,0.123400218559815,1
1012,234,36,0.134975030214731,1
1012,241,36,0.228428924438488,1
1012,242,36,0.239059902611902,1
1012,243,36,0.231579707534218,1
1012,251,36,0.141877098873302,1
1012,252,36,0.126040227140912,1
1012,253,36,0.126525363415284,1
1012,254,36,0.120767429198416,1
1013,240,36,0.177587952471955,1
1013,241,36,0.200696780713222,1
1013,242,36,0.219200406292503,1
1013,243,36,0.221780482395562,1
1013,244,36,0.220128988730763,1
1013,250,36,0.150749060582844,1
1013,251,36,0.12034728945505,1
1013,252,36,0.120000119181898,1
1013,253,36,0.125624586160881,1
1013,254,36,0.118310327144417,1
1014,241,36,0.121072143864704,1
1014,242,36,0.131384699098212,1
1014,243,36,0.136159135344282,1
1014,244,36,0.134882428706614,1
1014,245,36,0.12595879010306,1
1014,246,36,0.121807361917643,1
1014,255,36,0.115942069777845,1
1014,256,36,0.14798597196088,1
1014,257,36,0.179137858878835,1
1014,258,36,0.174165771467722,2
1014,259,36,0.136287986050159,1
1015,255,36,0.122794970015154,1
1015,256,36,0.207188849511232,1
1015,257,36,0.312606792633296,2
1015,258,36,0.338905008541526,2
1015,259,36,0.232267688572142,2
1015,260,36,0.13297659003726,1
1016,256,36,0.181864910286651,2
1016,257,36,0.312132114217147,2
1016,258,36,0.404596021416186,2
1016,259,36,0.325971252384109,2
1016,260,36,0.181169321392406,2
1017,256,36,0.117644392402206,1
1017,257,36,0.20684503564528,2
1017,258,36,0.332101158956807,2
1017,259,36,0.367939202723038,2
1017,260,36,0.263736985619409,2
1017,261,36,0.141735623365606,1
1018,257,36,0.155458370752367,2
1018,258,36,0.29848802452754,2
1018,259,36,0.418251911526896,2
1018,260,36,0.346429366871842,2
1018,261,36,0.184544936663065,2
1019,257,36,0.131006426118341,1
1019,258,36,0.258579400770377,2
1019,259,36,0.392966741749692,2
1019,260,36,0.336909677457041,2
1019,261,36,0.184383381596506,2
1020,257,36,0.116039064057491,1
1020,258,36,0.188574945345914,1
1020,259,36,0.270493939718267,2
1020,260,36,0.24194111321357,2
1020,261,36,0.157181997729797,1
1021,257,36,0.135771970829547,1
1021,258,36,0.185163940588813,1
1021,259,36,0.208639759571013,1
1021,260,36,0.187228649198966,1
1022,208,36,0.115141831640165,1
1022,209,36,0.121328396721772,1
1022,210,36,0.148651541620203,1
1022,211,36,0.12600170500775,1
1022,257,36,0.171496250057,1
1022,258,36,0.221755209238189,1
1022,259,36,0.218529595927201,1
1022,260,36,0.188732826029854,1
1023,209,36,0.165637423417387,1
1023,210,36,0.239229866361762,1
1023,211,36,0.229703723223643,1
1023,212,36,0.138955528947163,1
1023,256,36,0.134839160495902,1
1023,257,36,0.21776440574681,1
1023,258,36,0.242772442281102,1
1023,259,36,0.216370095311601,1
1023,260,36,0.174857756640552,1
1024,209,36,0.174718377415247,1
1024,210,36,0.257724094000883,1
1024,211,36,0.275818402777909,1
1024,212,36,0.18724729198001,1
1024,256,36,0.167104950637025,1
1024,257,36,0.246986841376337,1
1024,258,36,0.240379641922934,1
1024,259,36,0.188473687840281,1
1006,228,37,0.127107164217015,1
1006,229,37,0.144109592512852,1
1006,230,37,0.157783513007503,1
1007,226,37,0.123861259363552,1
1007,227,37,0.146068780391384,1
1007,228,37,0.159873070807803,1
1007,229,37,0.1742426155273,1
1008,225,37,0.119235659167283,1
1008,226,37,0.165383478826323,1
1008,227,37,0.174666158785336,1
1008,228,37,0.174997336072601,1
1009,221,37,0.148408172656036,1
1009,222,37,0.138902238622321,1
1009,226,37,0.130609133497669,1
1009,227,37,0.135486487787671,1
1009,228,37,0.149954946416196,1
1009,229,37,0.18643882181204,1
1009,240,37,0.168032920678182,1
1009,241,37,0.155420402131971,1
1009,249,37,0.130418395353771,1
1010,221,37,0.137148910385388,1
1010,229,37,0.146830072428676,1
1010,241,37,0.139237149176543,1
1010,242,37,0.139125904887381,1
1010,246,37,0.132309830914333,1
1010,249,37,0.141706346073329,1
1010,250,37,0.119200564102525,1
1010,251,37,0.114404658627243,1
1010,252,37,0.133917267318307,1
1010,253,37,0.161194600202675,1
1011,230,37,0.145229655037654,1
1011,241,37,0.15651993757695,1
1011,242,37,0.148486842130057,1
1011,243,37,0.154656483853255,1
1011,250,37,0.147348148601078,1
1011,251,37,0.125228954078508,1
1011,252,37,0.128125769029439,1
1011,253,37,0.15360763604543,1
1011,254,37,0.153959835040948,1
1012,231,37,0.12186940245494,1
1012,232,37,0.164711526104887,1
1012,241,37,0.217009202349947,1
1012,242,37,0.225079112284234,1
1012,251,37,0.140609330877966,1
1012,252,37,0.130935623591722,1
1012,253,37,0.135260619248414,1
1012,254,37,0.127869410180565,1
1013,240,37,0.177333913665952,1
1013,241,37,0.209461832020794,1
1013,242,37,0.238928637648214,1
1013,243,37,0.25333457288788,1
1013,250,37,0.139541628305484,1
1013,251,37,0.122660089553184,1
1013,252,37,0.126726147227047,1
1013,253,37,0.130505791486512,1
1013,254,37,0.120061523768356,1
1014,241,37,0.13942278793687,1
1014,242,37,0.163993808476857,1
1014,243,37,0.171421926247038,1
1014,244,37,0.161424967505268,1
1014,245,37,0.135315570111554,1
1014,255,37,0.117797338578719,1
1014,256,37,0.146378559110641,1
1014,257,37,0.177710608545596,1
1014,258,37,0.173931176269744,2
1014,259,37,0.136675645193323,1
1015,256,37,0.193441641570947,1
1015,257,37,0.305357494817236,2
1015,258,37,0.339652203668579,2
1015,259,37,0.238431371200453,2
1015,260,37,0.138010847531211,1
1016,256,37,0.162768036790557,1
1016,257,37,0.286881380000128,2
1016,258,37,0.375407361842271,2
1016,259,37,0.311868924785199,2
1016,260,37,0.180896215838134,2
1017,257,37,0.174676451767416,1
1017,258,37,0.272447109617574,2
1017,259,37,0.322322472674841,2
1017,260,37,0.25560948680369,2
1017,261,37,0.142939513632336,1
1018,257,37,0.123769187814466,1
1018,258,37,0.234355962693899,2
1018,259,37,0.36920309612901,2
1018,260,37,0.352065775594336,2
1018,261,37,0.191503710938015,2
1019,258,37,0.19872533311576,2
1019,259,37,0.322994319404471,2
1019,260,37,0.317446095864831,2
1019,261,37,0.181923924169034,1
1020,208,37,0.115163030001428,1
1020,258,37,0.1512893125965,1
1020,259,37,0.213429741282009,2
1020,260,37,0.207547502230068,1
1021,208,37,0.122748545603987,1
1021,258,37,0.155995183920751,1
1021,259,37,0.191202482224467,1
1021,260,37,0.17614390832585,1
1022,208,37,0.116095157276766,1
1022,209,37,0.120942539439316,1
1022,210,37,0.154280389593847,1
1022,211,37,0.129836288353488,1
1022,257,37,0.130883357854341,1
1022,258,37,0.187260953146157,1
1022,259,37,0.213013146375721,1
1023,209,37,0.181784686266138,1
1023,210,37,0.268504214422649,1
1023,211,37,0.243961623240489,1
1023,212,37,0.127604136243093,1
1023,257,37,0.176960999160733,1
1023,258,37,0.214403476229759,1
1023,259,37,0.20984231905173,1
1023,260,37,0.170691430717914,1
1024,209,37,0.197815263913003,1
1024,210,37,0.28997473909057,1
1024,211,37,0.285626319244683,1
1024,212,37,0.164727719297518,1
1024,257,37,0.211019016531707,1
1024,258,37,0.221867065924454,1
1024,259,37,0.186314752514314,1
1006,228,38,0.125156773658408,1
1006,229,38,0.132697313404487,1
1006,230,38,0.134278428509893,1
1007,226,38,0.117734614983115,1
1007,227,38,0.146384082461437,1
1007,228,38,0.15848665087373,1
1007,229,38,0.162206056456606,1
1007,230,38,0.156615447971307,1
1008,226,38,0.136785311382258,1
1008,227,38,0.15431586151836,1
1008,228,38,0.152668254219793,1
1008,229,38,0.160192341682159,1
1008,230,38,0.164272790687946,1
1009,221,38,0.128804187251061,1
1009,222,38,0.115745690514478,1
1009,227,38,0.117522395833137,1
1009,228,38,0.127523888668845,1
1009,229,38,0.157725912349204,1
1009,230,38,0.194913125818021,1
1009,240,38,0.169326821542208,1
1009,241,38,0.137084184722332,1
1009,242,38,0.144562577939308,1
1010,220,38,0.115357089221924,1
1010,221,38,0.122480209681,1
1010,229,38,0.142575855744869,1
1010,241,38,0.143306398381463,1
1010,242,38,0.126069245342108,1
1010,243,38,0.153193526058156,1
1010,245,38,0.131744741487398,1
1010,248,38,0.115791761619623,1
1010,252,38,0.121308105179297,1
1010,253,38,0.157622746991057,1
1011,230,38,0.159158580041432,1
1011,241,38,0.153089241897609,1
1011,242,38,0.135399444960952,1
1011,243,38,0.139298518432399,1
1011,244,38,0.150708807250179,1
1011,249,38,0.146001240057026,1
1011,250,38,0.122521193179441,1
1011,252,38,0.122662586249066,1
1011,253,38,0.157595613088641,1
1011,254,38,0.162535655643644,1
1012,231,38,0.155417281262118,1
1012,240,38,0.204473103896089,1
1012,241,38,0.198467561042801,1
1012,242,38,0.200036239776266,1
1012,243,38,0.206536034199269,1
1012,250,38,0.151450490803303,1
1012,251,38,0.136304991846639,1
1012,252,38,0.130414167458386,1
1012,253,38,0.137050455774189,1
1012,254,38,0.132145896920566,1
1013,232,38,0.13735475825012,1
1013,235,38,0.121263411967634,1
1013,238,38,0.117942229377952,1
1013,239,38,0.142841506542097,1
1013,240,38,0.174895148194446,1
1013,241,38,0.213202989477699,1
1013,242,38,0.2517891416906,1
1013,243,38,0.270590910444178,1
1013,244,38,0.269603090363055,1
1013,249,38,0.152081036059072,1
1013,250,38,0.125182082146382,1
1013,251,38,0.121760913952743,1
1013,252,38,0.124386272110833,1
1013,253,38,0.124841601133896,1
1013,254,38,0.115845558349761,1
1014,240,38,0.114780293588824,1
1014,241,38,0.158372780343146,1
1014,242,38,0.201910504664205,1
1014,243,38,0.206761090134678,1
1014,244,38,0.176604407393687,1
1014,245,38,0.132754242781346,1
1014,255,38,0.116255569987191,1
1014,256,38,0.141137193627151,1
1014,257,38,0.171108049177937,1
1014,258,38,0.167522664345713,1
1014,259,38,0.134084569496142,1
1015,242,38,0.126390706713794,1
1015,243,38,0.119204980427789,1
1015,256,38,0.177070370927983,1
1015,257,38,0.285152771407801,1
1015,258,38,0.312759632818003,2
1015,259,38,0.222708216899371,1
1015,260,38,0.139251787822681,1
1016,256,38,0.142085219673436,1
1016,257,38,0.25683691902829,2
1016,258,38,0.326026532999536,2
1016,259,38,0.271093217391173,2
1016,260,38,0.17248726166918,1
1017,257,38,0.147646550866457,1
1017,258,38,0.22102648023917,2
1017,259,38,0.267941492146054,2
1017,260,38,0.231965706139083,1
1017,261,38,0.138496784632564,1
1018,258,38,0.180167863698871,1
1018,259,38,0.304502588461233,2
1018,260,38,0.317277827983872,2
1018,261,38,0.18118975425729,1
1019,258,38,0.149562882724636,1
1019,259,38,0.250590374361176,2
1019,260,38,0.269604856893161,1
1019,261,38,0.166349393934141,1
1020,258,38,0.12193648349147,1
1020,259,38,0.167925244779833,1
1020,260,38,0.173579248142176,1
1021,258,38,0.130253177681461,1
1021,259,38,0.165800132616948,1
1021,260,38,0.158248393070001,1
1022,208,38,0.115881795770654,1
1022,209,38,0.119097092545827,1
1022,210,38,0.151706084155798,1
1022,211,38,0.12575235339496,1
1022,258,38,0.15665369923652,1
1022,259,38,0.191875930608059,1
1022,260,38,0.170476361566033,1
1023,209,38,0.199397486043941,1
1023,210,38,0.283554697613385,1
1023,211,38,0.235804800025023,1
1023,257,38,0.144111594580304,1
1023,258,38,0.186372647594297,1
1023,259,38,0.191105417283617,1
1024,209,38,0.230811738013128,1
1024,210,38,0.315123108776423,1
1024,211,38,0.272390345116859,1
1024,212,38,0.137976647508373,1
1024,257,38,0.17465951663214,1
1024,258,38,0.201062381783805,1
1006,229,39,0.123905999682684,1
1007,226,39,0.118754962771909,1
1007,227,39,0.142832308808682,1
1007,228,39,0.147846910710995,1
1007,229,39,0.144538482468673,1
1007,230,39,0.136116349985133,1
1007,231,39,0.130458483810293,1
1007,232,39,0.133648707634839,1
1008,226,39,0.114222823795076,1
1008,227,39,0.132869361659871,1
1008,228,39,0.130752787725828,1
1008,229,39,0.132074764641661,1
1008,230,39,0.136736932011108,1
1008,231,39,0.140774395451001,1
1008,232,39,0.144682478225985,1
1008,233,39,0.145327897665241,1
1008,234,39,0.151943199603393,1
1009,229,39,0.128628370398118,1
1009,230,39,0.163141010180113,1
1009,233,39,0.142646776040161,1
1009,240,39,0.162978701394042,1
1009,241,39,0.118638677983514,1
1010,229,39,0.130706410422132,1
1010,241,39,0.145568133982688,1
1010,242,39,0.113949682910201,1
1010,243,39,0.122528954135037,1
1010,244,39,0.12588656257549,1
1011,241,39,0.15398515530579,1
1011,242,39,0.123849034975223,1
1011,243,39,0.122848366331802,1
1011,244,39,0.126201370017113,1
1011,245,39,0.122952815368492,1
1011,246,39,0.124838668693921,1
1011,247,39,0.130743637099883,1
1011,248,39,0.126259488857576,1
1011,252,39,0.119840354199179,1
1011,253,39,0.151977682271047,1
1012,230,39,0.142917373121684,1
1012,240,39,0.187342460845214,1
1012,241,39,0.174624786650271,1
1012,242,39,0.167786124645611,1
1012,243,39,0.171725098143702,1
1012,244,39,0.178381819324388,1
1012,249,39,0.138291042759638,1
1012,250,39,0.125402815971467,1
1012,251,39,0.129829716861497,1
1012,252,39,0.132192274224262,1
1012,253,39,0.136825317400708,1
1012,254,39,0.129251755318528,1
1013,231,39,0.144862252106363,1
1013,235,39,0.129298026630418,1
1013,239,39,0.133852070580556,1
1013,240,39,0.166476831415934,1
1013,241,39,0.20559308398282,1
1013,242,39,0.246554112161754,1
1013,243,39,0.257096881598579,1
1013,244,39,0.238057173016691,1
1013,245,39,0.202579996020361,1
1013,246,39,0.180363194821042,1
1013,247,39,0.175931524299729,1
1013,248,39,0.151804833188682,1
1013,249,39,0.119131810750829,1
1013,251,39,0.121837392929433,1
1013,252,39,0.124284084232678,1
1013,253,39,0.118164117336039,1
1014,240,39,0.123529410794846,1
1014,241,39,0.186546309280511,1
1014,242,39,0.248641467687856,1
1014,243,39,0.237737525282579,1
1014,244,39,0.18073401304387,1
1014,245,39,0.127424433023919,1
1014,256,39,0.12618375182353,1
1014,257,39,0.15061791338783,1
1014,258,39,0.14886873060821,1
1015,241,39,0.131524184315323,1
1015,242,39,0.170490976658437,1
1015,243,39,0.150719689075627,1
1015,256,39,0.154363004318436,1
1015,257,39,0.240690245022907,1
1015,258,39,0.255116342259508,1
1015,259,39,0.188305855703414,1
1016,256,39,0.123742442548672,1
1016,257,39,0.218564078594856,1
1016,258,39,0.262772695719288,2
1016,259,39,0.220557007198398,1
1016,260,39,0.162799681233176,1
1017,257,39,0.128724304759701,1
1017,258,39,0.181703838071654,1
1017,259,39,0.216776821203034,1
1017,260,39,0.200991649918391,1
1018,258,39,0.140461095448401,1
1018,259,39,0.23094078892575,1
1018,260,39,0.250179385243755,1
1018,261,39,0.155351660557142,1
1019,258,39,0.116274248098837,1
1019,259,39,0.185418309147102,1
1019,260,39,0.20700699112533,1
1020,259,39,0.138792996400612,1
1020,260,39,0.147014898585155,1
1021,258,39,0.114845973178137,1
1021,259,39,0.144553179999148,1
1021,260,39,0.141129538663361,1
1022,209,39,0.121898997722637,1
1022,210,39,0.145266481301915,1
1022,211,39,0.120246126164355,1
1022,258,39,0.137299183213008,1
1022,259,39,0.167723554149282,1
1023,208,39,0.148390542685586,1
1023,209,39,0.225776467708583,1
1023,210,39,0.28625772421177,1
1023,211,39,0.21148128212965,1
1023,257,39,0.124454577941569,1
1023,258,39,0.165436062539123,1
1024,208,39,0.178346724259631,1
1024,209,39,0.279826400495646,1
1024,210,39,0.336165450100565,1
1024,211,39,0.243070444132991,1
1024,257,39,0.155160086255661,1
1007,226,40,0.116265321233372,1
1007,227,40,0.13251995378192,1
1007,228,40,0.129463267856463,1
1007,229,40,0.122053545553111,1
1007,230,40,0.11649445196489,1
1008,227,40,0.115203931061799,1
1008,230,40,0.115088717968334,1
1008,231,40,0.118469927250993,1
1008,232,40,0.123691142514416,1
1008,233,40,0.129221288562646,1
1008,234,40,0.134675756461166,1
1009,230,40,0.132289880901011,1
1009,231,40,0.144930381284089,1
1009,232,40,0.137723597959229,1
1009,233,40,0.13304483698366,1
1009,234,40,0.13911771996456,1
1010,229,40,0.118169817339845,1
1010,230,40,0.172604406168893,1
1010,241,40,0.140001444315014,1
1011,224,40,0.12112326724595,1
1011,225,40,0.131172797923653,1
1011,229,40,0.118787172504161,1
1011,241,40,0.156748985870397,1
1011,242,40,0.117307291350654,1
1012,237,40,0.126610792811174,1
1012,240,40,0.173468851787465,1
1012,241,40,0.157673634834956,1
1012,242,40,0.144680028637573,1
1012,243,40,0.141217323432725,1
1012,244,40,0.136024148890506,1
1012,245,40,0.131547537843315,1
1012,246,40,0.13097425171669,1
1012,247,40,0.127813210969483,1
1012,248,40,0.114450553079378,1
1012,251,40,0.113779907590219,1
1012,252,40,0.123908720139046,1
1012,253,40,0.126216314861804,1
1013,230,40,0.114380916462629,1
1013,235,40,0.123590921373111,1
1013,239,40,0.129970780178835,1
1013,240,40,0.157412058833838,1
1013,241,40,0.195318155840554,1
1013,242,40,0.235093995418139,1
1013,243,40,0.229668533943947,1
1013,244,40,0.190278151235327,1
1013,245,40,0.153939979242565,1
1013,246,40,0.136525289927632,1
1013,247,40,0.127474755578184,1
1013,252,40,0.113848425404568,1
1014,240,40,0.135315534780952,1
1014,241,40,0.216423350305841,1
1014,242,40,0.292469715550025,1
1014,243,40,0.260622852134929,1
1014,244,40,0.176007084680764,1
1014,245,40,0.11828901101448,1
1014,257,40,0.12993338862494,1
1014,258,40,0.130685188507134,1
1015,241,40,0.162313178842189,1
1015,242,40,0.216408275915609,1
1015,243,40,0.183697909031331,1
1015,244,40,0.119770953119777,1
1015,256,40,0.130108192667289,1
1015,257,40,0.188798588057239,1
1015,258,40,0.19409629407422,1
1015,259,40,0.15397687616803,1
1016,242,40,0.124751366776119,1
1016,257,40,0.177884340893014,1
1016,258,40,0.202323001220649,1
1016,259,40,0.177864591086438,1
1017,258,40,0.148713063975335,1
1017,259,40,0.173072619084856,1
1017,260,40,0.168270365878063,1
1018,241,40,0.115313938779886,1
1018,259,40,0.165495064644638,1
1018,260,40,0.179602809602537,1
1019,259,40,0.132545450699772,1
1019,260,40,0.147604742987299,1
1020,260,40,0.120360514877104,1
1021,259,40,0.118850649819277,1
1021,260,40,0.120091637218217,1
1022,209,40,0.117973390969008,1
1022,210,40,0.128496398822389,1
1022,258,40,0.113894873369469,1
1022,259,40,0.13513076750881,1
1023,208,40,0.145537502350663,1
1023,209,40,0.233104340783725,1
1023,210,40,0.257115606817694,1
1023,211,40,0.169031222171262,1
1023,258,40,0.140341654459551,1
1024,208,40,0.181109659782318,1
1024,209,40,0.307740967896448,1
1024,210,40,0.325789723750493,1
1024,211,40,0.198704676490396,1
1007,227,41,0.120264168325164,1
1007,228,41,0.113800528884981,1
1008,232,41,0.116070060772404,1
1009,231,41,0.122894343222008,1
1009,232,41,0.13073474556502,1
1009,233,41,0.133674604966182,1
1009,234,41,0.133176879220594,1
1010,224,41,0.11711349122124,1
1010,225,41,0.133048782234228,1
1010,226,41,0.116431186633387,1
1010,230,41,0.14724910514651,1
1011,224,41,0.152977090789661,1
1011,225,41,0.175471967381281,1
1011,226,41,0.134399047185479,1
1011,229,41,0.12303530054754,1
1011,241,41,0.155620361563018,1
1011,242,41,0.11763797400949,1
1012,225,41,0.13157073827203,1
1012,229,41,0.116733275058253,1
1012,236,41,0.144461673739696,1
1012,237,41,0.123693804086441,1
1012,240,41,0.160790547660134,1
1012,241,41,0.143265744635307,1
1012,242,41,0.129399872979419,1
1012,243,41,0.118523276460171,1
1012,252,41,0.114910168882162,1
1012,253,41,0.116357192575712,1
1013,230,41,0.126205727458039,1
1013,235,41,0.12032222828129,1
1013,239,41,0.123781753731948,1
1013,240,41,0.141545792040496,1
1013,241,41,0.170804995049947,1
1013,242,41,0.199576117568184,1
1013,243,41,0.183424344179231,1
1013,244,41,0.139988513314644,1
1014,232,41,0.116593401204519,1
1014,240,41,0.137935993762217,1
1014,241,41,0.216352218026936,1
1014,242,41,0.2809920983815,1
1014,243,41,0.240184781875458,1
1014,244,41,0.155480322833141,1
1014,257,41,0.123140079336516,1
1015,241,41,0.171263280066719,1
1015,242,41,0.219844836474899,1
1015,243,41,0.184561306508707,1
1015,244,41,0.121183611914346,1
1015,257,41,0.148930288293945,1
1015,258,41,0.14969514872205,1
1016,241,41,0.123613356305448,1
1016,242,41,0.135221060750923,1
1016,243,41,0.11527803111128,1
1016,257,41,0.147799473489235,1
1016,258,41,0.160411332530873,1
1016,259,41,0.154370470852347,1
1017,240,41,0.123423136343714,1
1017,241,41,0.13998969100138,1
1017,242,41,0.115913145791588,1
1017,258,41,0.130307209948947,1
1017,259,41,0.14653877161432,1
1017,260,41,0.142840964806198,1
1018,240,41,0.142595994188069,1
1018,241,41,0.167019803885952,1
1018,242,41,0.119062044588539,1
1018,259,41,0.1228013413004,1
1018,260,41,0.128049502036362,1
1023,209,41,0.227760587215334,1
1023,210,41,0.219589325560475,1
1023,211,41,0.133851375745382,1
1024,208,41,0.176840415815749,1
1024,209,41,0.31134998890148,1
1024,210,41,0.294094428618428,1
1024,211,41,0.161278345506532,1
1009,232,42,0.132461988040733,1
1009,233,42,0.15503335538591,1
1010,224,42,0.130538707830807,1
1010,225,42,0.16143909974611,1
1010,226,42,0.14326640413988,1
1010,230,42,0.128057710512917,1
1011,224,42,0.169099316018386,1
1011,225,42,0.211201887728203,1
1011,226,42,0.170903638091024,1
1011,227,42,0.120962324576494,1
1011,229,42,0.128817141805166,1
1012,224,42,0.121718788098166,1
1012,225,42,0.151193743317805,1
1012,226,42,0.132010839805586,1
1012,229,42,0.128936500355944,1
1012,236,42,0.133862563769381,1
1012,237,42,0.120836948046491,1
1012,240,42,0.14130948919675,1
1012,241,42,0.124953928894855,1
1012,242,42,0.117463688149306,1
1013,230,42,0.132113380989762,1
1013,233,42,0.162561470536916,1
1013,234,42,0.131937022400921,1
1013,235,42,0.115652794584676,1
1013,240,42,0.121055420713041,1
1013,241,42,0.138838890852747,1
1013,242,42,0.155597102249966,1
1013,243,42,0.140651857146034,1
1014,240,42,0.129466730255469,1
1014,241,42,0.187534082254164,1
1014,242,42,0.226847456027062,1
1014,243,42,0.194020474602102,1
1014,244,42,0.130370310404306,1
1014,257,42,0.119048065446973,1
1015,241,42,0.163125924013014,1
1015,242,42,0.193194727769703,1
1015,243,42,0.164664842602639,1
1015,244,42,0.114412867103799,1
1015,257,42,0.122416273068057,1
1015,258,42,0.123320194746047,1
1016,240,42,0.115748952706739,1
1016,241,42,0.152676886663574,1
1016,242,42,0.150729711189758,1
1016,243,42,0.118491102058521,1
1016,257,42,0.123114664856735,1
1016,258,42,0.13128871762916,1
1016,259,42,0.137115287429051,1
1017,240,42,0.157438333024936,1
1017,241,42,0.211776693070717,1
1017,242,42,0.17283251231295,1
1017,258,42,0.11631178097514,1
1017,259,42,0.125450983359004,1
1018,240,42,0.169636882906282,1
1018,241,42,0.234688871180668,1
1018,242,42,0.176716464286697,1
1019,241,42,0.139328219691902,1
1023,209,42,0.197399905577788,1
1023,210,42,0.175936282154145,1
1024,208,42,0.15851551597565,1
1024,209,42,0.27009201878872,1
1024,210,42,0.237071166573143,1
1009,232,43,0.141315624944649,1
1010,224,43,0.133002028070776,1
1010,225,43,0.170914025288043,1
1010,226,43,0.157521407047353,1
1010,227,43,0.118185021275618,1
1010,231,43,0.14130384807728,1
1011,224,43,0.161667205890167,1
1011,225,43,0.212152422247237,1
1011,226,43,0.191946344498055,1
1011,227,43,0.142771175090173,1
1011,228,43,0.119024759026451,1
1011,229,43,0.135049848653122,1
1011,230,43,0.173118266222776,1
1012,224,43,0.121389506886547,1
1012,225,43,0.15849851017917,1
1012,226,43,0.15732733604999,1
1012,227,43,0.136577614549349,1
1012,228,43,0.121265037175331,1
1012,229,43,0.142415384150108,1
1012,230,43,0.193267956330999,1
1012,236,43,0.122613453158405,1
1012,237,43,0.117433739575588,1
1012,239,43,0.151574171464405,1
1012,240,43,0.122693323872897,1
1013,226,43,0.122451061934263,1
1013,227,43,0.125258042940908,1
1013,228,43,0.115135213040704,1
1013,229,43,0.121804912329231,1
1013,230,43,0.14278013728624,1
1013,231,43,0.165981072407195,1
1013,233,43,0.140872437871843,1
1013,234,43,0.122092232562416,1
1013,235,43,0.116032280581887,1
1013,241,43,0.113822009891061,1
1013,242,43,0.122239172536571,1
1014,241,43,0.147239754313819,1
1014,242,43,0.161436614827095,1
1014,243,43,0.140756023537907,1
1015,241,43,0.144633062490508,1
1015,242,43,0.155425489738674,1
1015,243,43,0.134998089321038,1
1015,257,43,0.114840461604209,1
1016,240,43,0.130139660456897,1
1016,241,43,0.181298183875151,1
1016,242,43,0.166273986652381,1
1016,243,43,0.120656832636959,1
1016,258,43,0.115455720486134,1
1017,240,43,0.178569389490964,1
1017,241,43,0.275206759394266,1
1017,242,43,0.227777734334223,1
1017,243,43,0.131342926549657,1
1018,240,43,0.169622774219175,1
1018,241,43,0.265983705714739,1
1018,242,43,0.216331938261327,1
1018,243,43,0.124820167235285,1
1019,241,43,0.140385853042785,1
1019,242,43,0.119194239924749,1
1023,209,43,0.156557552891325,1
1023,210,43,0.14190995633326,1
1024,209,43,0.210913896213577,1
1024,210,43,0.184725299386811,1
1009,225,44,0.120749387037607,1
1009,226,44,0.115112860546439,1
1010,224,44,0.133390122958033,1
1010,225,44,0.170273599240552,1
1010,226,44,0.162419076433565,1
1010,227,44,0.124803738505306,1
1010,231,44,0.128853025920037,1
1011,224,44,0.145344561932567,1
1011,225,44,0.193747510370238,1
1011,226,44,0.195937713279068,1
1011,227,44,0.157626268274401,1
1011,228,44,0.125095333741347,1
1011,229,44,0.130002860365546,1
1011,230,44,0.147142724703572,1
1011,231,44,0.178046049058849,1
1011,236,44,0.13786532078114,1
1012,224,44,0.121216469374304,1
1012,225,44,0.169416726147698,1
1012,226,44,0.186851789443178,1
1012,227,44,0.162561576528722,1
1012,228,44,0.129850703239147,1
1012,229,44,0.141005810894789,1
1012,230,44,0.174023907323403,1
1012,231,44,0.199952176496991,1
1012,235,44,0.125948979972542,1
1012,236,44,0.114975966240149,1
1012,237,44,0.116208874708075,1
1012,238,44,0.135639999253818,1
1012,239,44,0.134693245109208,1
1013,225,44,0.143024283523654,1
1013,226,44,0.171816251097133,1
1013,227,44,0.163461270311328,1
1013,228,44,0.128420320259189,1
1013,229,44,0.12513997984554,1
1013,230,44,0.147635904578356,1
1013,231,44,0.15755364033334,1
1013,232,44,0.144027048449467,1
1013,233,44,0.121239033852181,1
1013,235,44,0.116729565345032,1
1014,226,44,0.130303782880543,1
1014,227,44,0.136958372448235,1
1014,228,44,0.1200012733149,1
1015,241,44,0.119737271279103,1
1015,242,44,0.119866710828349,1
1016,231,44,0.127022099904014,1
1016,232,44,0.135860603533362,1
1016,240,44,0.126721895777927,1
1016,241,44,0.183780429540981,1
1016,242,44,0.166184553121586,1
1016,243,44,0.116307388203611,1
1017,231,44,0.127739440672288,1
1017,232,44,0.146778737063818,1
1017,233,44,0.118141387982018,1
1017,240,44,0.170325523448779,1
1017,241,44,0.28312747997273,1
1017,242,44,0.242008429787447,1
1017,243,44,0.137909531141241,1
1018,212,44,0.127087343749234,1
1018,240,44,0.144798609915105,1
1018,241,44,0.24055092468194,1
1018,242,44,0.210074111355274,1
1018,243,44,0.127489323563119,1
1019,241,44,0.12085315301599,1
1023,209,44,0.120499646788194,1
1023,210,44,0.114696406962559,1
1024,210,44,0.140306300303711,1
1009,224,45,0.124986809908547,1
1009,225,45,0.142304787588652,1
1009,226,45,0.126779025361531,1
1010,224,45,0.13512208795756,1
1010,225,45,0.16337766632988,1
1010,226,45,0.157042559620156,1
1010,227,45,0.125394666379248,1
1010,231,45,0.114988661703172,1
1011,224,45,0.125513789392679,1
1011,225,45,0.164618453522075,1
1011,226,45,0.179834590129214,1
1011,227,45,0.158264974899256,1
1011,228,45,0.123722186336799,1
1011,229,45,0.117278685339816,1
1011,230,45,0.122409254055105,1
1011,231,45,0.138059344671033,1
1011,232,45,0.174415452832798,1
1012,224,45,0.119676255329268,1
1012,225,45,0.176756399643943,1
1012,226,45,0.20376764598699,1
1012,227,45,0.176000312982027,1
1012,228,45,0.131005955043646,1
1012,229,45,0.128390524784747,1
1012,230,45,0.147295635549482,1
1012,231,45,0.153771299171248,1
1012,232,45,0.149952402612844,1
1012,233,45,0.130178618334152,1
1012,234,45,0.114984516245859,1
1012,235,45,0.114176422937644,1
1013,224,45,0.119475612839913,1
1013,225,45,0.186552598127685,1
1013,226,45,0.2182179564629,1
1013,227,45,0.191507279328828,1
1013,228,45,0.135071682965223,1
1013,229,45,0.120282092717298,1
1013,230,45,0.142549923082924,1
1013,231,45,0.144940768481108,1
1013,232,45,0.122865595888762,1
1014,225,45,0.149509356862447,1
1014,226,45,0.165329811641725,1
1014,227,45,0.159438080434685,1
1014,228,45,0.13087007354795,1
1014,229,45,0.11508417209753,1
1014,230,45,0.122652422812527,1
1014,231,45,0.119121352892606,1
1015,225,45,0.119398132829497,1
1015,226,45,0.118973847628817,1
1015,227,45,0.115616934023539,1
1015,228,45,0.116064949611966,1
1015,229,45,0.118992619955402,1
1015,230,45,0.123527785587149,1
1015,231,45,0.124643938191985,1
1015,232,45,0.121244745632855,1
1016,228,45,0.114252678153855,1
1016,229,45,0.121610700009459,1
1016,230,45,0.13265071234031,1
1016,231,45,0.158663362768593,1
1016,232,45,0.164886459692776,1
1016,233,45,0.124600681758141,1
1016,240,45,0.115948052426468,1
1016,241,45,0.170153404532191,1
1016,242,45,0.159657047729665,1
1017,228,45,0.114878736423156,1
1017,230,45,0.12081645629727,1
1017,231,45,0.165064525927386,1
1017,232,45,0.183522822344166,1
1017,233,45,0.133567011505905,1
1017,240,45,0.147814748086212,1
1017,241,45,0.247701956316678,1
1017,242,45,0.225352665359466,1
1017,243,45,0.138920763634692,1
1018,212,45,0.130504708014714,1
1018,232,45,0.119524204194675,1
1018,240,45,0.118374605286513,1
1018,241,45,0.191708581322755,1
1018,242,45,0.181069112027969,1
1018,243,45,0.123883529419745,1
1009,224,46,0.147440161265827,1
1010,224,46,0.134066739318947,1
1010,225,46,0.152675555877561,1
1010,226,46,0.144884416170751,1
1010,227,46,0.117750466646593,1
1011,225,46,0.144187296283748,1
1011,226,46,0.162207328358282,1
1011,227,46,0.147109761251808,1
1011,228,46,0.116120995723772,1
1012,224,46,0.125965785562277,1
1012,225,46,0.186116053208075,1
1012,226,46,0.21377136465063,1
1012,227,46,0.177023463665255,1
1012,228,46,0.128337269790507,1
1012,229,46,0.114124157200264,1
1012,230,46,0.123622954452353,1
1012,231,46,0.123853192209404,1
1012,232,46,0.11899168958288,1
1013,224,46,0.151873727862787,1
1013,225,46,0.235677562749976,1
1013,226,46,0.261140186364686,1
1013,227,46,0.204364332749075,1
1013,228,46,0.136218361210278,1
1013,229,46,0.115552173029881,1
1013,230,46,0.134766367678698,1
1013,231,46,0.134274106399569,1
1014,224,46,0.141164068438485,1
1014,225,46,0.198969349807632,1
1014,226,46,0.205959627202792,1
1014,227,46,0.172826894747216,1
1014,228,46,0.134296282240823,1
1014,229,46,0.120468602965811,1
1014,230,46,0.137283048904714,1
1014,231,46,0.133056036784527,1
1015,224,46,0.115327293747482,1
1015,225,46,0.142722089106982,1
1015,226,46,0.142203624297957,1
1015,227,46,0.139922056452084,1
1015,228,46,0.135993540812216,1
1015,229,46,0.13324540881181,1
1015,230,46,0.141739026880276,1
1015,231,46,0.145620823687294,1
1015,232,46,0.139385160845628,1
1015,233,46,0.119224871556774,1
1016,226,46,0.123116396056238,1
1016,227,46,0.146743795098336,1
1016,228,46,0.154377737179514,1
1016,229,46,0.146498812703339,1
1016,230,46,0.151935226664184,1
1016,231,46,0.186832157405275,1
1016,232,46,0.204701999090261,1
1016,233,46,0.157810752901726,1
1016,241,46,0.147743474484899,1
1016,242,46,0.148465054925425,1
1017,227,46,0.136941189998745,1
1017,228,46,0.140035926982669,1
1017,229,46,0.127017459818271,1
1017,230,46,0.135297045099184,1
1017,231,46,0.188974240034038,1
1017,232,46,0.213186949384343,1
1017,233,46,0.153216514503259,1
1017,240,46,0.120115002523076,1
1017,241,46,0.189753892207558,1
1017,242,46,0.185867137339378,1
1017,243,46,0.130999065576236,1
1018,212,46,0.116663767987045,1
1018,231,46,0.122771475164754,1
1018,232,46,0.136292791012046,1
1018,241,46,0.143572390707844,1
1018,242,46,0.14416920701547,1
1018,243,46,0.113887312620619,1
1010,224,47,0.129374658706384,1
1011,225,47,0.132911122431559,1
1011,226,47,0.151252133026218,1
1012,224,47,0.130835802863908,1
1012,225,47,0.186006669663958,1
1012,226,47,0.210099502281321,1
1012,227,47,0.166947305490432,1
1012,228,47,0.12394660632137,1
1013,224,47,0.177977790335582,1
1013,225,47,0.264505167124112,1
1013,226,47,0.274686952022361,1
1013,227,47,0.19497564920688,1
1013,228,47,0.131124736527923,1
1013,230,47,0.123864721762558,1
1013,231,47,0.123185761805038,1
1014,224,47,0.16897999279821,1
1014,225,47,0.235406718354238,1
1014,226,47,0.230754431776513,1
1014,227,47,0.17248050174731,1
1014,228,47,0.129502402386728,1
1014,229,47,0.122940308335346,1
1014,230,47,0.147818705113648,1
1014,231,47,0.149521051291743,1
1014,232,47,0.115129253945816,1
1015,224,47,0.130767544140641,1
1015,225,47,0.153787303934001,1
1015,226,47,0.158720598344003,1
1015,227,47,0.169207769189981,1
1015,228,47,0.158282569539104,1
1015,229,47,0.141130103952995,1
1015,230,47,0.151834899531073,1
1015,231,47,0.161997817887799,1
1015,232,47,0.157683857155832,1
1015,233,47,0.13142203176777,1
1016,224,47,0.116891049750387,1
1016,225,47,0.118049363540401,1
1016,226,47,0.14151749222821,1
1016,227,47,0.204743924738092,1
1016,228,47,0.208208443580514,1
1016,229,47,0.166804499196723,1
1016,230,47,0.162276552784673,1
1016,231,47,0.199546628292294,1
1016,232,47,0.236999516112074,1
1016,233,47,0.191965952982223,1
1016,241,47,0.123443863630282,1
1016,242,47,0.135259677099024,1
1017,226,47,0.116698780613731,1
1017,227,47,0.15718171508498,1
1017,228,47,0.158658157393216,1
1017,229,47,0.135679098453481,1
1017,230,47,0.143522551005141,1
1017,231,47,0.19154978204316,1
1017,232,47,0.2222829542187,1
1017,233,47,0.166323107966175,1
1017,241,47,0.133852435663445,1
1017,242,47,0.141328332184539,1
1017,243,47,0.116156679631898,1
1018,231,47,0.135271548181331,1
1018,232,47,0.145993431993961,1
1012,224,48,0.131702026789453,1
1012,225,48,0.181890854725463,1
1012,226,48,0.208364675503023,1
1013,224,48,0.193881484013421,1
1013,225,48,0.270775359740901,1
1013,226,48,0.264366435626512,1
1013,227,48,0.173369655233621,1
1014,224,48,0.188348323087145,1
1014,225,48,0.250812603848416,1
1014,226,48,0.23191989412502,1
1014,227,48,0.161088867487442,1
1014,228,48,0.119780174406926,1
1014,229,48,0.118187152888611,1
1014,230,48,0.14487305149374,1
1015,224,48,0.141559323661102,1
1015,225,48,0.158655707804803,1
1015,226,48,0.166427839647681,1
1015,227,48,0.189202840806525,1
1015,228,48,0.173560287385713,1
1015,229,48,0.139182292528341,1
1015,230,48,0.145696313407125,1
1015,231,48,0.165150508836042,1
1015,232,48,0.165878790314101,1
1015,233,48,0.136388560497485,1
1016,224,48,0.127981266866829,1
1016,225,48,0.119284120976504,1
1016,226,48,0.150540056517658,1
1016,227,48,0.243801175199462,1
1016,228,48,0.243809560329029,1
1016,229,48,0.169329153361947,1
1016,230,48,0.151834875977339,1
1016,231,48,0.186990662263186,1
1016,232,48,0.236872608589312,1
1016,233,48,0.200367263964256,1
1017,226,48,0.114206665933046,1
1017,227,48,0.159576164204579,1
1017,228,48,0.161488809903271,1
1017,229,48,0.132040152428465,1
1017,230,48,0.13870596535076,1
1017,231,48,0.174866200654455,1
1017,232,48,0.204289478980082,1
1017,233,48,0.159946287592232,1
1018,231,48,0.135068020359471,1
1018,232,48,0.141506775278904,1
1012,224,49,0.131345788328427,1
1013,224,49,0.195407318503399,1
1013,225,49,0.251570869230795,1
1013,226,49,0.23338884634561,1
1014,224,49,0.201209333534828,1
1014,225,49,0.243915151721853,1
1014,226,49,0.207972859125678,1
1014,227,49,0.145744009719967,1
1015,224,49,0.151120620748315,1
1015,225,49,0.160705212479183,1
1015,226,49,0.15787320562938,1
1015,227,49,0.18289870725798,1
1015,228,49,0.168564516694322,1
1015,229,49,0.127396427633317,1
1015,230,49,0.132168202307362,1
1016,224,49,0.126484309255638,1
1016,225,49,0.115565374898201,1
1016,226,49,0.13877327014777,1
1016,227,49,0.22848248563128,1
1016,228,49,0.229898277072568,1
1016,229,49,0.15058967245988,1
1016,230,49,0.131514715713959,1
1016,231,49,0.164117830667113,1
1016,232,49,0.207532969575735,1
1016,233,49,0.17811661604812,1
1017,227,49,0.138839621018524,1
1017,228,49,0.143461747038919,1
1017,229,49,0.118484459905325,1
1017,230,49,0.125392817411071,1
1017,231,49,0.151391889111278,1
1017,232,49,0.17134552970842,1
1017,233,49,0.139532301026528,1
1017,246,49,0.1144979314168,1
1017,247,49,0.120053244630596,1
1018,231,49,0.131634792653647,1
1018,232,49,0.133710335981778,1
1023,211,49,0.116414310382449,1
1023,212,49,0.120297826612102,1
1023,213,49,0.119011722034274,1
1023,214,49,0.114169262602284,1
1013,224,50,0.185159818685234,1
1014,223,50,0.1328469031738,1
1014,224,50,0.203465592892727,1
1014,225,50,0.21495220758792,1
1014,226,50,0.172226934016002,1
1015,224,50,0.155058699204487,1
1015,225,50,0.154836493270981,1
1015,226,50,0.144357884207579,1
1015,227,50,0.163935713190129,1
1015,228,50,0.154791741174981,1
1015,229,50,0.117980845726052,1
1016,224,50,0.117124985443792,1
1016,226,50,0.121974993847764,1
1016,227,50,0.181478746805642,1
1016,228,50,0.18560350038647,1
1016,229,50,0.128347539218853,1
1016,230,50,0.114371718729214,1
1016,231,50,0.143102022625152,1
1016,232,50,0.165393135857565,1
1017,227,50,0.117367153167487,1
1017,228,50,0.124949006164295,1
1017,231,50,0.131576720920653,1
1017,232,50,0.13772417502573,1
1018,231,50,0.124767925051639,1
1018,232,50,0.121667111204154,1
1021,212,50,0.114235177728945,1
1021,213,50,0.119274346176588,1
1022,212,50,0.118503821075279,1
1022,213,50,0.124539500932163,1
1022,214,50,0.119413796063097,1
1023,211,50,0.116740435393613,1
1023,212,50,0.123935618504115,1
1023,213,50,0.127463850199001,1
1023,214,50,0.123189730609341,1
1015,224,51,0.147361939312766,1
1015,225,51,0.142844709850021,1
1015,226,51,0.129627084081557,1
1015,227,51,0.139277272963667,1
1016,227,51,0.136018755085251,1
1016,228,51,0.141577283383839,1
1016,229,51,0.114071655925536,1
1017,228,51,0.117906192163804,1
1021,212,51,0.119364250782078,1
1021,213,51,0.122309468657893,1
1022,211,51,0.115149357058414,1
1022,212,51,0.126125044139699,1
1022,213,51,0.130478822460238,1
1022,214,51,0.121044786201808,1
1023,211,51,0.119000557564009,1
1023,212,51,0.130551662384912,1
1023,213,51,0.135614808534517,1
1023,214,51,0.128648921031676,1
1023,215,51,0.115831426108919,1
1024,212,51,0.114556898191714,1
1024,213,51,0.114222812018208,1
1021,212,52,0.122900879383397,1
1021,213,52,0.131717513370042,1
1021,214,52,0.123080782809316,1
1022,212,52,0.131088287123418,1
1022,213,52,0.141594548271401,1
1022,214,52,0.133517207133804,1
1022,215,52,0.11503919624105,1
1023,212,52,0.130717374685652,1
1023,213,52,0.14244356619372,1
1023,214,52,0.136822926696632,1
1023,215,52,0.117903424599973,1
1024,213,52,0.117469729682266,1
1021,212,53,0.119062492109499,1
1021,213,53,0.127594714749198,1
1021,214,53,0.118643223854318,1
1022,212,53,0.127277799248316,1
1022,213,53,0.13762581462947,1
1022,214,53,0.128767996937638,1
1023,212,53,0.125605719619357,1
1023,213,53,0.13896252440638,1
1023,214,53,0.133186654020509,1
1024,213,53,0.114894705855308,1
1021,213,54,0.119640700966683,1
1022,212,54,0.118219574604476,1
1022,213,54,0.127514796927236,1
1022,214,54,0.117021466779624,1
1023,213,54,0.125408327545396,1
1023,214,54,0.118799279123816,1
