x,y,z,signal,mito.p
448,141,46,0.285581213842662,2
452,137,46,0.225018296541143,2
452,138,46,0.254400614922064,2
453,137,46,0.279877323670147,2
453,138,46,0.298260636772392,2
454,138,46,0.234876217586763,2
447,141,47,0.259532549753967,2
447,142,47,0.26058789839258,2
447,143,47,0.213065624096714,2
448,140,47,0.261483199403657,2
448,141,47,0.373552104818265,2
448,142,47,0.324159028033467,2
449,141,47,0.27563312910047,2
451,137,47,0.202686600223779,2
451,138,47,0.193733354575662,2
452,136,47,0.220238560704758,2
452,137,47,0.299565466569336,2
452,138,47,0.343940537937153,2
452,139,47,0.265803072123043,2
453,136,47,0.215615410096902,2
453,137,47,0.325100894778118,2
453,138,47,0.39337622342809,2
453,139,47,0.272682764733615,2
454,137,47,0.269895557087281,2
454,138,47,0.305149680215654,2
454,139,47,0.218235032920584,2
455,137,47,0.246783713967968,2
455,138,47,0.278082293545862,2
443,145,48,0.238249842566837,2
446,141,48,0.197744814692405,2
446,142,48,0.233117978396138,2
446,143,48,0.263547142517431,2
446,144,48,0.252467277267405,2
447,140,48,0.250582578074978,2
447,141,48,0.292710623148912,2
447,142,48,0.315910180376385,2
447,143,48,0.300701769394239,2
447,144,48,0.267113295725242,2
448,140,48,0.269557867192361,2
448,141,48,0.407253919058815,2
448,142,48,0.383792373639866,2
448,143,48,0.254250012342157,2
449,141,48,0.296473567810449,2
449,142,48,0.248939846399501,2
450,137,48,0.193568360663831,2
451,136,48,0.30698663598777,2
451,137,48,0.286702795583354,2
451,138,48,0.256727064409478,2
451,139,48,0.211631248758718,2
452,135,48,0.225657733331776,2
452,136,48,0.296455926063131,2
452,137,48,0.385900809758557,2
452,138,48,0.42534563692502,2
452,139,48,0.307339965562555,2
452,140,48,0.249159767620737,2
453,136,48,0.238811693355246,2
453,137,48,0.356326646208207,2
453,138,48,0.455754403512031,2
453,139,48,0.327125055633921,2
453,140,48,0.210122090312933,2
454,136,48,0.22889710202385,2
454,137,48,0.290272811603663,2
454,138,48,0.388129629015488,2
454,139,48,0.306150713941964,2
454,140,48,0.168245516687915,2
455,136,48,0.267770138725845,2
455,137,48,0.297164257527868,2
455,138,48,0.365509470108803,2
455,139,48,0.285357147164111,2
456,135,48,0.279534451953584,2
456,136,48,0.293688856859997,2
456,137,48,0.276726634789356,2
456,138,48,0.278135948953592,2
457,135,48,0.2649620389168,2
457,136,48,0.261201779381023,2
442,138,49,0.202143780853037,1
442,139,49,0.236515604631908,1
442,145,49,0.225494246858968,2
443,138,49,0.198796159196113,1
443,139,49,0.256587932498388,1
443,144,49,0.253100731409414,2
443,145,49,0.348812698628645,2
443,146,49,0.320248613438744,2
444,145,49,0.287004683801475,2
444,146,49,0.280359327297799,2
445,142,49,0.234426835881722,2
445,143,49,0.226078497249112,2
445,144,49,0.21147725444101,2
446,139,49,0.311328248804318,2
446,140,49,0.292135040533151,2
446,141,49,0.255074204628064,2
446,142,49,0.294627214098173,2
446,143,49,0.345829429694363,2
446,144,49,0.321616378814904,2
446,145,49,0.202370579764817,2
447,140,49,0.28735179519029,2
447,141,49,0.31443279591876,2
447,142,49,0.358938826051712,2
447,143,49,0.393394807324797,2
447,144,49,0.349764175297069,2
447,145,49,0.212869280163949,2
448,140,49,0.261859705853423,2
448,141,49,0.377365101166117,2
448,142,49,0.388458038738922,2
448,143,49,0.299429161106415,2
448,144,49,0.218704977036051,2
449,140,49,0.234802541504507,2
449,141,49,0.302496399105033,2
449,142,49,0.27005890223768,2
449,143,49,0.167970762372212,2
450,136,49,0.283400491312064,2
450,137,49,0.269209554563074,2
450,138,49,0.248416199768834,2
450,139,49,0.229774431535323,2
450,140,49,0.246425767861174,2
450,141,49,0.255548011556028,2
451,135,49,0.29827469835203,2
451,136,49,0.394722036723476,2
451,137,49,0.380132547229007,2
451,138,49,0.344181115783753,2
451,139,49,0.280539018740105,2
451,140,49,0.268316868016553,2
451,141,49,0.267020988638809,2
452,135,49,0.257620174923224,2
452,136,49,0.37440781200125,2
452,137,49,0.448901538605325,2
452,138,49,0.465286270207691,2
452,139,49,0.337863533052673,2
452,140,49,0.261592088319345,2
453,135,49,0.217390772852681,2
453,136,49,0.282586215148481,2
453,137,49,0.371804723899353,2
453,138,49,0.458704320357926,2
453,139,49,0.363579335762069,2
453,140,49,0.226186585337819,2
454,136,49,0.241326266522003,2
454,137,49,0.305219234394332,2
454,138,49,0.437501530992758,2
454,139,49,0.398923811016892,2
454,140,49,0.216409665585959,2
455,135,49,0.273210297730513,2
455,136,49,0.287213628982324,2
455,137,49,0.328606326457778,2
455,138,49,0.419417350321669,2
455,139,49,0.353973109925845,2
455,140,49,0.175358320611176,2
456,134,49,0.251254848771833,2
456,135,49,0.335559459613259,2
456,136,49,0.367090679429148,2
456,137,49,0.321314514150519,2
456,138,49,0.283431346704569,2
456,139,49,0.204275134755627,2
457,134,49,0.243644307326116,2
457,135,49,0.317114412172269,2
457,136,49,0.328122509192552,2
457,137,49,0.237501446199313,2
458,135,49,0.229656804184048,2
458,136,49,0.204605994067474,2
441,138,50,0.20076628778443,1
441,139,50,0.173089707319408,1
442,137,50,0.203202215030901,1
442,138,50,0.278478961992563,2
442,139,50,0.289414631278531,1
442,140,50,0.233453407132523,1
442,145,50,0.227419623351286,2
442,146,50,0.216427283779542,2
443,137,50,0.183479448141648,1
443,138,50,0.257218089117534,2
443,139,50,0.303690785439797,2
443,140,50,0.259623137417764,1
443,144,50,0.272842930129824,2
443,145,50,0.39834961807148,2
443,146,50,0.369757810135794,2
443,147,50,0.236262119338671,2
444,138,50,0.230472799770266,1
444,139,50,0.243750369793635,2
444,144,50,0.227161497972306,2
444,145,50,0.346830204329591,2
444,146,50,0.341583256610968,2
444,147,50,0.217189600404295,2
445,139,50,0.267115957297267,2
445,140,50,0.262432791773302,2
445,141,50,0.250260480752453,2
445,142,50,0.26486452645499,2
445,143,50,0.240681223942503,2
445,144,50,0.217023664343075,2
445,145,50,0.205009281113636,2
445,146,50,0.191566705401569,2
446,138,50,0.229706785209159,2
446,139,50,0.311397779429261,2
446,140,50,0.335799165971674,2
446,141,50,0.333360977566669,2
446,142,50,0.379381183090906,2
446,143,50,0.402693680476441,2
446,144,50,0.343056142305259,2
446,145,50,0.193306996646325,2
447,139,50,0.258949665480438,2
447,140,50,0.296217303176513,2
447,141,50,0.326855718677207,2
447,142,50,0.387691129135894,2
447,143,50,0.425907864573186,2
447,144,50,0.365098645867525,2
447,145,50,0.20016554977997,2
448,140,50,0.252590910821038,2
448,141,50,0.319401432707734,2
448,142,50,0.35203814706349,2
448,143,50,0.304748230360802,2
448,144,50,0.225520367950791,2
449,136,50,0.197064241304055,2
449,137,50,0.234889690323033,2
449,138,50,0.250330294022213,2
449,139,50,0.249821815996717,2
449,140,50,0.259023789083654,2
449,141,50,0.319769813119016,2
449,142,50,0.303807235104335,2
449,143,50,0.19602921953852,2
450,135,50,0.230223695471691,2
450,136,50,0.327432243442358,2
450,137,50,0.351542670699569,2
450,138,50,0.349796891434618,2
450,139,50,0.319642340306621,2
450,140,50,0.317650400959937,2
450,141,50,0.364045581941182,2
450,142,50,0.290551970467762,2
451,134,50,0.166213983513139,2
451,135,50,0.297535299511175,2
451,136,50,0.460061816305742,2
451,137,50,0.47286798188209,2
451,138,50,0.451325076587324,2
451,139,50,0.377174598559567,2
451,140,50,0.334484302283732,2
451,141,50,0.347792091748769,2
451,142,50,0.241524117893791,2
452,134,50,0.176206985227474,2
452,135,50,0.286431692096535,2
452,136,50,0.469170752140469,2
452,137,50,0.511502843218428,2
452,138,50,0.488521275805943,2
452,139,50,0.37673235363615,2
452,140,50,0.285499647259269,2
452,141,50,0.257748283686457,2
453,133,50,0.250642993404577,2
453,134,50,0.228815558994191,2
453,135,50,0.251896876473286,2
453,136,50,0.353720354798386,2
453,137,50,0.402589667183844,2
453,138,50,0.438422199376146,2
453,139,50,0.395457360768221,2
453,140,50,0.270359612769064,2
453,141,50,0.183144101843334,2
454,132,50,0.247578322763045,2
454,133,50,0.310316992757132,2
454,134,50,0.29469318810917,2
454,135,50,0.24550293253419,2
454,136,50,0.262710231214766,2
454,137,50,0.318831738525657,2
454,138,50,0.440914702693454,2
454,139,50,0.481635247240727,2
454,140,50,0.307718662509652,2
454,141,50,0.159421793027115,2
455,133,50,0.264338830649401,2
455,134,50,0.28543291952876,2
455,135,50,0.287773477703281,2
455,136,50,0.305038647910105,2
455,137,50,0.343024792284324,2
455,138,50,0.422993419651804,2
455,139,50,0.415079600317617,2
455,140,50,0.240534437067624,2
456,133,50,0.208055933148094,2
456,134,50,0.288553012108127,2
456,135,50,0.399233919488436,2
456,136,50,0.426273842503525,2
456,137,50,0.349344659727674,2
456,138,50,0.278972954471196,2
456,139,50,0.212826176829381,2
457,134,50,0.279237769110841,2
457,135,50,0.386837141375546,2
457,136,50,0.382252053603024,2
457,137,50,0.25708152456353,2
458,135,50,0.260127093126191,2
458,136,50,0.231778289071783,2
441,137,51,0.203872130354282,1
441,138,51,0.232900907176804,2
441,139,51,0.198183243910794,1
442,136,51,0.133991614682004,1
442,137,51,0.263038476062057,2
442,138,51,0.34421312530926,2
442,139,51,0.305391506410196,2
442,140,51,0.219523398656947,1
442,145,51,0.234777598099421,2
442,146,51,0.239690577413212,2
442,147,51,0.245130665756676,2
442,148,51,0.304568421149822,2
443,137,51,0.249594428241569,2
443,138,51,0.32207612416323,2
443,139,51,0.312240155198385,2
443,140,51,0.248059054489022,2
443,144,51,0.270205547790151,2
443,145,51,0.379583368349886,2
443,146,51,0.368949351744691,2
443,147,51,0.233229034255421,2
444,137,51,0.230543531635681,1
444,138,51,0.268442644960047,2
444,139,51,0.284410828763595,2
444,140,51,0.263662131850415,2
444,141,51,0.215109758519574,2
444,142,51,0.209456226231926,2
444,144,51,0.23989603664132,2
444,145,51,0.36424034777372,2
444,146,51,0.369836715147162,2
444,147,51,0.210340150789125,2
445,138,51,0.257246424260422,2
445,139,51,0.312705576996782,2
445,140,51,0.334630311885365,2
445,141,51,0.299579834347526,2
445,142,51,0.292999038630763,2
445,143,51,0.263974148174473,2
445,144,51,0.22864210929159,2
445,145,51,0.228530252605326,2
445,146,51,0.225086437495737,2
446,138,51,0.227844509172201,2
446,139,51,0.305576144136797,2
446,140,51,0.371904803718249,2
446,141,51,0.404919743946408,2
446,142,51,0.454461962979559,2
446,143,51,0.428550310965827,2
446,144,51,0.327923880547517,2
446,145,51,0.195063174885161,2
447,139,51,0.245393548990072,2
447,140,51,0.292204123637134,2
447,141,51,0.348445637226508,2
447,142,51,0.422657213642172,2
447,143,51,0.41923560970444,2
447,144,51,0.331496416817442,2
447,145,51,0.191312230851473,2
448,140,51,0.245666489668201,2
448,141,51,0.275827942040477,2
448,142,51,0.31633377074189,2
448,143,51,0.286380604045891,2
448,144,51,0.216563707011137,2
449,136,51,0.22507760484521,2
449,137,51,0.234014362879013,2
449,138,51,0.248151361575455,2
449,139,51,0.277439700554775,2
449,140,51,0.283475745494547,2
449,141,51,0.336161657949272,2
449,142,51,0.338310912690262,2
449,143,51,0.22151811734433,2
450,131,51,0.228417406662202,2
450,135,51,0.230062917678378,2
450,136,51,0.332857587147876,2
450,137,51,0.382507635178652,2
450,138,51,0.396309911750751,2
450,139,51,0.374736198170949,2
450,140,51,0.369251711037506,2
450,141,51,0.453109413316038,2
450,142,51,0.407926849260243,2
450,143,51,0.211722919894313,2
451,131,51,0.237334803526051,2
451,134,51,0.185684925647454,2
451,135,51,0.286506757849141,2
451,136,51,0.463280104405227,2
451,137,51,0.512647648941571,2
451,138,51,0.510308763082215,2
451,139,51,0.448703922770884,2
451,140,51,0.383088376062321,2
451,141,51,0.399022972240134,2
451,142,51,0.315142446392642,2
451,143,51,0.15687060557971,2
452,133,51,0.214661648716208,2
452,134,51,0.215646406811815,2
452,135,51,0.317772008892383,2
452,136,51,0.515746613820879,2
452,137,51,0.533616502613334,2
452,138,51,0.480735211928968,2
452,139,51,0.411972815598376,2
452,140,51,0.32041080445614,2
452,141,51,0.261393742319127,2
452,142,51,0.182320463070194,2
453,132,51,0.278745189856292,2
453,133,51,0.318060730572785,2
453,134,51,0.29598362657419,2
453,135,51,0.296576097217757,2
453,136,51,0.40458311396955,2
453,137,51,0.419685109178156,2
453,138,51,0.407502599390166,2
453,139,51,0.425568973437794,2
453,140,51,0.33729131862098,2
453,141,51,0.203390527140121,2
454,131,51,0.20810016706193,2
454,132,51,0.319291648750126,2
454,133,51,0.417290542289883,2
454,134,51,0.369665620818034,2
454,135,51,0.271406858922927,2
454,136,51,0.286518699592652,2
454,137,51,0.324621953135982,2
454,138,51,0.403270370117735,2
454,139,51,0.525442414510307,2
454,140,51,0.415890508297133,2
454,141,51,0.207880622700449,2
455,132,51,0.277277650859787,2
455,133,51,0.330407245015747,2
455,134,51,0.324265302484599,2
455,135,51,0.304410140052391,2
455,136,51,0.327813649068949,2
455,137,51,0.347877662467067,2
455,138,51,0.376620143643865,2
455,139,51,0.428485208443015,2
455,140,51,0.308332637713034,2
455,141,51,0.152606143021292,2
456,133,51,0.228665239059102,2
456,134,51,0.311791833411406,2
456,135,51,0.433031220569608,2
456,136,51,0.448442005240612,2
456,137,51,0.356019741044587,2
456,138,51,0.258049889259761,2
456,139,51,0.208489368974719,2
456,140,51,0.139809728691125,2
457,133,51,0.201132289268504,2
457,134,51,0.304884889129744,2
457,135,51,0.434898654874474,2
457,136,51,0.40011647792902,2
457,137,51,0.259963371116036,2
458,134,51,0.251481294377592,2
458,135,51,0.287532782088007,2
458,136,51,0.256386689388798,2
459,135,51,0.192785999810816,2
439,141,52,0.263541560282298,2
439,142,52,0.295406183213385,2
439,143,52,0.231550194704593,2
440,138,52,0.132335327832186,1
440,141,52,0.261364653456727,2
440,142,52,0.28023800201017,2
441,137,52,0.198868516269224,1
441,138,52,0.24385640870742,2
441,139,52,0.22699567967976,2
441,146,52,0.200464046260289,2
441,147,52,0.238454595182903,2
441,148,52,0.272213480122721,2
442,136,52,0.139999995760328,1
442,137,52,0.297001807419389,2
442,138,52,0.386675939615008,2
442,139,52,0.309801283735072,2
442,140,52,0.210720166745368,2
442,143,52,0.284644505365918,2
442,144,52,0.267348102906832,2
442,145,52,0.271916184882874,2
442,146,52,0.295144807419012,2
442,147,52,0.309533736862198,2
442,148,52,0.324378478180009,2
442,149,52,0.305342467534474,2
443,136,52,0.16005562402888,2
443,137,52,0.319227441269234,2
443,138,52,0.405267868145816,2
443,139,52,0.322034386945277,2
443,140,52,0.226981429670244,2
443,143,52,0.293068475040767,2
443,144,52,0.289096019908747,2
443,145,52,0.345989736412981,2
443,146,52,0.352069638406833,2
443,147,52,0.253800088901216,2
443,148,52,0.204194133461868,2
444,137,52,0.249734408087109,2
444,138,52,0.311906092578614,2
444,139,52,0.317375246230743,2
444,140,52,0.285297462000289,2
444,141,52,0.236201939546419,2
444,142,52,0.245215223664381,2
444,143,52,0.270577649691521,2
444,144,52,0.266626345813295,2
444,145,52,0.337374369089661,2
444,146,52,0.347581992434917,2
444,147,52,0.20617721660429,2
445,138,52,0.250321908892647,2
445,139,52,0.352745583486307,2
445,140,52,0.393749785661014,2
445,141,52,0.334227024839203,2
445,142,52,0.316560239901383,2
445,143,52,0.303583615946745,2
445,144,52,0.249078554343365,2
445,145,52,0.24772727658152,2
445,146,52,0.256440132812915,2
446,138,52,0.211771205050524,2
446,139,52,0.305990713421898,2
446,140,52,0.401518867295244,2
446,141,52,0.443976546886818,2
446,142,52,0.487082707903164,2
446,143,52,0.428295789308263,2
446,144,52,0.296522583132436,2
446,145,52,0.201582094940771,2
447,139,52,0.217802468582144,2
447,140,52,0.282879647575831,2
447,141,52,0.376567972121423,2
447,142,52,0.47029610247872,2
447,143,52,0.42262079956827,2
447,144,52,0.292383508880889,2
447,145,52,0.182835359488405,1
448,140,52,0.231976894163083,2
448,141,52,0.263335135351066,2
448,142,52,0.31167693829336,2
448,143,52,0.282211451675085,2
448,144,52,0.205947096615912,2
449,131,52,0.247863110969747,2
449,136,52,0.250882181580829,2
449,137,52,0.21722811076059,2
449,138,52,0.22723630463383,2
449,139,52,0.280578282815911,2
449,140,52,0.305135006238913,2
449,141,52,0.348970296667768,2
449,142,52,0.356459371503448,2
449,143,52,0.244404598329682,2
450,130,52,0.298980886426906,2
450,131,52,0.314525762509765,2
450,132,52,0.267984972340378,2
450,135,52,0.247512513628191,2
450,136,52,0.322490057497493,2
450,137,52,0.38214954774945,2
450,138,52,0.406426382142576,2
450,139,52,0.411786222911792,2
450,140,52,0.419983440782331,2
450,141,52,0.515718019586909,2
450,142,52,0.502467206606201,2
450,143,52,0.280918940481408,2
451,129,52,0.271703730195549,2
451,130,52,0.287931311279752,2
451,131,52,0.313792793838494,2
451,132,52,0.300942370794575,2
451,133,52,0.233203996635396,2
451,134,52,0.218625624503723,2
451,135,52,0.284687985560242,2
451,136,52,0.447566654242857,2
451,137,52,0.550233898007429,2
451,138,52,0.563492766365418,2
451,139,52,0.51838020400926,2
451,140,52,0.436463753440259,2
451,141,52,0.444499015830748,2
451,142,52,0.396483691205638,2
451,143,52,0.215288107399001,2
452,131,52,0.244597715400788,2
452,132,52,0.277183600796983,2
452,133,52,0.274512136203146,2
452,134,52,0.295660233796255,2
452,135,52,0.37247054087289,2
452,136,52,0.529736542997625,2
452,137,52,0.555105705392901,2
452,138,52,0.501606929998677,2
452,139,52,0.466454912310388,2
452,140,52,0.36956759017406,2
452,141,52,0.278837756033807,2
452,142,52,0.21232573062743,2
453,131,52,0.22520017848078,2
453,132,52,0.337975601722551,2
453,133,52,0.41231599351349,2
453,134,52,0.4033906354873,2
453,135,52,0.383653948340818,2
453,136,52,0.437815266739451,2
453,137,52,0.421513161638541,2
453,138,52,0.395025715025436,2
453,139,52,0.464569906919409,2
453,140,52,0.410949829791291,2
453,141,52,0.228841373887463,2
454,131,52,0.263313018394148,2
454,132,52,0.420126317737244,2
454,133,52,0.52249716130389,2
454,134,52,0.437244748176658,2
454,135,52,0.32029499074244,2
454,136,52,0.316860479358072,2
454,137,52,0.323661243403541,2
454,138,52,0.362814239796616,2
454,139,52,0.538274018120171,2
454,140,52,0.509275272309438,2
454,141,52,0.2490785778971,2
455,131,52,0.281098090187816,2
455,132,52,0.350108271807838,2
455,133,52,0.403920547411407,2
455,134,52,0.356353426804602,2
455,135,52,0.327186130468094,2
455,136,52,0.365917067488422,2
455,137,52,0.356144787822305,2
455,138,52,0.319020498155837,2
455,139,52,0.396432909353546,2
455,140,52,0.35402276119867,2
455,141,52,0.179622524078512,2
456,130,52,0.287455549391805,2
456,131,52,0.261778421914847,2
456,132,52,0.240184687660519,2
456,133,52,0.252239913065992,2
456,134,52,0.321581095320269,2
456,135,52,0.436663489110826,2
456,136,52,0.462975884367367,2
456,137,52,0.362167524901951,2
456,138,52,0.231693000998301,2
456,139,52,0.189132108941111,2
456,140,52,0.149766222116618,2
457,133,52,0.206338465472298,2
457,134,52,0.318839440596916,2
457,135,52,0.457227312760057,2
457,136,52,0.407751986333558,2
457,137,52,0.26594830445143,2
458,134,52,0.258012745020081,2
458,135,52,0.331362655157872,2
458,136,52,0.293757680872898,2
458,137,52,0.22058904027764,2
459,135,52,0.238586990725858,2
459,136,52,0.207202110263889,2
438,141,53,0.214667372273749,2
438,142,53,0.271998198987227,2
438,143,53,0.244427398344907,2
439,140,53,0.227737151249271,2
439,141,53,0.334455236975067,2
439,142,53,0.382250946577492,2
439,143,53,0.295412189415743,2
439,144,53,0.231256432524957,2
440,138,53,0.150567955916453,1
440,139,53,0.199271120257079,1
440,140,53,0.271763933541536,2
440,141,53,0.32430722813243,2
440,142,53,0.332998367820398,2
440,143,53,0.261901066211621,2
441,137,53,0.171752173161782,1
441,138,53,0.228986252909828,2
441,139,53,0.247213098552218,2
441,140,53,0.253495162251315,1
441,141,53,0.250892521670378,2
441,142,53,0.284117749642266,2
441,143,53,0.288974411976302,2
441,144,53,0.248765690084858,2
441,145,53,0.219875550544996,2
441,146,53,0.234287162234733,2
441,147,53,0.257968840858532,2
441,148,53,0.261990641064825,2
442,136,53,0.133069309314051,1
442,137,53,0.288392328529753,2
442,138,53,0.395019190640914,2
442,139,53,0.3119735504749,2
442,140,53,0.213894621344507,2
442,142,53,0.278338581733532,2
442,143,53,0.350486238589158,2
442,144,53,0.33239301328393,2
442,145,53,0.316784424348607,2
442,146,53,0.358073532498689,2
442,147,53,0.366615741921917,2
442,148,53,0.314319737992023,2
442,149,53,0.266959230746329,2
442,152,53,0.289663476486024,3
443,136,53,0.158412609708586,2
443,137,53,0.355805967348117,2
443,138,53,0.483043760577982,2
443,139,53,0.352697345437566,2
443,140,53,0.219006700378028,2
443,142,53,0.267213069345587,2
443,143,53,0.335488986838927,2
443,144,53,0.323312742344377,2
443,145,53,0.31950907327548,2
443,146,53,0.338023580680209,2
443,147,53,0.293691377109614,2
443,148,53,0.225263538027222,2
444,136,53,0.145039764828207,1
444,137,53,0.251355399665424,2
444,138,53,0.349229081551321,2
444,139,53,0.338007988107814,2
444,140,53,0.287821951289369,2
444,141,53,0.251028073413788,2
444,142,53,0.290539534095821,2
444,143,53,0.344244098470439,2
444,144,53,0.309257404446267,2
444,145,53,0.296942004486892,2
444,146,53,0.296060694394249,2
444,147,53,0.21077134901095,2
445,137,53,0.168568002647063,1
445,138,53,0.228511009204046,2
445,139,53,0.344549378426362,2
445,140,53,0.391422205594332,2
445,141,53,0.335157774221059,2
445,142,53,0.329324668259778,2
445,143,53,0.347407223723171,2
445,144,53,0.285429009608793,2
445,145,53,0.266572925942913,2
445,146,53,0.274575307319709,2
446,139,53,0.283873921380271,2
446,140,53,0.381299493462802,2
446,141,53,0.409198798043495,2
446,142,53,0.429483886795852,2
446,143,53,0.386429496888457,2
446,144,53,0.272867190476603,2
446,145,53,0.229725675304418,2
447,140,53,0.258389698990807,2
447,141,53,0.360177163655494,2
447,142,53,0.445709065399111,2
447,143,53,0.401200279479195,2
447,144,53,0.266068216514974,2
448,141,53,0.249034932826633,2
448,142,53,0.294282858496322,2
448,143,53,0.275032155558663,2
449,130,53,0.234716005083084,2
449,131,53,0.273399622650327,2
449,132,53,0.233478515413752,2
449,136,53,0.234744104688625,2
449,137,53,0.180313225572799,2
449,138,53,0.18516467075459,2
449,139,53,0.232055728513247,2
449,140,53,0.280913169816398,2
449,141,53,0.323539517702422,2
449,142,53,0.328091229832821,2
449,143,53,0.24994186938267,2
450,129,53,0.299706435671736,2
450,130,53,0.344341304733698,2
450,131,53,0.366039052280623,2
450,132,53,0.311290162415249,2
450,133,53,0.227375412991185,2
450,135,53,0.258399662220601,2
450,136,53,0.283891798664937,2
450,137,53,0.33977736821497,2
450,138,53,0.362572460709544,2
450,139,53,0.379701466775855,2
450,140,53,0.408242704843062,2
450,141,53,0.481165821307424,2
450,142,53,0.491625610936772,2
450,143,53,0.323624711560964,2
450,144,53,0.172224178229038,2
451,128,53,0.196598725290719,2
451,129,53,0.32858027602716,2
451,130,53,0.368516669637578,2
451,131,53,0.382766467169674,2
451,132,53,0.358384206259867,2
451,133,53,0.272698333752276,2
451,134,53,0.251374007115866,2
451,135,53,0.285549110102216,2
451,136,53,0.405287511960586,2
451,137,53,0.553686828412361,2
451,138,53,0.573502020156721,2
451,139,53,0.527325959569732,2
451,140,53,0.447482661624786,2
451,141,53,0.433747583857891,2
451,142,53,0.426515692251801,2
451,143,53,0.273914884151427,2
452,129,53,0.238515505140932,2
452,130,53,0.2632976613591,2
452,131,53,0.274295983579467,2
452,132,53,0.316257998377242,2
452,133,53,0.334534919259682,2
452,134,53,0.368565543637156,2
452,135,53,0.410088799464256,2
452,136,53,0.484703686479817,2
452,137,53,0.550401082416591,2
452,138,53,0.53940129986467,2
452,139,53,0.519697281748267,2
452,140,53,0.411812697309636,2
452,141,53,0.287967395601368,2
452,142,53,0.23781127202604,2
453,131,53,0.248856419071063,2
453,132,53,0.382633671213228,2
453,133,53,0.469976007223648,2
453,134,53,0.472512744454791,2
453,135,53,0.442512116983298,2
453,136,53,0.425239880656053,2
453,137,53,0.409922557204485,2
453,138,53,0.417969879107159,2
453,139,53,0.508221431109848,2
453,140,53,0.458965908135912,2
453,141,53,0.243767799557341,2
454,130,53,0.231442295045764,2
454,131,53,0.31421405238426,2
454,132,53,0.474593811133719,2
454,133,53,0.539974173800936,2
454,134,53,0.441479285715093,2
454,135,53,0.348989916928804,2
454,136,53,0.338151218368747,2
454,137,53,0.324124592473282,2
454,138,53,0.340797739557499,2
454,139,53,0.499587197245004,2
454,140,53,0.513042880610453,2
454,141,53,0.255060496354447,2
455,130,53,0.303609477947486,2
455,131,53,0.331448108107497,2
455,132,53,0.396170143888823,2
455,133,53,0.428021482513519,2
455,134,53,0.359228960956199,2
455,135,53,0.336860968333605,2
455,136,53,0.388279784074434,2
455,137,53,0.345299423555318,2
455,138,53,0.268512952858236,2
455,139,53,0.327969386363028,2
455,140,53,0.343933094956976,2
455,141,53,0.186632998801209,2
456,128,53,0.190544744181945,1
456,129,53,0.256300435612192,2
456,130,53,0.327476336033785,2
456,131,53,0.295600383756289,2
456,132,53,0.262021425796126,2
456,133,53,0.266830321156115,2
456,134,53,0.306788878830921,2
456,135,53,0.391151549628473,2
456,136,53,0.436691659377571,2
456,137,53,0.338175902682752,2
456,138,53,0.204438197261209,2
456,139,53,0.167440096728594,2
456,140,53,0.158342525570877,2
457,129,53,0.224452017650604,1
457,130,53,0.263008774802554,2
457,131,53,0.270565872824153,2
457,133,53,0.216322681643576,2
457,134,53,0.302405104829194,2
457,135,53,0.413356220654402,2
457,136,53,0.38196302572407,2
457,137,53,0.267799062712101,2
458,134,53,0.266670744603274,2
458,135,53,0.367989442839231,2
458,136,53,0.335322297058195,2
458,137,53,0.254945530575197,2
459,134,53,0.241508478213926,2
459,135,53,0.296311989190155,2
459,136,53,0.26388980225038,2
459,137,53,0.226026726140161,2
460,135,53,0.26161981106513,2
437,142,54,0.180355198328099,2
437,143,54,0.211940108882321,2
437,144,54,0.244754512612931,2
438,141,54,0.250877329511473,2
438,142,54,0.341982892828246,2
438,143,54,0.311576670044586,2
438,144,54,0.250281443576369,2
439,140,54,0.279546252374688,2
439,141,54,0.359870988657652,2
439,142,54,0.434901104462886,2
439,143,54,0.362891849352574,2
439,144,54,0.258414312643607,2
439,147,54,0.28057797661736,3
439,148,54,0.288781483335073,3
440,139,54,0.275895706135315,2
440,140,54,0.349084909140997,2
440,141,54,0.35587370788922,2
440,142,54,0.344142723196133,2
440,143,54,0.28129224362325,2
440,144,54,0.221774005118509,2
440,148,54,0.268946011825105,3
441,137,54,0.146857100339287,1
441,138,54,0.21027582553956,2
441,139,54,0.26406289864696,2
441,140,54,0.302448161056293,2
441,141,54,0.287402529934913,2
441,142,54,0.29383974208472,2
441,143,54,0.291873099449144,2
441,144,54,0.25672638135117,2
441,145,54,0.233190288361779,2
441,146,54,0.237249609667508,2
441,147,54,0.245635846259309,2
441,152,54,0.268529228488939,3
442,136,54,0.121310966958067,1
442,137,54,0.24426073211791,2
442,138,54,0.361411497124372,2
442,139,54,0.301321680138775,2
442,140,54,0.218872820949785,2
442,142,54,0.274615890404661,2
442,143,54,0.357601892514322,2
442,144,54,0.343766452283714,2
442,145,54,0.316881512843192,2
442,146,54,0.361813158962837,2
442,147,54,0.370463432921036,2
442,148,54,0.283973082603513,2
442,151,54,0.265802483279675,3
442,152,54,0.335140980408192,3
442,153,54,0.331812931904834,3
443,136,54,0.141537006497439,2
443,137,54,0.324845902045859,2
443,138,54,0.491684259736266,2
443,139,54,0.37464038157804,2
443,140,54,0.222021978837817,2
443,141,54,0.182697263941644,1
443,142,54,0.255051333951635,2
443,143,54,0.347907740586326,2
443,144,54,0.337559972519387,2
443,145,54,0.287722130561555,2
443,146,54,0.31080519101702,2
443,147,54,0.329156471040024,2
443,148,54,0.265924680055489,2
443,152,54,0.227039772271187,3
444,136,54,0.127677376581256,1
444,137,54,0.226451517746137,2
444,138,54,0.354707821573487,2
444,139,54,0.354508910283636,2
444,140,54,0.297208844747724,2
444,141,54,0.256323777363316,2
444,142,54,0.310413963483043,2
444,143,54,0.393894476253501,2
444,144,54,0.353968634716245,2
444,145,54,0.267883361528724,2
444,146,54,0.243177236766287,2
444,147,54,0.225741372643826,2
445,137,54,0.141052364851497,1
445,138,54,0.207862768969518,2
445,139,54,0.318112807880288,2
445,140,54,0.371628047335093,2
445,141,54,0.325927937065928,2
445,142,54,0.322956162354198,2
445,143,54,0.362251093552796,2
445,144,54,0.317134668384142,2
445,145,54,0.275083078733163,2
446,139,54,0.246516096433889,2
446,140,54,0.339495547778845,2
446,141,54,0.353839065621459,2
446,142,54,0.345086497793298,2
446,143,54,0.330063972885694,2
446,144,54,0.264993365383999,2
447,140,54,0.230407014189147,2
447,141,54,0.315145861684179,2
447,142,54,0.364771178293481,2
447,143,54,0.348391157438062,2
447,144,54,0.248297771590578,2
448,141,54,0.232309708434913,2
448,142,54,0.264244921909006,2
448,143,54,0.256580112658455,2
449,130,54,0.216561445852602,2
449,131,54,0.273528014058376,2
449,132,54,0.282639894109946,2
449,138,54,0.140416779096494,2
449,139,54,0.170639329856676,2
449,140,54,0.228068882049303,2
449,141,54,0.282975676152352,2
449,142,54,0.279576707353702,2
449,143,54,0.233665249422745,2
450,129,54,0.304126812177243,2
450,130,54,0.365673757408592,2
450,131,54,0.37867047269896,2
450,132,54,0.322069105150278,2
450,133,54,0.237679583095127,2
450,134,54,0.238347802549607,2
450,135,54,0.250746676944888,2
450,136,54,0.232512600305935,2
450,137,54,0.267978377294652,2
450,138,54,0.280376545077891,2
450,139,54,0.300845447176133,2
450,140,54,0.350039942423367,2
450,141,54,0.407917192229001,2
450,142,54,0.42047557251592,2
450,143,54,0.326121949178954,2
450,144,54,0.194937621702147,2
451,128,54,0.201495228767062,2
451,129,54,0.349656252084506,2
451,130,54,0.442654381541108,2
451,131,54,0.418514912528966,2
451,132,54,0.36290157704502,2
451,133,54,0.293793953624392,2
451,134,54,0.283079924982297,2
451,135,54,0.309616127826307,2
451,136,54,0.351755973321344,2
451,137,54,0.472044354885817,2
451,138,54,0.494052069581878,2
451,139,54,0.472067814405615,2
451,140,54,0.429614986883396,2
451,141,54,0.409355241949616,2
451,142,54,0.424065962516775,2
451,143,54,0.32237219460887,2
451,144,54,0.193914741886869,2
452,129,54,0.25910198748298,2
452,130,54,0.317763576655347,2
452,131,54,0.295691913569476,2
452,132,54,0.337831829725718,2
452,133,54,0.404367503081771,2
452,134,54,0.445111507148841,2
452,135,54,0.470935963236577,2
452,136,54,0.43405274604514,2
452,137,54,0.485837374840164,2
452,138,54,0.530262026819601,2
452,139,54,0.556655682460985,2
452,140,54,0.459844274011714,2
452,141,54,0.30856066141902,2
452,142,54,0.261870045942973,2
452,143,54,0.199214167326485,2
453,130,54,0.226077131132497,2
453,131,54,0.265152188217329,2
453,132,54,0.399485049408198,2
453,133,54,0.518432823052662,2
453,134,54,0.513688158727299,2
453,135,54,0.480464108442148,2
453,136,54,0.396818436883717,2
453,137,54,0.388552018140521,2
453,138,54,0.447803840351655,2
453,139,54,0.553609854807242,2
453,140,54,0.491968129347313,2
453,141,54,0.265384451595568,2
453,142,54,0.164219147057083,2
454,130,54,0.248908826130852,2
454,131,54,0.340683032869331,2
454,132,54,0.481931930083471,2
454,133,54,0.527414992687036,2
454,134,54,0.423337115749082,2
454,135,54,0.364224613878916,2
454,136,54,0.354335719672117,2
454,137,54,0.347422886956771,2
454,138,54,0.348964596663962,2
454,139,54,0.442210582071199,2
454,140,54,0.448984777503884,2
454,141,54,0.248589696578905,2
455,128,54,0.193039697087665,1
455,129,54,0.238315274841936,2
455,130,54,0.303039665996736,2
455,131,54,0.355867866563005,2
455,132,54,0.415353483145136,2
455,133,54,0.417595468939784,2
455,134,54,0.33849006239667,2
455,135,54,0.337353217835868,2
455,136,54,0.396391784532696,2
455,137,54,0.348575724503459,2
455,138,54,0.252590439746343,2
455,139,54,0.265269108956562,2
455,140,54,0.301206408160973,2
456,127,54,0.176177554835921,1
456,128,54,0.22803833285535,1
456,129,54,0.278959222643845,2
456,130,54,0.320488908640527,2
456,131,54,0.307549004958344,2
456,132,54,0.281093096796051,2
456,133,54,0.268035118241633,2
456,134,54,0.272862880143146,2
456,135,54,0.3319085836216,2
456,136,54,0.389469035695026,2
456,137,54,0.312441304093036,2
456,138,54,0.191418469972003,2
457,128,54,0.223697968386743,1
457,129,54,0.244738684503188,1
457,130,54,0.264946681881751,2
457,131,54,0.274391776618641,2
457,132,54,0.256566475046043,2
457,134,54,0.259397021564292,2
457,135,54,0.337397216212356,2
457,136,54,0.349153356294142,2
457,137,54,0.290581012222692,2
457,138,54,0.215176227159001,2
458,129,54,0.197776541573096,1
458,130,54,0.209653912727571,1
458,134,54,0.256483895652056,2
458,135,54,0.374767713068027,2
458,136,54,0.379994545897184,2
458,137,54,0.325460913613569,2
458,138,54,0.30548953705417,2
459,134,54,0.24407197248773,2
459,135,54,0.348903262738708,2
459,136,54,0.345929603728198,2
459,137,54,0.285283353313181,2
459,138,54,0.309119073362158,2
460,135,54,0.29508144787257,2
460,136,54,0.259222865249649,2
460,137,54,0.191763355532885,2
436,144,55,0.288922146238921,2
437,142,55,0.193316477024557,2
437,143,55,0.240349493142471,2
437,144,55,0.316346560419852,2
437,145,55,0.300070246658479,2
438,140,55,0.169168705320921,2
438,141,55,0.263364436197078,2
438,142,55,0.379309791720919,2
438,143,55,0.352739412407806,2
438,144,55,0.280376003341992,2
438,145,55,0.258447334979708,2
438,147,55,0.249197147397765,3
438,148,55,0.196757972091274,3
439,138,55,0.305076004133398,2
439,139,55,0.305668521884434,2
439,140,55,0.28960259008173,2
439,141,55,0.343116439866185,2
439,142,55,0.450931446572404,2
439,143,55,0.414299217978321,2
439,144,55,0.272698003999989,2
439,146,55,0.242225218361964,3
439,147,55,0.330681999331451,3
439,148,55,0.337424420775977,3
439,149,55,0.23510598426912,3
440,138,55,0.247250572544184,2
440,139,55,0.338133105546735,2
440,140,55,0.370848442269042,2
440,141,55,0.338793670037426,2
440,142,55,0.333236872938342,2
440,143,55,0.307171320821841,2
440,144,55,0.243793614450612,2
440,147,55,0.264255144229881,3
440,148,55,0.322510502139244,3
440,149,55,0.305048210726408,3
441,138,55,0.200875106038914,1
441,139,55,0.26847642101566,2
441,140,55,0.312095982788061,2
441,141,55,0.285313195895093,2
441,142,55,0.273438085899152,2
441,143,55,0.277469496029217,2
441,144,55,0.267746420114965,2
441,145,55,0.257482479789953,2
441,146,55,0.247878774203347,2
441,147,55,0.24191247187213,2
441,148,55,0.238751183810708,3
441,149,55,0.259812109031557,3
441,150,55,0.257978215244957,3
441,151,55,0.267310935113418,3
441,152,55,0.275291953252808,3
442,137,55,0.201218660813783,1
442,138,55,0.299894064722648,2
442,139,55,0.267558626187909,2
442,140,55,0.212043768868897,2
442,142,55,0.25082261418568,2
442,143,55,0.330363270192994,2
442,144,55,0.333238780790855,2
442,145,55,0.306547570818543,2
442,146,55,0.333702224075535,2
442,147,55,0.338896175891,2
442,148,55,0.262706085757452,2
442,150,55,0.251466314202299,3
442,151,55,0.314606716696055,3
442,152,55,0.365100388843896,3
442,153,55,0.293779562292468,3
443,136,55,0.11983708023005,1
443,137,55,0.254089187441375,2
443,138,55,0.414445675100914,2
443,139,55,0.34954493713414,2
443,140,55,0.217711904472082,2
443,142,55,0.238000526284649,2
443,143,55,0.357014933444683,2
443,144,55,0.362667382260533,2
443,145,55,0.286111973701219,2
443,146,55,0.299668255067727,2
443,147,55,0.348619864202356,2
443,148,55,0.310486014357603,2
443,149,55,0.252888441598232,2
443,151,55,0.232671917767694,3
443,152,55,0.262620656361562,3
444,137,55,0.184152307681872,2
444,138,55,0.316276652935153,2
444,139,55,0.3467430790648,2
444,140,55,0.296188614727604,2
444,141,55,0.236409235965837,2
444,142,55,0.290793066496527,2
444,143,55,0.405897176830511,2
444,144,55,0.396393103541841,2
444,145,55,0.275471126512951,2
444,146,55,0.235043284227251,2
444,147,55,0.25632290587513,2
444,148,55,0.272160507773298,2
444,149,55,0.264656594084734,3
445,138,55,0.178734077204243,2
445,139,55,0.272619287418499,2
445,140,55,0.327102420494839,2
445,141,55,0.290097595370956,2
445,142,55,0.285728236254888,2
445,143,55,0.336403696127427,2
445,144,55,0.33314576709238,2
445,145,55,0.273258535779254,2
446,139,55,0.18832167203629,1
446,140,55,0.263527710686273,2
446,141,55,0.273579290538898,2
446,142,55,0.258836654661171,2
446,143,55,0.274295536058507,2
446,144,55,0.27958405611894,2
447,141,55,0.242960165546954,2
447,142,55,0.263222242300473,2
447,143,55,0.277902413673678,2
449,130,55,0.178907326700099,2
449,131,55,0.232617461532983,2
449,132,55,0.305366892757396,2
449,141,55,0.250393700676124,2
449,142,55,0.269331303817929,2
449,143,55,0.227059463193427,2
450,129,55,0.255216045218648,2
450,130,55,0.319633813854646,2
450,131,55,0.32370917525373,2
450,132,55,0.29369976223918,2
450,133,55,0.241426534770777,2
450,134,55,0.228814899489619,2
450,135,55,0.218055482800686,2
450,136,55,0.185729124230688,2
450,137,55,0.199492525363604,2
450,138,55,0.205800568832115,2
450,139,55,0.212745835040194,2
450,140,55,0.260065170357568,2
450,141,55,0.317932668917022,2
450,142,55,0.347257963706144,2
450,143,55,0.301925338806342,2
450,144,55,0.207028495685144,2
451,128,55,0.179787411998536,2
451,129,55,0.3074598776261,2
451,130,55,0.430979925811388,2
451,131,55,0.375878554305679,2
451,132,55,0.304863737875951,2
451,133,55,0.281769159644199,2
451,134,55,0.290369688114635,2
451,135,55,0.313925377811327,2
451,136,55,0.291871215150365,2
451,137,55,0.345765175106001,2
451,138,55,0.375901919610538,2
451,139,55,0.377254704811406,2
451,140,55,0.371689310599143,2
451,141,55,0.352981309263552,2
451,142,55,0.384213632185632,2
451,143,55,0.348047720431866,2
451,144,55,0.246072956468553,2
452,129,55,0.248278080668338,2
452,130,55,0.340033750617579,2
452,131,55,0.29293174561062,2
452,132,55,0.30703138808377,2
452,133,55,0.403442736348538,2
452,134,55,0.445815575387591,2
452,135,55,0.469773397997443,2
452,136,55,0.37147975302119,2
452,137,55,0.385970623028317,2
452,138,55,0.481777935765762,2
452,139,55,0.55810621566101,2
452,140,55,0.490640687965021,2
452,141,55,0.32298909047536,2
452,142,55,0.282011127161149,2
452,143,55,0.259690783743928,2
453,130,55,0.253503406058473,2
453,131,55,0.268207625794844,2
453,132,55,0.353169621372772,2
453,133,55,0.481578435632542,2
453,134,55,0.472254878166894,2
453,135,55,0.446133880558823,2
453,136,55,0.350752089593131,2
453,137,55,0.355118504492357,2
453,138,55,0.456976842344867,2
453,139,55,0.572328007802504,2
453,140,55,0.513873762157025,2
453,141,55,0.295682821827868,2
453,142,55,0.194168462717453,2
454,128,55,0.155402878153327,1
454,129,55,0.186810735283532,1
454,130,55,0.248867300896512,2
454,131,55,0.323030804139578,2
454,132,55,0.416766754336808,2
454,133,55,0.466281886575012,2
454,134,55,0.390408664834877,2
454,135,55,0.361308190443816,2
454,136,55,0.357456377541118,2
454,137,55,0.370066646705662,2
454,138,55,0.361529878195158,2
454,139,55,0.384063853986441,2
454,140,55,0.37440149960034,2
454,141,55,0.254256277635597,2
455,127,55,0.179073239207585,1
455,128,55,0.214196391793954,1
455,129,55,0.246699485812549,1
455,130,55,0.282633817246384,2
455,131,55,0.341508991685343,2
455,132,55,0.386857609571032,2
455,133,55,0.368763559885088,2
455,134,55,0.306715226302399,2
455,135,55,0.326412555158136,2
455,136,55,0.378558568905226,2
455,137,55,0.357526920976655,2
455,138,55,0.264783360285087,2
455,139,55,0.226129538192287,2
455,140,55,0.257518799648917,2
456,127,55,0.202318596672253,1
456,128,55,0.270489817814688,1
456,129,55,0.302637250438759,2
456,130,55,0.298387049666724,2
456,131,55,0.305028661126577,2
456,132,55,0.292972941092675,2
456,133,55,0.254066693624701,2
456,134,55,0.233098805656062,2
456,135,55,0.277257983491282,2
456,136,55,0.333963811853521,2
456,137,55,0.296817782089891,2
456,138,55,0.203348884137106,2
457,127,55,0.190348765332068,1
457,128,55,0.243585211005662,1
457,129,55,0.260769474133665,1
457,130,55,0.253904761698386,2
457,131,55,0.261018696200915,2
457,132,55,0.249346430968526,2
457,135,55,0.269828099190995,2
457,136,55,0.331789260401423,2
457,137,55,0.322159598599137,2
457,138,55,0.255042407086169,2
458,128,55,0.195463246846532,1
458,129,55,0.215822447425238,1
458,130,55,0.208434300342905,1
458,134,55,0.237391850671583,2
458,135,55,0.338927714341813,2
458,136,55,0.401121515790235,2
458,137,55,0.386183525236602,2
458,138,55,0.356646034851236,2
458,139,55,0.278748817131442,2
459,134,55,0.248823090536411,2
459,135,55,0.356530079815128,2
459,136,55,0.397315420686661,2
459,137,55,0.332618092773074,2
459,138,55,0.317397480956334,2
459,139,55,0.287569620129135,2
460,129,55,0.291073544369772,4
460,134,55,0.250951924189384,2
460,135,55,0.300025635884887,2
460,136,55,0.311705249882514,2
460,137,55,0.231640217078757,2
460,138,55,0.183113293558299,2
461,129,55,0.266026008222326,4
461,135,55,0.215335191314739,2
461,136,55,0.210222028809421,2
462,128,55,0.30271632032627,4
462,129,55,0.295936660427125,4
436,144,56,0.313456493613923,2
436,145,56,0.288258566870183,2
437,142,56,0.177162254047191,2
437,143,56,0.233629848159436,2
437,144,56,0.341908180381661,2
437,145,56,0.371288096281638,2
437,146,56,0.238893966550682,2
438,138,56,0.22680020723518,2
438,139,56,0.166519086816051,2
438,141,56,0.23097699101604,2
438,142,56,0.338120245207569,2
438,143,56,0.327229516447479,2
438,144,56,0.276216578663633,2
438,145,56,0.303035496985687,2
438,146,56,0.277622289106454,2
438,147,56,0.238668745739129,3
438,148,56,0.175001269546302,3
439,137,56,0.262100048162677,2
439,138,56,0.361891333808428,2
439,139,56,0.33075588739732,2
439,140,56,0.259804383406563,2
439,141,56,0.285929526471948,2
439,142,56,0.397437994322231,2
439,143,56,0.392211373476686,2
439,144,56,0.25064633803491,2
439,145,56,0.224368684537105,2
439,146,56,0.274830370713173,3
439,147,56,0.343014004673815,3
439,148,56,0.326184814096967,3
439,149,56,0.226584690562339,3
440,137,56,0.186690952765529,2
440,138,56,0.313349936517974,2
440,139,56,0.379780230464815,2
440,140,56,0.33982296824542,2
440,141,56,0.279770389714442,2
440,142,56,0.286194670863879,2
440,143,56,0.295728468965788,2
440,144,56,0.234041143475408,2
440,146,56,0.245468708957617,3
440,147,56,0.317144843597548,3
440,148,56,0.351663053837808,3
440,149,56,0.319742396571782,3
440,150,56,0.231813902318705,3
440,151,56,0.172535264180573,3
441,138,56,0.210340268557799,2
441,139,56,0.272649553967636,2
441,140,56,0.286139319587248,2
441,141,56,0.243719231756313,1
441,142,56,0.221813763822745,2
441,143,56,0.236946496655181,2
441,147,56,0.272627837424209,2
441,148,56,0.27019490150205,3
441,149,56,0.291491128532919,3
441,150,56,0.308215316560311,3
441,151,56,0.312280573407193,3
441,152,56,0.268160518325371,3
442,138,56,0.231215920101209,1
442,139,56,0.225847058251589,1
442,143,56,0.263959992379896,2
442,144,56,0.279028046656745,2
442,145,56,0.267845675553145,2
442,146,56,0.281307930410585,2
442,147,56,0.294462455723689,2
442,148,56,0.25479721270756,2
442,149,56,0.253511131683466,3
442,150,56,0.301155296556595,3
442,151,56,0.365358749760223,3
442,152,56,0.364573256260488,3
442,153,56,0.244044014204598,3
443,137,56,0.183198487416841,1
443,138,56,0.300368531155184,2
443,139,56,0.287924622019086,2
443,140,56,0.197984261959739,1
443,142,56,0.206228516638547,2
443,143,56,0.326334969155913,2
443,144,56,0.342489981183392,2
443,145,56,0.27597574172595,2
443,146,56,0.283899594951134,2
443,147,56,0.326555243683171,2
443,148,56,0.312363247016119,2
443,149,56,0.285117723450513,2
443,150,56,0.250067340127612,3
443,151,56,0.260352313937743,3
443,152,56,0.278371156548673,3
444,138,56,0.251327276506148,2
444,139,56,0.304755178712549,2
444,140,56,0.263270551010418,1
444,142,56,0.234865477083724,2
444,143,56,0.362088949642869,2
444,144,56,0.384590044420459,2
444,145,56,0.285723808152758,2
444,146,56,0.256304015779872,2
444,147,56,0.274714133032248,2
444,148,56,0.296951002013562,2
444,149,56,0.318647995840976,3
444,150,56,0.269957197211087,3
445,139,56,0.218095500596004,1
445,140,56,0.258842872847142,2
445,142,56,0.220593703917118,2
445,143,56,0.27535262767349,2
445,144,56,0.309600441038972,2
445,145,56,0.261260899255212,2
445,149,56,0.281255476243326,3
445,150,56,0.308559954806978,3
446,144,56,0.275994726036148,2
449,142,56,0.277797128479405,2
450,130,56,0.251329396342275,2
450,131,56,0.248740204943872,2
450,132,56,0.241357498774264,2
450,139,56,0.138955234525479,2
450,140,56,0.172739062870382,2
450,141,56,0.244682367523432,2
450,142,56,0.306753830873633,2
450,143,56,0.272364718653465,2
451,129,56,0.244590225313142,2
451,130,56,0.362102116180587,2
451,131,56,0.311496775776359,2
451,132,56,0.241106368854501,2
451,133,56,0.250617979338287,2
451,134,56,0.270431169015194,2
451,135,56,0.279542224686048,2
451,136,56,0.2236905489603,2
451,137,56,0.224239138996053,2
451,138,56,0.25358280569827,2
451,139,56,0.274410101424266,2
451,140,56,0.283998709066907,2
451,141,56,0.282137869807768,2
451,142,56,0.32477917431535,2
451,143,56,0.347141938008831,2
451,144,56,0.283179816371315,2
452,129,56,0.221033758343204,2
452,130,56,0.339200019069104,2
452,131,56,0.304276496161495,2
452,132,56,0.269408253869313,2
452,133,56,0.348751270488452,2
452,134,56,0.389118367692265,2
452,135,56,0.400781918042801,2
452,136,56,0.294797554707789,2
452,137,56,0.282033361886741,2
452,138,56,0.385062532339278,2
452,139,56,0.485634059001917,2
452,140,56,0.458003926501796,2
452,141,56,0.319769035845769,2
452,142,56,0.284894952227373,2
452,143,56,0.323670264483945,2
453,130,56,0.268872194420441,2
453,131,56,0.277424178643584,2
453,132,56,0.294403736262991,2
453,133,56,0.394105140856987,2
453,134,56,0.396458347387062,2
453,135,56,0.380805124124413,2
453,136,56,0.302638616555374,2
453,137,56,0.303896174006701,2
453,138,56,0.402374480263289,2
453,139,56,0.516858915390086,2
453,140,56,0.501761678035897,2
453,141,56,0.332859659876533,2
453,142,56,0.222200516147122,2
454,128,56,0.14378949725778,1
454,129,56,0.174371348464504,1
454,130,56,0.232556645789892,1
454,131,56,0.278091762147226,2
454,132,56,0.328846951411849,2
454,133,56,0.385845458481926,2
454,134,56,0.35752018460852,2
454,135,56,0.353393334745301,2
454,136,56,0.34719528721801,2
454,137,56,0.352280938961156,2
454,138,56,0.32836506555287,2
454,139,56,0.31489529705405,2
454,140,56,0.317128332429498,2
454,141,56,0.270450200432861,2
455,127,56,0.175888491626365,1
455,128,56,0.212508507608987,1
455,129,56,0.237699321124836,1
455,130,56,0.260269192807858,2
455,131,56,0.301668108469282,2
455,132,56,0.331000681362438,2
455,133,56,0.305662704111955,2
455,134,56,0.265738487782395,2
455,135,56,0.291603668277491,2
455,136,56,0.331777436426586,2
455,137,56,0.339857969095239,2
455,138,56,0.265680451380004,2
455,139,56,0.196388225563377,2
455,140,56,0.217129538380717,2
455,142,56,0.28145688422906,2
456,126,56,0.141377842134956,1
456,127,56,0.204582369671533,1
456,128,56,0.275064871696212,1
456,129,56,0.293780527995592,1
456,130,56,0.275912170195895,2
456,131,56,0.290623032085463,2
456,132,56,0.294324313069459,2
456,133,56,0.233883027254121,2
456,135,56,0.220333623578155,2
456,136,56,0.274041626798045,2
456,137,56,0.280988989288515,2
456,138,56,0.224110888910412,2
456,141,56,0.314557536497925,2
456,142,56,0.269700273072579,2
457,127,56,0.180923184864408,1
457,128,56,0.236745653959081,1
457,129,56,0.252248345303027,1
457,130,56,0.235297099272774,1
457,131,56,0.234565025643422,1
457,135,56,0.216819571231581,2
457,136,56,0.307721488957821,2
457,137,56,0.333278351065213,2
457,138,56,0.279456630414014,2
457,139,56,0.243594208532331,2
457,140,56,0.261085117732872,2
457,141,56,0.277973852151134,2
458,128,56,0.191347231701292,1
458,129,56,0.222627922217654,1
458,130,56,0.208446477623764,1
458,134,56,0.222502522133916,2
458,135,56,0.28734324518458,2
458,136,56,0.391895305910254,2
458,137,56,0.414055483931265,2
458,138,56,0.365405221278858,2
458,139,56,0.294382231703176,2
459,129,56,0.287537469281219,4
459,134,56,0.26774062589622,2
459,135,56,0.338341108578195,2
459,136,56,0.42309667922489,2
459,137,56,0.384955174416348,2
459,138,56,0.312102530726318,2
459,139,56,0.2505622512019,2
460,128,56,0.235999118336601,4
460,129,56,0.326467694451155,4
460,130,56,0.270060056370682,4
460,134,56,0.245429680419158,2
460,135,56,0.290473300993741,2
460,136,56,0.356868546983294,2
460,137,56,0.292460034965048,2
460,138,56,0.201378472903972,2
461,128,56,0.271310100180629,4
461,129,56,0.30821889672799,4
461,130,56,0.238816215672316,4
461,135,56,0.216708939339523,2
461,136,56,0.246854210296035,2
461,137,56,0.195395152999408,2
462,127,56,0.250489894128789,4
462,128,56,0.333582147135847,4
462,129,56,0.32285488129483,4
462,130,56,0.221986035838609,4
463,128,56,0.228848086701863,4
463,129,56,0.236998314871602,4
435,145,57,0.194139585838666,2
436,144,57,0.305017166904026,2
436,145,57,0.32998469101457,2
436,146,57,0.213271577953252,2
437,143,57,0.210082308054963,2
437,144,57,0.306759672199847,2
437,145,57,0.376540037392025,2
437,146,57,0.265573493870565,2
438,142,57,0.259050852324867,2
438,143,57,0.269627963106937,2
438,144,57,0.243718854896558,2
438,145,57,0.295359523264872,2
438,147,57,0.215443020312364,3
439,138,57,0.33639356802149,2
439,139,57,0.282929275294921,2
439,141,57,0.216402151944577,2
439,142,57,0.306441484797289,2
439,143,57,0.317559389328915,2
439,144,57,0.211184929039192,1
439,146,57,0.277863550011362,3
439,147,57,0.31628145789704,3
439,148,57,0.275766137040528,3
439,149,57,0.19697346521038,3
440,137,57,0.200021424477117,2
440,138,57,0.342528373771013,2
440,139,57,0.352852964962972,2
440,140,57,0.259593601034405,2
440,141,57,0.206223664569191,1
440,142,57,0.229580961158196,2
440,143,57,0.251393792253045,2
440,146,57,0.25952107908515,3
440,147,57,0.366568728667382,3
440,148,57,0.362762562902604,3
440,149,57,0.298958298395293,3
440,150,57,0.236607252213768,3
440,151,57,0.187696002403612,3
441,138,57,0.219944680756448,2
441,139,57,0.253618466052662,2
441,146,57,0.253637191271777,3
441,147,57,0.341308266757917,3
441,148,57,0.339842235200435,3
441,149,57,0.328341017189704,3
441,150,57,0.36084809178947,3
441,151,57,0.351172594419385,3
441,152,57,0.253793658731633,3
442,147,57,0.266351426621449,2
442,148,57,0.268182399744941,3
442,149,57,0.288575435263596,3
442,150,57,0.349495144538906,3
442,151,57,0.389336710813275,3
442,152,57,0.331435907272903,3
442,153,57,0.202900538796393,3
443,138,57,0.192086147690585,1
443,139,57,0.209250013284306,1
443,143,57,0.259724936659297,2
443,144,57,0.282847496727915,2
443,147,57,0.275076577902376,2
443,148,57,0.27930941957191,2
443,149,57,0.293218630099713,3
443,150,57,0.274062778051839,3
443,151,57,0.277737867282807,3
443,152,57,0.2716419251956,3
444,139,57,0.239283097802267,1
444,143,57,0.28539035793009,2
444,144,57,0.325589140145475,2
444,145,57,0.281217648945339,2
444,148,57,0.283653481976871,3
444,149,57,0.329045391627005,3
444,150,57,0.295108958634743,3
444,151,57,0.252402056975919,3
445,144,57,0.25889134643323,2
445,148,57,0.242164967908508,3
445,149,57,0.295268299650236,3
445,150,57,0.323010406605296,3
445,151,57,0.303735490428327,3
446,149,57,0.28354572364045,3
446,150,57,0.286774234060811,3
450,142,57,0.270562740177433,2
451,130,57,0.246537907192255,2
451,131,57,0.227400921685905,2
451,134,57,0.238687211867163,2
451,139,57,0.191014782512351,2
451,140,57,0.196330742673752,2
451,141,57,0.203816802631386,2
451,142,57,0.246097028385454,2
451,143,57,0.292633296237771,2
452,130,57,0.280637025830344,2
452,131,57,0.28226741534882,2
452,133,57,0.261780965718199,2
452,134,57,0.308573403989513,2
452,135,57,0.300710696259705,2
452,136,57,0.227806705427949,2
452,137,57,0.207440026538464,2
452,138,57,0.282406829904726,2
452,139,57,0.361718991131359,2
452,140,57,0.35997356517243,2
452,141,57,0.271175561247813,2
453,132,57,0.230199929753342,2
453,133,57,0.283749157247371,2
453,134,57,0.323054734734071,2
453,135,57,0.324213413606974,2
453,136,57,0.274637230088332,2
453,137,57,0.255364645731102,2
453,138,57,0.316107207367457,2
453,139,57,0.403112089020304,2
453,140,57,0.433286495946685,2
453,141,57,0.329453083221563,2
453,142,57,0.214261682746644,2
454,128,57,0.129264921856245,1
454,129,57,0.151788734210989,1
454,132,57,0.232121796739183,2
454,133,57,0.284778643885243,2
454,134,57,0.315758235233598,2
454,135,57,0.337145638771633,2
454,136,57,0.326265391423501,2
454,137,57,0.300892342661994,2
454,138,57,0.266950303880864,2
454,139,57,0.245537014788354,2
454,140,57,0.266775582276587,2
454,141,57,0.267223715633688,2
454,142,57,0.249521505878824,2
455,127,57,0.160154714590917,1
455,128,57,0.188495498598647,1
455,129,57,0.205534552951999,1
455,130,57,0.223369299572226,1
455,131,57,0.236492663294274,2
455,132,57,0.249724091551294,2
455,133,57,0.232369982442104,2
455,134,57,0.219238139375551,2
455,135,57,0.240630748288962,2
455,136,57,0.276870995629557,2
455,137,57,0.305386277481084,2
455,138,57,0.258468297803624,2
455,141,57,0.276491968930174,2
455,142,57,0.363183538803553,2
455,143,57,0.295099631355787,2
456,126,57,0.137186973220723,1
456,127,57,0.188302534626817,1
456,128,57,0.243832854972683,1
456,129,57,0.25394376668311,1
456,130,57,0.243605019696575,1
456,131,57,0.24962387040999,1
456,136,57,0.236432601270696,2
456,137,57,0.302184265012303,2
456,138,57,0.286778426625594,2
456,139,57,0.22765633838539,2
456,140,57,0.259789732983557,2
456,141,57,0.365028267308132,2
456,142,57,0.378762732677924,2
456,143,57,0.265987592080971,2
457,127,57,0.16563159386804,1
457,128,57,0.217662394521665,1
457,129,57,0.23467073480492,1
457,130,57,0.216877348542891,1
457,136,57,0.283393071885622,2
457,137,57,0.350680980867961,2
457,138,57,0.328898133677431,2
457,139,57,0.30099331752281,2
457,140,57,0.313664190446831,2
457,141,57,0.34109237322532,2
457,142,57,0.26565885260525,2
458,128,57,0.190549490259494,1
458,129,57,0.229414671790954,1
458,130,57,0.217616653168806,1
458,135,57,0.236515369094561,2
458,136,57,0.36144788764454,2
458,137,57,0.4130691948429,2
458,138,57,0.35799476880973,2
458,139,57,0.305855303000897,2
458,140,57,0.2528246816383,2
458,141,57,0.220036870074207,2
459,128,57,0.208180343974974,1
459,129,57,0.282229281852281,4
459,130,57,0.261500487844954,1
459,134,57,0.272581624996655,2
459,135,57,0.298156505711121,2
459,136,57,0.424255381651528,2
459,137,57,0.443652117744555,2
459,138,57,0.333640795935341,2
459,139,57,0.242269381614595,2
460,128,57,0.231096785310911,4
460,129,57,0.325567400048313,4
460,130,57,0.290541229964722,4
460,131,57,0.243569877524348,1
460,134,57,0.248853639730364,1
460,135,57,0.272270032639823,2
460,136,57,0.379949063635408,2
460,137,57,0.36983242836744,2
460,138,57,0.260803273743013,2
461,128,57,0.27683455800192,4
461,129,57,0.341408982527651,4
461,130,57,0.283114831617177,4
461,135,57,0.220877055346001,1
461,136,57,0.276382868030874,2
461,137,57,0.232172319500194,2
462,127,57,0.252243940754632,1
462,128,57,0.307380501540037,4
462,129,57,0.308021375108488,4
462,130,57,0.226786357639155,4
463,127,57,0.221512346679319,1
463,128,57,0.235994195606041,1
463,129,57,0.218000414168872,4
464,127,57,0.171779907684434,1
435,145,58,0.286249315528469,2
436,144,58,0.287555040367333,2
436,145,58,0.371518451807363,2
436,146,58,0.271878805105847,2
437,144,58,0.242796514198003,2
437,145,58,0.336304487796716,2
437,146,58,0.288985081818137,2
438,143,58,0.199529740264488,1
438,145,58,0.252160089458969,2
439,142,58,0.210335840455669,1
439,143,58,0.222312914569285,1
439,147,58,0.271811936052929,3
439,148,58,0.220444467453826,3
440,138,58,0.298302491759019,2
440,139,58,0.265637654243987,2
440,146,58,0.241233676790753,3
440,147,58,0.365208783131154,3
440,148,58,0.342768033021959,3
440,149,58,0.264243108271431,3
440,150,58,0.236087892362824,3
440,151,58,0.206876432773684,3
441,146,58,0.228291700379912,3
441,147,58,0.366377448787586,3
441,148,58,0.37608377799644,3
441,149,58,0.34296390588003,3
441,150,58,0.389570316754393,3
441,151,58,0.370110126899986,3
441,152,58,0.234645343878874,3
442,147,58,0.233174059838546,3
442,148,58,0.263105557098587,3
442,149,58,0.299416277213514,3
442,150,58,0.366294563195047,3
442,151,58,0.376553062607334,3
442,152,58,0.28065624567789,3
443,149,58,0.272168044968414,3
443,150,58,0.28752399654495,3
443,151,58,0.284343158883696,3
443,152,58,0.247033831077137,3
444,144,58,0.233358226490452,2
444,149,58,0.292657509477081,3
444,150,58,0.305374312183838,3
444,151,58,0.279896472856488,3
445,149,58,0.279938893132748,3
445,150,58,0.309899337932781,3
445,151,58,0.29037279720762,3
446,150,58,0.285063314323271,3
452,134,58,0.215806784191638,2
452,139,58,0.234733552615463,2
452,140,58,0.250493050329244,2
453,134,58,0.238579500638212,2
453,135,58,0.254452032724994,2
453,138,58,0.219852467884954,2
453,139,58,0.275959348326573,2
453,140,58,0.332057890746096,2
453,141,58,0.286916168866334,2
454,134,58,0.241018324994055,2
454,135,58,0.276048028137857,2
454,136,58,0.263322039474552,2
454,137,58,0.223194884166501,2
454,140,58,0.220215313168573,2
454,142,58,0.239398346226334,2
454,143,58,0.192220074226297,2
455,128,58,0.16568166910809,1
455,129,58,0.172269742928886,1
455,137,58,0.242987629201657,2
455,141,58,0.272725891621918,2
455,142,58,0.399759167773064,2
455,143,58,0.332147065185809,2
455,144,58,0.153124384069837,2
456,127,58,0.169383621373526,1
456,128,58,0.204151454094525,1
456,129,58,0.208305744058712,1
456,130,58,0.210646914630336,1
456,137,58,0.300392885716902,2
456,138,58,0.314056313022728,2
456,139,58,0.236925463170061,2
456,140,58,0.245573452415991,2
456,141,58,0.363479844786541,2
456,142,58,0.452770522180646,2
456,143,58,0.337768752824093,2
456,144,58,0.15685404730419,2
457,127,58,0.155636660747456,1
457,128,58,0.199443651364025,1
457,129,58,0.217501145653658,1
457,130,58,0.201835698002681,1
457,136,58,0.231903029650949,2
457,137,58,0.325158931180509,2
457,138,58,0.342046535019504,2
457,139,58,0.322037142732241,2
457,140,58,0.341820089413746,2
457,141,58,0.362062804997311,2
457,142,58,0.322178441586926,2
457,143,58,0.226448832620377,2
458,128,58,0.196241120713079,1
458,129,58,0.23521155210821,1
458,135,58,0.195706274281545,2
458,136,58,0.300915896396731,2
458,137,58,0.363678968060005,2
458,138,58,0.327316099976371,2
458,139,58,0.305073648759924,2
458,140,58,0.30563622971411,2
458,141,58,0.278178510552262,2
458,142,58,0.246449533579523,2
459,129,58,0.25312303679621,4
459,130,58,0.257937490837597,1
459,135,58,0.264408643919161,2
459,136,58,0.387709830801275,2
459,137,58,0.457565026208712,2
459,138,58,0.36023885088677,2
459,139,58,0.258715046728725,2
459,140,58,0.21887677797722,2
460,128,58,0.229671289730911,4
460,129,58,0.296727147318624,4
460,130,58,0.295315736871996,4
460,131,58,0.248485212211613,1
460,135,58,0.265589769501268,2
460,136,58,0.363861462396745,2
460,137,58,0.416099571246656,2
460,138,58,0.332084647788757,2
460,139,58,0.223035189844986,2
461,127,58,0.237231237754413,1
461,128,58,0.277746158197435,4
461,129,58,0.34964647728459,4
461,130,58,0.31966874404326,4
461,131,58,0.206708164892725,1
461,136,58,0.275388452904025,2
461,137,58,0.252076379485715,2
461,138,58,0.186547216099298,2
462,127,58,0.242336227113778,1
462,128,58,0.267431200482983,1
462,129,58,0.276084983947659,4
462,130,58,0.225248016116031,1
463,126,58,0.194130423435853,1
463,127,58,0.25424530159521,1
463,128,58,0.248912547620941,1
463,129,58,0.208003997163,1
464,126,58,0.188301368716947,1
464,127,58,0.239440530965247,1
464,128,58,0.225195420626364,1
465,127,58,0.158860754842554,1
434,144,59,0.196154336977442,1
434,145,59,0.189121403768673,1
435,144,59,0.27945432214801,1
435,145,59,0.331326617943725,2
435,146,59,0.229396135001717,1
436,144,59,0.239206359734495,2
436,145,59,0.349207906743792,2
436,146,59,0.298639098182142,2
437,145,59,0.265578581477268,2
437,146,59,0.291244238285409,1
437,147,59,0.192840632698538,1
438,146,59,0.247768048096349,1
438,147,59,0.202014729940415,1
439,147,59,0.22011092301622,1
440,147,59,0.307985714754097,3
440,148,59,0.296616232781749,3
440,149,59,0.234994268905264,3
440,150,59,0.228929040888153,3
440,151,59,0.222998822878553,3
441,147,59,0.325581037660726,3
441,148,59,0.35374548663335,3
441,149,59,0.325507973975573,3
441,150,59,0.366248303660024,3
441,151,59,0.349895864227982,3
441,152,59,0.224692006653836,3
442,148,59,0.239099190241443,3
442,149,59,0.280314009912165,3
442,150,59,0.339661837146086,3
442,151,59,0.333229877479125,3
442,152,59,0.239607903804286,3
443,150,59,0.28472124343369,3
443,151,59,0.278023998052389,3
444,148,59,0.186049325477566,1
444,150,59,0.296994599976559,3
445,147,59,0.212227652875986,1
445,148,59,0.214911059213335,1
445,150,59,0.274979065440566,3
446,124,59,0.22614800432032,1
446,125,59,0.202569019979974,1
446,148,59,0.241694953131836,1
447,124,59,0.237755755873265,1
452,123,59,0.205173003123791,1
453,140,59,0.220467008377969,2
454,142,59,0.206566583393223,2
455,141,59,0.244203425881296,2
455,142,59,0.355799066103839,2
455,143,59,0.301360214048804,2
456,128,59,0.162936398886455,1
456,129,59,0.169525426633508,1
456,137,59,0.265142224987535,1
456,138,59,0.290122703652186,2
456,139,59,0.220658429580174,2
456,140,59,0.215548352614107,2
456,141,59,0.313241141817225,2
456,142,59,0.438290957966193,2
456,143,59,0.363754599102245,2
456,144,59,0.177982536413132,2
457,128,59,0.1740020376807,1
457,129,59,0.195874601046841,1
457,137,59,0.276258574972668,2
457,138,59,0.316017467638111,2
457,139,59,0.306086671337215,2
457,140,59,0.335180432913876,2
457,141,59,0.351163785322594,2
457,142,59,0.355149713190883,2
457,143,59,0.288652667959798,2
457,144,59,0.189846199293991,2
458,130,59,0.21653433550392,1
458,131,59,0.193520051953886,1
458,136,59,0.236957190050752,2
458,137,59,0.294472536722157,2
458,138,59,0.287903470765293,2
458,139,59,0.298765251985391,2
458,140,59,0.362577030134083,2
458,141,59,0.352183473606815,2
458,142,59,0.309007664196853,2
458,143,59,0.272274130989668,2
459,130,59,0.231871726737484,1
459,135,59,0.23870087303331,2
459,136,59,0.326164251686542,2
459,137,59,0.401336844033198,2
459,138,59,0.347961348886587,2
459,139,59,0.269064110251075,2
459,140,59,0.261592441625366,2
459,141,59,0.251622075050113,2
459,142,59,0.257652537754752,2
460,128,59,0.24164047334339,1
460,129,59,0.254698734542626,4
460,130,59,0.266752169864259,1
460,131,59,0.241773269299836,1
460,135,59,0.260343434179748,2
460,136,59,0.321502096093962,2
460,137,59,0.389299119052635,2
460,138,59,0.348924814405992,2
460,139,59,0.236392607029113,2
461,127,59,0.252284782930665,1
461,128,59,0.274381295206683,4
461,129,59,0.31413488828181,4
461,130,59,0.305460189100688,4
461,131,59,0.210113540307224,1
461,136,59,0.248884471569135,2
461,137,59,0.246887986351647,2
461,138,59,0.205545293455039,2
462,127,59,0.233604174588573,1
462,128,59,0.250473218084595,1
462,129,59,0.25010194056394,4
462,130,59,0.217465131993245,1
463,126,59,0.204725411502589,1
463,127,59,0.269061778431336,1
463,128,59,0.270747660548851,1
463,129,59,0.21606154138655,1
464,126,59,0.205912449072115,1
464,127,59,0.280824089591623,1
464,128,59,0.27265504198783,1
464,129,59,0.205714220840571,1
465,127,59,0.19558041489998,1
465,128,59,0.197470272360314,1
434,143,60,0.164561889228105,1
434,144,60,0.220200474315689,1
434,145,60,0.210925578866006,1
434,146,60,0.142918056179991,1
435,143,60,0.16060847729062,1
435,144,60,0.255505143758807,1
435,145,60,0.312111080732027,1
435,146,60,0.237608309493813,1
435,147,60,0.134081542841229,1
436,144,60,0.183680067077268,1
436,145,60,0.283423361988493,2
436,146,60,0.284489545345085,1
436,147,60,0.189005696046779,1
437,123,60,0.21084120938818,1
437,144,60,0.12071160684709,1
437,145,60,0.194840274116481,1
437,146,60,0.259757111060947,1
437,147,60,0.21887503500085,1
437,148,60,0.125879437570732,1
438,123,60,0.192317139167147,1
438,145,60,0.135055289565846,1
438,146,60,0.196416902235419,1
438,147,60,0.190427222822476,1
438,148,60,0.128397555574566,1
439,122,60,0.196993226793824,1
439,146,60,0.149097755347923,1
439,147,60,0.1689462520732,1
439,148,60,0.156996170539592,1
440,138,60,0.121904956817525,1
440,146,60,0.150966673538076,1
440,147,60,0.22162144757862,1
440,148,60,0.248395920003226,1
440,150,60,0.225281368204418,3
441,126,60,0.142378699208255,1
441,146,60,0.143476503453731,1
441,147,60,0.233405663712212,1
441,148,60,0.285962289716967,3
441,149,60,0.295288226109824,3
441,150,60,0.305130719459191,3
441,151,60,0.297357068400423,3
442,126,60,0.131364925737901,1
442,147,60,0.151294871277898,1
442,148,60,0.197119274605268,1
442,149,60,0.242717350095553,1
442,150,60,0.28816272672354,3
442,151,60,0.281794950983736,3
443,120,60,0.176878796626502,1
443,148,60,0.13241187747008,1
443,149,60,0.194175587722211,1
444,120,60,0.164258952868788,1
444,146,60,0.125523976382953,1
444,147,60,0.136754550204691,1
444,148,60,0.142415713902394,1
444,149,60,0.187566975044724,1
445,120,60,0.172050846295111,1
445,123,60,0.148956739138054,1
445,124,60,0.1474083755008,1
445,125,60,0.132912900738532,1
445,126,60,0.125653086179912,1
445,127,60,0.114638017254147,1
445,146,60,0.133584394162141,1
445,147,60,0.170007571583568,1
445,148,60,0.185025644835307,1
445,149,60,0.200856451481002,1
446,119,60,0.186697594918725,1
446,120,60,0.176193512491205,1
446,123,60,0.205768771290221,1
446,124,60,0.21117129142678,1
446,125,60,0.171208176104303,1
446,126,60,0.13804418784273,1
446,147,60,0.144750736949252,1
446,148,60,0.195945226920449,1
446,149,60,0.237572978891708,1
447,119,60,0.204483679522986,1
447,120,60,0.176525478828584,1
447,123,60,0.181174844743202,1
447,124,60,0.186745950736139,1
447,125,60,0.146761931474083,1
447,147,60,0.120073406627531,1
447,148,60,0.195495762777336,1
448,119,60,0.216904788643859,1
448,120,60,0.185893588183487,1
448,124,60,0.128725753314387,1
448,148,60,0.182076976337353,1
449,120,60,0.229559456598381,1
449,121,60,0.18789492547033,1
449,147,60,0.124234079653832,1
449,148,60,0.194093102543163,1
450,120,60,0.281893287826262,1
450,121,60,0.267320757020803,1
450,122,60,0.194373144672315,1
450,123,60,0.1447252400314,1
450,147,60,0.194701259974065,1
451,120,60,0.253959406362975,1
451,121,60,0.274126749995383,1
451,122,60,0.219071449594819,1
451,123,60,0.163051176235827,1
451,146,60,0.154251712921805,1
451,147,60,0.309025070406824,1
452,121,60,0.234803907621122,1
452,122,60,0.212698963108068,1
452,123,60,0.164177244962987,1
452,145,60,0.130756309009172,1
452,146,60,0.202676919638803,1
453,121,60,0.232144832291756,1
453,122,60,0.197684988206174,1
453,123,60,0.150819003398144,1
453,135,60,0.122607717823997,1
453,136,60,0.120519361264169,1
453,140,60,0.115167340334885,1
453,141,60,0.125520349107803,1
453,143,60,0.114815388653582,1
453,144,60,0.134741824687103,1
453,145,60,0.159662417981185,1
454,122,60,0.175110358668735,1
454,135,60,0.127445113203018,1
454,136,60,0.126533607222442,1
454,140,60,0.11501574849812,1
454,141,60,0.145595974497147,1
454,142,60,0.154901619347528,1
454,143,60,0.143899175223581,1
454,144,60,0.131001055866821,1
455,137,60,0.127750628696288,1
455,138,60,0.126235970453441,1
455,140,60,0.124044224774986,1
455,141,60,0.19359731998069,1
455,142,60,0.267143303183297,2
455,143,60,0.239444487992683,2
456,129,60,0.113889514894817,1
456,130,60,0.116371713453177,1
456,136,60,0.125194012113026,1
456,137,60,0.191747256555193,1
456,138,60,0.216371202337133,1
456,139,60,0.178198229738983,1
456,140,60,0.1754152264343,2
456,141,60,0.250753483974227,2
456,142,60,0.372370107747973,2
456,143,60,0.358299459922284,2
456,144,60,0.197618166260726,2
457,128,60,0.12802910450208,1
457,129,60,0.14409854581126,1
457,130,60,0.141740640311105,1
457,131,60,0.123024536490765,1
457,136,60,0.138545658632142,1
457,137,60,0.211475794109456,1
457,138,60,0.255108239774758,2
457,139,60,0.258526970156853,2
457,140,60,0.294128345996449,2
457,141,60,0.331311943966984,2
457,142,60,0.386599083778562,2
457,143,60,0.373717098730096,2
457,144,60,0.234491537991044,2
458,129,60,0.18381364030696,1
458,130,60,0.178799321049464,1
458,131,60,0.162480104160268,1
458,132,60,0.140597742440476,1
458,133,60,0.119204108939603,1
458,134,60,0.118345010018817,1
458,135,60,0.134282844835156,1
458,136,60,0.179677816470806,1
458,137,60,0.231877685832372,2
458,138,60,0.253923957992197,2
458,139,60,0.292166225677942,2
458,140,60,0.392129924661966,2
458,141,60,0.412439038223754,2
458,142,60,0.364300880871993,2
458,143,60,0.309071282834377,2
458,144,60,0.22998316473256,2
459,128,60,0.204233138446592,1
459,129,60,0.187461218775756,1
459,130,60,0.191809732836582,1
459,131,60,0.204015384168951,1
459,132,60,0.170495758066589,1
459,133,60,0.145393589031421,1
459,134,60,0.176092184324368,1
459,135,60,0.202774078794591,1
459,136,60,0.252785558884902,2
459,137,60,0.314435339722111,2
459,138,60,0.307398802791928,2
459,139,60,0.276993404388984,2
459,140,60,0.307224434493672,2
459,141,60,0.314228349501245,2
459,142,60,0.273791062167916,2
459,143,60,0.232478423836832,2
460,129,60,0.213495715293007,1
460,130,60,0.218202599427852,1
460,131,60,0.215700556847975,1
460,135,60,0.236102118818605,1
460,136,60,0.266060961964675,2
460,137,60,0.321257207913904,2
460,138,60,0.317781289063869,2
460,139,60,0.242221049350916,2
460,140,60,0.181421829205651,2
460,141,60,0.163344585109442,2
461,128,60,0.263467601555225,1
461,129,60,0.259350526491922,4
461,130,60,0.251203619398781,1
461,136,60,0.209798202906569,1
461,137,60,0.22884881686764,2
461,138,60,0.222897848017737,2
462,127,60,0.229383392431224,1
462,128,60,0.261123580981697,1
462,129,60,0.246859227241534,1
462,130,60,0.204006598625894,1
463,126,60,0.223260457764008,1
463,127,60,0.259779416447743,1
463,128,60,0.288146898613797,1
463,129,60,0.233087264326041,1
464,126,60,0.215830243711435,1
464,127,60,0.272105580463892,1
464,128,60,0.287633332981598,1
464,129,60,0.211511195372765,1
465,127,60,0.21294969261434,1
465,128,60,0.227856969097877,1
433,144,61,0.129247515646275,1
434,143,61,0.149201026697876,1
434,144,61,0.210401178515828,1
434,145,61,0.200679751363008,1
434,146,61,0.161188252471164,1
434,147,61,0.12067468636789,1
435,143,61,0.128559475724014,1
435,144,61,0.202572553040184,1
435,145,61,0.241366496300933,1
435,146,61,0.218796389080564,1
435,147,61,0.158185457490785,1
436,123,61,0.140014045563098,1
436,124,61,0.14001636560597,1
436,125,61,0.116249987752058,1
436,144,61,0.136159064683078,1
436,145,61,0.197958282190324,1
436,146,61,0.230643540793373,1
436,147,61,0.202282700780514,1
436,148,61,0.145059714841529,1
437,122,61,0.166832775455275,1
437,123,61,0.161115341885286,1
437,124,61,0.145152457672054,1
437,145,61,0.134218590246794,1
437,146,61,0.197666145218385,1
437,147,61,0.213753675795843,1
437,148,61,0.163067463643397,1
438,122,61,0.188191525875002,1
438,123,61,0.160183944775725,1
438,124,61,0.127111462773605,1
438,146,61,0.140149585529641,1
438,147,61,0.160565703708338,1
438,148,61,0.136671040438182,1
438,149,61,0.121755461263151,1
439,121,61,0.161470308444636,1
439,122,61,0.16571858958729,1
439,123,61,0.127672453850696,1
439,147,61,0.125208615428563,1
439,148,61,0.141542400302694,1
439,149,61,0.173408153813048,1
440,122,61,0.13227565444523,1
440,147,61,0.144459966093928,1
440,148,61,0.192608004237411,1
440,149,61,0.239980147028065,1
441,121,61,0.158203240560511,1
441,122,61,0.116309896676361,1
441,147,61,0.149366738998616,1
441,148,61,0.203063601301975,1
441,149,61,0.244136486167174,1
441,150,61,0.234597200045072,3
442,120,61,0.18639608356036,1
442,121,61,0.158392329942977,1
442,148,61,0.151729543675596,1
442,149,61,0.195214860936866,1
442,150,61,0.230594266380304,1
443,119,61,0.19121231590872,1
443,120,61,0.193384429549272,1
443,121,61,0.136176894860274,1
443,149,61,0.165018125069955,1
443,150,61,0.250275602250154,1
444,119,61,0.19063668618549,1
444,120,61,0.176568287741468,1
444,121,61,0.127029166024435,1
444,148,61,0.118742585284305,1
444,149,61,0.156025238486275,1
444,150,61,0.243454440670403,1
445,118,61,0.168483350524419,1
445,119,61,0.215448155026537,1
445,120,61,0.189653400198304,1
445,121,61,0.1377130341092,1
445,123,61,0.124674452055337,1
445,124,61,0.1381734742927,1
445,125,61,0.114116973311169,1
445,147,61,0.128652077232131,1
445,148,61,0.156474125562887,1
445,149,61,0.165124929480118,1
445,150,61,0.201230272805009,1
446,118,61,0.178876141555308,1
446,119,61,0.20986200997397,1
446,120,61,0.178313537047387,1
446,121,61,0.134035401074879,1
446,122,61,0.128821487469225,1
446,123,61,0.167793120104827,1
446,124,61,0.176080348572663,1
446,125,61,0.131966476346209,1
446,147,61,0.115267267054506,1
446,148,61,0.160177373283734,1
446,149,61,0.190070336633745,1
446,150,61,0.203972940338955,1
447,118,61,0.168245575572252,1
447,119,61,0.193534231302197,1
447,120,61,0.156181929706611,1
447,121,61,0.116649211778978,1
447,122,61,0.116807810851827,1
447,123,61,0.144714263991013,1
447,124,61,0.143223818987476,1
447,148,61,0.149662350146429,1
447,149,61,0.232519477996478,1
448,118,61,0.170795597109787,1
448,119,61,0.212445242277484,1
448,120,61,0.174599113079408,1
448,121,61,0.122291838687443,1
448,148,61,0.153380754695578,1
448,149,61,0.265207751477573,1
449,119,61,0.231843132503513,1
449,120,61,0.223927923498977,1
449,121,61,0.164963975033795,1
449,122,61,0.122519815285959,1
449,148,61,0.172196349491447,1
449,149,61,0.256415754697463,1
450,119,61,0.208605842192992,1
450,120,61,0.245652074782543,1
450,121,61,0.212991571154702,1
450,122,61,0.164098316397884,1
450,123,61,0.129192081931572,1
450,147,61,0.153898736653041,1
450,148,61,0.237489951976761,1
451,119,61,0.177123437492345,1
451,120,61,0.222013381724638,1
451,121,61,0.219751163271851,1
451,122,61,0.186594229353832,1
451,123,61,0.143777060885839,1
451,146,61,0.125053290324842,1
451,147,61,0.251337899240515,1
451,148,61,0.324095220966065,1
452,120,61,0.206681054544043,1
452,121,61,0.209574536641509,1
452,122,61,0.17836807572017,1
452,123,61,0.131256967194735,1
452,146,61,0.158492951497773,1
452,147,61,0.281245536567267,1
453,120,61,0.221382801138267,1
453,121,61,0.211231424111563,1
453,122,61,0.171284925948942,1
453,123,61,0.125413108953547,1
453,145,61,0.125442610006305,1
453,146,61,0.158990759681433,1
454,121,61,0.202367871085322,1
454,122,61,0.16397813346639,1
454,123,61,0.132579945144294,1
454,143,61,0.116038510544724,1
454,144,61,0.122734154272063,1
454,145,61,0.126415485242737,1
455,122,61,0.160751943088901,1
455,123,61,0.141233693278367,1
455,124,61,0.119626816040056,1
455,141,61,0.139745992284927,1
455,142,61,0.176491290582614,1
455,143,61,0.177517361928949,2
455,144,61,0.143234936350272,1
456,123,61,0.155722808532256,1
456,124,61,0.135053735019354,1
456,125,61,0.115291174095263,1
456,137,61,0.126215549365425,1
456,138,61,0.143190796651375,1
456,139,61,0.134487526790018,1
456,140,61,0.139985981288159,1
456,141,61,0.19100100357753,2
456,142,61,0.285546613406334,2
456,143,61,0.315581252470787,2
456,144,61,0.21281955822992,2
457,124,61,0.136157062615625,1
457,125,61,0.116709426901832,1
457,137,61,0.156795798918186,1
457,138,61,0.19095888949982,1
457,139,61,0.202091303132044,1
457,140,61,0.232531231310111,2
457,141,61,0.29305347131174,2
457,142,61,0.394375396409356,2
457,143,61,0.415841799173697,2
457,144,61,0.260062014157114,2
458,127,61,0.124408636381965,1
458,128,61,0.135088841860979,1
458,129,61,0.138789675324015,1
458,130,61,0.13689382343819,1
458,131,61,0.125259138189573,1
458,136,61,0.140440556591711,1
458,137,61,0.184781062853801,1
458,138,61,0.221818333247284,1
458,139,61,0.268597298782328,2
458,140,61,0.362372159749343,2
458,141,61,0.409118950882737,2
458,142,61,0.391827588922886,2
458,143,61,0.32411941065164,2
458,144,61,0.201304349300756,2
459,126,61,0.128824160818117,1
459,127,61,0.181878665667737,1
459,128,61,0.186024193642602,1
459,129,61,0.15758496680054,1
459,130,61,0.151822262952387,1
459,131,61,0.149994975988381,1
459,132,61,0.12864474024376,1
459,133,61,0.115411533679768,1
459,134,61,0.135102656126402,1
459,135,61,0.160043458524888,1
459,136,61,0.186771294554716,1
459,137,61,0.226899085813604,2
459,138,61,0.247693005897478,2
459,139,61,0.275259260668994,2
459,140,61,0.338820120881535,2
459,141,61,0.340950626849675,2
459,142,61,0.264519417133627,2
459,143,61,0.187953362286212,2
460,128,61,0.226132529516598,1
460,129,61,0.174720956549201,1
460,130,61,0.1668656446921,1
460,131,61,0.170004980672747,1
460,132,61,0.139007252948645,1
460,133,61,0.129687028336462,1
460,134,61,0.164670483722108,1
460,135,61,0.192048838574762,1
460,136,61,0.208778302638734,1
460,137,61,0.240047746246759,2
460,138,61,0.254553219569423,2
460,140,61,0.209345099711438,2
460,141,61,0.175883674887611,2
461,128,61,0.233035069249864,1
461,129,61,0.208956957716712,1
461,130,61,0.192052748494728,1
461,131,61,0.181115501108533,1
462,127,61,0.22500833331135,1
462,128,61,0.267399190957476,1
462,129,61,0.254993109119365,1
462,130,61,0.194815071620312,1
463,126,61,0.23672834196405,1
463,127,61,0.242354599026873,1
463,128,61,0.286689157970942,1
463,129,61,0.253618890019887,1
463,130,61,0.17226466709905,1
464,126,61,0.211697057893573,1
464,127,61,0.23388754957119,1
464,128,61,0.267580083640254,1
464,129,61,0.218712608446105,1
465,127,61,0.20411920903167,1
465,128,61,0.233971424420588,1
433,122,62,0.119678881570691,1
433,144,62,0.134483039803551,1
433,145,62,0.120561722656092,1
433,146,62,0.114691119149111,1
434,143,62,0.12003282354258,1
434,144,62,0.16966298044437,1
434,145,62,0.166043136498227,1
434,146,62,0.16593164489485,1
434,147,62,0.158375029724813,1
434,148,62,0.125513118111239,1
435,144,62,0.140551683112198,1
435,145,62,0.164251521665479,1
435,146,62,0.184122441546225,1
435,147,62,0.181080582696786,1
435,148,62,0.151668103758535,1
436,121,62,0.124853071802712,1
436,122,62,0.1236545164569,1
436,145,62,0.125432882313859,1
436,146,62,0.167269308598018,1
436,147,62,0.192941642889957,1
436,148,62,0.187111092508895,1
436,149,62,0.124404172949233,1
437,121,62,0.144802084090978,1
437,122,62,0.148414037535985,1
437,123,62,0.121056692614717,1
437,146,62,0.133384646714706,1
437,147,62,0.181947795879189,1
437,148,62,0.199748530906457,1
437,149,62,0.146092816977683,1
438,121,62,0.149304557138911,1
438,122,62,0.154831570540421,1
438,123,62,0.122889538260121,1
438,147,62,0.121984168027444,1
438,148,62,0.143421258168906,1
438,149,62,0.144072848686663,1
438,150,62,0.148583683310427,1
439,121,62,0.12928978282326,1
439,122,62,0.128059076629532,1
439,148,62,0.121521878875767,1
439,149,62,0.187782856800453,1
439,150,62,0.233518627424009,1
440,148,62,0.136101087165024,1
440,149,62,0.215220366857898,1
440,150,62,0.233888585935519,1
441,121,62,0.119636696831778,1
441,148,62,0.130802686312868,1
441,149,62,0.181687044258787,1
441,150,62,0.187824346704192,1
441,151,62,0.20225085613115,1
442,119,62,0.140079454284462,1
442,120,62,0.165654287891458,1
442,121,62,0.137480546970481,1
442,149,62,0.145399418580769,1
442,150,62,0.182085620558001,1
442,151,62,0.212910640522147,1
443,118,62,0.119934828229208,1
443,119,62,0.190843652852621,1
443,120,62,0.19084795140921,1
443,121,62,0.126059093682436,1
443,149,62,0.13302129502579,1
443,150,62,0.211106989730949,1
443,151,62,0.266301798902358,1
444,118,62,0.13237607579328,1
444,119,62,0.206913671228303,1
444,120,62,0.186745197016627,1
444,149,62,0.125990870289771,1
444,150,62,0.198026729343469,1
444,151,62,0.259149966440639,1
445,118,62,0.169760975757742,1
445,119,62,0.244110600612699,1
445,120,62,0.204115346219173,1
445,121,62,0.121945846101028,1
445,124,62,0.116986171508121,1
445,148,62,0.115566623246142,1
445,149,62,0.126921643225362,1
445,150,62,0.165685143283963,1
445,151,62,0.220998027327608,1
446,117,62,0.1208208843994,1
446,118,62,0.185700706649728,1
446,119,62,0.225943393026662,1
446,120,62,0.176936515053475,1
446,121,62,0.115031176194372,1
446,123,62,0.121813650764818,1
446,124,62,0.132307134011706,1
446,148,62,0.116992413247826,1
446,149,62,0.136865535402771,1
446,150,62,0.172514407348464,1
446,151,62,0.226285887883469,1
447,117,62,0.127221246731213,1
447,118,62,0.164418552975364,1
447,119,62,0.17681749803185,1
447,120,62,0.13748466887406,1
447,149,62,0.173625071933106,1
447,150,62,0.220959681847457,1
448,117,62,0.14426448187248,1
448,118,62,0.172186021178765,1
448,119,62,0.189177732525296,1
448,120,62,0.15406718118701,1
448,148,62,0.114371789390418,1
448,149,62,0.234852239884802,1
448,150,62,0.264929723192741,1
449,118,62,0.197287542486227,1
449,119,62,0.216683030231313,1
449,120,62,0.193158878985433,1
449,121,62,0.135815003502911,1
449,148,62,0.139379625717965,1
449,149,62,0.251837897921505,1
449,150,62,0.232215823248252,1
450,118,62,0.171848272399508,1
450,119,62,0.193829936664949,1
450,120,62,0.197713182026654,1
450,121,62,0.162359732798896,1
450,122,62,0.130335203562681,1
450,148,62,0.173430282546833,1
450,149,62,0.211953746494733,1
451,118,62,0.149339134021504,1
451,119,62,0.172192321802807,1
451,120,62,0.183867354599027,1
451,121,62,0.169787320610046,1
451,122,62,0.145983869177658,1
451,123,62,0.116340669630794,1
451,147,62,0.167830817857273,1
451,148,62,0.226030918704944,1
451,149,62,0.183948014363633,1
452,119,62,0.168824915008704,1
452,120,62,0.178056283156592,1
452,121,62,0.172231209018857,1
452,122,62,0.14193810304627,1
452,146,62,0.11598921257792,1
452,147,62,0.219044009493851,1
452,148,62,0.300758769432302,1
453,119,62,0.171748828531449,1
453,120,62,0.17729897170047,1
453,121,62,0.173152372030675,1
453,122,62,0.142732464527133,1
453,146,62,0.12756861721111,1
453,147,62,0.224785821179292,1
454,120,62,0.187190715909172,1
454,121,62,0.175076959472879,1
454,122,62,0.149668379902521,1
454,123,62,0.117559799163899,1
454,146,62,0.119652654487062,1
455,121,62,0.188462217171464,1
455,122,62,0.157936188316066,1
455,123,62,0.126575886176294,1
455,143,62,0.128383823747215,1
455,144,62,0.134817820812231,1
456,122,62,0.170603575287346,1
456,123,62,0.139381368694335,1
456,141,62,0.13724605776431,1
456,142,62,0.204752828049822,2
456,143,62,0.247700825737411,2
457,122,62,0.182745737527732,1
457,123,62,0.150371682644892,1
457,124,62,0.117119238332516,1
457,138,62,0.132270790599007,1
457,139,62,0.145694075802325,1
457,140,62,0.171953298502698,1
457,141,62,0.2357764413284,2
457,142,62,0.349583518151639,2
457,143,62,0.374627191486587,2
457,144,62,0.243666000315808,2
458,124,62,0.121553087574293,1
458,137,62,0.134302300220048,1
458,138,62,0.176183702360687,1
458,139,62,0.220102679209062,1
458,140,62,0.293568049754532,2
458,141,62,0.345366787236665,2
458,142,62,0.369882856913511,2
458,143,62,0.302810064190522,2
459,126,62,0.116297707618635,1
459,127,62,0.147427395141599,1
459,128,62,0.147662590959813,1
459,129,62,0.120510634605449,1
459,136,62,0.126112607767758,1
459,137,62,0.150157296551319,1
459,138,62,0.185708031861231,1
459,139,62,0.254019892353779,2
459,140,62,0.338495409094455,2
459,141,62,0.317463031000107,2
459,142,62,0.236185263502226,2
460,126,62,0.138403511843006,1
460,127,62,0.18489759495641,1
460,128,62,0.178282010373442,1
460,129,62,0.136111380147103,1
460,130,62,0.118846139279075,1
460,131,62,0.11711461002364,1
460,134,62,0.118889325051715,1
460,135,62,0.13521288760497,1
460,136,62,0.146804999478049,1
460,137,62,0.166068621639212,1
460,140,62,0.236969296670406,2
460,141,62,0.178841199589826,2
461,128,62,0.189726982065621,1
461,129,62,0.168988460365848,1
461,130,62,0.145696478283268,1
461,131,62,0.144578217619173,1
461,132,62,0.130255085533974,1
461,133,62,0.114386004069332,1
461,134,62,0.11505374067225,1
461,135,62,0.124422156225704,1
462,128,62,0.242126575320887,1
462,129,62,0.242321458922098,1
462,130,62,0.178810238205514,1
463,127,62,0.225111498669497,1
463,128,62,0.259791146207641,1
463,129,62,0.255441713551161,1
463,130,62,0.169003522979212,1
464,127,62,0.204505937802312,1
464,128,62,0.234188401424982,1
464,129,62,0.222462268801251,1
433,121,63,0.118954757326813,1
433,122,63,0.117810269579089,1
433,144,63,0.118476333866841,1
433,146,63,0.11507611672025,1
433,147,63,0.12680413364276,1
434,121,63,0.116710533927365,1
434,122,63,0.114616324264455,1
434,144,63,0.114609835210535,1
434,145,63,0.121645747966747,1
434,146,63,0.15162588368902,1
434,147,63,0.182740343722477,1
434,148,63,0.157196200631843,1
435,146,63,0.146219912930322,1
435,147,63,0.189755128778631,1
435,148,63,0.18127316980886,1
435,149,63,0.117255649787244,1
436,146,63,0.118643647821543,1
436,147,63,0.167143932068014,1
436,148,63,0.200739153882013,1
436,149,63,0.150121671527529,1
437,121,63,0.125414804822448,1
437,122,63,0.121778437931387,1
437,147,63,0.143877623556297,1
437,148,63,0.208134508407176,1
437,149,63,0.177702871143735,1
437,150,63,0.116843871619709,1
438,121,63,0.120218167881223,1
438,122,63,0.114747071045978,1
438,148,63,0.147775648886549,1
438,149,63,0.16456029935101,1
438,150,63,0.165495476834996,1
439,149,63,0.191375013331414,1
439,150,63,0.262335397080166,1
440,149,63,0.180084259717423,1
440,150,63,0.242795360065001,1
440,151,63,0.210240542044924,1
441,149,63,0.133842437103049,1
441,150,63,0.165813169609125,1
441,151,63,0.183325548038878,1
442,119,63,0.118906354401929,1
442,120,63,0.135070010650057,1
442,150,63,0.146343228508536,1
443,119,63,0.163957512171628,1
443,120,63,0.166156818598933,1
443,121,63,0.114797688021927,1
443,150,63,0.163376370874469,1
443,151,63,0.237760136867926,1
444,118,63,0.130132971196232,1
444,119,63,0.200471135934444,1
444,120,63,0.180543769528401,1
444,150,63,0.151856356983419,1
445,118,63,0.163975554332436,1
445,119,63,0.2473918242914,1
445,120,63,0.200518172742714,1
445,150,63,0.134012777712665,1
446,117,63,0.119030294154114,1
446,118,63,0.175725652881262,1
446,119,63,0.223250659410358,1
446,120,63,0.168468582332739,1
446,150,63,0.14725246155371,1
447,117,63,0.12595677625874,1
447,118,63,0.157186543600601,1
447,119,63,0.163888523282584,1
447,120,63,0.126196647493298,1
447,149,63,0.130400576953443,1
447,150,63,0.183252637453001,1
447,151,63,0.207053344875291,1
448,116,63,0.1244858573013,1
448,117,63,0.14591597553728,1
448,118,63,0.17156136435668,1
448,119,63,0.16132252053603,1
448,120,63,0.12917548832545,1
448,149,63,0.187361939783841,1
448,150,63,0.224002800821705,1
448,151,63,0.158886970149316,1
449,117,63,0.173580861573005,1
449,118,63,0.199729075521564,1
449,119,63,0.181462777373491,1
449,120,63,0.147850549763012,1
449,148,63,0.113973425074816,1
449,149,63,0.215622523324792,1
449,150,63,0.210909468111446,1
450,117,63,0.16014704785026,1
450,118,63,0.1738543557639,1
450,119,63,0.16574427493502,1
450,120,63,0.147726138936132,1
450,121,63,0.120407587015975,1
450,148,63,0.127166331198674,1
450,149,63,0.189058797941743,1
450,150,63,0.160558119405752,1
451,117,63,0.15012542834822,1
451,118,63,0.156105203415706,1
451,119,63,0.157660574289045,1
451,120,63,0.146181767656916,1
451,121,63,0.128171875465186,1
451,148,63,0.149934289790832,1
451,149,63,0.148188510525881,1
452,118,63,0.158888772010023,1
452,119,63,0.156289711596766,1
452,120,63,0.145287679663178,1
452,121,63,0.133017891511121,1
452,147,63,0.160913415717388,1
452,148,63,0.246563227457097,1
453,118,63,0.168012888226788,1
453,119,63,0.153996190230514,1
453,120,63,0.143828867325392,1
453,121,63,0.137119444663232,1
453,122,63,0.119572053606793,1
453,147,63,0.197935246637751,1
454,119,63,0.166666015013339,1
454,120,63,0.158905188963134,1
454,121,63,0.153854538069807,1
454,122,63,0.137961737994285,1
455,120,63,0.188425861981898,1
455,121,63,0.177264041511856,1
455,122,63,0.154294557165291,1
455,123,63,0.116234960469296,1
455,144,63,0.120709698994576,1
455,145,63,0.114852438678323,1
456,121,63,0.184189875888777,1
456,122,63,0.159500639154146,1
456,123,63,0.127418874342521,1
456,142,63,0.150334514851478,1
456,143,63,0.184815663290129,1
456,144,63,0.176726745491909,1
457,121,63,0.185560408828769,1
457,122,63,0.162933831529368,1
457,123,63,0.133401475858176,1
457,140,63,0.13246978432693,1
457,141,63,0.185757553588515,1
457,142,63,0.27434756625854,2
457,143,63,0.286586605009898,2
458,122,63,0.162269592656059,1
458,123,63,0.131009994509153,1
458,138,63,0.137754029384509,1
458,139,63,0.173260012598422,1
458,140,63,0.220616244841261,1
458,141,63,0.266145614087319,2
458,142,63,0.311901758691422,2
459,138,63,0.147503556142871,1
459,139,63,0.223749951479306,1
459,140,63,0.298343333935053,2
459,141,63,0.268468836713074,2
460,125,63,0.124622633838916,1
460,126,63,0.125586429110607,1
460,127,63,0.13891423925017,1
460,128,63,0.131969126141367,1
460,137,63,0.123871505238162,1
460,138,63,0.156893711793487,1
461,126,63,0.152962004622562,1
461,127,63,0.155540490848526,1
461,128,63,0.149060140033548,1
461,129,63,0.137601801596906,1
461,130,63,0.12300504577527,1
461,131,63,0.118877819052296,1
461,132,63,0.114268894900221,1
462,123,63,0.288422194665399,5
462,128,63,0.190845996449227,1
462,129,63,0.197622782792734,1
462,130,63,0.158193677744208,1
462,131,63,0.133086138457521,1
462,132,63,0.119983560906378,1
463,128,63,0.214658892929244,1
463,129,63,0.22422380551474,1
433,122,64,0.115153172763441,1
433,147,64,0.129711006038424,1
434,121,64,0.117752774912597,1
434,146,64,0.131807052892644,1
434,147,64,0.180778458941318,1
434,148,64,0.169749187113507,1
435,146,64,0.120171943676802,1
435,147,64,0.182724927803092,1
435,148,64,0.184625007584303,1
435,149,64,0.128423606005185,1
436,147,64,0.140270875486667,1
436,148,64,0.182197053277041,1
436,149,64,0.157390907580044,1
437,148,64,0.183453692132713,1
437,149,64,0.185036008478591,1
437,150,64,0.146115393232428,1
438,148,64,0.141532177981818,1
438,149,64,0.173017479791838,1
438,150,64,0.179882816401087,1
439,149,64,0.181278610721585,1
439,150,64,0.255061038090346,1
440,149,64,0.146497988322624,1
440,150,64,0.227793538890231,1
440,151,64,0.196585664744808,1
441,150,64,0.147163098684119,1
441,151,64,0.165264862218189,1
442,150,64,0.113809479304181,1
442,151,64,0.160398436861105,1
443,119,64,0.121939580807588,1
443,120,64,0.121772855696254,1
443,150,64,0.116637929540039,1
443,151,64,0.187127262147792,1
444,118,64,0.119127111780749,1
444,119,64,0.167675033455725,1
444,120,64,0.148554064488995,1
444,151,64,0.154518588513239,1
445,118,64,0.148345295961156,1
445,119,64,0.214731038018743,1
445,120,64,0.170560448399043,1
445,151,64,0.146172699469042,1
446,118,64,0.153175943195175,1
446,119,64,0.193982270444359,1
446,120,64,0.146249272660671,1
446,150,64,0.118073812317058,1
447,117,64,0.116364011381918,1
447,118,64,0.143747995577174,1
447,119,64,0.146951173955825,1
447,150,64,0.138897527875374,1
448,117,64,0.135126822258242,1
448,118,64,0.162579818896276,1
448,119,64,0.140376113573471,1
448,149,64,0.125165947838087,1
448,150,64,0.157954006716395,1
449,116,64,0.132100438212524,1
449,117,64,0.153155934297516,1
449,118,64,0.182057191200174,1
449,119,64,0.149496402308341,1
449,149,64,0.148994872634593,1
449,150,64,0.15395601933592,1
450,116,64,0.139418913347506,1
450,117,64,0.149679897678808,1
450,118,64,0.161865316353038,1
450,119,64,0.139630637869054,1
450,149,64,0.138765650514583,1
451,117,64,0.153183044646198,1
451,118,64,0.150729440321808,1
451,119,64,0.13739382211918,1
451,120,64,0.114387370185946,1
452,118,64,0.143029335799755,1
452,119,64,0.134710898633393,1
452,120,64,0.114164551855337,1
453,118,64,0.136874415160766,1
453,119,64,0.131192665498904,1
453,120,64,0.115030716896545,1
454,118,64,0.154176918037149,1
454,119,64,0.147368345928614,1
454,120,64,0.133419565126453,1
454,121,64,0.128977389639447,1
454,122,64,0.117549800603503,1
455,119,64,0.174083262734939,1
455,120,64,0.157924906077127,1
455,121,64,0.157668629666325,1
455,122,64,0.141945157389824,1
456,120,64,0.164422769093882,1
456,121,64,0.163533639161306,1
456,122,64,0.14760576757476,1
456,143,64,0.130123431933664,1
456,144,64,0.13595293417353,1
457,120,64,0.166481836584565,1
457,121,64,0.169195427032979,1
457,122,64,0.150267386707478,1
457,123,64,0.117918958288032,1
457,141,64,0.139005451087938,1
457,142,64,0.188062298309369,1
457,143,64,0.192242273621287,1
458,121,64,0.177977660790041,1
458,122,64,0.151213092710892,1
458,123,64,0.11832772157752,1
458,139,64,0.132628312738576,1
458,140,64,0.163591581348758,1
458,141,64,0.19694531849737,1
458,142,64,0.228775753182486,1
459,122,64,0.159145107305163,1
459,123,64,0.126312920504826,1
459,138,64,0.123687691892277,1
459,139,64,0.186412347414196,1
459,140,64,0.235930529861048,1
460,124,64,0.133383716342184,1
460,125,64,0.122307278160563,1
460,138,64,0.136873579003183,1
460,139,64,0.196097737352869,1
461,123,64,0.240566870560357,5
461,125,64,0.155614143377048,1
461,126,64,0.141397238635511,1
461,127,64,0.127957159619326,1
462,122,64,0.284163090581634,5
462,123,64,0.340965936777254,5
462,124,64,0.26369929964383,5
462,129,64,0.141777937650061,1
462,130,64,0.127856950254889,1
463,123,64,0.277615529184585,5
433,147,65,0.124673356806671,1
433,148,65,0.170294762271213,1
434,147,65,0.155883951408457,1
434,148,65,0.16633556789185,1
434,149,65,0.140991996629366,1
435,147,65,0.161808834497139,1
435,148,65,0.170394111924333,1
435,149,65,0.137935322480777,1
436,147,65,0.123452743388278,1
436,148,65,0.154631069373474,1
436,149,65,0.153243966381095,1
436,150,65,0.14041957021406,1
437,148,65,0.142661308694494,1
437,149,65,0.170584579200281,1
437,150,65,0.179394205950842,1
438,148,65,0.120628462163469,1
438,149,65,0.164608643391557,1
438,150,65,0.187191917149644,1
438,151,65,0.145719148752952,1
439,149,65,0.156118581937037,1
439,150,65,0.207483954253748,1
439,151,65,0.158826036637552,1
440,149,65,0.117109051342243,1
440,150,65,0.18161851466757,1
440,151,65,0.16900008413394,1
441,150,65,0.130777731130915,1
441,151,65,0.15113317488893,1
442,151,65,0.135711614384285,1
442,152,65,0.159084162016531,1
443,151,65,0.141390243176295,1
443,152,65,0.189367563850406,1
444,119,65,0.122866891344172,1
444,151,65,0.12057001357072,1
444,152,65,0.14555675752881,1
445,118,65,0.121850747897028,1
445,119,65,0.1554857872996,1
445,120,65,0.122771263181141,1
445,151,65,0.117135761277434,1
445,152,65,0.124367546891717,1
446,118,65,0.120032658666437,1
446,119,65,0.144180206609593,1
446,151,65,0.140120402452302,1
447,118,65,0.117602101671486,1
447,119,65,0.12276397330024,1
448,118,65,0.13686473457579,1
448,119,65,0.123319393919066,1
449,117,65,0.124369454744231,1
449,118,65,0.147127155684911,1
449,119,65,0.124980379738964,1
450,117,65,0.13011928647635,1
450,118,65,0.136830240131268,1
450,119,65,0.119137793399452,1
451,117,65,0.137040386552589,1
451,118,65,0.132197962451201,1
451,119,65,0.118429838794471,1
452,117,65,0.130386644919346,1
452,118,65,0.125469802793058,1
452,119,65,0.116494475518625,1
453,118,65,0.116417737450853,1
454,118,65,0.128774686198303,1
454,119,65,0.125195778643132,1
454,120,65,0.115793057075033,1
455,118,65,0.161044892664689,1
455,119,65,0.145181464096383,1
455,120,65,0.133675971082797,1
455,121,65,0.136887946781373,1
455,122,65,0.120724844046012,1
456,119,65,0.152615081663625,1
456,120,65,0.138435156285625,1
456,121,65,0.143419974490363,1
456,122,65,0.130702476948431,1
457,120,65,0.14882599235653,1
457,121,65,0.155713916997393,1
457,122,65,0.142043576670421,1
457,142,65,0.120915016900276,1
458,121,65,0.173918492583588,1
458,122,65,0.150834089565243,1
458,140,65,0.129577633015477,1
458,141,65,0.14987316784919,1
459,122,65,0.151921907027191,1
459,123,65,0.115313185060375,1
459,139,65,0.145962541270854,1
459,140,65,0.171183503567166,1
460,123,65,0.145339968954293,1
460,124,65,0.128171804803982,1
460,125,65,0.119452871709025,1
461,123,65,0.253565069736014,5
461,124,65,0.203907272526509,1
461,125,65,0.153350464592707,1
461,126,65,0.128892549086925,1
462,122,65,0.286652484805957,5
462,123,65,0.379597783235544,5
462,124,65,0.290253379772505,5
462,125,65,0.186023757898509,1
462,126,65,0.152653909995338,1
462,128,65,0.114686867699991,1
463,123,65,0.280704695710243,5
433,147,66,0.122840734921747,1
433,148,66,0.184409797110013,1
434,147,66,0.129362434318055,1
434,148,66,0.159908872484602,1
434,149,66,0.160324242596684,1
435,147,66,0.12893213113815,1
435,148,66,0.15055570797439,1
435,149,66,0.144848755816359,1
436,148,66,0.130411623655035,1
436,149,66,0.142380100655472,1
436,150,66,0.142668045062628,1
437,149,66,0.147349938684918,1
437,150,66,0.184284055497121,1
437,151,66,0.156242686565364,1
438,149,66,0.147349879800581,1
438,150,66,0.182106677596856,1
438,151,66,0.143851843993628,1
439,149,66,0.123730383036487,1
439,150,66,0.152138142088941,1
439,151,66,0.126169454706545,1
440,150,66,0.127063095179323,1
440,151,66,0.132792423385354,1
441,151,66,0.128976423936323,1
442,152,66,0.120401675028557,1
443,152,66,0.130335533314968,1
455,118,66,0.132453084729002,1
455,119,66,0.117967337659181,1
455,121,66,0.113920122973107,1
456,119,66,0.127961234415436,1
456,120,66,0.118050882756292,1
456,121,66,0.121382476096728,1
457,119,66,0.135069068500667,1
457,120,66,0.128481524638902,1
457,121,66,0.132358810905718,1
457,122,66,0.121287342562126,1
458,120,66,0.149754256819371,1
458,121,66,0.156017477530679,1
458,122,66,0.138180528636254,1
459,121,66,0.163747542403318,1
459,122,66,0.14029614864404,1
460,122,66,0.14402905051692,1
460,123,66,0.129845085673413,1
460,124,66,0.11837690177565,1
461,123,66,0.237545609451944,5
461,124,66,0.202729703558347,1
461,125,66,0.14877367951168,1
461,126,66,0.115875754237694,1
462,122,66,0.255526954517173,5
462,123,66,0.352512260190005,5
462,124,66,0.287778353326371,5
462,125,66,0.18118908297585,1
462,126,66,0.138988197977243,1
462,127,66,0.122395157144865,1
463,123,66,0.254622750194365,5
463,124,66,0.220551660500613,1
463,126,66,0.16206122454171,1
433,147,67,0.121418148227987,1
433,148,67,0.174466705759585,1
434,148,67,0.156164382174232,1
434,149,67,0.168533661301817,1
435,148,67,0.141485035181742,1
435,149,67,0.154026774755069,1
436,148,67,0.115745737621947,1
436,149,67,0.1354506036728,1
436,150,67,0.131648854233284,1
437,149,67,0.128893856319203,1
437,150,67,0.165788732609335,1
437,151,67,0.145948715228564,1
438,149,67,0.131229809738584,1
438,150,67,0.168065024418628,1
438,151,67,0.138306258472278,1
439,150,67,0.123296499688902,1
457,119,67,0.11871575758044,1
457,120,67,0.115606440834714,1
457,121,67,0.116437546141766,1
458,119,67,0.134381181677682,1
458,120,67,0.13403714405125,1
458,121,67,0.139407984414588,1
458,122,67,0.125608946481016,1
459,120,67,0.144817217365547,1
459,121,67,0.155123389536941,1
459,122,67,0.13845397571968,1
460,121,67,0.144611098632866,1
460,122,67,0.140592760825579,1
460,123,67,0.125652426675339,1
460,124,67,0.115319061717192,1
461,122,67,0.172322232426747,1
461,123,67,0.209890604207941,1
461,124,67,0.204188033044571,1
461,125,67,0.158065568980975,1
462,123,67,0.290541842361825,5
462,124,67,0.281882406000813,1
462,125,67,0.204910261212803,1
462,126,67,0.148380249703506,1
462,127,67,0.124359373745764,1
463,125,67,0.173667845515388,1
463,127,67,0.154638912767142,1
463,128,67,0.126189546042275,1
432,147,68,0.119147697744909,1
432,148,68,0.132559936246635,1
433,147,68,0.125537531557294,1
433,148,68,0.159742477125555,1
433,149,68,0.161517780996998,1
434,148,68,0.162173093004842,1
434,149,68,0.170112715455433,1
435,148,68,0.140151940903114,1
435,149,68,0.157114539833511,1
436,149,68,0.125332896709901,1
436,150,68,0.115261154860341,1
437,150,68,0.131984165200996,1
438,150,68,0.132701494192403,1
438,151,68,0.115519975074496,1
458,119,68,0.11913462542213,1
458,120,68,0.119469653745025,1
458,121,68,0.123248061433416,1
459,120,68,0.134198616679737,1
459,121,68,0.141760154580335,1
459,122,68,0.133387791138294,1
460,121,68,0.142522789180507,1
460,122,68,0.141449280612412,1
460,123,68,0.127391151596736,1
461,122,68,0.156084452575403,1
461,123,68,0.178711182974079,1
461,124,68,0.194576166088878,1
461,125,68,0.166009760856105,1
462,123,68,0.221273394040415,1
462,124,68,0.254557223704328,1
462,125,68,0.223288792906896,1
462,126,68,0.159163950292952,1
462,127,68,0.126098251766436,1
463,124,68,0.19132029800562,1
463,125,68,0.177404775076908,1
463,126,68,0.157856741568799,1
463,127,68,0.15262221844525,1
463,128,68,0.121086594080965,1
464,127,68,0.159293931578096,1
432,147,69,0.125405289113615,1
432,148,69,0.122871660975456,1
433,147,69,0.127764018994485,1
433,148,69,0.145795333307958,1
433,149,69,0.132088296262267,1
434,148,69,0.163458055226536,1
434,149,69,0.156493887146331,1
435,148,69,0.141269801153718,1
435,149,69,0.151968119454744,1
436,149,69,0.114490723973971,1
459,119,69,0.123182982464339,1
459,120,69,0.115566163948314,1
459,121,69,0.116742790767087,1
459,122,69,0.115720075827951,1
460,120,69,0.148431125770537,1
460,121,69,0.135093552607926,1
460,122,69,0.137719629154926,1
460,123,69,0.129700112436108,1
461,121,69,0.170015073448082,1
461,122,69,0.148783925386291,1
461,123,69,0.160229368153165,1
461,124,69,0.180686375615365,1
461,125,69,0.166935846598483,1
462,122,69,0.160779983810105,1
462,123,69,0.173227826419904,1
462,124,69,0.219300580326338,1
462,125,69,0.221839555162281,1
462,126,69,0.161378178011213,1
462,127,69,0.121838994583395,1
463,124,69,0.176701802086823,1
463,125,69,0.180502350285867,1
463,126,69,0.159413184137068,1
463,127,69,0.145420145867337,1
463,128,69,0.116399836612453,1
464,126,69,0.152302676702944,1
432,147,70,0.124571722441282,1
433,147,70,0.125416123831593,1
433,148,70,0.131153295431292,1
434,148,70,0.148910997785195,1
434,149,70,0.137617299954362,1
435,148,70,0.129222489803117,1
435,149,70,0.136771508893702,1
460,121,70,0.128741086795701,1
460,122,70,0.128844605459869,1
460,123,70,0.12778641859622,1
461,122,70,0.142022225209883,1
461,123,70,0.145946772045448,1
461,124,70,0.161668725106058,1
461,125,70,0.156320802526619,1
461,126,70,0.11457669510576,1
462,124,70,0.181824126994954,1
462,125,70,0.198070091769119,1
462,126,70,0.15572753105607,1
462,127,70,0.115974821245996,1
463,126,70,0.157446883030646,1
