x,y,z,signal,mito.p
878,844,21,0.114279600072659,1
879,843,21,0.123777066538735,1
880,842,21,0.116374398578937,1
878,843,22,0.124171308950758,1
879,842,22,0.132903538128974,1
879,843,22,0.122182902664285,1
880,841,22,0.128220914340908,1
880,842,22,0.115803479602654,1
891,849,22,0.136206843433991,1
891,850,22,0.128952964416525,1
892,849,22,0.139955679408421,1
892,850,22,0.125321237611207,1
873,845,23,0.150249980497508,1
874,844,23,0.133989400630939,1
874,845,23,0.132624332157405,1
876,841,23,0.114181086577122,1
877,840,23,0.114505409727579,1
877,841,23,0.119990615249932,1
878,839,23,0.129832837731349,1
878,840,23,0.117273126658418,1
878,841,23,0.122797737578985,1
878,842,23,0.129202327806183,1
878,843,23,0.123303094734629,1
879,839,23,0.14063540486232,1
879,840,23,0.128115947122054,1
879,841,23,0.129614683040218,1
879,842,23,0.128448761393884,1
879,843,23,0.122013044906232,1
880,840,23,0.138323488029238,1
880,841,23,0.131460000388166,1
880,842,23,0.116542690013631,1
881,841,23,0.119295203008698,1
883,841,23,0.114405518338561,1
891,848,23,0.113832526633621,1
891,849,23,0.152955562676111,1
891,850,23,0.127467665904028,1
892,848,23,0.118872955206073,1
892,849,23,0.159538384014061,1
892,850,23,0.131138468355275,1
897,855,23,0.116981708075389,1
871,846,24,0.16377331018912,1
871,851,24,0.131963779443582,1
871,852,24,0.122545547741159,1
872,844,24,0.177045027109407,1
872,845,24,0.191495314031582,1
872,846,24,0.142335784303565,1
873,843,24,0.117858342751687,1
873,844,24,0.157872652116614,1
873,845,24,0.159327024575402,1
874,844,24,0.141764241153311,1
874,845,24,0.134442444941732,1
875,840,24,0.114207137007741,1
876,839,24,0.116329281400049,1
876,840,24,0.116518535658659,1
876,841,24,0.118765090877846,1
877,838,24,0.129956895252208,1
877,839,24,0.121922645672312,1
877,840,24,0.11454313103376,1
877,841,24,0.116854953651903,1
878,839,24,0.129137743465534,1
878,840,24,0.116072486807082,1
878,841,24,0.116132890359814,1
879,840,24,0.123780352284731,1
879,841,24,0.117243248745905,1
880,840,24,0.129378333089003,1
880,841,24,0.115494772578327,1
891,849,24,0.131389751374313,1
892,849,24,0.137766948608012,1
897,855,24,0.125039994241583,1
870,846,25,0.158863522406385,1
870,849,25,0.170612431491607,1
870,850,25,0.141282390624935,1
870,851,25,0.137502086860898,1
870,852,25,0.1453053920717,1
871,845,25,0.200151700183945,1
871,846,25,0.157658654659664,1
871,847,25,0.128633092921933,1
871,848,25,0.126276953951883,1
871,849,25,0.132497365750307,1
871,850,25,0.139774975155521,1
871,851,25,0.145196668032155,1
871,852,25,0.118902974440994,1
872,842,25,0.154457101488709,1
872,845,25,0.186746374703364,1
872,846,25,0.131142755134997,1
872,850,25,0.116497431512334,1
872,851,25,0.124464246749679,1
873,841,25,0.131992774091043,1
873,842,25,0.116207131731704,1
873,843,25,0.136405578070832,1
873,844,25,0.170125599348334,1
873,845,25,0.154183242214925,1
873,857,25,0.138435144508758,1
873,858,25,0.118763760091833,1
874,840,25,0.118481692341494,1
874,844,25,0.13791700945202,1
874,845,25,0.124023273727938,1
875,839,25,0.116556680932065,1
875,840,25,0.119523768450583,1
875,841,25,0.11657769086345,1
876,839,25,0.122672785016207,1
876,840,25,0.12615157742188,1
876,841,25,0.123510968220547,1
877,838,25,0.13037450296909,1
877,839,25,0.127314248652821,1
877,840,25,0.124795565359353,1
877,841,25,0.119249167234155,1
878,839,25,0.1351149276222,1
878,840,25,0.128698878503053,1
878,841,25,0.117349005014873,1
879,840,25,0.125569058231239,1
880,840,25,0.119052493549103,1
881,840,25,0.113800882191002,1
893,866,25,0.134024189497145,1
894,865,25,0.133455296142049,1
894,866,25,0.129194672842393,1
895,865,25,0.117763597853708,1
907,857,25,0.172498202378965,1
869,850,26,0.14222034744962,1
870,850,26,0.136660818117307,1
870,851,26,0.11459213457888,1
870,852,26,0.120208063329021,1
871,846,26,0.160745901555941,1
871,849,26,0.177935676257873,1
871,850,26,0.153495190515797,1
871,851,26,0.134358063687038,1
872,841,26,0.174608511019568,1
872,846,26,0.12136707195421,1
872,849,26,0.120470393049651,1
872,850,26,0.139386303201763,1
872,851,26,0.128951904498462,1
872,856,26,0.121527519995236,1
872,857,26,0.169170601396567,1
872,858,26,0.134957482682352,1
873,841,26,0.138066799428078,1
873,842,26,0.13763449418072,1
873,845,26,0.135893873183677,1
873,856,26,0.15572574097223,1
873,857,26,0.231144905590978,1
873,858,26,0.171201663496648,1
874,840,26,0.117446635245356,1
874,844,26,0.119362307598962,1
874,856,26,0.119950797661359,1
874,857,26,0.175475535772093,1
874,858,26,0.131224934115493,1
875,840,26,0.118582396334361,1
876,840,26,0.126569832866467,1
876,841,26,0.116632147098161,1
877,840,26,0.126659360612201,1
878,839,26,0.129764684999889,1
878,840,26,0.129468049264615,1
879,840,26,0.115131762418565,1
893,866,26,0.116409128560807,1
893,867,26,0.116922293779515,1
894,864,26,0.144400351591309,1
894,865,26,0.150810889136528,1
894,866,26,0.116112033527705,1
895,864,26,0.131434974545008,1
895,865,26,0.128129938040488,1
907,859,26,0.161042549068082,1
908,860,26,0.116775824880055,1
869,850,27,0.124489731890664,1
871,850,27,0.137508505253613,1
872,849,27,0.135151188596827,1
872,850,27,0.135915012660603,1
872,856,27,0.133285933012425,1
872,857,27,0.187116344991741,1
872,858,27,0.134149036068117,1
873,841,27,0.139273504366109,1
873,856,27,0.187605084987528,1
873,857,27,0.28912308314996,1
873,858,27,0.191520434089678,1
874,856,27,0.140686775557781,1
874,857,27,0.219198215795172,1
874,858,27,0.150891725554144,1
878,840,27,0.120879533198895,1
894,864,27,0.151114897190774,1
894,865,27,0.137460608734026,1
895,864,27,0.128752934324274,1
872,845,28,0.116042220257945,1
872,849,28,0.129013556399135,1
872,856,28,0.114862119263299,1
872,857,28,0.15846007048408,1
873,841,28,0.130710485218241,1
873,844,28,0.128754842176787,1
873,856,28,0.166801778740361,1
873,857,28,0.262076070460715,1
873,858,28,0.163544238341938,1
874,856,28,0.125089421753928,1
874,857,28,0.201293914996267,1
874,858,28,0.133621738608566,1
889,834,28,0.157799388224715,1
889,835,28,0.159470478596815,1
890,834,28,0.186476660886894,1
890,835,28,0.177522720403602,1
894,864,28,0.125646126051297,1
905,866,28,0.145792977934484,1
906,865,28,0.144542863463334,1
907,865,28,0.166204950655868,1
871,845,29,0.122003658742939,1
871,846,29,0.122543345466961,1
871,849,29,0.158959751189652,1
872,848,29,0.117256627267235,1
872,857,29,0.120373964059639,1
873,842,29,0.145646744572372,1
873,856,29,0.129647740706921,1
873,857,29,0.193733625443611,1
873,858,29,0.123825116157598,1
874,857,29,0.156056246978056,1
888,836,29,0.141361118983293,1
889,834,29,0.155786026756289,1
889,835,29,0.155198196198465,1
889,836,29,0.140717819380164,1
890,836,29,0.174345156711477,1
890,837,29,0.14240440810972,1
900,850,29,0.119473410565715,1
905,866,29,0.139937719685684,1
906,865,29,0.14247690650524,1
906,866,29,0.182253959100164,1
907,865,29,0.17163466357918,1
907,866,29,0.201996428688524,1
908,865,29,0.187484301435798,1
868,849,30,0.160687712054274,1
868,850,30,0.114378690634696,1
869,849,30,0.119580886257319,1
870,849,30,0.118018484594162,1
871,847,30,0.150730488463004,1
871,848,30,0.169693082117364,1
871,849,30,0.119038490853802,1
873,842,30,0.117109086672845,1
873,843,30,0.12099000021481,1
873,857,30,0.119012829059807,1
887,836,30,0.129575089212126,1
888,833,30,0.141220149880893,1
888,835,30,0.14521342651442,1
888,836,30,0.125798153632155,1
889,833,30,0.150604075568672,1
889,834,30,0.155317966939601,1
889,835,30,0.14373942201773,1
889,836,30,0.124008894172881,1
890,836,30,0.15860385425778,1
890,837,30,0.121366494887709,1
891,837,30,0.162876984590581,1
905,866,30,0.125561285498776,1
906,865,30,0.134239211541556,1
906,866,30,0.155032001046163,1
906,867,30,0.114796051037363,1
907,857,30,0.124782881673197,1
907,865,30,0.161510597107903,1
907,866,30,0.173022449629867,1
908,865,30,0.185215169961866,1
909,867,30,0.195259601255998,1
909,868,30,0.165687098243947,1
867,847,31,0.149626171609873,1
867,848,31,0.16136946312936,1
868,848,31,0.155206687319837,1
868,849,31,0.12390190133284,1
868,855,31,0.115567588949266,1
869,847,31,0.170110195205816,1
869,848,31,0.141572914166045,1
869,855,31,0.134121383983536,1
869,856,31,0.143773233403944,1
870,846,31,0.14183526744041,1
870,847,31,0.142675382050999,1
870,848,31,0.126873699598305,1
870,855,31,0.121346474213183,1
870,856,31,0.119831592209857,1
872,842,31,0.118006743057395,1
887,833,31,0.141908790423391,1
887,835,31,0.134917747531851,1
887,836,31,0.115982122903765,1
888,833,31,0.148673811676397,1
888,834,31,0.154689211767672,1
888,835,31,0.137207947821506,1
888,836,31,0.113869470666556,1
889,833,31,0.150619267727577,1
889,834,31,0.15296080338209,1
889,835,31,0.134762551973671,1
890,833,31,0.170116896243349,1
890,834,31,0.171504741178373,1
890,835,31,0.158950459241298,1
890,836,31,0.138545258218652,1
891,836,31,0.191549075431118,1
891,837,31,0.130194128468476,1
892,837,31,0.12580135694008,1
906,865,31,0.118892858111925,1
906,866,31,0.127845067395714,1
907,865,31,0.141363686340379,1
907,866,31,0.153708222269623,1
907,867,31,0.146395918213142,1
908,865,31,0.163793283756176,1
908,866,31,0.200953092454627,1
908,867,31,0.241888541277637,1
908,868,31,0.216556099154817,1
909,865,31,0.144900903785066,1
909,866,31,0.209059934644981,1
909,867,31,0.29797410558932,2
909,868,31,0.267705083310502,2
909,869,31,0.154397828515244,1
910,867,31,0.211328865912168,1
910,868,31,0.184754176265599,1
867,847,32,0.128642643961369,1
868,847,32,0.149234414116865,1
868,848,32,0.132473906230509,1
868,855,32,0.158724425825898,1
869,847,32,0.130181362344249,1
869,854,32,0.140734165672071,1
869,855,32,0.221943309363797,1
869,856,32,0.201479895285748,1
870,846,32,0.133477719297518,1
870,854,32,0.117482578244565,1
870,855,32,0.177539796861286,1
870,856,32,0.147090659172936,1
883,832,32,0.114831970482836,1
884,833,32,0.113956913906766,1
887,832,32,0.120358053511824,1
887,833,32,0.1309794453152,1
887,834,32,0.126876785137556,1
887,835,32,0.114324222623117,1
888,832,32,0.125437192647315,1
888,833,32,0.149639137940846,1
888,834,32,0.148944608964664,1
888,835,32,0.124986338833853,1
889,832,32,0.14265251137457,1
889,833,32,0.151011449187811,1
889,834,32,0.14640707090654,1
889,835,32,0.125283174775872,1
890,833,32,0.162038236096607,1
890,834,32,0.151793456734804,1
890,835,32,0.142181260026825,1
890,836,32,0.119100578498568,1
891,833,32,0.166541203772969,1
891,834,32,0.181947277697025,1
891,835,32,0.190971891161395,1
891,836,32,0.160573276234056,1
892,833,32,0.148072272844956,1
907,865,32,0.116956140496332,1
907,866,32,0.13937808294834,1
907,867,32,0.150901594568999,1
907,868,32,0.134154712518188,1
908,865,32,0.132157968209618,1
908,866,32,0.200954576339915,1
908,867,32,0.288128573808172,2
908,868,32,0.266651666078137,2
908,869,32,0.160455354461096,1
909,865,32,0.12526456732543,1
909,866,32,0.224195753016668,2
909,867,32,0.373541411422695,2
909,868,32,0.368403329066025,2
909,869,32,0.221916340337523,2
910,866,32,0.172805814154626,1
910,867,32,0.261368162963203,2
910,868,32,0.264593116769618,2
910,869,32,0.186583312197782,1
911,864,32,0.115998009897845,1
911,867,32,0.151867238808867,1
911,868,32,0.153085744168001,1
867,846,33,0.125408115561783,1
868,847,33,0.133377533486816,1
868,854,33,0.122839251036459,1
868,855,33,0.183854235168779,1
869,847,33,0.113925516778362,1
869,854,33,0.194110096562775,1
869,855,33,0.301322904932981,3
869,856,33,0.223506382308394,1
870,846,33,0.137235305484402,1
870,854,33,0.147676322787164,1
870,855,33,0.218105864239288,1
870,856,33,0.151593096890266,1
882,832,33,0.126795336322836,1
883,833,33,0.116355708690424,1
883,834,33,0.119080569600909,1
887,833,33,0.114433099761938,1
888,832,33,0.114246495298486,1
888,833,33,0.134599383476283,1
888,834,33,0.128709819212838,1
889,832,33,0.131565945087011,1
889,833,33,0.144222615108986,1
889,834,33,0.133974326240707,1
889,835,33,0.119266962080748,1
890,832,33,0.171901150533991,1
890,833,33,0.148848250635857,1
890,834,33,0.128853155465578,1
890,835,33,0.12601602567847,1
891,832,33,0.169886764478104,1
891,833,33,0.132137606005939,1
891,834,33,0.135196411767521,1
891,835,33,0.153247581879377,1
891,836,33,0.124000202844764,1
892,834,33,0.149239077756343,1
892,835,33,0.177379666795678,1
892,836,33,0.136606514981871,1
893,834,33,0.140100334670306,1
905,868,33,0.119666374537546,1
907,866,33,0.126206198532734,1
907,867,33,0.145621447861264,1
907,868,33,0.126874641747695,1
908,866,33,0.191218781408905,1
908,867,33,0.283374558650119,2
908,868,33,0.264056892444603,2
908,869,33,0.172793142245338,1
909,866,33,0.212592264689711,2
909,867,33,0.375523269770911,2
909,868,33,0.420855494257223,2
909,869,33,0.287840181880055,2
909,870,33,0.146552432780468,1
910,861,33,0.11457154861472,1
910,866,33,0.175899868080242,2
910,867,33,0.30553384162921,2
910,868,33,0.386271686865721,2
910,869,33,0.292257543507517,2
910,870,33,0.152965631897711,1
911,867,33,0.210769982894336,2
911,868,33,0.260148432809863,2
911,869,33,0.208694027375846,1
912,868,33,0.1717619832923,1
867,846,34,0.121325911802758,1
867,855,34,0.121276931811373,1
868,847,34,0.133345406192635,1
868,854,34,0.16409220420372,1
868,855,34,0.231681035701055,3
868,856,34,0.167240455272965,1
869,847,34,0.12598783185799,1
869,854,34,0.260435694158711,3
869,855,34,0.380837086542451,3
869,856,34,0.234010193867964,3
870,846,34,0.148030064552308,1
870,854,34,0.176011147700006,1
870,855,34,0.250104013292597,3
870,856,34,0.151522494570393,1
871,842,34,0.114857526285026,1
882,832,34,0.115196240767407,1
882,833,34,0.128916632780694,1
888,833,34,0.116249257586281,1
889,832,34,0.118481974986311,1
889,833,34,0.132054378884246,1
889,834,34,0.11835049803901,1
890,832,34,0.145764607460994,1
890,833,34,0.134747300930429,1
891,835,34,0.121723322192103,1
892,835,34,0.135393226774981,1
893,835,34,0.11896662840912,1
907,867,34,0.127844937850173,1
908,866,34,0.163659474989137,1
908,867,34,0.229042546335849,2
908,868,34,0.211431136228395,2
908,869,34,0.154857903615856,1
909,866,34,0.177646401064704,2
909,867,34,0.306034499814773,2
909,868,34,0.381682265206009,2
909,869,34,0.289293188222228,2
909,870,34,0.149626100948669,1
910,866,34,0.16181460516215,2
910,867,34,0.312982521809816,2
910,868,34,0.462066474669183,2
910,869,34,0.353749584983194,2
910,870,34,0.167394850004164,2
911,866,34,0.14402810836753,1
911,867,34,0.256177579331805,2
911,868,34,0.358044420082555,2
911,869,34,0.265473154960586,2
911,870,34,0.142092415339398,1
912,867,34,0.171458163667931,1
912,868,34,0.206873017482147,2
867,846,35,0.121741694105197,1
867,854,35,0.127928942245112,1
867,855,35,0.155911992129661,1
868,847,35,0.137098069648959,1
868,853,35,0.114425138599597,1
868,854,35,0.220255566501238,1
868,855,35,0.286758570827211,3
868,856,35,0.176018178489825,1
869,853,35,0.126208966096566,1
869,854,35,0.292370177467028,3
869,855,35,0.398739385273904,3
869,856,35,0.221416270995328,3
870,854,35,0.175148162412988,1
870,855,35,0.237102917007568,3
870,856,35,0.140427413607727,1
878,866,35,0.118949233976017,1
879,866,35,0.135489738203065,1
879,867,35,0.132975400573656,1
880,866,35,0.141026420412684,1
880,867,35,0.129031327691994,1
881,836,35,0.118047820770776,1
881,866,35,0.126033373004104,1
881,867,35,0.119418530363779,1
882,834,35,0.116693245486068,1
885,868,35,0.135711461285009,1
886,868,35,0.133833569121921,1
886,869,35,0.122165708437928,1
887,868,35,0.118168027256005,1
889,833,35,0.117500502636699,1
890,833,35,0.120112364504786,1
908,866,35,0.133547285253063,1
908,867,35,0.173550100395439,1
908,868,35,0.160217520624592,1
908,869,35,0.132335292501584,1
909,866,35,0.142927230359671,1
909,867,35,0.22614133861339,2
909,868,35,0.29909234269968,2
909,869,35,0.251642731675477,2
909,870,35,0.150666434081387,1
910,866,35,0.140976262734562,1
910,867,35,0.281430456938685,2
910,868,35,0.449257812396952,2
910,869,35,0.353439452957916,2
910,870,35,0.177129526132774,2
911,866,35,0.135774161326878,1
911,867,35,0.267984948786643,2
911,868,35,0.400640548526912,2
911,869,35,0.286221522121479,2
911,870,35,0.151085772997772,1
912,865,35,0.119156659940976,1
912,867,35,0.175890163941531,1
912,868,35,0.22652328597588,2
867,844,36,0.125051476687267,1
867,846,36,0.114508542374299,1
867,854,36,0.151929868189532,1
867,855,36,0.176326414439457,1
868,847,36,0.129271022273542,1
868,853,36,0.13100781578869,1
868,854,36,0.266387157637044,1
868,855,36,0.31287488124207,1
868,856,36,0.168365487635797,1
869,853,36,0.125192080706778,1
869,854,36,0.275703837412149,1
869,855,36,0.344042690484706,3
869,856,36,0.181136511039918,1
870,843,36,0.162059564003411,1
870,854,36,0.147754603624562,1
870,855,36,0.187666736888201,1
870,856,36,0.117945585785152,1
871,839,36,0.150891313363786,1
871,840,36,0.118280614108046,1
878,866,36,0.126317701912978,1
879,865,36,0.115456827511667,1
879,866,36,0.162909158992232,1
879,867,36,0.14813315924925,1
880,865,36,0.132769635146996,1
880,866,36,0.178460524129011,1
880,867,36,0.152648763504298,1
881,832,36,0.128404621694987,1
881,866,36,0.154516763098797,1
881,867,36,0.143690583348753,1
882,867,36,0.121366753978791,1
884,867,36,0.118415412131945,1
884,868,36,0.130215691912627,1
885,867,36,0.137621763387095,1
885,868,36,0.171529401938642,1
885,869,36,0.134822637550984,1
886,867,36,0.142589469803547,1
886,868,36,0.201232345533665,1
886,869,36,0.15588165491932,1
887,867,36,0.118000701524435,1
887,868,36,0.183017842048278,1
887,869,36,0.156283882047419,1
888,868,36,0.125174097430306,1
888,869,36,0.125537107590069,1
908,867,36,0.128541928191635,1
908,868,36,0.123935924702667,1
909,866,36,0.11458049903392,1
909,867,36,0.16461422562669,1
909,868,36,0.214869157119239,2
909,869,36,0.202224193303428,1
910,866,36,0.12115732594638,1
910,867,36,0.226964706518581,2
910,868,36,0.357755745509622,2
910,869,36,0.300638480509002,2
910,870,36,0.196661554878129,1
911,866,36,0.123032109016483,1
911,867,36,0.238822645841899,2
911,868,36,0.358014200640888,2
911,869,36,0.261523735381139,2
911,870,36,0.161863502715463,1
912,865,36,0.117243142754099,1
912,868,36,0.214867602572746,2
866,855,37,0.132914054871534,1
867,845,37,0.119776111387684,1
867,854,37,0.176186081287896,1
867,855,37,0.191816504535319,1
867,856,37,0.123213637650099,1
868,843,37,0.129397823804497,1
868,844,37,0.170790945247177,1
868,846,37,0.199704956497194,1
868,847,37,0.113935067817797,1
868,853,37,0.146936488202217,1
868,854,37,0.318202900915656,1
868,855,37,0.328956546939578,1
868,856,37,0.161496523751398,1
869,843,37,0.170274612051146,1
869,847,37,0.138658716558878,1
869,853,37,0.127103478057529,1
869,854,37,0.266756244660368,1
869,855,37,0.284468629628639,1
869,856,37,0.147398365163536,1
870,839,37,0.139747169971664,1
870,842,37,0.140893188712146,1
870,843,37,0.153829700656527,1
870,844,37,0.144720576391922,1
870,846,37,0.11588995713974,1
870,854,37,0.124244702388198,1
870,855,37,0.139310248192298,1
871,839,37,0.135454172063612,1
879,865,37,0.133573488782958,1
879,866,37,0.180603866882582,1
880,832,37,0.155944190085046,1
880,865,37,0.154669155762544,1
880,866,37,0.212291342174714,1
880,867,37,0.17299464444601,1
881,835,37,0.117278296703193,1
881,865,37,0.125551581360064,1
881,866,37,0.181480595773819,1
881,867,37,0.164746715384583,1
882,866,37,0.120995759102953,1
882,867,37,0.135567606850104,1
882,868,37,0.121212688999878,1
883,867,37,0.123861459570297,1
883,868,37,0.125274660100765,1
884,867,37,0.135221414056944,1
884,868,37,0.144206480800691,1
885,867,37,0.176404506846976,1
885,868,37,0.209224386820913,1
885,869,37,0.148737724735605,1
886,867,37,0.194944381624017,1
886,868,37,0.265734601416164,1
886,869,37,0.179558399035691,1
887,867,37,0.149765385959035,1
887,868,37,0.235002230067605,1
887,869,37,0.172221410665206,1
888,868,37,0.148742141060868,1
888,869,37,0.134740376132416,1
889,834,37,0.123790821919822,1
889,869,37,0.118921216808548,1
890,834,37,0.13169957720104,1
904,870,37,0.127308489764677,1
908,869,37,0.117384571154325,1
909,867,37,0.124022213809875,1
909,868,37,0.155982629780136,1
909,869,37,0.17592203214463,1
910,867,37,0.171836471978404,1
910,868,37,0.251845882637581,2
910,869,37,0.245973865906515,1
911,867,37,0.192641768516156,1
911,868,37,0.277094897431965,2
911,869,37,0.226056333184725,1
912,865,37,0.120701125435132,1
912,867,37,0.14718784188246,1
912,868,37,0.194176506317865,1
867,849,38,0.148877127514644,1
867,850,38,0.140009817667713,1
867,854,38,0.174539109940166,1
867,855,38,0.185531649718655,1
868,842,38,0.133447947376811,1
868,843,38,0.126593209948193,1
868,844,38,0.145906471605313,1
868,845,38,0.190440165599714,1
868,846,38,0.158270545357521,1
868,853,38,0.138757960220192,1
868,854,38,0.300348910894149,1
868,855,38,0.286407596625899,1
868,856,38,0.144735003054448,1
869,842,38,0.17586094553359,1
869,843,38,0.166457010948153,1
869,844,38,0.166511973588161,1
869,846,38,0.167854324484541,1
869,847,38,0.122075803832438,1
869,853,38,0.118555662845434,1
869,854,38,0.23541592786452,1
869,855,38,0.221608186825963,1
869,856,38,0.122447964618145,1
870,839,38,0.123394954300102,1
870,840,38,0.122826755780181,1
870,841,38,0.122197800401506,1
870,842,38,0.139512551219952,1
870,843,38,0.14509846073517,1
870,844,38,0.130375668878959,1
870,845,38,0.117810599331375,1
871,839,38,0.126051862685872,1
879,865,38,0.137290892298381,1
879,866,38,0.176881634851538,1
880,832,38,0.131341642871114,1
880,835,38,0.142930304122054,1
880,865,38,0.16149248428589,1
880,866,38,0.219993531202292,1
880,867,38,0.174101987954055,1
881,865,38,0.127743150385509,1
881,866,38,0.18702322530146,1
881,867,38,0.163569146416422,1
882,866,38,0.125339020680933,1
882,867,38,0.137122565533085,1
883,867,38,0.127856432072725,1
883,868,38,0.134570812796047,1
884,867,38,0.144714982379922,1
884,868,38,0.157924906077127,1
885,866,38,0.121344601691271,1
885,867,38,0.209759362797988,1
885,868,38,0.247828746070766,1
885,869,38,0.166951321402205,1
886,866,38,0.12078405813514,1
886,867,38,0.242179783207657,1
886,868,38,0.31629483641837,1
886,869,38,0.196748479936175,1
887,867,38,0.177590307845429,1
887,868,38,0.262318132192604,1
887,869,38,0.172109047573645,1
888,833,38,0.117401883149357,1
888,834,38,0.11483951945482,1
888,868,38,0.16129857816467,1
888,869,38,0.136001690404435,1
889,833,38,0.139000316373765,1
889,834,38,0.155014323968243,1
889,868,38,0.115016384448958,1
889,869,38,0.136817061816683,1
889,870,38,0.128345937564891,1
890,833,38,0.138202775138713,1
890,834,38,0.163715203125524,1
890,835,38,0.122764079292046,1
890,869,38,0.132077673527901,1
891,833,38,0.113984436445805,1
891,834,38,0.131891716792155,1
904,870,38,0.156797377018414,1
906,869,38,0.119500756451745,1
907,869,38,0.132863143473901,1
909,868,38,0.131918685818428,1
910,867,38,0.135591313684117,1
910,868,38,0.181794472842921,1
911,864,38,0.124910507584868,1
911,867,38,0.150326011953238,1
911,868,38,0.203239076625764,1
912,865,38,0.126523467339638,1
912,867,38,0.134194188577607,1
866,849,39,0.236414158696397,1
866,850,39,0.196146670236785,1
867,848,39,0.138128439551884,1
867,849,39,0.181423277760338,1
867,850,39,0.159448408747367,1
867,854,39,0.168839306340628,1
867,855,39,0.186195087764984,1
868,841,39,0.12704346314142,1
868,842,39,0.140912361452222,1
868,843,39,0.131621567231592,1
868,844,39,0.129126402342259,1
868,845,39,0.144661315195325,1
868,846,39,0.127059444350439,1
868,853,39,0.122551259521833,1
868,854,39,0.239683346416648,1
868,855,39,0.228867754070368,1
868,856,39,0.135289743441415,1
869,840,39,0.134886680155734,1
869,841,39,0.147349043642998,1
869,842,39,0.168193981116311,1
869,843,39,0.155300702052039,1
869,844,39,0.140422314224157,1
869,845,39,0.140585989126842,1
869,846,39,0.12249314068137,1
869,854,39,0.183768546681806,1
869,855,39,0.16525604134453,1
870,839,39,0.124404337825376,1
870,840,39,0.116656395668072,1
870,841,39,0.118011277151332,1
870,842,39,0.128826940158816,1
870,843,39,0.126549553100859,1
870,844,39,0.11545139837581,1
871,839,39,0.123690506563578,1
876,833,39,0.16189846823468,1
878,832,39,0.152600313471945,1
879,832,39,0.143736348255347,1
879,865,39,0.148999630489009,1
879,866,39,0.173404620752838,1
880,832,39,0.120261118116515,1
880,833,39,0.150835726549807,1
880,835,39,0.134551675386573,1
880,865,39,0.174051865606535,1
880,866,39,0.216555157005427,1
881,831,39,0.129686580815502,1
881,865,39,0.136660064397795,1
881,866,39,0.184125515308609,1
881,867,39,0.157970423669506,1
882,831,39,0.140384345603761,1
882,866,39,0.130553169823935,1
882,867,39,0.140227619052823,1
883,830,39,0.127360602402782,1
883,831,39,0.137498330040207,1
883,867,39,0.13525374155787,1
884,830,39,0.113817970425554,1
884,831,39,0.129184733166334,1
884,867,39,0.155910578905577,1
884,868,39,0.181192309837509,1
885,831,39,0.12788236473467,1
885,832,39,0.114317215387033,1
885,866,39,0.137378900828225,1
885,867,39,0.23056326966539,1
885,868,39,0.281504910294188,1
885,869,39,0.190645954580109,1
886,831,39,0.128075976434206,1
886,832,39,0.120706648785927,1
886,866,39,0.142294023531877,1
886,867,39,0.26696455389038,1
886,868,39,0.336028414471867,1
886,869,39,0.210487385184965,1
887,831,39,0.130552946063455,1
887,832,39,0.127077062544022,1
887,867,39,0.191500201431539,1
887,868,39,0.252639808374351,1
887,869,39,0.164577246263153,1
888,831,39,0.127441085514378,1
888,832,39,0.131386924926145,1
888,833,39,0.133269009654016,1
888,834,39,0.128528738100182,1
888,868,39,0.155505631321116,1
888,869,39,0.130926578957583,1
889,832,39,0.130593505594672,1
889,833,39,0.17425760747946,1
889,834,39,0.193910054693656,1
889,835,39,0.133629087373804,1
889,868,39,0.123191603131252,1
889,869,39,0.151753062079731,1
889,870,39,0.119290162509464,1
890,832,39,0.122926305640045,1
890,833,39,0.185715439510806,1
890,834,39,0.214401403501103,1
890,835,39,0.146652924789722,1
890,869,39,0.166589017854485,1
890,870,39,0.13260757367514,1
891,833,39,0.147023413260263,1
891,834,39,0.162244943672657,1
891,835,39,0.122323612675603,1
891,869,39,0.122393378837893,1
892,833,39,0.120799262070912,1
892,834,39,0.121512834241628,1
893,834,39,0.114767445026525,1
903,870,39,0.122620460394489,1
906,869,39,0.142227696214858,1
907,868,39,0.118250253343971,1
910,867,39,0.114952848249505,1
910,868,39,0.15623858821552,1
911,867,39,0.119881231705814,1
911,868,39,0.160508126603774,1
912,867,39,0.12327789223846,1
912,868,39,0.15963487188841,1
913,866,39,0.122841100004635,1
866,848,40,0.172672382247343,1
866,849,40,0.215054477904147,1
867,845,40,0.121724123019084,1
867,846,40,0.12900910474327,1
867,847,40,0.138387083113027,1
867,848,40,0.158364195006834,1
867,849,40,0.18177330981226,1
867,850,40,0.151577645640279,1
867,853,40,0.128671273525941,1
868,842,40,0.155834971417072,1
868,843,40,0.146895339827632,1
868,844,40,0.124360869407919,1
868,845,40,0.124572169962242,1
868,846,40,0.124118831229765,1
868,847,40,0.122878385566724,1
868,853,40,0.132702766094079,1
868,854,40,0.195497470423104,1
868,855,40,0.191646364132448,1
869,841,40,0.131843761388231,1
869,842,40,0.156285024403553,1
869,843,40,0.14759198863994,1
869,844,40,0.124874317271445,1
869,854,40,0.139014295515331,1
869,855,40,0.129097972984432,1
870,842,40,0.119949996834378,1
870,843,40,0.115757479158713,1
871,839,40,0.12531464256548,1
875,834,40,0.138325925840784,1
875,839,40,0.114859116162121,1
876,833,40,0.165232664262804,1
876,834,40,0.135898277732073,1
877,832,40,0.15072679052665,1
877,833,40,0.164336774408358,1
877,834,40,0.143083097199291,1
878,832,40,0.144954618077133,1
878,833,40,0.186613237217765,1
878,835,40,0.150878488355222,1
878,865,40,0.117810775984386,1
879,832,40,0.129034896082807,1
879,833,40,0.186528314227172,1
879,835,40,0.154318923503876,1
879,864,40,0.123796086179535,1
879,865,40,0.165504509692268,1
879,866,40,0.169140582161645,1
880,831,40,0.114352828633955,1
880,833,40,0.145631434644793,1
880,834,40,0.164860856783118,1
880,835,40,0.129968931210658,1
880,864,40,0.127346423054471,1
880,865,40,0.18671251620968,1
880,866,40,0.196839208922381,1
881,830,40,0.128818460814311,1
881,831,40,0.145203793036913,1
881,865,40,0.143723699899793,1
881,866,40,0.16788095198166,1
881,867,40,0.150225779035066,1
882,830,40,0.147558718989624,1
882,831,40,0.166720765669734,1
882,866,40,0.130233910726446,1
882,867,40,0.140445443991668,1
883,830,40,0.140194054980823,1
883,831,40,0.161224277908443,1
883,866,40,0.115877532544666,1
883,867,40,0.138497444137136,1
884,830,40,0.121661375869745,1
884,831,40,0.148581198391412,1
884,866,40,0.122995659611978,1
884,867,40,0.167162139104966,1
884,868,40,0.205887317237151,1
885,831,40,0.150688633476377,1
885,832,40,0.118163952459896,1
885,866,40,0.151971982267241,1
885,867,40,0.231867769710048,1
885,868,40,0.28916505590526,1
885,869,40,0.198656697532737,1
886,831,40,0.155016973763401,1
886,832,40,0.12772040925462,1
886,866,40,0.164172875745193,1
886,867,40,0.260950508138852,1
886,868,40,0.311667752336813,1
886,869,40,0.201995415877931,1
887,831,40,0.16448981479981,1
887,832,40,0.140668003231196,1
887,866,40,0.123744362178053,1
887,867,40,0.189947327254083,1
887,868,40,0.213873116784693,1
888,831,40,0.165702690816342,1
888,832,40,0.153608107120124,1
888,833,40,0.135684021184041,1
888,834,40,0.123493938870333,1
888,867,40,0.116655524179887,1
888,868,40,0.135854361793656,1
888,869,40,0.115188420927474,1
889,831,40,0.134820270400643,1
889,832,40,0.148129166891212,1
889,833,40,0.184154297972457,1
889,834,40,0.196866543031543,1
889,835,40,0.132255692655041,1
889,868,40,0.119240899873262,1
889,869,40,0.147475621413473,1
890,832,40,0.133643302052717,1
890,833,40,0.208167624958216,1
890,834,40,0.234075791019206,1
890,835,40,0.151385871132053,1
890,868,40,0.115669305752726,1
890,869,40,0.173701480248592,1
890,870,40,0.125180186070736,1
891,832,40,0.114122166909678,1
891,833,40,0.166697800778366,1
891,834,40,0.178528829959748,1
891,835,40,0.124682118795993,1
891,869,40,0.12677911957647,1
892,833,40,0.140800398774151,1
892,834,40,0.14052026243006,1
893,834,40,0.137595500972863,1
903,870,40,0.152726702812542,1
909,867,40,0.114346575117382,1
910,867,40,0.113849414661427,1
912,867,40,0.118255741364164,1
913,866,40,0.119082736544505,1
867,845,41,0.136620187924886,1
867,846,41,0.173816752226393,1
867,848,41,0.195768609240526,1
867,849,41,0.167009958424832,1
867,853,41,0.187179834083724,1
868,843,41,0.161446460288215,1
868,844,41,0.123906176335695,1
868,845,41,0.122300388693152,1
868,846,41,0.143681550491482,1
868,847,41,0.162708858032031,1
868,848,41,0.138644266342618,1
868,853,41,0.151170260244273,1
868,854,41,0.173446157764046,1
869,842,41,0.148527389884406,1
869,843,41,0.141143258713845,1
869,844,41,0.116938840278168,1
870,842,41,0.117511243139739,1
870,843,41,0.11570455391676,1
871,839,41,0.13530945791739,1
871,840,41,0.114839119041329,1
874,839,41,0.114941448241893,1
875,834,41,0.128375167749699,1
875,839,41,0.113901409530859,1
876,833,41,0.15537713392126,1
876,834,41,0.122489937373446,1
877,833,41,0.156715798658153,1
877,834,41,0.126384712288304,1
877,835,41,0.140383462338709,1
877,838,41,0.124987657842998,1
878,832,41,0.155941705166031,1
878,833,41,0.173850504728271,1
878,834,41,0.155492146807979,1
878,835,41,0.134583366936662,1
878,836,41,0.130218023732366,1
878,865,41,0.124804998630115,1
879,831,41,0.121097570121353,1
879,832,41,0.136394284055026,1
879,833,41,0.177428611456461,1
879,834,41,0.190550326417077,1
879,835,41,0.145463920483345,1
879,864,41,0.143730059408172,1
879,865,41,0.180777634560602,1
879,866,41,0.163613344999655,1
880,831,41,0.128671085096063,1
880,832,41,0.119484704581522,1
880,833,41,0.149452945667752,1
880,834,41,0.172672853322038,1
880,835,41,0.130215833235036,1
880,864,41,0.144065947442385,1
880,865,41,0.187309685823327,1
880,866,41,0.167903634228212,1
881,831,41,0.161445977436653,1
881,865,41,0.137622316899861,1
881,866,41,0.143085181704816,1
882,831,41,0.194842641266822,1
882,832,41,0.116852362741082,1
882,866,41,0.11977111799592,1
882,867,41,0.131478737384149,1
883,830,41,0.145552482525955,1
883,831,41,0.186769268933528,1
883,832,41,0.115796743234519,1
883,866,41,0.113855821277276,1
883,867,41,0.129959921907121,1
884,830,41,0.123735376428251,1
884,831,41,0.170221227511365,1
884,832,41,0.120432836619613,1
884,866,41,0.130229176425764,1
884,867,41,0.168373919872832,1
884,868,41,0.207026658493835,1
885,830,41,0.118740053257821,1
885,831,41,0.179783254764355,1
885,832,41,0.138492215208025,1
885,866,41,0.160543527867083,1
885,867,41,0.219052747929438,1
885,868,41,0.263507996210298,1
885,869,41,0.185645214050688,1
886,831,41,0.188343235480442,1
886,832,41,0.151622892364708,1
886,866,41,0.175107096476474,1
886,867,41,0.233914094630238,1
886,868,41,0.255025307074751,1
886,869,41,0.17491983250845,1
887,831,41,0.19958414939173,1
887,832,41,0.167992408254435,1
887,866,41,0.147345098392429,1
887,867,41,0.183910740578412,1
887,868,41,0.170826358287353,1
888,831,41,0.208452059858896,1
888,832,41,0.191708722645164,1
888,833,41,0.144517637413431,1
888,834,41,0.12026785448465,1
888,867,41,0.131137950173111,1
888,868,41,0.1204163843359,1
889,832,41,0.177136980889819,1
889,833,41,0.182787003670991,1
889,834,41,0.181759071579611,1
889,835,41,0.123662901586467,1
889,868,41,0.114143647915758,1
890,832,41,0.145517163700718,1
890,833,41,0.203743267871538,1
890,834,41,0.225597906845544,1
890,835,41,0.142596288609753,1
890,869,41,0.154725213651217,1
891,833,41,0.175061625991565,1
891,834,41,0.185964673354922,1
891,835,41,0.121097911650506,1
891,869,41,0.116749432920282,1
892,833,41,0.161076089586347,1
892,834,41,0.158035761729666,1
893,834,41,0.15517181601556,1
893,835,41,0.115888602799993,1
903,870,41,0.16914105323634,1
904,869,41,0.122732163981478,1
910,864,41,0.116482121584756,1
910,867,41,0.125812191658059,1
911,867,41,0.117367789118325,1
912,867,41,0.122831525411465,1
913,866,41,0.115224976323786,1
868,844,42,0.137307215036554,1
868,845,42,0.137932566693813,1
868,846,42,0.181437280455639,1
868,849,42,0.132315613356211,1
868,852,42,0.124577716866773,1
868,853,42,0.166698036315714,1
869,842,42,0.152482956988619,1
869,843,42,0.150073798561677,1
869,844,42,0.128118349602997,1
869,845,42,0.116466211036941,1
869,846,42,0.122534689469446,1
869,847,42,0.126946280431896,1
870,842,42,0.119841402340374,1
870,843,42,0.124222455885739,1
870,844,42,0.115435935348955,1
871,840,42,0.123931590815476,1
871,841,42,0.114966591853724,1
872,840,42,0.117588440505339,1
874,839,42,0.116997748168744,1
876,835,42,0.125570989637487,1
877,833,42,0.151640687211302,1
877,835,42,0.122271500037498,1
877,836,42,0.162887112696518,1
877,838,42,0.115541090997687,1
878,832,42,0.19446615837079,1
878,833,42,0.167007473505817,1
878,834,42,0.132595361063679,1
878,835,42,0.115749211797821,1
878,836,42,0.114363863558679,1
879,831,42,0.161132936525134,1
879,832,42,0.170882392622292,1
879,833,42,0.1727857934801,1
879,834,42,0.168672969865917,1
879,835,42,0.127162586154851,1
879,864,42,0.151290301853359,1
879,865,42,0.180527552782035,1
880,831,42,0.152715161482521,1
880,832,42,0.146969145455429,1
880,833,42,0.15766480218443,1
880,834,42,0.172988697127989,1
880,835,42,0.123128573337097,1
880,864,42,0.145080677665444,1
880,865,42,0.17041180077912,1
880,866,42,0.140304722203484,1
881,831,42,0.173890228101904,1
881,832,42,0.13040976290999,1
881,834,42,0.115789241370006,1
881,865,42,0.120629863610686,1
881,866,42,0.122791613607954,1
882,831,42,0.214107076031833,1
882,832,42,0.136211507073469,1
883,831,42,0.210168396955425,1
883,832,42,0.143828961540331,1
884,831,42,0.197627281556069,1
884,832,42,0.160042751912846,1
884,866,42,0.132192804183294,1
884,867,42,0.166534726495917,1
884,868,42,0.194696702326393,1
885,831,42,0.211703935584116,1
885,832,42,0.181840543948066,1
885,866,42,0.162885793687373,1
885,867,42,0.212840827252387,1
885,868,42,0.236032305548845,1
885,869,42,0.167762441365333,1
886,831,42,0.223079400205087,1
886,832,42,0.193934727230793,1
886,866,42,0.177887579531541,1
886,867,42,0.213332794109833,1
886,868,42,0.207368281862456,1
887,831,42,0.23906630922775,1
887,832,42,0.215002565472788,1
887,833,42,0.12996113492446,1
887,866,42,0.172928823534289,1
887,867,42,0.184634935483494,1
888,831,42,0.261663997871496,1
888,832,42,0.254097030835042,1
888,833,42,0.161948849673281,1
888,834,42,0.120137884976373,1
888,866,42,0.141108728938721,1
888,867,42,0.154683076019773,1
889,832,42,0.226145083657213,1
889,833,42,0.18238697881709,1
889,834,42,0.162194185374299,1
889,867,42,0.11448835682363,1
890,832,42,0.166270795121324,1
890,833,42,0.190028587638925,1
890,834,42,0.201602516028788,1
890,835,42,0.127074141880915,1
891,833,42,0.183722263593049,1
891,834,42,0.189489430873934,1
891,835,42,0.116387565116655,1
892,834,42,0.172590650787806,1
893,835,42,0.115809803780431,1
893,837,42,0.122957137478816,1
903,870,42,0.164829636307724,1
904,869,42,0.125853822884206,1
911,867,42,0.130568679958259,1
912,867,42,0.129192058377837,1
913,866,42,0.114602274461684,1
868,845,43,0.162250043056227,1
868,850,43,0.13083002042203,1
868,851,43,0.117549070437726,1
869,843,43,0.180162517001086,1
869,844,43,0.158952885275976,1
869,845,43,0.139945421756943,1
869,846,43,0.146715342186774,1
869,849,43,0.121572743165931,1
870,842,43,0.126050955867085,1
870,843,43,0.138093309156524,1
870,844,43,0.130312368216854,1
870,845,43,0.122965581492719,1
871,840,43,0.129465152155242,1
871,841,43,0.12381244424831,1
871,842,43,0.122666131086144,1
871,843,43,0.119039786309213,1
871,844,43,0.114588648626139,1
871,845,43,0.119952022455565,1
872,840,43,0.126960707094423,1
872,841,43,0.126792556982137,1
872,842,43,0.12154956629095,1
873,840,43,0.118384862937991,1
873,841,43,0.12196266346763,1
873,842,43,0.118145863191618,1
874,839,43,0.119767596712577,1
874,841,43,0.115038583843947,1
874,842,43,0.114784839459628,1
876,835,43,0.115097609503197,1
876,838,43,0.139333165976197,1
877,831,43,0.25616372973578,1
877,832,43,0.234053414971206,1
877,833,43,0.142015229750666,1
877,836,43,0.134029018012766,1
877,837,43,0.135707233389624,1
878,831,43,0.241204682143292,1
878,832,43,0.23634992766177,1
878,833,43,0.15653492952911,1
878,864,43,0.116457189956537,1
879,831,43,0.199194570619184,1
879,832,43,0.217046935432995,1
879,833,43,0.17223634373303,1
879,834,43,0.142182861680787,1
879,864,43,0.151941009106062,1
879,865,43,0.168692590126953,1
880,831,43,0.173415914768644,1
880,832,43,0.194894141507823,1
880,833,43,0.179871145525525,1
880,834,43,0.163592570605617,1
880,864,43,0.138155726553576,1
880,865,43,0.146330344615635,1
881,831,43,0.180641705957437,1
881,832,43,0.175552591815284,1
881,833,43,0.147952784748636,1
881,834,43,0.125584544811828,1
882,831,43,0.215053959721983,1
882,832,43,0.181037997544382,1
882,833,43,0.122526645869033,1
883,831,43,0.213744254301948,1
883,832,43,0.198728748407296,1
883,833,43,0.129357405595689,1
884,831,43,0.206288837753207,1
884,832,43,0.228110360176174,1
884,833,43,0.151387661215893,1
884,866,43,0.130750714997172,1
885,831,43,0.213785002263043,1
885,832,43,0.236066599786622,1
885,833,43,0.147158505705845,1
885,866,43,0.16425925906734,1
885,868,43,0.204782058234631,1
886,831,43,0.221044145540223,1
886,832,43,0.228155960206625,1
886,833,43,0.137464930844351,1
886,866,43,0.174281137660462,1
886,867,43,0.195989708148499,1
887,831,43,0.236368511558477,1
887,832,43,0.243635262691977,1
887,833,43,0.15130564711154,1
887,865,43,0.119475506848107,1
887,866,43,0.188237738302556,1
887,867,43,0.176658039247682,1
888,830,43,0.138807705707956,1
888,831,43,0.268863526646057,1
888,832,43,0.289411851937832,1
888,833,43,0.182149356964199,1
888,834,43,0.128491346546288,1
888,866,43,0.184423305176885,1
888,867,43,0.168583383235846,1
888,868,43,0.123800690934676,1
889,831,43,0.231372646652148,1
889,832,43,0.260690474907358,1
889,833,43,0.186041234769684,1
889,834,43,0.148063722839246,1
889,866,43,0.13346057217863,1
889,867,43,0.131516847326953,1
890,832,43,0.193543558581153,1
890,833,43,0.184465701899411,1
890,834,43,0.171304381333835,1
891,833,43,0.205931268506169,1
891,834,43,0.187147871665686,1
892,834,43,0.179408915258185,1
893,837,43,0.130873323963344,1
903,870,43,0.145593948875959,1
903,871,43,0.128413666329126,1
904,869,43,0.125518594354565,1
913,866,43,0.120244677609669,1
914,865,43,0.137126357684378,1
869,844,44,0.195380490799534,1
869,845,44,0.165864917164341,1
869,849,44,0.136693722684734,1
869,850,44,0.115913793519294,1
869,852,44,0.124444508719969,1
869,853,44,0.140922642657434,1
870,842,44,0.131347637296604,1
870,843,44,0.148636219915757,1
870,844,44,0.14291954006528,1
870,845,44,0.138975208092536,1
870,846,44,0.12929465844635,1
871,841,44,0.136581265378233,1
871,842,44,0.138021258281964,1
871,843,44,0.130254190492054,1
871,844,44,0.126010996956104,1
871,845,44,0.133832002798561,1
871,846,44,0.123427423123436,1
872,840,44,0.135843091331585,1
872,841,44,0.147669939725051,1
872,842,44,0.146883456968457,1
872,843,44,0.130227303903853,1
872,844,44,0.116748926514986,1
872,845,44,0.114719536730071,1
873,840,44,0.127233836202429,1
873,841,44,0.14098987679324,1
873,842,44,0.141451094249987,1
873,843,44,0.125610183052089,1
874,839,44,0.120186158355716,1
874,840,44,0.115719227893501,1
874,841,44,0.127942308989575,1
874,842,44,0.130598239895354,1
874,843,44,0.118812952066831,1
875,841,44,0.116433706883004,1
875,842,44,0.119893373656071,1
876,831,44,0.264104494542505,1
876,832,44,0.234379492874901,1
876,838,44,0.123220962861602,1
877,830,44,0.146332464451761,1
877,831,44,0.306289468993298,1
877,832,44,0.281813581987913,1
877,833,44,0.143755191243136,1
878,830,44,0.130927238462156,1
878,831,44,0.274041626798045,1
878,832,44,0.277374527370759,1
878,833,44,0.152725831324357,1
879,831,44,0.213080839809354,1
879,832,44,0.256192253308546,1
879,833,44,0.17453766138548,1
879,834,44,0.11943427603545,1
879,864,44,0.134572355565672,1
880,831,44,0.172732420717187,1
880,832,44,0.237593918161889,1
880,833,44,0.199499049748126,1
880,834,44,0.144072825132928,1
880,864,44,0.119505796950978,1
881,831,44,0.172502406720615,1
881,832,44,0.230941943058752,1
881,833,44,0.190306863237971,1
881,834,44,0.127134557210514,1
882,831,44,0.195153126598121,1
882,832,44,0.240639557385754,1
882,833,44,0.171132356632185,1
883,831,44,0.194518706752988,1
883,832,44,0.262586621214868,1
883,833,44,0.182738082563943,1
884,831,44,0.195511626217681,1
884,832,44,0.304455269008147,4
884,833,44,0.221934429605801,1
885,831,44,0.194068041369403,1
885,832,44,0.290830516934758,1
885,833,44,0.204512603509243,1
886,831,44,0.195642844073899,1
886,832,44,0.255341374641182,1
886,833,44,0.171133122128564,1
886,866,44,0.16324323338887,1
887,831,44,0.207830877212685,1
887,832,44,0.253980628277973,1
887,833,44,0.175375879920422,1
887,834,44,0.114956051557429,1
887,865,44,0.126144087334234,1
887,866,44,0.187576337654282,1
887,867,44,0.15911898621334,1
888,831,44,0.238688672198717,1
888,832,44,0.286423283413234,1
888,833,44,0.20014322083944,1
888,834,44,0.138698192618297,1
888,865,44,0.136799372961895,1
888,866,44,0.211212534016304,1
888,867,44,0.160700937476328,1
889,831,44,0.218087303896315,1
889,832,44,0.259899587602369,1
889,833,44,0.189268284858491,1
889,834,44,0.138517594357204,1
889,866,44,0.162202888479284,1
889,867,44,0.131299740777017,1
890,832,44,0.209676288775571,1
890,833,44,0.188015226170498,1
890,834,44,0.145754561793129,1
891,833,44,0.227504322581399,1
891,834,44,0.172753454202307,1
892,834,44,0.169678843884716,1
893,837,44,0.124959040055293,1
903,870,44,0.115479085790993,1
904,869,44,0.118552377099439,1
912,866,44,0.117719352163005,1
913,866,44,0.137626756778859,1
868,850,45,0.177408449459527,1
868,851,45,0.154721268400649,1
869,845,45,0.201451206836839,1
869,849,45,0.147919526875188,1
869,850,45,0.131448718149227,1
869,851,45,0.134812886304803,1
869,852,45,0.159122213074998,1
870,842,45,0.133346630986841,1
870,844,45,0.160487316879134,1
870,845,45,0.174874939090042,1
870,846,45,0.165636622590406,1
870,847,45,0.133201657749537,1
870,852,45,0.127243033935844,1
871,840,45,0.138013461995766,1
871,841,45,0.147069437257938,1
871,842,45,0.14668814940002,1
871,843,45,0.139141415021705,1
871,844,45,0.14092722385884,1
871,845,45,0.154186386638513,1
871,846,45,0.144237406854401,1
871,847,45,0.119304624502592,1
872,840,45,0.144000373844878,1
872,841,45,0.162062025368691,1
872,842,45,0.161722286298849,1
872,843,45,0.144832915929749,1
872,844,45,0.129773505873548,1
872,845,45,0.12707966523171,1
872,846,45,0.123024100746672,1
872,847,45,0.11419492439628,1
873,840,45,0.135098958190048,1
873,841,45,0.155575173722926,1
873,842,45,0.157619508352531,1
873,843,45,0.143339196957084,1
873,844,45,0.121165263554986,1
874,840,45,0.122104951579174,1
874,841,45,0.140492610345479,1
874,842,45,0.145316073690403,1
874,843,45,0.137628582193301,1
874,844,45,0.116675568408148,1
875,841,45,0.127711859248911,1
875,842,45,0.13135758874953,1
875,843,45,0.123718570838517,1
876,831,45,0.253367830761328,1
876,832,45,0.22549495347101,1
876,842,45,0.114280718875059,1
877,830,45,0.133068131627314,1
877,831,45,0.28723459180624,1
877,832,45,0.273775846455276,1
877,833,45,0.130669866802688,1
878,831,45,0.24799703750546,1
878,832,45,0.264930429804783,1
878,833,45,0.135802072502541,1
879,831,45,0.193076758889274,1
879,832,45,0.253507787053134,1
879,833,45,0.16441557342792,1
880,831,45,0.16112910904324,1
880,832,45,0.258768372384169,1
880,833,45,0.210425321093933,1
880,834,45,0.12380617895487,1
881,831,45,0.166074686725907,1
881,832,45,0.288946477246904,1
881,833,45,0.240070240063433,1
881,834,45,0.127411372478007,1
882,831,45,0.178948639950827,1
882,832,45,0.308673554469613,1
882,833,45,0.234719349713417,1
883,831,45,0.175067361325974,1
883,832,45,0.319037574613521,4
883,833,45,0.239692343943317,1
884,831,45,0.178418987117803,4
884,832,45,0.355553047344514,4
884,833,45,0.284432945720513,4
884,834,45,0.121668383105829,1
885,831,45,0.169308025661888,1
885,832,45,0.325039136885639,4
885,833,45,0.26093771846089,1
885,834,45,0.116331177475695,1
886,831,45,0.165744310265622,1
886,832,45,0.274130730576554,1
886,833,45,0.211176331926013,1
887,831,45,0.172641138218215,1
887,832,45,0.254790170140874,1
887,833,45,0.200762896046628,1
887,834,45,0.118412632791246,1
887,865,45,0.123610859609566,1
887,866,45,0.168896612577242,1
888,831,45,0.190943626679711,1
888,832,45,0.257833501098735,1
888,833,45,0.20849245451397,1
888,834,45,0.139517250190032,1
888,865,45,0.14699281695884,1
888,866,45,0.199172383001062,1
888,867,45,0.137979803708828,1
889,831,45,0.183270432299594,1
889,832,45,0.235825456650388,1
889,833,45,0.190592970453818,1
889,834,45,0.129920210310355,1
889,865,45,0.115122293817201,1
889,866,45,0.164293211775963,1
889,867,45,0.118719903037753,1
890,832,45,0.212147169764391,1
890,833,45,0.195155729285809,1
890,834,45,0.128943330939018,1
891,833,45,0.230882469878542,1
891,834,45,0.151900284698703,1
892,834,45,0.14804732943987,1
905,868,45,0.117371239740464,1
910,866,45,0.116466505458625,1
911,866,45,0.125722663912324,1
912,866,45,0.138524884238105,1
869,849,46,0.169836029733481,1
869,850,46,0.154863226759907,1
869,851,46,0.152201854941404,1
869,852,46,0.176570501792533,1
870,841,46,0.113772594155584,1
870,842,46,0.124894561706451,1
870,845,46,0.204254831436284,1
870,846,46,0.198516128843828,1
870,847,46,0.157365563761467,1
870,848,46,0.131762642325798,1
870,849,46,0.12490410096902,1
870,850,46,0.134982649847918,1
870,851,46,0.138548002228749,1
870,852,46,0.144848378956603,1
870,853,46,0.114452390270687,1
871,840,46,0.134200559862853,1
871,841,46,0.14407639352374,1
871,842,46,0.141153751902671,1
871,843,46,0.135680252586483,1
871,844,46,0.142231641465427,1
871,845,46,0.162125019832245,1
871,846,46,0.157186225625182,1
871,847,46,0.13125206801791,1
872,840,46,0.139792063390072,1
872,841,46,0.157739608845954,1
872,842,46,0.158008462951106,1
872,843,46,0.145947549318694,1
872,844,46,0.13193774078983,1
872,845,46,0.128441919033943,1
872,846,46,0.13229691169083,1
872,847,46,0.12939530355488,1
873,839,46,0.122925540143666,1
873,840,46,0.130630614503749,1
873,841,46,0.151671224628388,1
873,842,46,0.156508985090297,1
873,843,46,0.147570177881573,1
873,844,46,0.128505149034843,1
873,845,46,0.11595502433195,1
873,846,46,0.118879079177104,1
873,847,46,0.12296906744546,1
874,840,46,0.118477064032618,1
874,841,46,0.137750708307911,1
874,842,46,0.144814826661471,1
874,843,46,0.140259369487248,1
874,844,46,0.123783602700125,1
875,841,46,0.126689485838929,1
875,842,46,0.131291744284074,1
875,843,46,0.124416220684551,1
876,841,46,0.113865760953335,1
876,842,46,0.115322253248248,1
877,831,46,0.239232598594991,1
877,832,46,0.234837636569265,1
878,832,46,0.223453621942584,1
879,832,46,0.214746771913547,1
880,832,46,0.235781269844022,1
880,833,46,0.191700090201383,1
881,831,46,0.149496308093402,1
881,832,46,0.287078595421079,1
881,833,46,0.242837544803914,1
881,834,46,0.116374622339417,1
882,831,46,0.157902282714913,1
882,832,46,0.311088660214576,1
882,833,46,0.251304170292372,1
883,831,46,0.152184166086617,1
883,832,46,0.306021097739708,1
883,833,46,0.246603998971927,1
884,831,46,0.153498994443957,1
884,832,46,0.32519374360045,4
884,833,46,0.28007694157204,1
884,834,46,0.117330644878646,1
885,831,46,0.142946085124328,1
885,832,46,0.297648380991646,1
885,833,46,0.265469951652662,1
885,834,46,0.115428869228534,1
886,831,46,0.138927476449092,1
886,832,46,0.258880017086821,1
886,833,46,0.227510305230022,1
887,832,46,0.235240169895915,1
887,833,46,0.211577240044967,1
887,834,46,0.117332658722965,1
887,865,46,0.115437419234244,1
887,866,46,0.140726816906833,1
888,832,46,0.216022112434601,1
888,833,46,0.198957196080508,1
888,834,46,0.12892076646114,1
888,865,46,0.13884290676452,1
888,866,46,0.161370793915373,1
888,867,46,0.114048125744534,1
889,832,46,0.196768005982272,1
889,833,46,0.178363647618039,1
889,834,46,0.117496262964447,1
889,865,46,0.121523021231902,1
889,866,46,0.144750842941059,1
890,833,46,0.185372650232315,1
890,834,46,0.115304670385267,1
891,833,46,0.205705411743779,1
891,834,46,0.12927349541569,1
892,834,46,0.124157895098826,1
906,867,46,0.115708039869501,1
909,866,46,0.123827565746011,1
910,866,46,0.135334212892598,1
911,866,46,0.146564633615061,1
912,865,46,0.128454296521547,1
912,866,46,0.162098062582838,1
870,842,47,0.120767064115527,1
870,843,47,0.137224694526903,1
870,847,47,0.175407689239184,1
870,848,47,0.157213206428323,1
870,849,47,0.166913435219881,1
870,850,47,0.200561676490772,1
870,851,47,0.174271374637414,1
870,852,47,0.151668704378771,1
871,840,47,0.126666273633346,1
871,841,47,0.137675077265671,1
871,842,47,0.134320872339888,1
871,843,47,0.131731586726547,1
871,844,47,0.138141005469366,1
871,845,47,0.159262663995233,1
871,846,47,0.160797425350677,1
871,847,47,0.139420244133518,1
871,848,47,0.119078873732008,1
871,849,47,0.11655772907326,1
871,850,47,0.132759306834314,1
871,851,47,0.118583067615801,1
872,839,47,0.126968397388814,1
872,840,47,0.131135288601085,1
872,841,47,0.148993282757498,1
872,842,47,0.150387569638972,1
872,843,47,0.143634337030202,1
872,844,47,0.12958433405301,1
872,845,47,0.12415756534654,1
872,846,47,0.134397539746456,1
872,847,47,0.137063410328294,1
872,848,47,0.11699414444733,1
873,840,47,0.124768031043446,1
873,841,47,0.145815624850434,1
873,842,47,0.153371933821919,1
873,843,47,0.149813612230908,1
873,844,47,0.135240916549306,1
873,845,47,0.124289277831187,1
873,846,47,0.130219531171389,1
873,847,47,0.134603128520106,1
873,848,47,0.116763306070042,1
874,840,47,0.116358087617632,1
874,841,47,0.136173079155246,1
874,842,47,0.144645828614735,1
874,843,47,0.140892258339624,1
874,844,47,0.130809575780279,1
874,845,47,0.124890863770097,1
874,846,47,0.122180394191536,1
874,847,47,0.115116805797008,1
875,841,47,0.127640691639404,1
875,842,47,0.13262462657909,1
875,843,47,0.124649697080128,1
875,844,47,0.117327370909517,1
875,845,47,0.115645469373173,1
876,841,47,0.11582752796582,1
876,842,47,0.115472137439246,1
881,832,47,0.242519121864009,1
882,831,47,0.134610842368232,1
882,832,47,0.266488768448698,1
882,833,47,0.235956650952871,1
883,831,47,0.129428278783512,1
883,832,47,0.255510702440205,1
883,833,47,0.230113063579633,1
884,831,47,0.126838180566322,1
884,832,47,0.252935831712522,1
884,833,47,0.235736046673327,1
885,832,47,0.238507732408469,1
885,833,47,0.234240431625016,1
886,832,47,0.220954005397385,1
886,833,47,0.22655864013172,1
887,833,47,0.212367255861771,1
887,834,47,0.118114442509479,1
888,833,47,0.181424573215748,1
888,865,47,0.123485259319082,1
888,866,47,0.118368339993073,1
889,833,47,0.160495560686292,1
889,865,47,0.123713483231814,1
889,866,47,0.115486493440568,1
906,867,47,0.131151187372033,1
906,868,47,0.158449023782489,1
907,866,47,0.13512902453244,1
907,867,47,0.170117579301656,1
908,866,47,0.157488608471732,1
909,865,47,0.12198593455755,1
909,866,47,0.169884809518121,1
910,865,47,0.138717047382954,1
911,865,47,0.15848866471805,1
870,848,48,0.174449429095156,1
870,849,48,0.188519570515548,1
870,850,48,0.237575004512896,1
870,851,48,0.195170344378213,1
871,841,48,0.122780013393596,1
871,842,48,0.120695625638071,1
871,843,48,0.119646707169041,1
871,844,48,0.125525224730894,1
871,846,48,0.153713969380899,1
871,847,48,0.143759348477317,1
871,848,48,0.1300636172243,1
871,849,48,0.132548795330105,1
871,850,48,0.150925902023247,1
871,851,48,0.126931724223829,1
872,840,48,0.116030737812261,1
872,841,48,0.130364339532551,1
872,842,48,0.133015559691382,1
872,843,48,0.129795528615527,1
872,844,48,0.119535698417227,1
872,845,48,0.11647498480313,1
872,846,48,0.129887906363164,1
872,847,48,0.136139962604206,1
872,848,48,0.120037710942538,1
873,841,48,0.129869475565732,1
873,842,48,0.137642608442337,1
873,843,48,0.137336598320638,1
873,844,48,0.129595757614357,1
873,845,48,0.125456777577749,1
873,846,48,0.133991367367789,1
873,847,48,0.13733367765753,1
873,848,48,0.11765654612933,1
874,841,48,0.12601132670839,1
874,842,48,0.132762521919106,1
874,843,48,0.129319484082763,1
874,844,48,0.127317628613755,1
874,845,48,0.132294155903866,1
874,846,48,0.134790145173915,1
874,847,48,0.124718061795202,1
875,841,48,0.123325800534915,1
875,842,48,0.125514707988334,1
875,843,48,0.117123666434647,1
875,844,48,0.116267158424681,1
875,845,48,0.124540443081552,1
875,846,48,0.122739995598278,1
876,841,48,0.116190620563654,1
882,832,48,0.19517201669338,1
883,832,48,0.187475892752497,1
884,832,48,0.174548554987795,1
886,834,48,0.132973869580898,1
887,834,48,0.126968927347846,1
906,866,48,0.13757944910264,1
906,867,48,0.151828457584623,1
907,865,48,0.114740876413742,1
907,866,48,0.18668705462243,1
907,867,48,0.186829731370597,1
908,865,48,0.147941502509698,1
909,865,48,0.172228076372137,1
910,865,48,0.192339468107678,1
871,848,49,0.137419142384022,1
871,849,49,0.145102017349116,1
871,850,49,0.152615434969646,1
871,851,49,0.127555945301821,1
872,842,49,0.115020800774221,1
872,843,49,0.116736925887137,1
872,846,49,0.122680710847946,1
872,847,49,0.127973364588825,1
872,848,49,0.115944224944573,1
873,841,49,0.114122779306782,1
873,842,49,0.120844014166912,1
873,843,49,0.123242549859488,1
873,844,49,0.123102628898284,1
873,845,49,0.125721603994261,1
873,846,49,0.135640081691889,1
873,847,49,0.135303781467319,1
874,841,49,0.114144943371169,1
874,842,49,0.118109296018439,1
874,843,49,0.116981955389603,1
874,844,49,0.121901529749121,1
874,845,49,0.136216465134631,1
874,846,49,0.150620645621059,1
874,847,49,0.138046613877408,1
875,841,49,0.113827156382101,1
875,845,49,0.131829746916062,1
875,846,49,0.143317492190524,1
875,847,49,0.121083355442439,1
905,867,49,0.118744469583084,1
906,866,49,0.153974921208047,1
906,867,49,0.160508585901601,1
907,865,49,0.132286430278872,1
907,867,49,0.185372296926294,1
873,845,50,0.121524304910445,1
873,846,50,0.131270757906423,1
873,847,50,0.124859596187234,1
874,845,50,0.13070771765441,1
874,846,50,0.151519244154999,1
874,847,50,0.136228230225132,1
875,845,50,0.126972107102035,1
875,846,50,0.145241561450563,1
875,847,50,0.120553396410863,1
876,846,50,0.114231067602234,1
877,841,50,0.114051776573418,1
878,841,50,0.118735307180271,1
906,866,50,0.144450709476176,1
907,865,50,0.133110551903575,1
907,866,50,0.202328088827352,1
908,865,50,0.182130714183155,1
909,864,50,0.116803700725116,1
909,865,50,0.194823550964818,1
873,845,51,0.121250021669436,1
873,846,51,0.134324582053109,1
874,845,51,0.128610811088872,1
874,846,51,0.155464270962918,1
874,847,51,0.134241661129969,1
875,845,51,0.123016645989628,1
875,846,51,0.144862570081782,1
875,847,51,0.119888615801654,1
876,846,51,0.115149792802506,1
877,841,51,0.116956093388862,1
878,841,51,0.125460145761816,1
881,839,51,0.114957664988259,1
881,840,51,0.116658067983239,1
907,865,51,0.126858248348318,1
873,846,52,0.1342186962386,1
874,845,52,0.125754826537107,1
874,846,52,0.153879552136098,1
874,847,52,0.128250592046676,1
875,845,52,0.118463921048635,1
875,846,52,0.13866953949999,1
875,847,52,0.117196035284625,1
877,845,52,0.118068818925294,1
878,841,52,0.122480033027989,1
881,838,52,0.121419537898336,1
881,839,52,0.152256947126953,1
881,840,52,0.136680320609669,1
882,838,52,0.131757943355718,1
882,839,52,0.151480969336052,1
882,840,52,0.126540791111537,1
874,846,53,0.133544341036221,1
877,845,53,0.113921312436711,1
880,840,53,0.12342664585019,1
881,839,53,0.173158519555441,1
881,840,53,0.13772690725896,1
882,839,53,0.182256526457251,1
882,840,53,0.130017004383256,1
883,838,53,0.125765661255086,1
883,839,53,0.13302514606142,1
881,840,54,0.126948247168747,1
882,840,54,0.121093401110304,1
883,839,54,0.146929280759387,1
905,858,54,0.121352927936501,1
905,857,55,0.152738844762799,1
904,855,56,0.136013891239028,1
