x,y,z,signal,mito.p
932,273,41,0.17981343887542,1
933,273,41,0.189422656035955,1
944,263,41,0.176619611329459,1
930,272,42,0.12716268036979,1
930,273,42,0.11973195991192,1
931,265,42,0.150977390487381,1
931,271,42,0.130769393108818,1
931,272,42,0.150389866128109,1
931,273,42,0.165143336723815,1
931,274,42,0.170943514563934,1
931,275,42,0.147450112718753,1
931,276,42,0.116073428956472,1
932,265,42,0.159426185798643,1
932,266,42,0.144400681343595,1
932,267,42,0.132752935549068,1
932,268,42,0.130038838695357,1
932,269,42,0.136271192237292,1
932,270,42,0.13276281634079,1
932,271,42,0.139865386166307,1
932,272,42,0.173796519568254,1
932,273,42,0.202331103705398,1
932,274,42,0.189670382441049,1
932,275,42,0.149223991589244,1
932,276,42,0.123168732454823,1
933,266,42,0.151930091950012,1
933,267,42,0.151279113829359,1
933,268,42,0.122717737318952,1
933,269,42,0.113923785578858,1
933,270,42,0.121729764138553,1
933,271,42,0.147566597713893,1
933,272,42,0.198369648167501,1
933,273,42,0.225972034368102,1
933,274,42,0.178216707643884,1
933,275,42,0.118310562681764,1
933,300,42,0.120630040263696,1
934,267,42,0.116488799068553,1
934,271,42,0.128093300206105,1
934,272,42,0.15923855674773,1
934,273,42,0.177125521997869,1
934,274,42,0.141501310812446,1
934,299,42,0.134258914240663,1
936,299,42,0.118609930650268,1
937,301,42,0.119157083908201,1
938,302,42,0.122781532609486,1
942,262,42,0.116784669307449,1
942,263,42,0.134255970023821,1
942,264,42,0.132541823424623,1
943,262,42,0.143022069472589,1
943,263,42,0.183740235092653,1
943,264,42,0.170320612495087,1
943,265,42,0.119246800083814,1
944,262,42,0.174535859524772,1
944,263,42,0.213483561565882,1
944,264,42,0.169616391157061,1
945,263,42,0.175985179707459,1
945,264,42,0.125676651691516,1
930,272,43,0.134081048212799,1
930,273,43,0.126132969971438,1
931,264,43,0.138007043603051,1
931,265,43,0.144528837214298,1
931,271,43,0.126984296159761,1
931,272,43,0.164974268015875,1
931,273,43,0.174440042931863,1
931,274,43,0.170748524970916,1
931,275,43,0.15612474123867,1
931,276,43,0.136994574538526,1
931,277,43,0.117089242651329,1
932,265,43,0.14675979986109,1
932,266,43,0.133277806973941,1
932,267,43,0.125487927391938,1
932,268,43,0.125332025221716,1
932,269,43,0.131729360898615,1
932,270,43,0.134046388892134,1
932,271,43,0.155428233748771,1
932,272,43,0.200629581908018,1
932,273,43,0.232912566275499,1
932,274,43,0.215031112599288,1
932,275,43,0.172945699785228,1
932,276,43,0.148372111888154,1
932,277,43,0.130176628043567,1
933,266,43,0.146490027160283,1
933,267,43,0.1580279536666,1
933,268,43,0.135376821598737,1
933,269,43,0.126858154133379,1
933,270,43,0.143380545538414,1
933,271,43,0.172755974451923,1
933,272,43,0.216754492262504,1
933,273,43,0.248516562232547,1
933,274,43,0.199409781093474,1
933,275,43,0.133079142998304,1
933,300,43,0.115012038784899,1
933,301,43,0.127841322351891,1
934,267,43,0.122850026870101,1
934,270,43,0.125325512614061,1
934,271,43,0.144797338013429,1
934,272,43,0.166303805680558,1
934,273,43,0.189219881933607,1
934,274,43,0.155283849354835,1
934,299,43,0.140048410462079,1
934,300,43,0.158309715218388,1
935,299,43,0.14837490300572,1
936,300,43,0.136550845729821,1
937,264,43,0.113805899136501,1
937,301,43,0.126627881045726,1
938,302,43,0.127998190225238,1
938,303,43,0.156371984792201,1
939,303,43,0.130749042682005,1
940,263,43,0.118823080172768,1
941,263,43,0.138729495531762,1
941,264,43,0.121973933929701,1
942,262,43,0.123073186729864,1
942,263,43,0.149269921371981,1
942,264,43,0.144843679986524,1
942,265,43,0.119739332230893,1
943,261,43,0.117980315767021,1
943,262,43,0.150856665819988,1
943,263,43,0.195948924856803,1
943,264,43,0.179214337855525,1
943,265,43,0.124533565391009,1
944,261,43,0.123886026115627,1
944,262,43,0.184271042058679,1
944,263,43,0.232791712062565,1
944,264,43,0.17909648674377,1
945,261,43,0.128796661832812,1
945,262,43,0.17756868551694,1
945,263,43,0.187939465582718,1
945,264,43,0.133731793434123,1
946,261,43,0.12222969215834,1
946,262,43,0.137903748699363,1
946,263,43,0.121479234839026,1
930,272,44,0.141413702696092,1
930,273,44,0.141676209069733,1
930,274,44,0.114649275939351,1
931,265,44,0.11489339862303,1
931,271,44,0.12550675860286,1
931,272,44,0.187188077890882,1
931,273,44,0.197234652574875,1
931,274,44,0.167638242522066,1
931,275,44,0.161218448359096,1
931,276,44,0.172935877877842,1
931,277,44,0.154867325109751,1
932,265,44,0.118120354496898,1
932,268,44,0.118989981937112,1
932,269,44,0.126368860624826,1
932,270,44,0.134288073764267,1
932,271,44,0.166574261439672,1
932,272,44,0.228289674758725,1
932,273,44,0.257778196929573,1
932,274,44,0.223866801557335,1
932,275,44,0.187341118282334,1
932,276,44,0.178561392998021,1
932,277,44,0.161974817665829,1
933,266,44,0.128251734402811,1
933,267,44,0.148308187052079,1
933,268,44,0.138500082155427,1
933,269,44,0.134623149194632,1
933,270,44,0.158073247498499,1
933,271,44,0.184714747313649,1
933,272,44,0.214878719935542,1
933,273,44,0.240655903677661,1
933,274,44,0.201721627265351,1
933,275,44,0.142991802923452,1
933,276,44,0.114567367826804,1
933,299,44,0.141573962307241,1
933,300,44,0.120086690933923,1
933,302,44,0.123947889999913,1
934,267,44,0.12786065996811,1
934,268,44,0.120675569632942,1
934,269,44,0.114024889985216,1
934,270,44,0.133099575863188,1
934,271,44,0.145160089082109,1
934,272,44,0.15334911025296,1
934,273,44,0.175882579638946,1
934,274,44,0.154917647664016,1
934,298,44,0.119770906012307,1
934,299,44,0.151069155837916,1
934,300,44,0.14102652640449,1
934,301,44,0.145981584465389,1
935,299,44,0.129639296693018,1
935,300,44,0.141007436102486,1
936,263,44,0.122119696217119,1
936,300,44,0.128236766004386,1
936,301,44,0.1451190938068,1
937,263,44,0.137242772018314,1
937,264,44,0.128605287738076,1
937,300,44,0.115051573728654,1
937,301,44,0.140832125654841,1
938,263,44,0.119965353869426,1
938,264,44,0.119596337507306,1
938,301,44,0.122585377106599,1
938,302,44,0.137217016009379,1
938,305,44,0.155791667875758,1
938,306,44,0.132677975788268,1
939,303,44,0.126702982128934,1
939,304,44,0.133495502367245,1
939,307,44,0.134501776799534,1
940,263,44,0.139825674569541,1
940,264,44,0.122266282885253,1
940,308,44,0.151119266408568,1
941,262,44,0.116773575498388,1
941,263,44,0.172614581382299,1
941,264,44,0.15357295317103,1
942,262,44,0.125664497964392,1
942,263,44,0.16725770838366,1
942,264,44,0.161117049531055,1
942,265,44,0.127389173083018,1
943,258,44,0.11472186854981,1
943,261,44,0.123896542858187,1
943,262,44,0.154023630331482,1
943,263,44,0.200697557986468,1
943,264,44,0.178515239454805,1
943,265,44,0.127267918456593,1
944,261,44,0.133388203328651,1
944,262,44,0.183588949454439,1
944,263,44,0.233824190024748,1
944,264,44,0.177103829008177,1
945,261,44,0.130425367259254,1
945,262,44,0.168471185020428,1
945,263,44,0.186837751417275,1
945,264,44,0.139238633061831,1
946,261,44,0.120104002928954,1
946,262,44,0.133791431490477,1
946,263,44,0.124192966609849,1
930,272,45,0.142356499813266,1
930,273,45,0.16057150970395,1
930,274,45,0.124607924531573,1
930,275,45,0.117335355625593,1
930,276,45,0.145384049768853,1
930,277,45,0.135382757139891,1
931,271,45,0.120573487746593,1
931,272,45,0.199678623421758,1
931,273,45,0.220264846672724,1
931,274,45,0.167185692839702,1
931,275,45,0.164471572432257,1
931,276,45,0.215198132132306,1
931,277,45,0.200749352649154,1
931,278,45,0.131825448359473,1
932,269,45,0.121202831761891,1
932,270,45,0.131346589155408,1
932,271,45,0.162165143619369,1
932,272,45,0.230396226578637,1
932,273,45,0.257157791556608,1
932,274,45,0.215070470890033,1
932,275,45,0.188971708007554,1
932,276,45,0.197605093937947,1
932,277,45,0.181613992350501,1
932,278,45,0.125217754277641,1
932,299,45,0.127780895245424,1
933,267,45,0.13319148253613,1
933,268,45,0.137175137469017,1
933,269,45,0.13871581081188,1
933,270,45,0.159789561041294,1
933,271,45,0.174458026208335,1
933,272,45,0.190922875839408,1
933,273,45,0.21142529490218,1
933,274,45,0.194490607147447,1
933,275,45,0.151674804796068,1
933,276,45,0.11899598813947,1
933,298,45,0.133174735830733,1
933,299,45,0.187856214907291,1
933,300,45,0.13871496287743,1
933,302,45,0.121633464694082,1
933,303,45,0.118043133577564,1
934,267,45,0.133410426277376,1
934,268,45,0.135441759245406,1
934,269,45,0.123634719542854,1
934,270,45,0.13025971384285,1
934,271,45,0.131554592186868,1
934,272,45,0.131199354759569,1
934,273,45,0.149280720759357,1
934,274,45,0.144051002597694,1
934,298,45,0.117782052204875,1
934,299,45,0.155444521156341,1
934,300,45,0.129274755540498,1
934,301,45,0.134602904759626,1
935,268,45,0.114078981137039,1
935,300,45,0.119558251118237,1
936,262,45,0.121077573000561,1
936,263,45,0.146132363698306,1
936,264,45,0.115555411668407,1
936,300,45,0.124922708419461,1
936,301,45,0.144188627069761,1
937,262,45,0.11405489744327,1
937,263,45,0.161279134556645,1
937,264,45,0.135387467886838,1
937,300,45,0.121768333379185,1
937,301,45,0.153802448985437,1
937,306,45,0.136576236655867,1
938,263,45,0.128222539548605,1
938,264,45,0.126821881381884,1
938,265,45,0.116353341540083,1
938,301,45,0.133832709410603,1
938,302,45,0.139683739764018,1
938,305,45,0.159266515030863,1
938,306,45,0.139894109945819,1
938,307,45,0.12423511601816,1
939,264,45,0.116406879179139,1
939,303,45,0.119011627819335,1
939,304,45,0.125817926992467,1
939,305,45,0.135484756588168,1
939,306,45,0.142767865790443,1
939,307,45,0.138669904582878,1
939,308,45,0.136118057630901,1
940,263,45,0.147145386275597,1
940,264,45,0.143035094687898,1
940,305,45,0.124493088297864,1
940,307,45,0.152351703801799,1
940,308,45,0.146548499306766,1
940,309,45,0.134204976188116,1
941,262,45,0.117602772952926,1
941,263,45,0.193944266493361,1
941,264,45,0.191068320151407,1
941,265,45,0.12873760084296,1
941,305,45,0.124505077148845,1
941,310,45,0.138475562717566,1
942,257,45,0.124585124516348,1
942,258,45,0.12429083237768,1
942,262,45,0.136917624487141,1
942,263,45,0.188307292481233,1
942,264,45,0.186496622677084,1
942,265,45,0.139316949229831,1
942,305,45,0.122499264652402,1
943,258,45,0.135833186986128,1
943,259,45,0.128135991350315,1
943,260,45,0.129874492511231,1
943,261,45,0.155196994957993,1
943,262,45,0.173143280289067,1
943,263,45,0.200225800233427,1
943,264,45,0.174777944810396,1
943,265,45,0.127930838320758,1
944,258,45,0.119443038024773,1
944,259,45,0.128157024835435,1
944,260,45,0.142189056313023,1
944,261,45,0.171789482277605,1
944,262,45,0.189750288486143,1
944,263,45,0.21075125767522,1
944,264,45,0.165309779190332,1
945,260,45,0.121875926839462,1
945,261,45,0.141763958508495,1
945,262,45,0.158789245703893,1
945,263,45,0.169468132173761,1
945,264,45,0.140154355160925,1
946,255,45,0.126527129945389,1
946,257,45,0.116325018174062,1
946,261,45,0.116247597047982,1
946,262,45,0.128739555802943,1
946,263,45,0.122512737388671,1
947,255,45,0.132119516737661,1
947,256,45,0.114228241154065,1
948,255,45,0.123876910820284,1
949,255,45,0.118083198480351,1
930,272,46,0.135182244196077,1
930,273,46,0.172371389071142,1
930,274,46,0.140448670853327,1
930,275,46,0.133807954435394,1
930,276,46,0.184714346900159,1
930,277,46,0.185553248493409,1
930,278,46,0.133219476149865,1
931,272,46,0.188994343146636,1
931,273,46,0.22589713349164,1
931,274,46,0.172181863944584,1
931,275,46,0.168581192738515,1
931,276,46,0.2391947006358,1
931,277,46,0.234849484097837,1
931,278,46,0.156553690078828,1
932,269,46,0.113916154168804,1
932,270,46,0.126100936892196,1
932,271,46,0.147725279224815,1
932,272,46,0.20297680578947,1
932,273,46,0.230994161688663,1
932,274,46,0.197571706518958,1
932,275,46,0.178141100155379,1
932,276,46,0.190193169360397,1
932,277,46,0.175894709812335,1
932,278,46,0.129589044799957,1
932,299,46,0.143994556072398,1
933,267,46,0.117123984410066,1
933,268,46,0.128761519660585,1
933,269,46,0.135920594895736,1
933,270,46,0.14986958768151,1
933,271,46,0.151594934081576,1
933,272,46,0.158338957180064,1
933,273,46,0.177846654917436,1
933,274,46,0.179839736620254,1
933,275,46,0.151087445312939,1
933,276,46,0.115527889129367,1
933,298,46,0.132719501022609,1
933,299,46,0.203730266209963,1
933,300,46,0.150966190686514,1
933,302,46,0.11481083100591,1
934,267,46,0.13541216397771,1
934,268,46,0.144257721950611,1
934,269,46,0.130135232354767,1
934,270,46,0.122077523255073,1
934,271,46,0.114014161259043,1
934,273,46,0.121830444577685,1
934,274,46,0.124672061351261,1
934,299,46,0.142111175889116,1
934,300,46,0.119849292841511,1
934,301,46,0.124876507768775,1
934,302,46,0.172994773991552,1
934,304,46,0.130595107248634,1
935,267,46,0.117554593788522,1
935,268,46,0.123873142222726,1
935,301,46,0.134271350612604,1
935,305,46,0.137681413220316,1
936,262,46,0.122791648938556,1
936,263,46,0.147426935843772,1
936,264,46,0.115730215710756,1
936,300,46,0.124395446290513,1
936,301,46,0.148930759368639,1
936,306,46,0.127083810689024,1
937,262,46,0.114187599184777,1
937,263,46,0.157652236266948,1
937,264,46,0.129739941801548,1
937,300,46,0.123063435483683,1
937,301,46,0.160430705477694,1
937,306,46,0.138867037565757,1
937,307,46,0.117231483655404,1
938,263,46,0.121081777342212,1
938,264,46,0.12404411878318,1
938,265,46,0.11594007948726,1
938,301,46,0.130624820285004,1
938,302,46,0.135708128431544,1
938,305,46,0.152525718794034,1
938,306,46,0.140179993401186,1
938,307,46,0.12974668994655,1
938,308,46,0.124441835371077,1
939,264,46,0.121578490277207,1
939,304,46,0.114671157358922,1
939,305,46,0.126064558148895,1
939,306,46,0.138743627772604,1
939,307,46,0.142432707922007,1
939,308,46,0.138292703297937,1
939,309,46,0.13561268869839,1
940,263,46,0.133737175462511,1
940,264,46,0.148955891203603,1
940,305,46,0.116679054360889,1
940,306,46,0.14202263740024,1
940,307,46,0.157201323569148,1
940,308,46,0.14967277267405,1
940,309,46,0.13778682796013,1
941,263,46,0.179600159807379,1
941,264,46,0.200515228525872,1
941,265,46,0.135209802065719,1
941,305,46,0.115731040091471,1
941,306,46,0.151061936618219,1
941,307,46,0.181706052122719,1
941,309,46,0.151717177964859,1
941,310,46,0.139940381257709,1
942,257,46,0.114038739581241,1
942,258,46,0.127877230020497,1
942,262,46,0.133732452938696,1
942,263,46,0.182960253166847,1
942,264,46,0.194319901454942,1
942,265,46,0.141207595740279,1
942,305,46,0.114251147161097,1
942,306,46,0.152089786271527,1
942,311,46,0.163239735659262,1
943,258,46,0.144562471947502,1
943,259,46,0.144644203407038,1
943,260,46,0.137764887656222,1
943,261,46,0.171349851818744,1
943,262,46,0.17326445247742,1
943,263,46,0.176141494068039,1
943,264,46,0.158866125094074,1
943,265,46,0.120729472354887,1
943,306,46,0.128222056697043,1
944,258,46,0.122940378996551,1
944,259,46,0.140802165304256,1
944,260,46,0.152773939827557,1
944,261,46,0.192349702205421,1
944,262,46,0.180637207194102,1
944,263,46,0.168373024830912,1
944,264,46,0.143380569092149,1
945,259,46,0.11654658815673,1
945,260,46,0.121278863217621,1
945,261,46,0.141517150699056,1
945,262,46,0.144754010918381,1
945,263,46,0.14374076458061,1
945,264,46,0.129962571702279,1
946,254,46,0.120821626342045,1
946,255,46,0.127763724572801,1
946,256,46,0.114335198663505,1
946,257,46,0.116824168920602,1
946,262,46,0.120252144143581,1
946,263,46,0.116651425830043,1
947,254,46,0.114476085327832,1
947,255,46,0.12121993177331,1
948,255,46,0.116745205024897,1
949,254,46,0.128976942118487,1
949,255,46,0.121467139996239,1
929,276,47,0.122084224292606,1
929,277,47,0.131814248558606,1
930,272,47,0.126604303757254,1
930,273,47,0.173717225920263,1
930,274,47,0.158294746819963,1
930,275,47,0.153543652325017,1
930,276,47,0.206302852225376,1
930,277,47,0.219581811919094,1
930,278,47,0.163020591711271,1
930,279,47,0.119891395142353,1
931,272,47,0.166132216723001,1
931,273,47,0.213331592869361,1
931,274,47,0.184241340799176,1
931,275,47,0.178707708798206,1
931,276,47,0.233330998373096,1
931,277,47,0.234965792439967,1
931,278,47,0.166745744405423,1
932,270,47,0.120034048336786,1
932,271,47,0.130392533353031,1
932,272,47,0.16323025528103,1
932,273,47,0.19310903928273,1
932,274,47,0.181719619073927,1
932,275,47,0.168131186859503,1
932,276,47,0.17006690344137,1
932,277,47,0.15775040823333,1
932,278,47,0.128659755749655,1
932,299,47,0.139511597293695,1
932,300,47,0.114128302657577,1
933,268,47,0.124331003272273,1
933,269,47,0.132162290319943,1
933,270,47,0.134317245064739,1
933,271,47,0.127697809446141,1
933,272,47,0.132589873043485,1
933,273,47,0.152056975919038,1
933,274,47,0.164871491294351,1
933,275,47,0.146086304370028,1
933,298,47,0.118772274766941,1
933,299,47,0.18162661715232,1
933,300,47,0.149056807180083,1
934,267,47,0.137539808167079,1
934,268,47,0.154637735080405,1
934,269,47,0.142552513993745,1
934,270,47,0.118932510824354,1
934,299,47,0.122208034499249,1
934,300,47,0.114205382254503,1
934,302,47,0.139262646094395,1
934,303,47,0.142815880078703,1
934,304,47,0.116695824620022,1
935,267,47,0.123287914352591,1
935,268,47,0.136074153469352,1
935,269,47,0.12415823662798,1
935,301,47,0.123488262420261,1
935,305,47,0.125125046777717,1
936,263,47,0.131163082008075,1
936,300,47,0.119586550930523,1
936,306,47,0.127266917422867,1
937,263,47,0.1378165409965,1
937,264,47,0.12220753987082,1
937,300,47,0.113751760877209,1
937,301,47,0.145440366748609,1
937,305,47,0.172706641154517,1
937,306,47,0.137411087006742,1
937,307,47,0.118987379249423,1
938,264,47,0.121250669397141,1
938,265,47,0.115017220606541,1
938,302,47,0.122342008142432,1
938,303,47,0.129433978787318,1
938,304,47,0.144605881480622,1
938,305,47,0.143384796987534,1
938,306,47,0.133442117827464,1
938,307,47,0.127890796971706,1
938,308,47,0.127237793229865,1
939,264,47,0.128244114769624,1
939,265,47,0.125219956551839,1
939,305,47,0.120864482362398,1
939,306,47,0.136535182496221,1
939,307,47,0.144928332109167,1
939,308,47,0.138889872911585,1
939,309,47,0.136482904981973,1
940,263,47,0.116085335369381,1
940,264,47,0.147380476102004,1
940,265,47,0.126028838910167,1
940,305,47,0.117958799430339,1
940,306,47,0.151145022417503,1
940,307,47,0.171635864819652,1
940,308,47,0.159599447071366,1
940,309,47,0.145076720638008,1
941,263,47,0.151714539946569,1
941,264,47,0.188210027333638,1
941,265,47,0.140858364515338,1
941,306,47,0.148840477903393,1
941,307,47,0.186754889378472,1
941,309,47,0.17437302077967,1
942,258,47,0.115899413964237,1
942,262,47,0.124969733450863,1
942,263,47,0.164330685767929,1
942,264,47,0.189864688975759,1
942,265,47,0.142913804730871,1
942,306,47,0.136031756746826,1
942,310,47,0.168326305998062,1
943,258,47,0.144755636126078,1
943,259,47,0.157720188791663,1
943,260,47,0.142547143742225,1
943,261,47,0.172938810317817,1
943,262,47,0.160594439264716,1
943,263,47,0.148791686341886,1
943,264,47,0.148678993498039,1
943,265,47,0.121344495699465,1
943,307,47,0.156953137866228,1
944,258,47,0.132612119545944,1
944,259,47,0.154599059847967,1
944,260,47,0.151982946530761,1
944,261,47,0.190048219676828,1
944,262,47,0.165196285519503,1
944,263,47,0.135545171917768,1
944,264,47,0.12891136852098,1
945,258,47,0.118924102141053,1
945,259,47,0.125460357745429,1
945,260,47,0.118249146318438,1
945,261,47,0.135030263722689,1
945,262,47,0.135901327940721,1
945,263,47,0.12840053512201,1
945,264,47,0.11861444119047,1
946,255,47,0.115442118204324,1
946,259,47,0.116607368569218,1
946,262,47,0.115130761384839,1
946,263,47,0.116820989166413,1
947,266,47,0.117066619289114,1
947,267,47,0.117319621730789,1
948,266,47,0.113806381988063,1
954,290,47,0.127467642350293,1
954,291,47,0.12691663805673,1
959,282,47,0.114158474991775,1
929,276,48,0.128251722625944,1
929,277,48,0.154146474835001,1
929,278,48,0.144023892249012,1
929,279,48,0.126894415108006,1
930,272,48,0.116418090756874,1
930,273,48,0.168091498816472,1
930,274,48,0.176332538410488,1
930,275,48,0.178920375469143,1
930,276,48,0.206125610371482,1
930,277,48,0.223053891510367,1
930,278,48,0.17644932960418,1
930,279,48,0.140274879621573,1
930,280,48,0.12506645686256,1
931,272,48,0.137655598327044,1
931,273,48,0.190216110698031,1
931,274,48,0.198518060250077,1
931,275,48,0.198047150431486,1
931,276,48,0.206716102501331,1
931,277,48,0.201275896389194,1
931,278,48,0.153283571986055,1
931,279,48,0.115483655215532,1
932,272,48,0.125136941413759,1
932,273,48,0.155733678580837,1
932,274,48,0.166905780256091,1
932,275,48,0.162790189078077,1
932,276,48,0.146084337633178,1
932,277,48,0.131293970112006,1
932,278,48,0.115414736987692,1
932,299,48,0.119572406912814,1
933,269,48,0.118657049896609,1
933,273,48,0.125272198735485,1
933,274,48,0.141671062578693,1
933,275,48,0.134710816195322,1
933,299,48,0.142740048829719,1
933,300,48,0.133276111105039,1
934,267,48,0.127809053735302,1
934,268,48,0.146491275508224,1
934,269,48,0.140993939812482,1
935,267,48,0.116251130108193,1
935,268,48,0.131117505531359,1
935,269,48,0.131810150208761,1
935,301,48,0.11375121914131,1
935,304,48,0.130335486207498,1
936,305,48,0.138907161352881,1
936,306,48,0.122392919540065,1
937,301,48,0.121604081409998,1
937,304,48,0.155027938026921,1
937,305,48,0.147590775622601,1
937,306,48,0.12939266553659,1
937,307,48,0.116916428899566,1
937,308,48,0.115212127761487,1
938,264,48,0.115350588391137,1
938,304,48,0.125452608566701,1
938,305,48,0.129021340908466,1
938,306,48,0.122445809451417,1
938,307,48,0.121299119429495,1
938,308,48,0.124814679215092,1
938,309,48,0.12706333071667,1
939,264,48,0.128553681505268,1
939,265,48,0.136520908932971,1
939,305,48,0.114296170125046,1
939,306,48,0.132264607743639,1
939,307,48,0.142544246632852,1
939,308,48,0.134939970480575,1
939,309,48,0.133678962407109,1
940,264,48,0.138166384618544,1
940,265,48,0.141862683987644,1
940,305,48,0.118282945927785,1
940,306,48,0.162769556006447,1
940,307,48,0.183167690908673,1
940,308,48,0.165174698521617,1
940,309,48,0.151630005592599,1
941,263,48,0.124922590650788,1
941,264,48,0.159847774096695,1
941,265,48,0.140044865625001,1
941,306,48,0.153148785739024,1
941,307,48,0.188387210303195,1
941,308,48,0.206501810622697,1
941,309,48,0.197990480145709,1
942,263,48,0.138855684665614,1
942,264,48,0.166406464633408,1
942,265,48,0.137436042188696,1
942,306,48,0.12368521875013,1
942,307,48,0.168575716495189,1
942,309,48,0.220715217634625,1
943,258,48,0.125335040099762,1
943,259,48,0.149103879318954,1
943,260,48,0.137873529257696,1
943,261,48,0.153194138455259,1
943,262,48,0.138357193423647,1
943,263,48,0.125611266523887,1
943,264,48,0.135811953294263,1
943,265,48,0.12288005788189,1
943,307,48,0.130543006387396,1
943,308,48,0.169899377503055,1
943,309,48,0.180827650916316,1
944,258,48,0.12963602272389,1
944,259,48,0.149869187268019,1
944,260,48,0.138862621240494,1
944,261,48,0.160391099872734,1
944,262,48,0.142477789770293,1
944,263,48,0.115545683975961,1
944,264,48,0.114602109585541,1
945,258,48,0.118052284203509,1
945,259,48,0.125287485109329,1
945,261,48,0.118759944386806,1
945,262,48,0.123636403634888,1
945,263,48,0.116753507716392,1
946,259,48,0.114595596977886,1
947,266,48,0.126196211749206,1
947,267,48,0.137172793872411,1
947,268,48,0.125100280025642,1
947,269,48,0.121823990854367,1
947,270,48,0.122491421258734,1
948,266,48,0.12706964311758,1
948,267,48,0.139514835932221,1
948,268,48,0.128477650049538,1
948,273,48,0.115897164582569,1
949,273,48,0.120233159833383,1
953,291,48,0.149178791972284,1
955,283,48,0.116872112547659,1
956,283,48,0.132236425700026,1
957,283,48,0.13511935572433,1
957,284,48,0.121499561712104,1
958,282,48,0.127555014929299,1
958,283,48,0.161419656138084,1
958,284,48,0.133608913600002,1
959,281,48,0.137173806683005,1
959,282,48,0.157736994381398,1
959,283,48,0.144601017634399,1
928,278,49,0.116598783232906,1
929,276,49,0.126252187199808,1
929,277,49,0.158099851441884,1
929,278,49,0.161831870049712,1
929,279,49,0.138332497332775,1
930,273,49,0.149064332598331,1
930,274,49,0.177262357419822,1
930,275,49,0.186096079641018,1
930,276,49,0.178638449041212,1
930,277,49,0.185121296552072,1
930,278,49,0.160068496144913,1
930,279,49,0.13760182515064,1
930,280,49,0.131946455671683,1
931,273,49,0.155134554007206,1
931,274,49,0.191354568689662,1
931,275,49,0.197388258255961,1
931,276,49,0.16536899327946,1
931,277,49,0.147535636329582,1
931,278,49,0.125117909996092,1
932,273,49,0.12120220758792,1
932,274,49,0.144091397252768,1
932,275,49,0.147845709470523,1
932,276,49,0.119869407730976,1
933,274,49,0.114194394437249,1
933,275,49,0.11825191388227,1
934,267,49,0.115843721158452,1
934,268,49,0.131883484761864,1
934,269,49,0.133914476200741,1
935,268,49,0.120842118091266,1
935,269,49,0.129746925483897,1
936,305,49,0.1195939939107,1
936,306,49,0.117085002979076,1
937,304,49,0.126262491958755,1
937,305,49,0.126951038286313,1
937,306,49,0.121052276289454,1
937,307,49,0.114149536349442,1
938,305,49,0.118284865557166,1
938,306,49,0.114334739365677,1
938,307,49,0.115603072650647,1
938,308,49,0.12169183084876,1
938,309,49,0.125201219555856,1
938,310,49,0.120123894057939,1
939,264,49,0.123326436485753,1
939,265,49,0.138856827021749,1
939,306,49,0.125808705705318,1
939,307,49,0.137411016345538,1
939,308,49,0.131422903255955,1
939,309,49,0.131473955975997,1
940,264,49,0.12666907652778,1
940,265,49,0.149474450227567,1
940,266,49,0.128470277730566,1
940,305,49,0.113982929006782,1
940,306,49,0.165759054903567,1
940,307,49,0.187996983802945,1
940,308,49,0.166390554085593,1
940,309,49,0.15581967326636,1
941,264,49,0.129357723571108,1
941,265,49,0.134775294544164,1
941,266,49,0.121436849893368,1
941,306,49,0.158993597906469,1
941,307,49,0.190501157995815,1
941,308,49,0.20406147882783,1
941,309,49,0.207943723155809,1
942,264,49,0.13275918906564,1
942,265,49,0.126758521835443,1
942,274,49,0.115936063575487,1
942,306,49,0.118418144365174,1
942,307,49,0.15092656152782,1
942,308,49,0.191799274978359,1
942,309,49,0.206472062255724,1
943,259,49,0.125432917644461,1
943,260,49,0.118941873433912,1
943,261,49,0.118938858555866,1
943,264,49,0.114862825875342,1
943,265,49,0.11752618798443,1
943,308,49,0.134293161370971,1
943,309,49,0.145815613073566,1
944,258,49,0.114432946662662,1
944,259,49,0.129394314298021,1
944,260,49,0.117271454343252,1
944,261,49,0.12086076087231,1
945,259,49,0.114566531669221,1
946,267,49,0.114353853221416,1
946,269,49,0.117242883663017,1
946,270,49,0.130848133244043,1
946,271,49,0.114308241414098,1
946,275,49,0.124046533040991,1
947,266,49,0.125080589103402,1
947,267,49,0.142912874358349,1
947,268,49,0.137548252180982,1
947,269,49,0.142546390022713,1
947,270,49,0.160434356306578,1
947,271,49,0.140699153045385,1
947,272,49,0.115984230963024,1
947,273,49,0.119894516012206,1
947,274,49,0.130425979656357,1
947,275,49,0.134424756086945,1
948,264,49,0.113816580755204,1
948,265,49,0.115295237114505,1
948,266,49,0.130711085838477,1
948,267,49,0.150448986002298,1
948,268,49,0.146748081878058,1
948,269,49,0.13785095300295,1
948,270,49,0.133871361089306,1
948,271,49,0.124961595635512,1
948,272,49,0.133256797042555,1
948,273,49,0.160291314475522,1
948,274,49,0.144809291533808,1
948,275,49,0.115859113524102,1
949,267,49,0.116477293069135,1
949,268,49,0.116395891361884,1
949,272,49,0.12845642813454,1
949,273,49,0.168479063744697,1
949,274,49,0.140721317109772,1
950,273,49,0.142502474084297,1
950,274,49,0.120057507856584,1
953,282,49,0.118654835845543,1
953,283,49,0.117264411776566,1
954,283,49,0.117045503365923,1
956,284,49,0.121669443023893,1
928,278,50,0.128881667261477,1
929,275,50,0.121325428951196,1
929,276,50,0.130224041711591,1
929,277,50,0.151374011826613,1
929,278,50,0.160379511435244,1
929,279,50,0.134886397510917,1
930,273,50,0.123408709681188,1
930,274,50,0.161442479707044,1
930,275,50,0.174585734558077,1
930,276,50,0.147535577445245,1
930,277,50,0.140042145168639,1
930,278,50,0.130720966630199,1
930,279,50,0.120982309920419,1
930,280,50,0.120175311860869,1
931,273,50,0.123232457084153,1
931,274,50,0.164831661928911,1
931,275,50,0.172155895952036,1
931,276,50,0.126469011104926,1
932,274,50,0.119650723080813,1
932,275,50,0.12585832164754,1
934,269,50,0.122953333550656,1
935,269,50,0.116225786289616,1
935,302,50,0.117795572048613,1
938,308,50,0.116465822400318,1
938,309,50,0.120549392275958,1
939,265,50,0.126614019672833,1
939,306,50,0.11553275297559,1
939,307,50,0.126996485217488,1
939,308,50,0.125887799146563,1
940,265,50,0.14430033065675,1
940,266,50,0.139617683314949,1
940,267,50,0.115733407241812,1
940,276,50,0.117911409316049,1
940,306,50,0.150208949891596,1
940,307,50,0.174848205601116,1
940,308,50,0.158937669563336,1
941,265,50,0.127732033022713,1
941,266,50,0.130625185367892,1
941,275,50,0.118939518060439,1
941,276,50,0.122262066766735,1
941,307,50,0.18527516132424,1
941,308,50,0.18936790537956,1
942,265,50,0.114086636100828,1
942,273,50,0.114099885076617,1
942,274,50,0.120319484271193,1
942,308,50,0.164249908234649,1
943,308,50,0.113765056960468,1
945,275,50,0.113831372500619,1
946,269,50,0.121778720576203,1
946,270,50,0.141837163516056,1
946,271,50,0.130755684835201,1
946,274,50,0.123272510210073,1
946,275,50,0.164743994928221,1
946,276,50,0.138051913467724,1
947,266,50,0.114892892217733,1
947,267,50,0.133536038344726,1
947,268,50,0.137142468438938,1
947,269,50,0.150582983199215,1
947,270,50,0.177620103319871,1
947,271,50,0.160720463522425,1
947,272,50,0.129337903103327,1
947,273,50,0.136495341353914,1
947,274,50,0.165240248565389,1
947,275,50,0.179322802803987,1
947,276,50,0.128255809198921,1
948,265,50,0.119665691479239,1
948,266,50,0.124407152496677,1
948,267,50,0.143964925474099,1
948,268,50,0.149856892218487,1
948,269,50,0.15380529898734,1
948,270,50,0.15720185352818,1
948,271,50,0.144435905953894,1
948,272,50,0.147224338394434,1
948,273,50,0.183329422628243,1
948,274,50,0.187144020630057,1
948,275,50,0.152999101754772,1
948,283,50,0.124369266314353,1
949,268,50,0.128340920619392,1
949,269,50,0.128939303250378,1
949,270,50,0.124568483802756,1
949,271,50,0.122131838167376,1
949,272,50,0.147067105438199,1
949,273,50,0.196929996792923,1
949,274,50,0.182260530592156,1
949,275,50,0.132073316086975,1
949,283,50,0.117277154347058,1
949,284,50,0.114637687501861,1
950,272,50,0.125727268667465,1
950,273,50,0.165558329976141,1
950,274,50,0.14701559342033,1
951,288,50,0.118351817048156,1
952,282,50,0.118457808854471,1
953,282,50,0.124171073413411,1
953,283,50,0.116363234108672,1
928,277,51,0.118421253458159,1
928,278,51,0.130263918184501,1
929,275,51,0.130814274750359,1
929,276,51,0.13192570483138,1
929,277,51,0.135851723775366,1
929,278,51,0.143463431130952,1
929,279,51,0.120508067248362,1
930,274,51,0.134266333667105,1
930,275,51,0.144393155925347,1
930,276,51,0.115530550701393,1
931,274,51,0.12689117646948,1
931,275,51,0.128833370328399,1
934,279,51,0.11396235481949,1
935,277,51,0.116769689132156,1
935,278,51,0.126647312876883,1
935,279,51,0.134597240086421,1
935,280,51,0.120479319915116,1
936,276,51,0.123175068409467,1
936,277,51,0.138931056616772,1
936,278,51,0.136460175627952,1
936,279,51,0.123298631301896,1
936,302,51,0.124587892080179,1
937,276,51,0.125043079780833,1
937,277,51,0.128343275992865,1
937,278,51,0.115621150142057,1
938,308,51,0.11404241396386,1
939,267,51,0.118570784343135,1
939,307,51,0.116782631909394,1
939,309,51,0.127541954383388,1
940,265,51,0.126115811075682,1
940,266,51,0.142118053579659,1
940,267,51,0.136860871763293,1
940,268,51,0.12102513061017,1
940,276,51,0.125868685290825,1
940,307,51,0.149095046668428,1
940,308,51,0.144056266857408,1
940,309,51,0.146058664062315,1
940,310,51,0.149886840792204,1
941,265,51,0.116831706115718,1
941,266,51,0.130503330121232,1
941,267,51,0.120727046320209,1
941,271,51,0.114132424561156,1
941,272,51,0.119055202228598,1
941,273,51,0.118712719148659,1
941,274,51,0.12106155646094,1
941,275,51,0.127939835847428,1
941,276,51,0.131853736394892,1
941,308,51,0.163243586694891,1
942,272,51,0.117742234616302,1
942,273,51,0.123293673240734,1
942,274,51,0.122652611242405,1
942,275,51,0.115149097967332,1
942,309,51,0.152398799494405,1
942,310,51,0.154816013298627,1
942,311,51,0.154789432908977,1
943,310,51,0.118766139019042,1
945,275,51,0.136477016548289,1
945,276,51,0.145553966411244,1
945,277,51,0.115701433046907,1
946,269,51,0.120404631022266,1
946,270,51,0.136660688571766,1
946,271,51,0.13503056992124,1
946,274,51,0.138715869696217,1
946,275,51,0.203853640672514,1
946,276,51,0.178037428391936,1
946,277,51,0.114913831487914,1
947,267,51,0.120987409303989,1
947,268,51,0.130598216341619,1
947,269,51,0.147129405066578,1
947,270,51,0.171159667187612,1
947,271,51,0.163301882188364,1
947,272,51,0.137498848222371,1
947,273,51,0.145171418428517,1
947,274,51,0.189266176799232,1
947,276,51,0.156868674173462,1
948,268,51,0.145174080000543,1
948,269,51,0.159457370943434,1
948,270,51,0.170175497935374,1
948,271,51,0.159261710068977,1
948,272,51,0.157961167051755,1
948,273,51,0.192451583885025,1
948,276,51,0.132630020384344,1
948,283,51,0.118090994766549,1
949,270,51,0.145726073550965,1
949,271,51,0.142634539874965,1
949,272,51,0.162401046049624,1
949,273,51,0.208688209603366,1
949,276,51,0.129743027340798,1
949,283,51,0.114090934657418,1
949,284,51,0.115518338089932,1
950,273,51,0.171616197451147,1
950,274,51,0.171010289401912,1
950,275,51,0.146404397557647,1
950,276,51,0.129355273982695,1
950,288,51,0.120069060963472,1
951,277,51,0.12829053918079,1
952,281,51,0.11397774718514,1
952,282,51,0.117919582462002,1
929,275,52,0.123692944375123,1
929,276,52,0.118937527769853,1
931,314,52,0.143013813888563,1
934,279,52,0.114441567329576,1
934,280,52,0.11620218544741,1
935,277,52,0.132755302699409,1
935,278,52,0.14502131047704,1
935,279,52,0.153954064375937,1
935,280,52,0.144198025009921,1
936,276,52,0.132361931775571,1
936,277,52,0.169549474996674,1
936,278,52,0.164815822042301,1
936,279,52,0.150745609960705,1
936,280,52,0.132158769036599,1
936,302,52,0.116095428144716,1
937,276,52,0.128193226925725,1
937,277,52,0.147972805423163,1
937,278,52,0.130232815477781,1
939,267,52,0.126313768439277,1
939,308,52,0.114461069821938,1
939,309,52,0.123071090447472,1
939,310,52,0.12716129069944,1
939,311,52,0.122211614666929,1
940,266,52,0.132459185146299,1
940,267,52,0.145289269540273,1
940,268,52,0.132959702009454,1
940,271,52,0.115012286099113,1
940,272,52,0.120624458028564,1
940,275,52,0.115862623030578,1
940,276,52,0.127823645273971,1
940,277,52,0.117101066626167,1
940,307,52,0.120294741072852,1
940,308,52,0.127723836323025,1
940,309,52,0.137377193182456,1
940,310,52,0.147565078498003,1
940,311,52,0.145982715044656,1
940,312,52,0.131565474012317,1
940,313,52,0.1174020480255,1
941,266,52,0.1196779040907,1
941,267,52,0.118963377993727,1
941,268,52,0.117556042343208,1
941,269,52,0.116040512612177,1
941,270,52,0.118000783962507,1
941,271,52,0.127928553608489,1
941,272,52,0.138181694546123,1
941,273,52,0.132660392925287,1
941,274,52,0.12689627585305,1
941,275,52,0.129681187010247,1
941,276,52,0.131821138026016,1
941,277,52,0.117290862620675,1
941,308,52,0.134199817920209,1
941,309,52,0.142116593248105,1
941,310,52,0.156894041545773,1
941,311,52,0.157495839468296,1
941,312,52,0.140057384435014,1
941,313,52,0.126354799045188,1
942,270,52,0.114090334037182,1
942,271,52,0.121655699419674,1
942,272,52,0.129115767831025,1
942,273,52,0.126417605078864,1
942,274,52,0.118851851059748,1
942,309,52,0.127975908392177,1
942,310,52,0.148812189867975,1
942,311,52,0.160843190257271,1
942,312,52,0.148446977434015,1
942,313,52,0.13247582585989,1
943,311,52,0.135560858705102,1
943,312,52,0.140359272653134,1
944,276,52,0.120655454743477,1
944,277,52,0.133067872536232,1
944,278,52,0.122545288650077,1
945,275,52,0.144684456739703,1
945,276,52,0.169101471185115,1
945,277,52,0.146935145639337,1
945,278,52,0.116479554227669,1
946,269,52,0.120659388217178,1
946,270,52,0.129376248583478,1
946,271,52,0.131610555860603,1
946,272,52,0.116599077654591,1
946,274,52,0.140164506820596,1
946,276,52,0.203689188496582,1
946,277,52,0.133459641806108,1
947,268,52,0.123295946176136,1
947,269,52,0.139607343225399,1
947,270,52,0.155921814037046,1
947,271,52,0.152589419869629,1
947,272,52,0.136421618164188,1
947,273,52,0.143464043528056,1
948,270,52,0.167088922320537,1
948,271,52,0.16023516237191,1
948,272,52,0.159012817754014,1
949,277,52,0.113774019156535,1
949,285,52,0.114561008318425,1
949,286,52,0.124547179449687,1
950,276,52,0.157911751316277,1
950,277,52,0.139195211751844,1
950,278,52,0.120599408631671,1
950,286,52,0.127243434349335,1
951,279,52,0.115886094327243,1
930,314,53,0.153141648957399,1
930,315,53,0.139494732819623,1
931,313,53,0.16473334864012,1
931,314,53,0.139956256474922,1
931,318,53,0.123273711450545,1
931,319,53,0.153385571434332,1
932,312,53,0.116748938291853,1
932,313,53,0.116059190723823,1
932,318,53,0.119547039540502,1
935,277,53,0.134327373170676,1
935,278,53,0.144453583031814,1
935,279,53,0.151587279117786,1
935,280,53,0.153554946340824,1
935,281,53,0.129783598648882,1
936,276,53,0.126090973662402,1
936,277,53,0.178124659648533,1
936,278,53,0.173447429665722,1
936,279,53,0.158344374539053,1
936,280,53,0.143429184000645,1
937,276,53,0.121741199476768,1
937,277,53,0.154554013330283,1
937,278,53,0.134599748559171,1
938,277,53,0.11793789549076,1
939,267,53,0.120458039115781,1
939,276,53,0.11633791384383,1
939,309,53,0.122765869375886,1
939,310,53,0.126055101324398,1
939,311,53,0.123645071409271,1
939,312,53,0.11877921134182,1
940,266,53,0.117882803305211,1
940,267,53,0.139511609070562,1
940,268,53,0.134355449222482,1
940,269,53,0.114593712679107,1
940,271,53,0.125171000114188,1
940,272,53,0.139162943135255,1
940,273,53,0.132824939316158,1
940,274,53,0.125504638766734,1
940,275,53,0.124023897901909,1
940,276,53,0.12581299248504,1
940,277,53,0.11687291337464,1
940,308,53,0.121476078638572,1
940,309,53,0.138135423234233,1
940,310,53,0.14833981971783,1
940,311,53,0.149647841045831,1
940,312,53,0.139627681875345,1
940,313,53,0.1226139242331,1
941,268,53,0.118981184617188,1
941,269,53,0.121110489344856,1
941,270,53,0.126467821641322,1
941,271,53,0.140776315080382,1
941,272,53,0.154440107469097,1
941,273,53,0.141554683575359,1
941,274,53,0.126862558681775,1
941,275,53,0.121943973579116,1
941,276,53,0.12168014819633,1
941,277,53,0.114923971370718,1
941,308,53,0.11898654309184,1
941,309,53,0.136670640024692,1
941,310,53,0.153519486193178,1
941,311,53,0.157899126514458,1
941,312,53,0.142359290930832,1
941,313,53,0.126365410002687,1
941,314,53,0.11536972580061,1
942,270,53,0.120875458402785,1
942,271,53,0.133034602885917,1
942,272,53,0.135990891017058,1
942,273,53,0.120901355734128,1
942,311,53,0.166488808490047,1
942,312,53,0.14975820206994,1
942,313,53,0.128561524898936,1
943,271,53,0.117327571116262,1
943,272,53,0.115435228736913,1
943,278,53,0.117266178306671,1
943,312,53,0.136095387161217,1
943,313,53,0.118981879452362,1
944,276,53,0.122563295480283,1
944,277,53,0.149612345567583,1
944,278,53,0.148773785503487,1
944,279,53,0.120662650409439,1
945,275,53,0.143339538486237,1
945,276,53,0.173616627919203,1
945,277,53,0.162314132768446,1
945,278,53,0.137103804983367,1
946,269,53,0.120152688498655,1
946,270,53,0.124078201037344,1
946,271,53,0.127187847535356,1
946,272,53,0.118100333822372,1
946,274,53,0.138048863259076,1
946,276,53,0.208964565573032,1
946,277,53,0.143275849187509,1
947,270,53,0.13888465575934,1
947,271,53,0.138422213508387,1
947,272,53,0.132053530949796,1
947,273,53,0.14087670109783,1
947,277,53,0.125997641988508,1
948,277,53,0.127733764222216,1
949,277,53,0.140246144065194,1
949,278,53,0.124780867828877,1
949,279,53,0.125040959944707,1
949,280,53,0.115743240926065,1
950,279,53,0.139969988302273,1
950,280,53,0.123297488945761,1
929,314,54,0.144350087921381,1
929,315,54,0.135336474051133,1
930,313,54,0.136727687170224,1
930,314,54,0.146906763388979,1
930,315,54,0.140095647477094,1
930,316,54,0.117939026070027,1
930,317,54,0.123411347699478,1
930,318,54,0.138336265930333,1
930,319,54,0.134900623966698,1
931,312,54,0.143902684730057,1
931,313,54,0.15960309790025,1
931,314,54,0.129550228245111,1
931,318,54,0.13885181007625,1
931,319,54,0.171326109654129,1
931,320,54,0.156937356863954,1
932,312,54,0.118376701568905,1
932,313,54,0.121655299006183,1
932,318,54,0.125457236875576,1
932,319,54,0.192129875199123,1
935,277,54,0.120146705850032,1
935,278,54,0.128888403629612,1
935,279,54,0.134420045339997,1
935,280,54,0.144889668653597,1
935,281,54,0.136432299782891,1
936,277,54,0.15910618475851,1
936,278,54,0.161007395118988,1
936,279,54,0.146527560036586,1
936,280,54,0.132783048998929,1
936,316,54,0.114315389972591,1
937,277,54,0.14095166085863,1
937,278,54,0.127040342271567,1
938,277,54,0.115711832020794,1
939,272,54,0.124731004572439,1
939,273,54,0.123899016000335,1
939,274,54,0.120329918575681,1
939,275,54,0.12169625895089,1
939,276,54,0.12050628894139,1
939,309,54,0.117974969069236,1
939,310,54,0.121796338769787,1
939,311,54,0.125784763333958,1
939,312,54,0.128936311926066,1
939,313,54,0.118569700871337,1
940,267,54,0.124191117641672,1
940,268,54,0.124606699737366,1
940,271,54,0.131318948847695,1
940,272,54,0.1568290332379,1
940,273,54,0.157182186159675,1
940,274,54,0.142316482017948,1
940,275,54,0.127142447711651,1
940,276,54,0.117051792213098,1
940,308,54,0.115058380757993,1
940,309,54,0.136944558182812,1
940,310,54,0.145036149329925,1
940,311,54,0.148707787938754,1
940,312,54,0.146463364332561,1
940,313,54,0.132706122501279,1
940,314,54,0.116867755106732,1
941,268,54,0.115219959378287,1
941,269,54,0.12172360483692,1
941,270,54,0.131879563065031,1
941,271,54,0.147257737590291,1
941,272,54,0.159245952620438,1
941,273,54,0.143638011412821,1
941,274,54,0.12182939643649,1
941,309,54,0.13569306581818,1
941,310,54,0.15090771854003,1
941,311,54,0.155358326264072,1
941,312,54,0.146316129936721,1
941,313,54,0.133158130447743,1
941,314,54,0.121012364485943,1
942,270,54,0.122328370530019,1
942,271,54,0.137099058905818,1
942,272,54,0.13437103001801,1
942,310,54,0.144915000695306,1
942,311,54,0.161346486461125,1
942,312,54,0.14591709433968,1
942,313,54,0.124854591018603,1
943,271,54,0.121051499016208,1
943,272,54,0.115998846055428,1
943,277,54,0.117720058775048,1
943,278,54,0.126956361430364,1
943,311,54,0.13758755158739,1
943,312,54,0.1262951374351,1
944,271,54,0.116267558838172,1
944,276,54,0.122671454230194,1
944,277,54,0.154789020718619,1
944,278,54,0.162445491947072,1
944,279,54,0.131010477360715,1
945,271,54,0.119738778718127,1
945,275,54,0.136151562818564,1
945,276,54,0.163678129547048,1
945,277,54,0.162105293579403,1
945,278,54,0.147602988234062,1
945,279,54,0.120357723759538,1
946,272,54,0.117103115801089,1
946,273,54,0.114767079943637,1
946,274,54,0.132619173889498,1
946,276,54,0.192511834338481,1
946,277,54,0.143978268664827,1
947,277,54,0.138986042810515,1
929,317,55,0.123453956405617,1
930,314,55,0.135433091471023,1
930,315,55,0.137119668423712,1
930,316,55,0.137871044338681,1
930,317,55,0.152483651823794,1
930,318,55,0.172533332774325,1
931,313,55,0.140485461786986,1
931,314,55,0.121601773143994,1
931,316,55,0.120041762184912,1
931,317,55,0.136386947066656,1
931,318,55,0.161731578247203,1
931,319,55,0.172148111442706,1
932,313,55,0.121422623437587,1
932,318,55,0.126908841770532,1
935,280,55,0.118458009061216,1
935,281,55,0.123276479014376,1
935,316,55,0.123925207753362,1
936,277,55,0.121005098158776,1
936,278,55,0.12798117265189,1
936,279,55,0.11848609688989,1
937,277,55,0.114960785858112,1
938,312,55,0.113987427770117,1
939,272,55,0.13207615431201,1
939,273,55,0.130098288321832,1
939,274,55,0.119940210257595,1
939,275,55,0.120091460565207,1
939,276,55,0.118418627216736,1
939,309,55,0.116137188916404,1
939,310,55,0.121031113258793,1
939,311,55,0.130397185215641,1
939,312,55,0.139432751166664,1
939,313,55,0.131043817672235,1
940,270,55,0.114062599514529,1
940,271,55,0.133626979314545,1
940,272,55,0.161678064161881,1
940,273,55,0.161817408056583,1
940,274,55,0.140913327155346,1
940,275,55,0.120449312457062,1
940,309,55,0.136719502247403,1
940,310,55,0.142851764193575,1
940,311,55,0.146578188789402,1
940,312,55,0.15249902063571,1
940,313,55,0.150002289423016,1
940,314,55,0.13375597134283,1
941,269,55,0.116932304116778,1
941,270,55,0.134186392291409,1
941,271,55,0.146812053821603,1
941,272,55,0.150245858593929,1
941,273,55,0.132334091261112,1
941,309,55,0.138668550243131,1
941,310,55,0.150124297768953,1
941,311,55,0.151213045603422,1
941,312,55,0.149597977789393,1
941,313,55,0.147707814130507,1
941,314,55,0.133286663178202,1
942,270,55,0.119645541259171,1
942,271,55,0.133885328454004,1
942,272,55,0.127558889518663,1
942,278,55,0.114996634642381,1
942,309,55,0.119267727577127,1
942,310,55,0.141703272310945,1
942,311,55,0.151285379122799,1
942,312,55,0.140588721360072,1
942,313,55,0.126654602757784,1
943,271,55,0.120268949733315,1
943,272,55,0.115113944018237,1
943,277,55,0.127416106778689,1
943,278,55,0.140045254261624,1
943,279,55,0.126577311177246,1
943,280,55,0.122226853933304,1
943,310,55,0.11961995012638,1
943,311,55,0.127898322389954,1
943,312,55,0.116535188149117,1
944,271,55,0.120559979679722,1
944,276,55,0.125424497184292,1
944,277,55,0.150155106053988,1
944,278,55,0.16064149962672,1
944,279,55,0.13670036483793,1
944,280,55,0.116559095189875,1
945,272,55,0.117577170043267,1
945,274,55,0.115763037840111,1
945,275,55,0.131840475642235,1
945,276,55,0.148080163346093,1
945,277,55,0.150413231432968,1
945,278,55,0.146609845008888,1
945,279,55,0.128332264621876,1
946,275,55,0.153822422552494,1
946,276,55,0.16696360467487,1
946,277,55,0.141125722958334,1
946,278,55,0.122145051812564,1
930,317,56,0.184379141924253,1
931,314,56,0.120962772097454,1
931,316,56,0.135162435505164,1
931,317,56,0.159822500939323,1
931,318,56,0.177875296258876,1
939,272,56,0.128339424957236,1
939,273,56,0.124551419121939,1
939,309,56,0.114326507335387,1
939,310,56,0.123633954046475,1
939,311,56,0.138627401868546,1
939,312,56,0.148975876547527,1
939,313,56,0.147868085518523,1
940,271,56,0.127686115016844,1
940,272,56,0.15071229320292,1
940,273,56,0.147788155919694,1
940,274,56,0.125522162745378,1
940,309,56,0.132301775537053,1
940,310,56,0.138617839052243,1
940,311,56,0.141891195783542,1
940,312,56,0.152730730501182,1
940,313,56,0.168949172736307,1
940,314,56,0.158166084543964,1
941,270,56,0.124094311791904,1
941,271,56,0.134823249948088,1
941,272,56,0.13420822660351,1
941,273,56,0.117959258728166,1
941,309,56,0.136951989386122,1
941,310,56,0.145943804274871,1
941,311,56,0.142013463220561,1
941,312,56,0.145520826306469,1
941,313,56,0.157411034246377,1
941,314,56,0.144543440529835,1
942,271,56,0.122999192672188,1
942,272,56,0.116863115020989,1
942,309,56,0.120342378501357,1
942,310,56,0.137173276723973,1
942,311,56,0.136580629427396,1
942,312,56,0.130164509647044,1
942,313,56,0.125872583433923,1
943,271,56,0.114215475029838,1
943,277,56,0.133145352546649,1
943,278,56,0.143605978333579,1
943,279,56,0.13090475642235,1
943,280,56,0.1251974862889,1
943,310,56,0.116828773675743,1
943,311,56,0.115521706273999,1
944,276,56,0.130805253669955,1
944,277,56,0.139082177378842,1
944,278,56,0.144494272108572,1
944,279,56,0.131467419814608,1
944,280,56,0.117570103922846,1
945,275,56,0.129112317208886,1
945,276,56,0.134888093379818,1
945,277,56,0.13345408312471,1
945,278,56,0.134290853104966,1
