x,y,z,fucci_ch00,fucci_ch02,cellCycle
751,1018,53,0.014679179064622,0.00729381246662089,1
752,1018,53,0.00178530556191348,0.0124055848020142,1
753,1018,53,0.00152590218966964,0.00753795681696803,1
754,1018,53,0.00193789578088045,0.0116578927290761,1
755,1018,53,0.00163271534294652,0.00781261921110857,1
756,1018,53,0.00527962157625696,0.013519493400473,1
749,1019,53,0.00190737773708705,0.00741588464179446,1
750,1019,53,0.0238956282902266,0.0154116121156634,1
751,1019,53,0.0245975432974746,0.0100862134737163,1
752,1019,53,0.00196841382467384,0.0133058670939193,1
753,1019,53,0.00218204013122759,0.00914015411612116,1
754,1019,53,0.00143434805828946,0.00778210116731518,1
755,1019,53,0.00166323338673991,0.00700389105058366,1
756,1019,53,0.00184634164950027,0.0072327763790341,1
757,1019,53,0.00285343709468223,0.00752269779507134,1
758,1019,53,0.00265506981002518,0.00756847486076143,1
746,1020,53,0.00166323338673991,0.00718699931334401,1
747,1020,53,0.00167849240863661,0.00773632410162509,1
748,1020,53,0.00137331197070268,0.00762951094834821,1
749,1020,53,0.0176394293125811,0.00741588464179446,1
750,1020,53,0.00201419089036393,0.00869764248111696,1
751,1020,53,0.00201419089036393,0.0098268101014725,1
752,1020,53,0.0012817578393225,0.0175020981155108,1
753,1020,53,0.00225833524071107,0.00816357671473259,1
754,1020,53,0.00198367284657053,0.0112001220721752,1
755,1020,53,0.0766155489433127,0.0187380788891432,1
756,1020,53,0.00125123979552911,0.011459525444419,1
757,1020,53,0.0553444724193179,0.00778210116731518,1
758,1020,53,0.00860608834973678,0.0185397116044862,1
759,1020,53,0.00181582360570687,0.00929274433508812,1
760,1020,53,0.00190737773708705,0.0143129625391012,1
761,1020,53,0.0414740215152209,0.0181582360570687,1
745,1021,53,0.00146486610208286,0.0081177996490425,1
746,1021,53,0.00167849240863661,0.0230563820859083,1
747,1021,53,0.00798046845197223,0.0104982070649271,1
748,1021,53,0.0198672465094987,0.0122224765392538,1
749,1021,53,0.00164797436484321,0.00791943236438544,1
750,1021,53,0.00163271534294652,0.007690547035935,1
751,1021,53,0.00527962157625696,0.00753795681696803,1
752,1021,53,0.00550850690470741,0.0072480354009308,1
753,1021,53,0.00178530556191348,0.0170443274586099,1
754,1021,53,0.00152590218966964,0.00775158312352178,1
755,1021,53,0.00181582360570687,0.00773632410162509,1
756,1021,53,0.00460822461280232,0.00846875715266651,1
757,1021,53,0.00790417334248875,0.0117647058823529,1
758,1021,53,0.00941481651026169,0.0177157244220645,1
759,1021,53,0.00141908903639277,0.00798046845197223,1
760,1021,53,0.00216678110933089,0.00782787823300526,1
761,1021,53,0.00218204013122759,0.00740062561989776,1
744,1022,53,0.00657663843747616,0.00859082932784009,1
745,1022,53,0.0199740596627756,0.00741588464179446,1
746,1022,53,0.0676279850461585,0.0149233234149691,1
747,1022,53,0.0202487220569162,0.0176852063782712,1
748,1022,53,0.0180666819256886,0.00761425192645151,1
749,1022,53,0.0179598687724117,0.0202944991226062,1
750,1022,53,0.00190737773708705,0.00741588464179446,1
751,1022,53,0.00102235446707866,0.0104219119554437,1
752,1022,53,0.00144960708018616,0.00715648126955062,1
753,1022,53,0.0320439459830625,0.018997482261387,1
754,1022,53,0.00196841382467384,0.00775158312352178,1
755,1022,53,0.00187685969329366,0.00761425192645151,1
756,1022,53,0.00389105058365759,0.00791943236438544,1
757,1022,53,0.0411535820553902,0.00756847486076143,1
758,1022,53,0.00622568093385214,0.0076600289921416,1
759,1022,53,0.00645456626230259,0.0145876249332418,1
760,1022,53,0.00166323338673991,0.00796520943007553,1
761,1022,53,0.00164797436484321,0.00758373388265812,1
762,1022,53,0.00177004654001678,0.00749217975127794,1
747,1023,53,0.00160219729915312,0.00755321583886473,1
748,1023,53,0.00231937132829786,0.00749217975127794,1
749,1023,53,0.00889600976577401,0.00772106507972839,1
750,1023,53,0.0612802319371328,0.00776684214541848,1
751,1023,53,0.0021210040436408,0.00790417334248875,1
752,1023,53,0.00448615243762875,0.00785839627679866,1
753,1023,53,0.00611886778057527,0.00700389105058366,1
754,1023,53,0.00752269779507134,0.00720225833524071,1
755,1023,53,0.0127870603494316,0.00772106507972839,1
756,1023,53,0.00193789578088045,0.00764476997024491,1
757,1023,53,0.00187685969329366,0.00740062561989776,1
758,1023,53,0.00170901045243,0.00720225833524071,1
759,1023,53,0.0440527962157626,0.0114137483787289,1
760,1023,53,0.0025482566567483,0.00773632410162509,1
761,1023,53,0.0126497291523613,0.0181582360570687,1
749,1018,54,0.0021210040436408,0.00788891432059205,1
750,1018,54,0.00207522697795071,0.00755321583886473,1
751,1018,54,0.00251773861295491,0.0130006866559854,1
752,1018,54,0.00187685969329366,0.0103913939116503,1
753,1018,54,0.00189211871519036,0.0151216906996262,1
754,1018,54,0.0365606164644846,0.0116884107728695,1
755,1018,54,0.0164797436484321,0.00715648126955062,1
756,1018,54,0.00199893186846723,0.00685130083161669,1
757,1018,54,0.00122072175173571,0.00816357671473259,1
747,1019,54,0.0368352788586252,0.00784313725490196,1
748,1019,54,0.0948348210879683,0.00814831769283589,1
749,1019,54,0.0540016784924086,0.00755321583886473,1
750,1019,54,0.00904859998474098,0.00949111161974517,1
751,1019,54,0.00135805294880598,0.00994888227664607,1
752,1019,54,0.00199893186846723,0.00846875715266651,1
753,1019,54,0.00207522697795071,0.00697337300679027,1
754,1019,54,0.00175478751812009,0.00758373388265812,1
755,1019,54,0.00186160067139696,0.00813305867093919,1
756,1019,54,0.00181582360570687,0.00791943236438544,1
757,1019,54,0.00183108262760357,0.0107881284809644,1
758,1019,54,0.00752269779507134,0.00732433051041428,1
759,1019,54,0.00260929274433509,0.00779736018921187,1
745,1020,54,0.00241092545967803,0.00778210116731518,1
746,1020,54,0.00242618448157473,0.00685130083161669,1
747,1020,54,0.00149538414587625,0.00744640268558785,1
748,1020,54,0.00201419089036393,0.00866712443732357,1
749,1020,54,0.0269016556038758,0.0106965743495842,1
750,1020,54,0.00277714198519875,0.0114442664225223,1
751,1020,54,0.0017242694743267,0.00741588464179446,1
752,1020,54,0.00202944991226062,0.00804150453955901,1
753,1020,54,0.00218204013122759,0.018295567254139,1
754,1020,54,0.00184634164950027,0.007690547035935,1
755,1020,54,0.00750743877317464,0.00762951094834821,1
756,1020,54,0.00155642023346304,0.0102693217364767,1
757,1020,54,0.00225833524071107,0.0103761348897536,1
758,1020,54,0.00167849240863661,0.0187838559548333,1
759,1020,54,0.0402838178072786,0.00746166170748455,1
760,1020,54,0.0319218738078889,0.0072480354009308,1
761,1020,54,0.0299839780270085,0.0139467460135805,1
744,1021,54,0.00205996795605402,0.0214694438086519,1
745,1021,54,0.00132753490501259,0.00839246204318303,1
746,1021,54,0.00190737773708705,0.014724956130312,1
747,1021,54,0.00181582360570687,0.00747692072938125,1
748,1021,54,0.00187685969329366,0.00762951094834821,1
749,1021,54,0.00164797436484321,0.00798046845197223,1
750,1021,54,0.00207522697795071,0.00825513084611276,1
751,1021,54,0.0111543450064851,0.00785839627679866,1
752,1021,54,0.0571297779812314,0.00701915007248035,1
753,1021,54,0.0273289082169833,0.00776684214541848,1
754,1021,54,0.00177004654001678,0.00831616693369955,1
755,1021,54,0.00236514839398795,0.0121004043640803,1
756,1021,54,0.0132143129625391,0.010452429999237,1
757,1021,54,0.0126039520866712,0.0119325551232166,1
758,1021,54,0.0642099641412985,0.0126344701304646,1
759,1021,54,0.00227359426260777,0.0191042954146639,1
760,1021,54,0.010757610437171,0.00807202258335241,1
761,1021,54,0.0200503547722591,0.00772106507972839,1
762,1021,54,0.00144960708018616,0.0131532768749523,1
743,1022,54,0.0210879682612345,0.00781261921110857,1
744,1022,54,0.0107728694590677,0.00776684214541848,1
745,1022,54,0.00173952849622339,0.00762951094834821,1
746,1022,54,0.00164797436484321,0.00729381246662089,1
747,1022,54,0.00184634164950027,0.0125581750209812,1
748,1022,54,0.00175478751812009,0.00985732814526589,1
749,1022,54,0.00198367284657053,0.00816357671473259,1
750,1022,54,0.0016937514305333,0.00874341954680705,1
751,1022,54,0.00152590218966964,0.0190890363927672,1
752,1022,54,0.00210574502174411,0.0135805294880598,1
753,1022,54,0.0170901045243,0.00944533455405508,1
754,1022,54,0.018295567254139,0.00721751735713741,1
755,1022,54,0.016739147020676,0.00793469138628214,1
756,1022,54,0.0017242694743267,0.0111390859845884,1
757,1022,54,0.00590524147402152,0.00888075074387732,1
758,1022,54,0.0203707942320897,0.00752269779507134,1
759,1022,54,0.00929274433508812,0.0171206225680934,1
760,1022,54,0.00151064316777295,0.00828564888990616,1
761,1022,54,0.00186160067139696,0.00801098649576562,1
762,1022,54,0.0123598077363241,0.00701915007248035,1
746,1023,54,0.00474555580987259,0.0408178835736629,1
747,1023,54,0.00614938582436866,0.0121919584954604,1
748,1023,54,0.0409857328145266,0.00764476997024491,1
749,1023,54,0.0344853894865339,0.00923170824750134,1
750,1023,54,0.00944533455405508,0.00833142595559625,1
751,1023,54,0.0127565423056382,0.0072480354009308,1
752,1023,54,0.00231937132829786,0.0076752880140383,1
753,1023,54,0.00164797436484321,0.0173189898527504,1
754,1023,54,0.0391241321431296,0.00971999694819562,1
755,1023,54,0.0277866788738842,0.0156557564660105,1
756,1023,54,0.00231937132829786,0.00952162966353857,1
757,1023,54,0.00186160067139696,0.00790417334248875,1
758,1023,54,0.0137483787289235,0.00805676356145571,1
759,1023,54,0.0139162279697871,0.00753795681696803,1
760,1023,54,0.126359960326543,0.00737010757610437,1
761,1023,54,0.00958266575112535,0.0168154421301595,1
752,1017,55,0.0017242694743267,0.0183108262760357,1
753,1017,55,0.00160219729915312,0.00779736018921187,1
754,1017,55,0.0153505760280766,0.00762951094834821,1
755,1017,55,0.00268558785381857,0.00762951094834821,1
748,1018,55,0.00204470893415732,0.00770580605783169,1
749,1018,55,0.00158693827725643,0.00758373388265812,1
750,1018,55,0.00161745632104982,0.00712596322575723,1
751,1018,55,0.0154573891813535,0.00740062561989776,1
752,1018,55,0.0072327763790341,0.0122529945830472,1
753,1018,55,0.00148012512397955,0.0103761348897536,1
754,1018,55,0.0204623483634699,0.0101777676050965,1
755,1018,55,0.00238040741588464,0.0164034485389487,1
756,1018,55,0.00242618448157473,0.00782787823300526,1
757,1018,55,0.0141603723201343,0.00779736018921187,1
758,1018,55,0.00157167925535973,0.007690547035935,1
747,1019,55,0.00152590218966964,0.00781261921110857,1
748,1019,55,0.00166323338673991,0.00750743877317464,1
749,1019,55,0.00173952849622339,0.00790417334248875,1
750,1019,55,0.0021210040436408,0.0101625085831998,1
751,1019,55,0.0143892576485847,0.00759899290455482,1
752,1019,55,0.00576791027695125,0.00776684214541848,1
753,1019,55,0.00421149004348821,0.00770580605783169,1
754,1019,55,0.0490272373540856,0.0145571068894484,1
755,1019,55,0.00201419089036393,0.00747692072938125,1
756,1019,55,0.00177004654001678,0.00753795681696803,1
757,1019,55,0.00146486610208286,0.0155184252689403,1
758,1019,55,0.00704966811627375,0.00816357671473259,1
759,1019,55,0.0110780498970016,0.0308079652094301,1
760,1019,55,0.00173952849622339,0.0085297932402533,1
744,1020,55,0.0778515297169451,0.00802624551766232,1
745,1020,55,0.0165255207141222,0.00778210116731518,1
746,1020,55,0.00163271534294652,0.0115510795757992,1
747,1020,55,0.00239566643778134,0.00749217975127794,1
748,1020,55,0.0016937514305333,0.00773632410162509,1
749,1020,55,0.0046845197222858,0.012664988174258,1
750,1020,55,0.0168459601739528,0.0151522087434195,1
751,1020,55,0.00204470893415732,0.0195468070496681,1
752,1020,55,0.00202944991226062,0.007690547035935,1
753,1020,55,0.00166323338673991,0.00775158312352178,1
754,1020,55,0.00154116121156634,0.00775158312352178,1
755,1020,55,0.00196841382467384,0.00778210116731518,1
756,1020,55,0.00454718852521553,0.00746166170748455,1
757,1020,55,0.00463874265659571,0.00735484855420768,1
758,1020,55,0.0400854505226215,0.00727855344472419,1
759,1020,55,0.00122072175173571,0.00747692072938125,1
760,1020,55,0.00189211871519036,0.00823987182421607,1
761,1020,55,0.00204470893415732,0.00944533455405508,1
743,1021,55,0.0012664988174258,0.00758373388265812,1
744,1021,55,0.00158693827725643,0.00804150453955901,1
745,1021,55,0.00236514839398795,0.00962844281681544,1
746,1021,55,0.00199893186846723,0.0149996185244526,1
747,1021,55,0.00369268329900053,0.00796520943007553,1
748,1021,55,0.0157625696192874,0.00817883573662928,1
749,1021,55,0.00219729915312428,0.00791943236438544,1
750,1021,55,0.0555275806820783,0.00733958953231098,1
751,1021,55,0.011459525444419,0.00773632410162509,1
752,1021,55,0.00181582360570687,0.0136263065537499,1
753,1021,55,0.00564583810177768,0.0175326161593042,1
754,1021,55,0.0514534218356603,0.0144045166704814,1
755,1021,55,0.00205996795605402,0.00747692072938125,1
756,1021,55,0.00102235446707866,0.0264591439688716,1
757,1021,55,0.00180056458381018,0.00828564888990616,1
758,1021,55,0.0253452353704128,0.0205386434729534,1
759,1021,55,0.00541695277332723,0.00866712443732357,1
760,1021,55,0.00131227588311589,0.00727855344472419,1
761,1021,55,0.00138857099259937,0.00782787823300526,1
762,1021,55,0.0116273746852827,0.0081025406271458,1
743,1022,55,0.00804150453955901,0.013168535896849,1
744,1022,55,0.00140383001449607,0.00755321583886473,1
745,1022,55,0.00123598077363241,0.00825513084611276,1
746,1022,55,0.00187685969329366,0.00807202258335241,1
747,1022,55,0.00222781719691768,0.00813305867093919,1
748,1022,55,0.00209048599984741,0.00733958953231098,1
749,1022,55,0.0450598916609445,0.00733958953231098,1
750,1022,55,0.0410467689021134,0.0144960708018616,1
751,1022,55,0.00234988937209125,0.00988784618905928,1
752,1022,55,0.0131380178530556,0.00738536659800107,1
753,1022,55,0.00123598077363241,0.00761425192645151,1
754,1022,55,0.00691233691920348,0.0151064316777295,1
755,1022,55,0.0504921034561685,0.010406652933547,1
756,1022,55,0.0318760967421988,0.00898756389715419,1
757,1022,55,0.0854200045777066,0.00781261921110857,1
758,1022,55,0.00131227588311589,0.00785839627679866,1
759,1022,55,0.00193789578088045,0.0081177996490425,1
760,1022,55,0.0198825055313954,0.00776684214541848,1
761,1022,55,0.0380102235446708,0.00764476997024491,1
762,1022,55,0.0128328374151217,0.0076752880140383,1
745,1023,55,0.041870756084535,0.0186770428015564,1
746,1023,55,0.00112916762035554,0.00778210116731518,1
747,1023,55,0.00943007553215839,0.00738536659800107,1
748,1023,55,0.046997787441825,0.0136110475318532,1
749,1023,55,0.0312809948882277,0.007690547035935,1
750,1023,55,0.00984206912336919,0.0080872816052491,1
751,1023,55,0.000930800335698482,0.0183413443198291,1
752,1023,55,0.00131227588311589,0.00778210116731518,1
753,1023,55,0.00158693827725643,0.00788891432059205,1
754,1023,55,0.00173952849622339,0.00761425192645151,1
755,1023,55,0.00111390859845884,0.00746166170748455,1
756,1023,55,0.00158693827725643,0.0294956893263142,1
757,1023,55,0.00192263675898375,0.00788891432059205,1
758,1023,55,0.00222781719691768,0.00926222629129473,1
759,1023,55,0.000885023270008392,0.0140688181887541,1
760,1023,55,0.00183108262760357,0.0104829480430304,1
761,1023,55,0.00489814602883955,0.00784313725490196,1
751,1017,56,0.0232394903486687,0.0234683756771191,1
752,1017,56,0.0354009308003357,0.0188448920424201,1
753,1017,56,0.0258030060273136,0.00830090791180285,1
754,1017,56,0.0264438849469749,0.0136873426413367,1
755,1017,56,0.0136263065537499,0.0128480964370184,1
756,1017,56,0.00241092545967803,0.0146181429770352,1
748,1018,56,0.00210574502174411,0.0076752880140383,1
749,1018,56,0.0132448310063325,0.0132600900282292,1
750,1018,56,0.0981002517738613,0.0117036697947662,1
751,1018,56,0.00183108262760357,0.00749217975127794,1
752,1018,56,0.00227359426260777,0.00759899290455482,1
753,1018,56,0.00183108262760357,0.00997940032043946,1
754,1018,56,0.00151064316777295,0.00839246204318303,1
755,1018,56,0.00123598077363241,0.00784313725490196,1
756,1018,56,0.00151064316777295,0.00775158312352178,1
757,1018,56,0.00184634164950027,0.00831616693369955,1
758,1018,56,0.00175478751812009,0.0107881284809644,1
759,1018,56,0.00189211871519036,0.00762951094834821,1
746,1019,56,0.00177004654001678,0.00776684214541848,1
747,1019,56,0.00190737773708705,0.00756847486076143,1
748,1019,56,0.00140383001449607,0.00906385900663768,1
749,1019,56,0.00132753490501259,0.00823987182421607,1
750,1019,56,0.00183108262760357,0.0137636377508202,1
751,1019,56,0.00219729915312428,0.0169680323491264,1
752,1019,56,0.00155642023346304,0.0130617227435721,1
753,1019,56,0.00160219729915312,0.00799572747386892,1
754,1019,56,0.00181582360570687,0.0136263065537499,1
755,1019,56,0.011612115663386,0.00872816052491035,1
756,1019,56,0.036240177004654,0.0115663385976959,1
757,1019,56,0.0108186465247578,0.0151216906996262,1
758,1019,56,0.0346074616617075,0.0081177996490425,1
759,1019,56,0.0051117723353933,0.00740062561989776,1
760,1019,56,0.00175478751812009,0.00910963607232776,1
744,1020,56,0.0192721446555276,0.00727855344472419,1
745,1020,56,0.0126497291523613,0.00738536659800107,1
746,1020,56,0.0173037308308537,0.0106507972838941,1
747,1020,56,0.00175478751812009,0.00782787823300526,1
748,1020,56,0.00221255817502098,0.00924696726939803,1
749,1020,56,0.00730907148851759,0.009399557488365,1
750,1020,56,0.0108644235904479,0.00778210116731518,1
751,1020,56,0.0348668650339513,0.00802624551766232,1
752,1020,56,0.022919050888838,0.0122835126268406,1
753,1020,56,0.0369726100556954,0.0228885328450446,1
754,1020,56,0.000900282291905089,0.012161440451667,1
755,1020,56,0.00198367284657053,0.0076600289921416,1
756,1020,56,0.00160219729915312,0.0101777676050965,1
757,1020,56,0.00167849240863661,0.0102235446707866,1
758,1020,56,0.00148012512397955,0.00741588464179446,1
759,1020,56,0.00199893186846723,0.00817883573662928,1
760,1020,56,0.00210574502174411,0.00807202258335241,1
761,1020,56,0.00199893186846723,0.00761425192645151,1
762,1020,56,0.018142977035172,0.00747692072938125,1
743,1021,56,0.00166323338673991,0.0108491645685512,1
744,1021,56,0.00151064316777295,0.0163424124513619,1
745,1021,56,0.0286259250782025,0.0076600289921416,1
746,1021,56,0.036942092011902,0.009399557488365,1
747,1021,56,0.000976577401388571,0.015228503852903,1
748,1021,56,0.00138857099259937,0.0132448310063325,1
749,1021,56,0.00205996795605402,0.00802624551766232,1
750,1021,56,0.00210574502174411,0.0076600289921416,1
751,1021,56,0.0176699473563745,0.00747692072938125,1
752,1021,56,0.00178530556191348,0.00784313725490196,1
753,1021,56,0.00274662394140536,0.0148317692835889,1
754,1021,56,0.0434729533836881,0.0181277180132754,1
755,1021,56,0.00152590218966964,0.00967421988250553,1
756,1021,56,0.0288242923628595,0.0193484397650111,1
757,1021,56,0.0302738994430457,0.00814831769283589,1
758,1021,56,0.00242618448157473,0.0162966353856718,1
759,1021,56,0.00143434805828946,0.00727855344472419,1
760,1021,56,0.000961318379491875,0.00755321583886473,1
761,1021,56,0.00167849240863661,0.00770580605783169,1
762,1021,56,0.00216678110933089,0.00837720302128634,1
742,1022,56,0.0021210040436408,0.00790417334248875,1
743,1022,56,0.0256198977645533,0.00962844281681544,1
744,1022,56,0.00714122224765393,0.0154116121156634,1
745,1022,56,0.0381322957198444,0.007690547035935,1
746,1022,56,0.00216678110933089,0.00740062561989776,1
747,1022,56,0.00190737773708705,0.0128480964370184,1
748,1022,56,0.0029907682917525,0.00735484855420768,1
749,1022,56,0.0514839398794537,0.00762951094834821,1
750,1022,56,0.0293278400854505,0.0117036697947662,1
751,1022,56,0.0304264896620127,0.00857557030594339,1
752,1022,56,0.00155642023346304,0.0102693217364767,1
753,1022,56,0.00125123979552911,0.0204013122758831,1
754,1022,56,0.0106965743495842,0.00950637064164187,1
755,1022,56,0.0021210040436408,0.0114900434882124,1
756,1022,56,0.00210574502174411,0.00730907148851759,1
757,1022,56,0.00141908903639277,0.00790417334248875,1
758,1022,56,0.00183108262760357,0.00784313725490196,1
759,1022,56,0.00192263675898375,0.00799572747386892,1
760,1022,56,0.00225833524071107,0.00717174029144732,1
761,1022,56,0.00146486610208286,0.00828564888990616,1
762,1022,56,0.00166323338673991,0.007690547035935,1
744,1023,56,0.00186160067139696,0.0147096971084154,1
745,1023,56,0.00880445563439384,0.0165407797360189,1
746,1023,56,0.00488288700694285,0.00787365529869535,1
747,1023,56,0.00155642023346304,0.00788891432059205,1
748,1023,56,0.00251773861295491,0.0184176394293126,1
749,1023,56,0.00268558785381857,0.0110627908751049,1
750,1023,56,0.00547798886091402,0.0105287251087205,1
751,1023,56,0.00733958953231098,0.0224460212100404,1
752,1023,56,0.00231937132829786,0.0171511406118868,1
753,1023,56,0.0021210040436408,0.00889600976577401,1
754,1023,56,0.00149538414587625,0.00764476997024491,1
755,1023,56,0.00120546272983902,0.0177157244220645,1
756,1023,56,0.00164797436484321,0.0101319905394064,1
757,1023,56,0.00219729915312428,0.00793469138628214,1
758,1023,56,0.0467841611352712,0.00715648126955062,1
759,1023,56,0.00183108262760357,0.00778210116731518,1
760,1023,56,0.00180056458381018,0.007690547035935,1
761,1023,56,0.00184634164950027,0.0300144960708019,1
751,1017,57,0.00274662394140536,0.00756847486076143,1
752,1017,57,0.00204470893415732,0.0089417868314641,1
753,1017,57,0.00140383001449607,0.00714122224765393,1
754,1017,57,0.0016937514305333,0.0111390859845884,1
755,1017,57,0.00199893186846723,0.00770580605783169,1
756,1017,57,0.00271610589761196,0.0146944380865187,1
757,1017,57,0.00175478751812009,0.0119783321889067,1
748,1018,57,0.0312809948882277,0.0093690394445716,1
749,1018,57,0.00155642023346304,0.00816357671473259,1
750,1018,57,0.00181582360570687,0.0085145342183566,1
751,1018,57,0.00167849240863661,0.0157015335317006,1
752,1018,57,0.00177004654001678,0.00770580605783169,1
753,1018,57,0.00189211871519036,0.00799572747386892,1
754,1018,57,0.00207522697795071,0.0119935912108034,1
755,1018,57,0.00227359426260777,0.00756847486076143,1
756,1018,57,0.00245670252536812,0.0149843595025559,1
757,1018,57,0.00166323338673991,0.0166323338673991,1
758,1018,57,0.0274052033264668,0.00820935378042268,1
759,1018,57,0.00210574502174411,0.00944533455405508,1
746,1019,57,0.00167849240863661,0.0168764782177462,1
747,1019,57,0.00157167925535973,0.00854505226215,1
748,1019,57,0.00204470893415732,0.00790417334248875,1
749,1019,57,0.00204470893415732,0.00735484855420768,1
750,1019,57,0.00799572747386892,0.00772106507972839,1
751,1019,57,0.004272526131075,0.00846875715266651,1
752,1019,57,0.00587472343022812,0.00820935378042268,1
753,1019,57,0.00260929274433509,0.00781261921110857,1
754,1019,57,0.00138857099259937,0.016083009079118,1
755,1019,57,0.00187685969329366,0.0117952239261463,1
756,1019,57,0.00222781719691768,0.0186312657358663,1
757,1019,57,0.00225833524071107,0.00825513084611276,1
758,1019,57,0.00166323338673991,0.00773632410162509,1
759,1019,57,0.00134279392690929,0.00746166170748455,1
760,1019,57,0.00183108262760357,0.0139162279697871,1
744,1020,57,0.00181582360570687,0.00862134737163348,1
745,1020,57,0.00155642023346304,0.0076600289921416,1
746,1020,57,0.00205996795605402,0.0098268101014725,1
747,1020,57,0.0191195544365606,0.00744640268558785,1
748,1020,57,0.00224307621881437,0.0103608758678569,1
749,1020,57,0.00173952849622339,0.0089570458533608,1
750,1020,57,0.00163271534294652,0.00833142595559625,1
751,1020,57,0.0224307621881437,0.00764476997024491,1
752,1020,57,0.00253299763485161,0.00816357671473259,1
753,1020,57,0.00331120775158312,0.00967421988250553,1
754,1020,57,0.00189211871519036,0.00933852140077821,1
755,1020,57,0.0283665217059586,0.00819409475852598,1
756,1020,57,0.0472114137483787,0.00845349813076982,1
757,1020,57,0.00187685969329366,0.0107270923933776,1
758,1020,57,0.00196841382467384,0.0112153810940719,1
759,1020,57,0.00178530556191348,0.00994888227664607,1
760,1020,57,0.00201419089036393,0.00773632410162509,1
761,1020,57,0.0234531166552224,0.00798046845197223,1
762,1020,57,0.0298924238956283,0.0128938735027085,1
743,1021,57,0.0222476539253834,0.00839246204318303,1
744,1021,57,0.00207522697795071,0.00825513084611276,1
745,1021,57,0.00234988937209125,0.00776684214541848,1
746,1021,57,0.00265506981002518,0.00785839627679866,1
747,1021,57,0.00193789578088045,0.00775158312352178,1
748,1021,57,0.0168154421301595,0.00764476997024491,1
749,1021,57,0.00209048599984741,0.00796520943007553,1
750,1021,57,0.00192263675898375,0.00816357671473259,1
751,1021,57,0.00238040741588464,0.0089723048752575,1
752,1021,57,0.0581521324483101,0.00799572747386892,1
753,1021,57,0.00181582360570687,0.00804150453955901,1
754,1021,57,0.00186160067139696,0.00794995040817884,1
755,1021,57,0.00405889982452125,0.00933852140077821,1
756,1021,57,0.00250247959105821,0.0125734340428779,1
757,1021,57,0.00170901045243,0.0146334019989319,1
758,1021,57,0.00167849240863661,0.0196383611810483,1
759,1021,57,0.0237125200274662,0.00805676356145571,1
760,1021,57,0.00366216525520714,0.00761425192645151,1
761,1021,57,0.0649881742580301,0.0140535591668574,1
762,1021,57,0.00131227588311589,0.0105897611963073,1
742,1022,57,0.00218204013122759,0.00781261921110857,1
743,1022,57,0.00225833524071107,0.00775158312352178,1
744,1022,57,0.0379949645227741,0.0322728313115129,1
745,1022,57,0.0199740596627756,0.0142061493858244,1
746,1022,57,0.00178530556191348,0.00849927519645991,1
747,1022,57,0.00198367284657053,0.00804150453955901,1
748,1022,57,0.00184634164950027,0.00828564888990616,1
749,1022,57,0.0021515220874342,0.00772106507972839,1
750,1022,57,0.00201419089036393,0.00798046845197223,1
751,1022,57,0.00178530556191348,0.00837720302128634,1
752,1022,57,0.00238040741588464,0.00816357671473259,1
753,1022,57,0.0072632944228275,0.00802624551766232,1
754,1022,57,0.0055390249485008,0.00891126878767071,1
755,1022,57,0.00158693827725643,0.0242160677500572,1
756,1022,57,0.00175478751812009,0.0200503547722591,1
757,1022,57,0.0123292896925307,0.00833142595559625,1
758,1022,57,0.0210421911955444,0.00772106507972839,1
759,1022,57,0.00164797436484321,0.00779736018921187,1
760,1022,57,0.00178530556191348,0.00837720302128634,1
761,1022,57,0.00227359426260777,0.00799572747386892,1
762,1022,57,0.00234988937209125,0.00778210116731518,1
744,1023,57,0.00186160067139696,0.00820935378042268,1
745,1023,57,0.0402990768291753,0.0146181429770352,1
746,1023,57,0.00218204013122759,0.00753795681696803,1
747,1023,57,0.0400244144350347,0.00761425192645151,1
748,1023,57,0.00198367284657053,0.0163729304951553,1
749,1023,57,0.00198367284657053,0.00971999694819562,1
750,1023,57,0.00190737773708705,0.00781261921110857,1
751,1023,57,0.0462348363469902,0.00782787823300526,1
752,1023,57,0.00236514839398795,0.00759899290455482,1
753,1023,57,0.0597848477912566,0.024429694056611,1
754,1023,57,0.0021515220874342,0.0104982070649271,1
755,1023,57,0.00198367284657053,0.00796520943007553,1
756,1023,57,0.0163271534294652,0.00753795681696803,1
757,1023,57,0.00166323338673991,0.0097962920576791,1
758,1023,57,0.00151064316777295,0.0133821622034028,1
759,1023,57,0.00201419089036393,0.013824673838407,1
760,1023,57,0.00260929274433509,0.021011673151751,1
761,1023,57,0.0021515220874342,0.0142671854734112,1
750,1017,58,0.00187685969329366,0.00752269779507134,1
751,1017,58,0.0021515220874342,0.00785839627679866,1
752,1017,58,0.00198367284657053,0.0284428168154421,1
753,1017,58,0.00158693827725643,0.00727855344472419,1
754,1017,58,0.00167849240863661,0.0112764171816587,1
755,1017,58,0.00151064316777295,0.00907911802853437,1
756,1017,58,0.00166323338673991,0.0110933089188983,1
757,1017,58,0.00227359426260777,0.00833142595559625,1
747,1018,58,0.00186160067139696,0.00759899290455482,1
748,1018,58,0.00210574502174411,0.00758373388265812,1
749,1018,58,0.0021210040436408,0.00801098649576562,1
750,1018,58,0.00216678110933089,0.0081025406271458,1
751,1018,58,0.00134279392690929,0.00712596322575723,1
752,1018,58,0.130342565041581,0.00784313725490196,1
753,1018,58,0.00192263675898375,0.00802624551766232,1
754,1018,58,0.0525673304341192,0.00796520943007553,1
755,1018,58,0.0449683375295644,0.0151522087434195,1
756,1018,58,0.00141908903639277,0.00756847486076143,1
757,1018,58,0.0176699473563745,0.00759899290455482,1
758,1018,58,0.0208896009765774,0.00817883573662928,1
759,1018,58,0.0247501335164416,0.0106660563057908,1
745,1019,58,0.00204470893415732,0.0133516441596094,1
746,1019,58,0.0223239490348669,0.00831616693369955,1
747,1019,58,0.00192263675898375,0.00840772106507973,1
748,1019,58,0.0439612420843824,0.0147554741741054,1
749,1019,58,0.0017242694743267,0.0166933699549859,1
750,1019,58,0.0034027618829633,0.0123445487144274,1
751,1019,58,0.0368810559243153,0.00825513084611276,1
752,1019,58,0.00222781719691768,0.0169832913710231,1
753,1019,58,0.0021210040436408,0.00845349813076982,1
754,1019,58,0.00164797436484321,0.00721751735713741,1
755,1019,58,0.00160219729915312,0.00796520943007553,1
756,1019,58,0.0016937514305333,0.00825513084611276,1
757,1019,58,0.00190737773708705,0.0072327763790341,1
758,1019,58,0.00189211871519036,0.0132295719844358,1
759,1019,58,0.055542839703975,0.0110933089188983,1
760,1019,58,0.00143434805828946,0.00779736018921187,1
743,1020,58,0.00184634164950027,0.00776684214541848,1
744,1020,58,0.00187685969329366,0.00791943236438544,1
745,1020,58,0.0171816586556802,0.0081177996490425,1
746,1020,58,0.0202487220569162,0.00787365529869535,1
747,1020,58,0.00202944991226062,0.00759899290455482,1
748,1020,58,0.00117494468604562,0.00727855344472419,1
749,1020,58,0.00141908903639277,0.00988784618905928,1
750,1020,58,0.00209048599984741,0.00787365529869535,1
751,1020,58,0.00222781719691768,0.00799572747386892,1
752,1020,58,0.00204470893415732,0.00749217975127794,1
753,1020,58,0.00143434805828946,0.00747692072938125,1
754,1020,58,0.00218204013122759,0.00831616693369955,1
755,1020,58,0.00231937132829786,0.00796520943007553,1
756,1020,58,0.00146486610208286,0.00801098649576562,1
757,1020,58,0.0017242694743267,0.00959792477302205,1
758,1020,58,0.00184634164950027,0.00781261921110857,1
759,1020,58,0.00225833524071107,0.00750743877317464,1
760,1020,58,0.00866712443732357,0.0238193331807431,1
761,1020,58,0.0359502555886168,0.0155642023346304,1
742,1021,58,0.00149538414587625,0.0076752880140383,1
743,1021,58,0.00291447318226902,0.00793469138628214,1
744,1021,58,0.00177004654001678,0.00756847486076143,1
745,1021,58,0.00166323338673991,0.0259403372243839,1
746,1021,58,0.0506599526970321,0.00715648126955062,1
747,1021,58,0.0164034485389487,0.00798046845197223,1
748,1021,58,0.0159151598382544,0.00794995040817884,1
749,1021,58,0.00929274433508812,0.00772106507972839,1
750,1021,58,0.0012817578393225,0.0116273746852827,1
751,1021,58,0.00117494468604562,0.00756847486076143,1
752,1021,58,0.00181582360570687,0.00758373388265812,1
753,1021,58,0.00227359426260777,0.0076752880140383,1
754,1021,58,0.00184634164950027,0.0171206225680934,1
755,1021,58,0.0012664988174258,0.0076600289921416,1
756,1021,58,0.0016937514305333,0.00788891432059205,1
757,1021,58,0.0105287251087205,0.00756847486076143,1
758,1021,58,0.00497444113832303,0.00759899290455482,1
759,1021,58,0.0534065766384375,0.00776684214541848,1
760,1021,58,0.0409094377050431,0.00822461280231937,1
761,1021,58,0.109040970473793,0.00756847486076143,1
762,1021,58,0.0866865033951324,0.00952162966353857,1
741,1022,58,0.00230411230640116,0.00743114366369116,1
742,1022,58,0.00242618448157473,0.00784313725490196,1
743,1022,58,0.00154116121156634,0.0211795223926146,1
744,1022,58,0.00224307621881437,0.00804150453955901,1
745,1022,58,0.00233463035019455,0.007690547035935,1
746,1022,58,0.00219729915312428,0.00735484855420768,1
747,1022,58,0.00170901045243,0.0097962920576791,1
748,1022,58,0.0110475318532082,0.00988784618905928,1
749,1022,58,0.00245670252536812,0.00965896086060884,1
750,1022,58,0.00248722056916152,0.00915541313801785,1
751,1022,58,0.00367742427710384,0.0130769817654688,1
752,1022,58,0.0162203402761883,0.0129091325246052,1
753,1022,58,0.00170901045243,0.00845349813076982,1
754,1022,58,0.0167086289768826,0.0133058670939193,1
755,1022,58,0.0104829480430304,0.00756847486076143,1
756,1022,58,0.00582894636453803,0.0072480354009308,1
757,1022,58,0.00184634164950027,0.00759899290455482,1
758,1022,58,0.00227359426260777,0.0100251773861295,1
759,1022,58,0.00218204013122759,0.00752269779507134,1
760,1022,58,0.0320439459830625,0.00743114366369116,1
761,1022,58,0.0554970626382849,0.0114747844663157,1
762,1022,58,0.00180056458381018,0.0114290074006256,1
744,1023,58,0.00674448767833982,0.0141145952544442,1
745,1023,58,0.00843823910887312,0.0134889753566796,1
746,1023,58,0.00210574502174411,0.010955977721828,1
747,1023,58,0.00247196154726482,0.00822461280231937,1
748,1023,58,0.00201419089036393,0.0080872816052491,1
749,1023,58,0.0250400549324788,0.0107118333714809,1
750,1023,58,0.00207522697795071,0.00755321583886473,1
751,1023,58,0.0204165712977798,0.0256046387426566,1
752,1023,58,0.0583199816891737,0.0085145342183566,1
753,1023,58,0.0936598764019226,0.0141603723201343,1
754,1023,58,0.00309758144502937,0.00801098649576562,1
755,1023,58,0.00195315480277714,0.00781261921110857,1
756,1023,58,0.0025787747005417,0.0076752880140383,1
757,1023,58,0.00152590218966964,0.00752269779507134,1
758,1023,58,0.0112764171816587,0.00785839627679866,1
759,1023,58,0.00328068970778973,0.00874341954680705,1
760,1023,58,0.00187685969329366,0.0190280003051804,1
750,1017,59,0.00166323338673991,0.0141451132982376,1
751,1017,59,0.00955214770733196,0.00753795681696803,1
752,1017,59,0.0116731517509728,0.0128786144808118,1
753,1017,59,0.00225833524071107,0.00787365529869535,1
754,1017,59,0.0012817578393225,0.00752269779507134,1
755,1017,59,0.0511024643320363,0.00762951094834821,1
756,1017,59,0.0585488670176242,0.0150606546120394,1
757,1017,59,0.00218204013122759,0.00791943236438544,1
746,1018,59,0.00173952849622339,0.0163424124513619,1
747,1018,59,0.000823987182421607,0.0150453955901427,1
748,1018,59,0.0475318532082094,0.00743114366369116,1
749,1018,59,0.00225833524071107,0.0101625085831998,1
750,1018,59,0.00173952849622339,0.00888075074387732,1
751,1018,59,0.00164797436484321,0.00823987182421607,1
752,1018,59,0.00131227588311589,0.00759899290455482,1
753,1018,59,0.00186160067139696,0.00721751735713741,1
754,1018,59,0.0255283436331731,0.00794995040817884,1
755,1018,59,0.00276188296330205,0.00834668497749294,1
756,1018,59,0.00140383001449607,0.00746166170748455,1
757,1018,59,0.00192263675898375,0.00704966811627375,1
758,1018,59,0.00190737773708705,0.00776684214541848,1
744,1019,59,0.0021515220874342,0.0098115510795758,1
745,1019,59,0.00207522697795071,0.0101930266269932,1
746,1019,59,0.00177004654001678,0.00694285496299687,1
747,1019,59,0.00219729915312428,0.00741588464179446,1
748,1019,59,0.00199893186846723,0.0105439841306172,1
749,1019,59,0.00160219729915312,0.0190432593270771,1
750,1019,59,0.00193789578088045,0.00752269779507134,1
751,1019,59,0.00231937132829786,0.00732433051041428,1
752,1019,59,0.00195315480277714,0.00753795681696803,1
753,1019,59,0.00180056458381018,0.0111390859845884,1
754,1019,59,0.0159914549477378,0.00868238345922026,1
755,1019,59,0.00750743877317464,0.0093842984664683,1
756,1019,59,0.0114137483787289,0.0173952849622339,1
757,1019,59,0.00158693827725643,0.013015945677882,1
758,1019,59,0.00154116121156634,0.0085145342183566,1
759,1019,59,0.00239566643778134,0.0144808117799649,1
760,1019,59,0.057602807660029,0.00794995040817884,1
742,1020,59,0.00177004654001678,0.0081025406271458,1
743,1020,59,0.00164797436484321,0.00761425192645151,1
744,1020,59,0.00149538414587625,0.0072632944228275,1
745,1020,59,0.00236514839398795,0.00764476997024491,1
746,1020,59,0.00149538414587625,0.00817883573662928,1
747,1020,59,0.00210574502174411,0.00830090791180285,1
748,1020,59,0.00195315480277714,0.00784313725490196,1
749,1020,59,0.00219729915312428,0.00772106507972839,1
750,1020,59,0.0406805523765927,0.0119478141451133,1
751,1020,59,0.00378423743038071,0.00822461280231937,1
752,1020,59,0.00175478751812009,0.0123903257801175,1
753,1020,59,0.00181582360570687,0.0076600289921416,1
754,1020,59,0.00219729915312428,0.015732051575494,1
755,1020,59,0.00205996795605402,0.0109712367437247,1
756,1020,59,0.00166323338673991,0.00796520943007553,1
757,1020,59,0.00204470893415732,0.0202944991226062,1
758,1020,59,0.0017242694743267,0.00775158312352178,1
759,1020,59,0.00146486610208286,0.00813305867093919,1
760,1020,59,0.0030060273136492,0.016739147020676,1
761,1020,59,0.00224307621881437,0.0158999008163577,1
741,1021,59,0.0285648889906157,0.00749217975127794,1
742,1021,59,0.00233463035019455,0.00708018616006714,1
743,1021,59,0.00230411230640116,0.0120698863202869,1
744,1021,59,0.00154116121156634,0.0272526131074998,1
745,1021,59,0.0113374532692454,0.00773632410162509,1
746,1021,59,0.002563515678645,0.0120698863202869,1
747,1021,59,0.00192263675898375,0.00828564888990616,1
748,1021,59,0.00154116121156634,0.00967421988250553,1
749,1021,59,0.00183108262760357,0.0108644235904479,1
750,1021,59,0.00244144350347143,0.0093690394445716,1
751,1021,59,0.00230411230640116,0.00744640268558785,1
752,1021,59,0.00999465934233616,0.007690547035935,1
753,1021,59,0.0211337453269245,0.00743114366369116,1
754,1021,59,0.00234988937209125,0.00741588464179446,1
755,1021,59,0.0072632944228275,0.00721751735713741,1
756,1021,59,0.00227359426260777,0.0119325551232166,1
757,1021,59,0.00166323338673991,0.0104219119554437,1
758,1021,59,0.00193789578088045,0.0103456168459602,1
759,1021,59,0.0017242694743267,0.00775158312352178,1
760,1021,59,0.028351262684062,0.00782787823300526,1
761,1021,59,0.00140383001449607,0.0179293507286183,1
740,1022,59,0.0059662775616083,0.00712596322575723,1
741,1022,59,0.078309300373846,0.00756847486076143,1
742,1022,59,0.0548714427405203,0.00784313725490196,1
743,1022,59,0.00178530556191348,0.0137941557946136,1
744,1022,59,0.00274662394140536,0.010757610437171,1
745,1022,59,0.0144655527580682,0.00747692072938125,1
746,1022,59,0.00135805294880598,0.00770580605783169,1
747,1022,59,0.00175478751812009,0.00802624551766232,1
748,1022,59,0.00160219729915312,0.0217898832684825,1
749,1022,59,0.00186160067139696,0.00779736018921187,1
750,1022,59,0.00108339055466545,0.00801098649576562,1
751,1022,59,0.00183108262760357,0.00816357671473259,1
752,1022,59,0.00219729915312428,0.0227512016479744,1
753,1022,59,0.0336308842603189,0.00991836423285267,1
754,1022,59,0.00675974670023652,0.00781261921110857,1
755,1022,59,0.0016937514305333,0.0199893186846723,1
756,1022,59,0.00180056458381018,0.00788891432059205,1
757,1022,59,0.00224307621881437,0.00764476997024491,1
758,1022,59,0.00199893186846723,0.00770580605783169,1
759,1022,59,0.0396429388876173,0.015732051575494,1
760,1022,59,0.0193331807431144,0.00793469138628214,1
761,1022,59,0.0149538414587625,0.00820935378042268,1
762,1022,59,0.00198367284657053,0.00733958953231098,1
743,1023,59,0.055390249485008,0.00740062561989776,1
744,1023,59,0.00140383001449607,0.00781261921110857,1
745,1023,59,0.00158693827725643,0.00782787823300526,1
746,1023,59,0.00245670252536812,0.00761425192645151,1
747,1023,59,0.00183108262760357,0.0115968566414893,1
748,1023,59,0.000839246204318303,0.0113679713130388,1
749,1023,59,0.00135805294880598,0.00735484855420768,1
750,1023,59,0.00175478751812009,0.00788891432059205,1
751,1023,59,0.00193789578088045,0.007690547035935,1
752,1023,59,0.00143434805828946,0.00917067215991455,1
753,1023,59,0.0151522087434195,0.00962844281681544,1
754,1023,59,0.0178072785534447,0.0076752880140383,1
755,1023,59,0.00193789578088045,0.00720225833524071,1
756,1023,59,0.00170901045243,0.00862134737163348,1
757,1023,59,0.00135805294880598,0.00820935378042268,1
758,1023,59,0.00151064316777295,0.00747692072938125,1
759,1023,59,0.00186160067139696,0.00971999694819562,1
750,1017,60,0.0390630960555428,0.00903334096284428,1
751,1017,60,0.00381475547417411,0.00779736018921187,1
752,1017,60,0.00218204013122759,0.00738536659800107,1
753,1017,60,0.0025787747005417,0.00750743877317464,1
754,1017,60,0.00181582360570687,0.0119172961013199,1
755,1017,60,0.0124055848020142,0.00819409475852598,1
756,1017,60,0.0159914549477378,0.0076752880140383,1
745,1018,60,0.00177004654001678,0.00733958953231098,1
746,1018,60,0.0021515220874342,0.00732433051041428,1
747,1018,60,0.0072632944228275,0.0194094758525978,1
748,1018,60,0.019150072480354,0.0107728694590677,1
749,1018,60,0.0384374761577783,0.0135805294880598,1
750,1018,60,0.00186160067139696,0.0199740596627756,1
751,1018,60,0.00225833524071107,0.014724956130312,1
752,1018,60,0.00328068970778973,0.00741588464179446,1
753,1018,60,0.00801098649576562,0.00781261921110857,1
754,1018,60,0.0210879682612345,0.011810482948043,1
755,1018,60,0.00703440909437705,0.0175020981155108,1
756,1018,60,0.00155642023346304,0.0135042343785763,1
757,1018,60,0.00148012512397955,0.00781261921110857,1
758,1018,60,0.00477607385366598,0.00788891432059205,1
743,1019,60,0.00192263675898375,0.0076600289921416,1
744,1019,60,0.00184634164950027,0.0137331197070268,1
745,1019,60,0.00210574502174411,0.00772106507972839,1
746,1019,60,0.00164797436484321,0.00758373388265812,1
747,1019,60,0.00173952849622339,0.00738536659800107,1
748,1019,60,0.0211947814145113,0.00898756389715419,1
749,1019,60,0.00218204013122759,0.0116578927290761,1
750,1019,60,0.00204470893415732,0.00764476997024491,1
751,1019,60,0.00148012512397955,0.00762951094834821,1
752,1019,60,0.00199893186846723,0.00788891432059205,1
753,1019,60,0.00260929274433509,0.0112306401159686,1
754,1019,60,0.00227359426260777,0.0076600289921416,1
755,1019,60,0.00178530556191348,0.00747692072938125,1
756,1019,60,0.00180056458381018,0.00730907148851759,1
757,1019,60,0.00234988937209125,0.00781261921110857,1
758,1019,60,0.0158236057068742,0.00822461280231937,1
759,1019,60,0.0137483787289235,0.00717174029144732,1
742,1020,60,0.0161745632104982,0.00753795681696803,1
743,1020,60,0.00199893186846723,0.00712596322575723,1
744,1020,60,0.00193789578088045,0.0146028839551385,1
745,1020,60,0.00180056458381018,0.00787365529869535,1
746,1020,60,0.00892652780956741,0.00761425192645151,1
747,1020,60,0.0029907682917525,0.00730907148851759,1
748,1020,60,0.0016937514305333,0.00738536659800107,1
749,1020,60,0.00160219729915312,0.00828564888990616,1
750,1020,60,0.00196841382467384,0.00779736018921187,1
751,1020,60,0.0204470893415732,0.0271457999542229,1
752,1020,60,0.0156710154879072,0.0191653315022507,1
753,1020,60,0.00190737773708705,0.007690547035935,1
754,1020,60,0.00746166170748455,0.00762951094834821,1
755,1020,60,0.00216678110933089,0.0180361638818952,1
756,1020,60,0.00444037537193866,0.00900282291905089,1
757,1020,60,0.0107270923933776,0.00732433051041428,1
758,1020,60,0.00198367284657053,0.0110780498970016,1
759,1020,60,0.00236514839398795,0.00976577401388571,1
760,1020,60,0.00198367284657053,0.01196307316701,1
741,1021,60,0.0017242694743267,0.0142061493858244,1
742,1021,60,0.00184634164950027,0.00758373388265812,1
743,1021,60,0.00183108262760357,0.0258487830930037,1
744,1021,60,0.00190737773708705,0.0117189288166629,1
745,1021,60,0.0439459830624857,0.0193942168307012,1
746,1021,60,0.0189211871519036,0.0108491645685512,1
747,1021,60,0.0512245365072099,0.0234836346990158,1
748,1021,60,0.00273136491950866,0.00791943236438544,1
749,1021,60,0.00146486610208286,0.00827038986800946,1
750,1021,60,0.00193789578088045,0.00755321583886473,1
751,1021,60,0.00201419089036393,0.00802624551766232,1
752,1021,60,0.00198367284657053,0.00788891432059205,1
753,1021,60,0.0160372320134279,0.00784313725490196,1
754,1021,60,0.00187685969329366,0.00793469138628214,1
755,1021,60,0.00390630960555428,0.00968947890440223,1
756,1021,60,0.0186617837796597,0.00935378042267491,1
757,1021,60,0.0021515220874342,0.0085145342183566,1
758,1021,60,0.00170901045243,0.00955214770733196,1
759,1021,60,0.00198367284657053,0.0126497291523613,1
760,1021,60,0.00920119020370794,0.0189364461738003,1
761,1021,60,0.00205996795605402,0.0160067139696345,1
740,1022,60,0.00242618448157473,0.007690547035935,1
741,1022,60,0.00195315480277714,0.00732433051041428,1
742,1022,60,0.00186160067139696,0.0233310444800488,1
743,1022,60,0.00378423743038071,0.00764476997024491,1
744,1022,60,0.0201266498817426,0.00784313725490196,1
745,1022,60,0.00186160067139696,0.00762951094834821,1
746,1022,60,0.00205996795605402,0.0100099183642329,1
747,1022,60,0.00167849240863661,0.0198825055313954,1
748,1022,60,0.00198367284657053,0.0118867780575265,1
749,1022,60,0.0121309224078737,0.0098268101014725,1
750,1022,60,0.0021362630655375,0.0201876859693294,1
751,1022,60,0.00143434805828946,0.0156862745098039,1
752,1022,60,0.00166323338673991,0.0122987716487373,1
753,1022,60,0.00202944991226062,0.0194399938963912,1
754,1022,60,0.00820935378042268,0.00746166170748455,1
755,1022,60,0.0227664606698711,0.00830090791180285,1
756,1022,60,0.0329137102311742,0.0100404364080262,1
757,1022,60,0.00619516289005875,0.00923170824750134,1
758,1022,60,0.00198367284657053,0.00733958953231098,1
759,1022,60,0.00189211871519036,0.00770580605783169,1
760,1022,60,0.00151064316777295,0.00773632410162509,1
761,1022,60,0.00205996795605402,0.00785839627679866,1
742,1023,60,0.0021210040436408,0.00772106507972839,1
743,1023,60,0.00263981078812848,0.0076600289921416,1
744,1023,60,0.00698863202868696,0.00779736018921187,1
745,1023,60,0.0276646066987106,0.00804150453955901,1
746,1023,60,0.0255893797207599,0.0110627908751049,1
747,1023,60,0.00155642023346304,0.00886549172198062,1
748,1023,60,0.0531929503318837,0.00782787823300526,1
749,1023,60,0.00192263675898375,0.00862134737163348,1
750,1023,60,0.00216678110933089,0.00805676356145571,1
751,1023,60,0.00199893186846723,0.00743114366369116,1
752,1023,60,0.00224307621881437,0.00746166170748455,1
753,1023,60,0.00189211871519036,0.00747692072938125,1
754,1023,60,0.0398413061722744,0.0081177996490425,1
755,1023,60,0.0355840390630961,0.00781261921110857,1
756,1023,60,0.00228885328450446,0.00733958953231098,1
757,1023,60,0.0209964141298543,0.00776684214541848,1
758,1023,60,0.0101625085831998,0.00796520943007553,1
759,1023,60,0.00193789578088045,0.0166781109330892,1
749,1017,61,0.00222781719691768,0.00828564888990616,1
750,1017,61,0.00175478751812009,0.00985732814526589,1
751,1017,61,0.0659342336156252,0.0130922407873655,1
752,1017,61,0.00216678110933089,0.00849927519645991,1
753,1017,61,0.00225833524071107,0.0178530556191348,1
754,1017,61,0.00202944991226062,0.0137941557946136,1
755,1017,61,0.00190737773708705,0.0181734950789654,1
744,1018,61,0.0119172961013199,0.00762951094834821,1
745,1018,61,0.00183108262760357,0.0180361638818952,1
746,1018,61,0.00207522697795071,0.00776684214541848,1
747,1018,61,0.00193789578088045,0.00770580605783169,1
748,1018,61,0.00187685969329366,0.00721751735713741,1
749,1018,61,0.00209048599984741,0.00720225833524071,1
750,1018,61,0.00210574502174411,0.00753795681696803,1
751,1018,61,0.00202944991226062,0.0116731517509728,1
752,1018,61,0.00164797436484321,0.00978103303578241,1
753,1018,61,0.0508278019378958,0.00773632410162509,1
754,1018,61,0.0544289311055161,0.00776684214541848,1
755,1018,61,0.0135347524223697,0.00791943236438544,1
756,1018,61,0.0141145952544442,0.010605020218204,1
757,1018,61,0.00183108262760357,0.00946059357595178,1
743,1019,61,0.00209048599984741,0.00885023270008392,1
744,1019,61,0.00219729915312428,0.00714122224765393,1
745,1019,61,0.00148012512397955,0.010452429999237,1
746,1019,61,0.00198367284657053,0.0117189288166629,1
747,1019,61,0.00228885328450446,0.00970473792629892,1
748,1019,61,0.00242618448157473,0.0267795834287022,1
749,1019,61,0.00209048599984741,0.0164034485389487,1
750,1019,61,0.00164797436484321,0.00822461280231937,1
751,1019,61,0.0021362630655375,0.00779736018921187,1
752,1019,61,0.00209048599984741,0.0161745632104982,1
753,1019,61,0.00222781719691768,0.00819409475852598,1
754,1019,61,0.00195315480277714,0.0130617227435721,1
755,1019,61,0.00181582360570687,0.00750743877317464,1
756,1019,61,0.00238040741588464,0.00846875715266651,1
757,1019,61,0.00199893186846723,0.00973525597009232,1
758,1019,61,0.00355535210193027,0.0183260852979324,1
759,1019,61,0.0170748455024033,0.00730907148851759,1
741,1020,61,0.00271610589761196,0.00773632410162509,1
742,1020,61,0.00170901045243,0.0102082856488899,1
743,1020,61,0.00114442664225223,0.010452429999237,1
744,1020,61,0.00204470893415732,0.0116426337071794,1
745,1020,61,0.00248722056916152,0.00778210116731518,1
746,1020,61,0.00187685969329366,0.00776684214541848,1
747,1020,61,0.00146486610208286,0.00740062561989776,1
748,1020,61,0.00196841382467384,0.0148470283054856,1
749,1020,61,0.00251773861295491,0.0203250171663996,1
750,1020,61,0.00228885328450446,0.0080872816052491,1
751,1020,61,0.0186160067139696,0.00883497367818723,1
752,1020,61,0.00906385900663768,0.00967421988250553,1
753,1020,61,0.0021210040436408,0.00730907148851759,1
754,1020,61,0.00262455176623178,0.00798046845197223,1
755,1020,61,0.00193789578088045,0.0187228198672465,1
756,1020,61,0.00155642023346304,0.00738536659800107,1
757,1020,61,0.00205996795605402,0.00738536659800107,1
758,1020,61,0.00218204013122759,0.0111848630502785,1
759,1020,61,0.00236514839398795,0.00814831769283589,1
760,1020,61,0.00123598077363241,0.00753795681696803,1
740,1021,61,0.0115663385976959,0.0076752880140383,1
741,1021,61,0.0334935530632486,0.00762951094834821,1
742,1021,61,0.00245670252536812,0.00804150453955901,1
743,1021,61,0.0063782711528191,0.0119172961013199,1
744,1021,61,0.0310521095597772,0.00764476997024491,1
745,1021,61,0.0307011520561532,0.00706492713817044,1
746,1021,61,0.00166323338673991,0.0406500343327993,1
747,1021,61,0.00248722056916152,0.0102235446707866,1
748,1021,61,0.00192263675898375,0.0164644846265354,1
749,1021,61,0.00163271534294652,0.00946059357595178,1
750,1021,61,0.0385137712672618,0.00918593118181125,1
751,1021,61,0.0424811169604028,0.00929274433508812,1
752,1021,61,0.00189211871519036,0.013519493400473,1
753,1021,61,0.00170901045243,0.00799572747386892,1
754,1021,61,0.0416266117341878,0.00822461280231937,1
755,1021,61,0.0108644235904479,0.0107728694590677,1
756,1021,61,0.00523384451056687,0.010406652933547,1
757,1021,61,0.0344090943770504,0.0207827878233005,1
758,1021,61,0.0198214694438087,0.0172121766994736,1
759,1021,61,0.0134584573128862,0.00846875715266651,1
760,1021,61,0.00201419089036393,0.0137788967727169,1
739,1022,61,0.00189211871519036,0.00782787823300526,1
740,1022,61,0.0552529182879377,0.00755321583886473,1
741,1022,61,0.0306706340123598,0.0188601510643168,1
742,1022,61,0.00163271534294652,0.0152437628747997,1
743,1022,61,0.00163271534294652,0.0110170138094148,1
744,1022,61,0.00196841382467384,0.0100862134737163,1
745,1022,61,0.00260929274433509,0.01538109407187,1
746,1022,61,0.00173952849622339,0.00762951094834821,1
747,1022,61,0.00198367284657053,0.00802624551766232,1
748,1022,61,0.00236514839398795,0.00764476997024491,1
749,1022,61,0.00242618448157473,0.00784313725490196,1
750,1022,61,0.0251163500419623,0.0110170138094148,1
751,1022,61,0.00175478751812009,0.0146486610208286,1
752,1022,61,0.00158693827725643,0.0224612802319371,1
753,1022,61,0.00218204013122759,0.00891126878767071,1
754,1022,61,0.00216678110933089,0.018997482261387,1
755,1022,61,0.0542763408865492,0.0145571068894484,1
756,1022,61,0.00198367284657053,0.00787365529869535,1
757,1022,61,0.00204470893415732,0.00721751735713741,1
758,1022,61,0.0236972610055695,0.00752269779507134,1
759,1022,61,0.00204470893415732,0.00772106507972839,1
760,1022,61,0.00160219729915312,0.00785839627679866,1
761,1022,61,0.00181582360570687,0.00762951094834821,1
742,1023,61,0.00210574502174411,0.00869764248111696,1
743,1023,61,0.00204470893415732,0.00798046845197223,1
744,1023,61,0.00180056458381018,0.00779736018921187,1
745,1023,61,0.00199893186846723,0.00779736018921187,1
746,1023,61,0.0021362630655375,0.00910963607232776,1
747,1023,61,0.00178530556191348,0.00749217975127794,1
748,1023,61,0.0171969176775769,0.00778210116731518,1
749,1023,61,0.0116273746852827,0.0111390859845884,1
750,1023,61,0.00209048599984741,0.0267185473411154,1
751,1023,61,0.00189211871519036,0.0072327763790341,1
752,1023,61,0.0302128633554589,0.00903334096284428,1
753,1023,61,0.0180666819256886,0.0145876249332418,1
754,1023,61,0.00195315480277714,0.00801098649576562,1
755,1023,61,0.00210574502174411,0.00781261921110857,1
756,1023,61,0.00125123979552911,0.00758373388265812,1
757,1023,61,0.00146486610208286,0.00781261921110857,1
758,1023,61,0.00202944991226062,0.00805676356145571,1
749,1017,62,0.00199893186846723,0.00759899290455482,1
750,1017,62,0.0621499961852445,0.00770580605783169,1
751,1017,62,0.0182192721446555,0.00970473792629892,1
752,1017,62,0.0327763790341039,0.0111543450064851,1
753,1017,62,0.0017242694743267,0.00856031128404669,1
754,1017,62,0.00250247959105821,0.0160067139696345,1
744,1018,62,0.00167849240863661,0.00772106507972839,1
745,1018,62,0.0229648279545281,0.0076600289921416,1
746,1018,62,0.0377355611505302,0.0228122377355611,1
747,1018,62,0.00207522697795071,0.0179293507286183,1
748,1018,62,0.00152590218966964,0.00759899290455482,1
749,1018,62,0.00167849240863661,0.00752269779507134,1
750,1018,62,0.00137331197070268,0.0127260242618448,1
751,1018,62,0.00332646677347982,0.00798046845197223,1
752,1018,62,0.0176394293125811,0.00784313725490196,1
753,1018,62,0.00193789578088045,0.00738536659800107,1
754,1018,62,0.00175478751812009,0.00735484855420768,1
755,1018,62,0.0200350957503624,0.00753795681696803,1
756,1018,62,0.00244144350347143,0.00773632410162509,1
757,1018,62,0.00201419089036393,0.00750743877317464,1
743,1019,62,0.00175478751812009,0.00758373388265812,1
744,1019,62,0.0455939574273289,0.00752269779507134,1
745,1019,62,0.0042877851529717,0.00820935378042268,1
746,1019,62,0.00184634164950027,0.0138399328603037,1
747,1019,62,0.00242618448157473,0.00889600976577401,1
748,1019,62,0.00314335851071946,0.00865186541542687,1
749,1019,62,0.00177004654001678,0.00782787823300526,1
750,1019,62,0.00222781719691768,0.00804150453955901,1
751,1019,62,0.00187685969329366,0.013015945677882,1
752,1019,62,0.0355992980849928,0.00816357671473259,1
753,1019,62,0.00216678110933089,0.00907911802853437,1
754,1019,62,0.00239566643778134,0.0120546272983902,1
755,1019,62,0.00248722056916152,0.0100709544518196,1
756,1019,62,0.0167849240863661,0.00691233691920348,1
757,1019,62,0.0180819409475853,0.00701915007248035,1
758,1019,62,0.00199893186846723,0.0076752880140383,1
741,1020,62,0.00978103303578241,0.00799572747386892,1
742,1020,62,0.0189822232394903,0.00956740672922866,1
743,1020,62,0.00221255817502098,0.00794995040817884,1
744,1020,62,0.00225833524071107,0.00741588464179446,1
745,1020,62,0.0220035095750362,0.00758373388265812,1
746,1020,62,0.00236514839398795,0.00729381246662089,1
747,1020,62,0.00205996795605402,0.00918593118181125,1
748,1020,62,0.00173952849622339,0.00805676356145571,1
749,1020,62,0.0109864957656214,0.00743114366369116,1
750,1020,62,0.0209658960860609,0.00714122224765393,1
751,1020,62,0.00227359426260777,0.00759899290455482,1
752,1020,62,0.013015945677882,0.0134737163347829,1
753,1020,62,0.00163271534294652,0.007690547035935,1
754,1020,62,0.0127412832837415,0.0187380788891432,1
755,1020,62,0.0296787975890745,0.01538109407187,1
756,1020,62,0.00181582360570687,0.0202487220569162,1
757,1020,62,0.00230411230640116,0.0080872816052491,1
758,1020,62,0.0327306019684138,0.00743114366369116,1
759,1020,62,0.00175478751812009,0.00735484855420768,1
740,1021,62,0.00184634164950027,0.0105134660868238,1
741,1021,62,0.00508125429159991,0.0166475928892958,1
742,1021,62,0.00331120775158312,0.0167696650644694,1
743,1021,62,0.00138857099259937,0.0173037308308537,1
744,1021,62,0.0191042954146639,0.00872816052491035,1
745,1021,62,0.00221255817502098,0.0109102006561379,1
746,1021,62,0.00207522697795071,0.00932326237888151,1
747,1021,62,0.0796978713664454,0.0127565423056382,1
748,1021,62,0.00230411230640116,0.00703440909437705,1
749,1021,62,0.00183108262760357,0.0134126802471962,1
750,1021,62,0.00192263675898375,0.00781261921110857,1
751,1021,62,0.00180056458381018,0.0182192721446555,1
752,1021,62,0.00218204013122759,0.00775158312352178,1
753,1021,62,0.00227359426260777,0.00781261921110857,1
754,1021,62,0.0017242694743267,0.007690547035935,1
755,1021,62,0.00187685969329366,0.007690547035935,1
756,1021,62,0.00216678110933089,0.00752269779507134,1
757,1021,62,0.00244144350347143,0.00929274433508812,1
758,1021,62,0.00166323338673991,0.00798046845197223,1
759,1021,62,0.00187685969329366,0.00813305867093919,1
760,1021,62,0.00274662394140536,0.00944533455405508,1
739,1022,62,0.00199893186846723,0.007690547035935,1
740,1022,62,0.00181582360570687,0.00778210116731518,1
741,1022,62,0.00198367284657053,0.00781261921110857,1
742,1022,62,0.00216678110933089,0.0176699473563745,1
743,1022,62,0.00186160067139696,0.0107118333714809,1
744,1022,62,0.00187685969329366,0.0166323338673991,1
745,1022,62,0.00187685969329366,0.0124055848020142,1
746,1022,62,0.00210574502174411,0.0121919584954604,1
747,1022,62,0.00241092545967803,0.00959792477302205,1
748,1022,62,0.00195315480277714,0.0176241702906844,1
749,1022,62,0.00485236896314946,0.0119478141451133,1
750,1022,62,0.0267948424505989,0.0141145952544442,1
751,1022,62,0.00207522697795071,0.00758373388265812,1
752,1022,62,0.00219729915312428,0.00784313725490196,1
753,1022,62,0.00526436255436027,0.007690547035935,1
754,1022,62,0.0720225833524071,0.0085297932402533,1
755,1022,62,0.00231937132829786,0.0100709544518196,1
756,1022,62,0.00154116121156634,0.0171969176775769,1
757,1022,62,0.00183108262760357,0.0165407797360189,1
758,1022,62,0.00227359426260777,0.00814831769283589,1
759,1022,62,0.00312809948882277,0.0300755321583886,1
760,1022,62,0.0618905928130007,0.00804150453955901,1
742,1023,62,0.021713588158999,0.00762951094834821,1
743,1023,62,0.013824673838407,0.00686655985351339,1
744,1023,62,0.0271152819104295,0.00706492713817044,1
745,1023,62,0.0323033493553063,0.00776684214541848,1
746,1023,62,0.0165255207141222,0.00973525597009232,1
747,1023,62,0.0710612649729152,0.00743114366369116,1
748,1023,62,0.00251773861295491,0.00733958953231098,1
749,1023,62,0.00141908903639277,0.00753795681696803,1
750,1023,62,0.00999465934233616,0.00784313725490196,1
751,1023,62,0.0183108262760357,0.00737010757610437,1
752,1023,62,0.00192263675898375,0.0097962920576791,1
753,1023,62,0.0170748455024033,0.0146486610208286,1
754,1023,62,0.0224002441443503,0.00781261921110857,1
755,1023,62,0.0106507972838941,0.00834668497749294,1
756,1023,62,0.0021515220874342,0.00729381246662089,1
757,1023,62,0.00219729915312428,0.00833142595559625,1
749,1017,63,0.0021362630655375,0.0127718013275349,1
750,1017,63,0.0012817578393225,0.0219272144655528,1
751,1017,63,0.00160219729915312,0.00779736018921187,1
752,1017,63,0.00825513084611276,0.00776684214541848,1
753,1017,63,0.00871290150301366,0.0103456168459602,1
754,1017,63,0.00448615243762875,0.00798046845197223,1
744,1018,63,0.0055390249485008,0.0160524910353246,1
745,1018,63,0.0543984130617227,0.020660715648127,1
746,1018,63,0.00558480201419089,0.00796520943007553,1
747,1018,63,0.00251773861295491,0.0143434805828946,1
748,1018,63,0.00163271534294652,0.00828564888990616,1
749,1018,63,0.00183108262760357,0.00794995040817884,1
750,1018,63,0.0113679713130388,0.0130922407873655,1
751,1018,63,0.00242618448157473,0.00802624551766232,1
752,1018,63,0.00869764248111696,0.00816357671473259,1
753,1018,63,0.0358281834134432,0.00772106507972839,1
754,1018,63,0.0296025024795911,0.00721751735713741,1
755,1018,63,0.034332799267567,0.0158388647287709,1
756,1018,63,0.0861219195849546,0.0202029449912261,1
743,1019,63,0.00486762798504616,0.00741588464179446,1
744,1019,63,0.0107423514152743,0.00886549172198062,1
745,1019,63,0.00181582360570687,0.0153047989623865,1
746,1019,63,0.00161745632104982,0.0197604333562219,1
747,1019,63,0.00186160067139696,0.0158999008163577,1
748,1019,63,0.00195315480277714,0.00749217975127794,1
749,1019,63,0.00187685969329366,0.00770580605783169,1
750,1019,63,0.00181582360570687,0.00781261921110857,1
751,1019,63,0.0127260242618448,0.00743114366369116,1
752,1019,63,0.0868238345922026,0.00776684214541848,1
753,1019,63,0.018997482261387,0.0111848630502785,1
754,1019,63,0.0146028839551385,0.00820935378042268,1
755,1019,63,0.0463263904783703,0.00756847486076143,1
756,1019,63,0.00190737773708705,0.00704966811627375,1
757,1019,63,0.00234988937209125,0.0103913939116503,1
758,1019,63,0.00199893186846723,0.0185244525825895,1
741,1020,63,0.00225833524071107,0.0161135271229114,1
742,1020,63,0.00241092545967803,0.00941481651026169,1
743,1020,63,0.00244144350347143,0.0081177996490425,1
744,1020,63,0.00329594872968643,0.00718699931334401,1
745,1020,63,0.00227359426260777,0.00793469138628214,1
746,1020,63,0.00219729915312428,0.00804150453955901,1
747,1020,63,0.00157167925535973,0.0081025406271458,1
748,1020,63,0.0017242694743267,0.00846875715266651,1
749,1020,63,0.00205996795605402,0.0183871213855192,1
750,1020,63,0.00193789578088045,0.00790417334248875,1
751,1020,63,0.0017242694743267,0.00846875715266651,1
752,1020,63,0.00205996795605402,0.00820935378042268,1
753,1020,63,0.0278934920271611,0.0239719233997101,1
754,1020,63,0.015030136568246,0.00817883573662928,1
755,1020,63,0.00181582360570687,0.00823987182421607,1
756,1020,63,0.00175478751812009,0.00790417334248875,1
757,1020,63,0.0017242694743267,0.00764476997024491,1
758,1020,63,0.00151064316777295,0.00849927519645991,1
759,1020,63,0.0124361028458076,0.0147707331960021,1
740,1021,63,0.00135805294880598,0.00987258716716258,1
741,1021,63,0.00144960708018616,0.0228274967574578,1
742,1021,63,0.0234683756771191,0.00704966811627375,1
743,1021,63,0.0109102006561379,0.0072327763790341,1
744,1021,63,0.0660563057907988,0.0125734340428779,1
745,1021,63,0.0121004043640803,0.00785839627679866,1
746,1021,63,0.00198367284657053,0.0430304417486839,1
747,1021,63,0.00222781719691768,0.00720225833524071,1
748,1021,63,0.00224307621881437,0.00975051499198901,1
749,1021,63,0.00141908903639277,0.0120088502327001,1
750,1021,63,0.00184634164950027,0.00794995040817884,1
751,1021,63,0.0106355382619974,0.00718699931334401,1
752,1021,63,0.0212710765239948,0.0112306401159686,1
753,1021,63,0.00138857099259937,0.00819409475852598,1
754,1021,63,0.00177004654001678,0.00830090791180285,1
755,1021,63,0.0361181048294804,0.0179140917067216,1
756,1021,63,0.00422674906538491,0.0076600289921416,1
757,1021,63,0.00752269779507134,0.00778210116731518,1
758,1021,63,0.00138857099259937,0.0100404364080262,1
759,1021,63,0.0017242694743267,0.0162203402761883,1
739,1022,63,0.00196841382467384,0.00776684214541848,1
740,1022,63,0.0016937514305333,0.00759899290455482,1
741,1022,63,0.0164034485389487,0.00798046845197223,1
742,1022,63,0.00337224383916991,0.00807202258335241,1
743,1022,63,0.00195315480277714,0.00804150453955901,1
744,1022,63,0.0517280842298009,0.0115053025101091,1
745,1022,63,0.00572213321126116,0.0191653315022507,1
746,1022,63,0.00205996795605402,0.00926222629129473,1
747,1022,63,0.00184634164950027,0.00819409475852598,1
748,1022,63,0.0368505378805219,0.00802624551766232,1
749,1022,63,0.0146181429770352,0.00727855344472419,1
750,1022,63,0.00622568093385214,0.0076600289921416,1
751,1022,63,0.0109407186999313,0.00802624551766232,1
752,1022,63,0.0721599145494774,0.00807202258335241,1
753,1022,63,0.00218204013122759,0.00975051499198901,1
754,1022,63,0.00198367284657053,0.0154116121156634,1
755,1022,63,0.0017242694743267,0.00735484855420768,1
756,1022,63,0.00170901045243,0.00804150453955901,1
757,1022,63,0.00245670252536812,0.00781261921110857,1
758,1022,63,0.00259403372243839,0.0192568856336309,1
759,1022,63,0.00201419089036393,0.00749217975127794,1
742,1023,63,0.0396734569314107,0.00798046845197223,1
743,1023,63,0.00140383001449607,0.0195162890058747,1
744,1023,63,0.00134279392690929,0.0109864957656214,1
745,1023,63,0.054886701762417,0.00859082932784009,1
746,1023,63,0.00309758144502937,0.00883497367818723,1
747,1023,63,0.00332646677347982,0.00776684214541848,1
748,1023,63,0.0042420080872816,0.007690547035935,1
749,1023,63,0.00122072175173571,0.00773632410162509,1
750,1023,63,0.00180056458381018,0.0269626916914626,1
751,1023,63,0.00230411230640116,0.0189822232394903,1
752,1023,63,0.00183108262760357,0.0176852063782712,1
753,1023,63,0.00155642023346304,0.00752269779507134,1
754,1023,63,0.00198367284657053,0.0245670252536812,1
755,1023,63,0.0203402761882963,0.0165712977798123,1
756,1023,63,0.0236667429617761,0.00764476997024491,1
749,1017,64,0.02905317769131,0.007690547035935,1
750,1017,64,0.0021362630655375,0.00737010757610437,1
751,1017,64,0.00183108262760357,0.00706492713817044,1
752,1017,64,0.0216372930495155,0.00677500572213321,1
753,1017,64,0.00201419089036393,0.00947585259784848,1
745,1018,64,0.00239566643778134,0.00685130083161669,1
746,1018,64,0.00234988937209125,0.0155947203784237,1
747,1018,64,0.0021362630655375,0.00801098649576562,1
748,1018,64,0.0514076447699702,0.007690547035935,1
749,1018,64,0.00163271534294652,0.015579461356527,1
750,1018,64,0.00216678110933089,0.00738536659800107,1
751,1018,64,0.00202944991226062,0.0142366674296178,1
752,1018,64,0.0220492866407263,0.00804150453955901,1
753,1018,64,0.0309910734721904,0.00741588464179446,1
754,1018,64,0.00236514839398795,0.00787365529869535,1
755,1018,64,0.00205996795605402,0.00762951094834821,1
756,1018,64,0.00219729915312428,0.0175173571374075,1
757,1018,64,0.00190737773708705,0.0120088502327001,1
743,1019,64,0.00205996795605402,0.00871290150301366,1
744,1019,64,0.00611886778057527,0.00956740672922866,1
745,1019,64,0.0093842984664683,0.00762951094834821,1
746,1019,64,0.00328068970778973,0.00791943236438544,1
747,1019,64,0.0234836346990158,0.0109254596780346,1
748,1019,64,0.00195315480277714,0.00756847486076143,1
749,1019,64,0.00199893186846723,0.00793469138628214,1
750,1019,64,0.00535591668574044,0.0126192111085679,1
751,1019,64,0.00923170824750134,0.00784313725490196,1
752,1019,64,0.00190737773708705,0.00762951094834821,1
753,1019,64,0.0072632944228275,0.00802624551766232,1
754,1019,64,0.0424353398947128,0.00775158312352178,1
755,1019,64,0.00201419089036393,0.00746166170748455,1
756,1019,64,0.0154726482032502,0.00752269779507134,1
757,1019,64,0.00804150453955901,0.0278171969176776,1
758,1019,64,0.00184634164950027,0.00796520943007553,1
741,1020,64,0.0021362630655375,0.013015945677882,1
742,1020,64,0.0120393682764935,0.00762951094834821,1
743,1020,64,0.00357061112382696,0.0255436026550698,1
744,1020,64,0.00205996795605402,0.0098268101014725,1
745,1020,64,0.00184634164950027,0.00755321583886473,1
746,1020,64,0.00209048599984741,0.0120393682764935,1
747,1020,64,0.00180056458381018,0.0122529945830472,1
748,1020,64,0.00218204013122759,0.00733958953231098,1
749,1020,64,0.00221255817502098,0.00784313725490196,1
750,1020,64,0.00170901045243,0.00759899290455482,1
751,1020,64,0.0021362630655375,0.00761425192645151,1
752,1020,64,0.013519493400473,0.00762951094834821,1
753,1020,64,0.0111848630502785,0.0102082856488899,1
754,1020,64,0.00205996795605402,0.00781261921110857,1
755,1020,64,0.00180056458381018,0.00744640268558785,1
756,1020,64,0.00225833524071107,0.00738536659800107,1
757,1020,64,0.00205996795605402,0.0164034485389487,1
758,1020,64,0.0167696650644694,0.00793469138628214,1
759,1020,64,0.0874189364461738,0.00816357671473259,1
740,1021,64,0.0425574120698863,0.00761425192645151,1
741,1021,64,0.0184634164950027,0.0127565423056382,1
742,1021,64,0.00198367284657053,0.0110170138094148,1
743,1021,64,0.00207522697795071,0.0142671854734112,1
744,1021,64,0.00183108262760357,0.00781261921110857,1
745,1021,64,0.00209048599984741,0.00741588464179446,1
746,1021,64,0.00669871061264973,0.00779736018921187,1
747,1021,64,0.00216678110933089,0.0076752880140383,1
748,1021,64,0.00218204013122759,0.00814831769283589,1
749,1021,64,0.0260166323338674,0.00764476997024491,1
750,1021,64,0.00262455176623178,0.00759899290455482,1
751,1021,64,0.00199893186846723,0.0076752880140383,1
752,1021,64,0.0529640650034333,0.007690547035935,1
753,1021,64,0.00199893186846723,0.0145723659113451,1
754,1021,64,0.0016937514305333,0.0120241092545968,1
755,1021,64,0.00247196154726482,0.00944533455405508,1
756,1021,64,0.00170901045243,0.00764476997024491,1
757,1021,64,0.0217441062027924,0.00785839627679866,1
758,1021,64,0.0880903334096284,0.00802624551766232,1
759,1021,64,0.00184634164950027,0.00743114366369116,1
739,1022,64,0.00216678110933089,0.00782787823300526,1
740,1022,64,0.088014038300145,0.00875867856870375,1
741,1022,64,0.00163271534294652,0.0151522087434195,1
742,1022,64,0.00175478751812009,0.011261158159762,1
743,1022,64,0.0148928053711757,0.00971999694819562,1
744,1022,64,0.00219729915312428,0.0072632944228275,1
745,1022,64,0.0612497138933394,0.00737010757610437,1
746,1022,64,0.00177004654001678,0.00816357671473259,1
747,1022,64,0.0016937514305333,0.012817578393225,1
748,1022,64,0.080872816052491,0.0133974212252995,1
749,1022,64,0.00227359426260777,0.00749217975127794,1
750,1022,64,0.00151064316777295,0.00770580605783169,1
751,1022,64,0.00184634164950027,0.0176089112687877,1
752,1022,64,0.00221255817502098,0.00740062561989776,1
753,1022,64,0.00228885328450446,0.00747692072938125,1
754,1022,64,0.0118715190356298,0.00955214770733196,1
755,1022,64,0.00204470893415732,0.00907911802853437,1
756,1022,64,0.00196841382467384,0.00997940032043946,1
757,1022,64,0.00219729915312428,0.00944533455405508,1
758,1022,64,0.0194857709620813,0.00759899290455482,1
759,1022,64,0.0341191729610132,0.00773632410162509,1
742,1023,64,0.00244144350347143,0.00860608834973678,1
743,1023,64,0.00184634164950027,0.00898756389715419,1
744,1023,64,0.00189211871519036,0.0148622873273823,1
745,1023,64,0.00183108262760357,0.0149385824368658,1
746,1023,64,0.00192263675898375,0.0235446707866026,1
747,1023,64,0.0021210040436408,0.00874341954680705,1
748,1023,64,0.0166018158236057,0.010101472495613,1
749,1023,64,0.0042572671091783,0.00878919661249714,1
750,1023,64,0.0017242694743267,0.00990310521095598,1
751,1023,64,0.00636301213092241,0.00798046845197223,1
752,1023,64,0.00285343709468223,0.00880445563439384,1
753,1023,64,0.00231937132829786,0.00755321583886473,1
754,1023,64,0.00173952849622339,0.00846875715266651,1
755,1023,64,0.00166323338673991,0.0101319905394064,1
756,1023,64,0.0021515220874342,0.00779736018921187,1
749,1017,65,0.00216678110933089,0.00770580605783169,1
750,1017,65,0.00181582360570687,0.00863660639353018,1
751,1017,65,0.0246128023193713,0.00747692072938125,1
752,1017,65,0.0299687190051118,0.00964370183871214,1
745,1018,65,0.0591287098496986,0.00778210116731518,1
746,1018,65,0.0131990539406424,0.00787365529869535,1
747,1018,65,0.00759899290455482,0.0101167315175097,1
748,1018,65,0.00218204013122759,0.00970473792629892,1
749,1018,65,0.00228885328450446,0.0105287251087205,1
750,1018,65,0.00225833524071107,0.0105897611963073,1
751,1018,65,0.0016937514305333,0.00753795681696803,1
752,1018,65,0.00161745632104982,0.00814831769283589,1
753,1018,65,0.00192263675898375,0.00823987182421607,1
754,1018,65,0.0025482566567483,0.00820935378042268,1
755,1018,65,0.00234988937209125,0.0144350347142748,1
756,1018,65,0.00204470893415732,0.0294956893263142,1
743,1019,65,0.00242618448157473,0.0163729304951553,1
744,1019,65,0.0431067368581674,0.0080872816052491,1
745,1019,65,0.0266117341878386,0.00762951094834821,1
746,1019,65,0.00666819256885634,0.00741588464179446,1
747,1019,65,0.00216678110933089,0.00732433051041428,1
748,1019,65,0.00192263675898375,0.00787365529869535,1
749,1019,65,0.00248722056916152,0.00790417334248875,1
750,1019,65,0.00204470893415732,0.0137026016632334,1
751,1019,65,0.00192263675898375,0.0126955062180514,1
752,1019,65,0.00218204013122759,0.00770580605783169,1
753,1019,65,0.00518806744487678,0.0154726482032502,1
754,1019,65,0.0168764782177462,0.00764476997024491,1
755,1019,65,0.00218204013122759,0.00744640268558785,1
756,1019,65,0.00369268329900053,0.0177615014877546,1
757,1019,65,0.0435645075150683,0.0135652704661631,1
741,1020,65,0.0130617227435721,0.00798046845197223,1
742,1020,65,0.0611429007400626,0.00776684214541848,1
743,1020,65,0.00202944991226062,0.00746166170748455,1
744,1020,65,0.0305790798809796,0.00753795681696803,1
745,1020,65,0.0233615625238422,0.0138399328603037,1
746,1020,65,0.0180514229037919,0.0093690394445716,1
747,1020,65,0.00201419089036393,0.00785839627679866,1
748,1020,65,0.00166323338673991,0.00752269779507134,1
749,1020,65,0.00192263675898375,0.00878919661249714,1
750,1020,65,0.00164797436484321,0.00875867856870375,1
751,1020,65,0.00183108262760357,0.00761425192645151,1
752,1020,65,0.00173952849622339,0.00697337300679027,1
753,1020,65,0.0131227588311589,0.00891126878767071,1
754,1020,65,0.00247196154726482,0.00900282291905089,1
755,1020,65,0.00234988937209125,0.00801098649576562,1
756,1020,65,0.00196841382467384,0.00727855344472419,1
757,1020,65,0.00167849240863661,0.00772106507972839,1
758,1020,65,0.00204470893415732,0.0117341878385595,1
741,1021,65,0.0214236667429618,0.0114900434882124,1
742,1021,65,0.0501716639963378,0.00964370183871214,1
743,1021,65,0.00219729915312428,0.00772106507972839,1
744,1021,65,0.00218204013122759,0.0080872816052491,1
745,1021,65,0.00170901045243,0.00952162966353857,1
746,1021,65,0.0021362630655375,0.00799572747386892,1
747,1021,65,0.00253299763485161,0.00747692072938125,1
748,1021,65,0.00225833524071107,0.0178988326848249,1
749,1021,65,0.00177004654001678,0.00776684214541848,1
750,1021,65,0.00253299763485161,0.00755321583886473,1
751,1021,65,0.00190737773708705,0.0118867780575265,1
752,1021,65,0.00689707789730678,0.00787365529869535,1
753,1021,65,0.0234531166552224,0.0122682536049439,1
754,1021,65,0.00201419089036393,0.00785839627679866,1
755,1021,65,0.00224307621881437,0.00749217975127794,1
756,1021,65,0.00201419089036393,0.00794995040817884,1
757,1021,65,0.0279850461585412,0.00793469138628214,1
758,1021,65,0.00833142595559625,0.0076600289921416,1
740,1022,65,0.0654001678492409,0.00735484855420768,1
741,1022,65,0.00230411230640116,0.0222629129472801,1
742,1022,65,0.00151064316777295,0.011108567940795,1
743,1022,65,0.00175478751812009,0.00692759594110018,1
744,1022,65,0.00190737773708705,0.0119935912108034,1
745,1022,65,0.00167849240863661,0.00798046845197223,1
746,1022,65,0.00180056458381018,0.00866712443732357,1
747,1022,65,0.0342565041580835,0.0165407797360189,1
748,1022,65,0.00204470893415732,0.00697337300679027,1
749,1022,65,0.00201419089036393,0.00720225833524071,1
750,1022,65,0.00198367284657053,0.00817883573662928,1
751,1022,65,0.00175478751812009,0.00798046845197223,1
752,1022,65,0.00209048599984741,0.00958266575112535,1
753,1022,65,0.00181582360570687,0.0238803692683299,1
754,1022,65,0.00170901045243,0.01538109407187,1
755,1022,65,0.00143434805828946,0.00943007553215839,1
756,1022,65,0.0124208438239109,0.0231021591515984,1
757,1022,65,0.0117494468604562,0.0143892576485847,1
758,1022,65,0.00183108262760357,0.00787365529869535,1
743,1023,65,0.00228885328450446,0.00831616693369955,1
744,1023,65,0.00216678110933089,0.00805676356145571,1
745,1023,65,0.00209048599984741,0.0135652704661631,1
746,1023,65,0.00199893186846723,0.00718699931334401,1
747,1023,65,0.0467231250476844,0.00886549172198062,1
748,1023,65,0.0355077439536126,0.00849927519645991,1
749,1023,65,0.00170901045243,0.00817883573662928,1
750,1023,65,0.00201419089036393,0.00743114366369116,1
751,1023,65,0.0140535591668574,0.0134584573128862,1
752,1023,65,0.00219729915312428,0.010101472495613,1
753,1023,65,0.00187685969329366,0.00787365529869535,1
754,1023,65,0.00221255817502098,0.00770580605783169,1
755,1023,65,0.00860608834973678,0.0076752880140383,1
745,1018,66,0.00183108262760357,0.00828564888990616,1
746,1018,66,0.0748149843595026,0.00805676356145571,1
747,1018,66,0.00221255817502098,0.00794995040817884,1
748,1018,66,0.00245670252536812,0.0085145342183566,1
749,1018,66,0.00758373388265812,0.00735484855420768,1
750,1018,66,0.0017242694743267,0.00796520943007553,1
751,1018,66,0.024429694056611,0.00807202258335241,1
752,1018,66,0.010406652933547,0.0122224765392538,1
753,1018,66,0.00234988937209125,0.00741588464179446,1
754,1018,66,0.0111238269626917,0.00820935378042268,1
755,1018,66,0.0133363851377127,0.0076600289921416,1
744,1019,66,0.00178530556191348,0.00912489509422446,1
745,1019,66,0.0016937514305333,0.0101625085831998,1
746,1019,66,0.0220035095750362,0.0140688181887541,1
747,1019,66,0.00672922865644312,0.0120393682764935,1
748,1019,66,0.0286411841000992,0.00782787823300526,1
749,1019,66,0.0264438849469749,0.00901808194094758,1
750,1019,66,0.0298466468299382,0.0172274357213703,1
751,1019,66,0.00181582360570687,0.00875867856870375,1
752,1019,66,0.0021210040436408,0.0136873426413367,1
753,1019,66,0.00207522697795071,0.00756847486076143,1
754,1019,66,0.00178530556191348,0.00782787823300526,1
755,1019,66,0.00209048599984741,0.00793469138628214,1
756,1019,66,0.00231937132829786,0.00744640268558785,1
757,1019,66,0.00186160067139696,0.00738536659800107,1
742,1020,66,0.00285343709468223,0.00764476997024491,1
743,1020,66,0.00730907148851759,0.00828564888990616,1
744,1020,66,0.0059662775616083,0.00787365529869535,1
745,1020,66,0.00563057907988098,0.0141603723201343,1
746,1020,66,0.00161745632104982,0.00804150453955901,1
747,1020,66,0.00544747081712062,0.012115663385977,1
748,1020,66,0.0223392080567636,0.0146944380865187,1
749,1020,66,0.0289311055161364,0.0081025406271458,1
750,1020,66,0.00201419089036393,0.0076752880140383,1
751,1020,66,0.00712596322575723,0.00759899290455482,1
752,1020,66,0.00216678110933089,0.00807202258335241,1
753,1020,66,0.00230411230640116,0.0142519264515145,1
754,1020,66,0.00218204013122759,0.00770580605783169,1
755,1020,66,0.00802624551766232,0.0072327763790341,1
756,1020,66,0.00747692072938125,0.0184634164950027,1
757,1020,66,0.0147707331960021,0.00865186541542687,1
758,1020,66,0.011261158159762,0.0103150988021668,1
741,1021,66,0.010955977721828,0.00819409475852598,1
742,1021,66,0.00263981078812848,0.0439002059967956,1
743,1021,66,0.0146639200427253,0.0158236057068742,1
744,1021,66,0.0112916762035554,0.0103608758678569,1
745,1021,66,0.022919050888838,0.00788891432059205,1
746,1021,66,0.00209048599984741,0.0111238269626917,1
747,1021,66,0.00173952849622339,0.0280308232242313,1
748,1021,66,0.00192263675898375,0.00862134737163348,1
749,1021,66,0.00260929274433509,0.0141145952544442,1
750,1021,66,0.00325017166399634,0.00962844281681544,1
751,1021,66,0.00440985732814527,0.0089417868314641,1
752,1021,66,0.00207522697795071,0.00872816052491035,1
753,1021,66,0.00193789578088045,0.0098115510795758,1
754,1021,66,0.00248722056916152,0.0113984893568322,1
755,1021,66,0.00184634164950027,0.00903334096284428,1
756,1021,66,0.0320744640268559,0.00805676356145571,1
757,1021,66,0.0209201190203708,0.007690547035935,1
758,1021,66,0.036240177004654,0.00888075074387732,1
740,1022,66,0.00199893186846723,0.0085145342183566,1
741,1022,66,0.0462653543907836,0.0230869001297017,1
742,1022,66,0.00514229037918669,0.00784313725490196,1
743,1022,66,0.0340581368734264,0.00860608834973678,1
744,1022,66,0.00192263675898375,0.0080872816052491,1
745,1022,66,0.00199893186846723,0.00805676356145571,1
746,1022,66,0.00202944991226062,0.00738536659800107,1
747,1022,66,0.00183108262760357,0.00831616693369955,1
748,1022,66,0.00691233691920348,0.0221408407721065,1
749,1022,66,0.00395208667124437,0.00996414129854276,1
750,1022,66,0.00207522697795071,0.010406652933547,1
751,1022,66,0.00180056458381018,0.00820935378042268,1
752,1022,66,0.00207522697795071,0.00868238345922026,1
753,1022,66,0.0254978255893797,0.0085297932402533,1
754,1022,66,0.0034332799267567,0.0120088502327001,1
755,1022,66,0.0297245746547646,0.0288090333409628,1
756,1022,66,0.00225833524071107,0.0160677500572213,1
757,1022,66,0.0377203021286336,0.0085145342183566,1
758,1022,66,0.00241092545967803,0.0089417868314641,1
744,1023,66,0.0021210040436408,0.00782787823300526,1
745,1023,66,0.00219729915312428,0.00779736018921187,1
746,1023,66,0.00193789578088045,0.00776684214541848,1
747,1023,66,0.00181582360570687,0.0180666819256886,1
748,1023,66,0.00228885328450446,0.0103456168459602,1
749,1023,66,0.00245670252536812,0.00839246204318303,1
750,1023,66,0.00186160067139696,0.00778210116731518,1
751,1023,66,0.00233463035019455,0.00834668497749294,1
752,1023,66,0.00202944991226062,0.00778210116731518,1
753,1023,66,0.00244144350347143,0.00819409475852598,1
754,1023,66,0.0250247959105821,0.0155184252689403,1
755,1023,66,0.0298313878080415,0.0109254596780346,1
748,1018,67,0.00187685969329366,0.0108491645685512,1
749,1018,67,0.00170901045243,0.0131227588311589,1
750,1018,67,0.00190737773708705,0.0144197756923781,1
751,1018,67,0.00225833524071107,0.00805676356145571,1
752,1018,67,0.00189211871519036,0.0117189288166629,1
753,1018,67,0.0294346532387274,0.0076600289921416,1
754,1018,67,0.00216678110933089,0.00772106507972839,1
747,1019,67,0.00250247959105821,0.00794995040817884,1
748,1019,67,0.0021515220874342,0.00814831769283589,1
749,1019,67,0.00181582360570687,0.0072327763790341,1
750,1019,67,0.0355992980849928,0.00758373388265812,1
751,1019,67,0.00183108262760357,0.0146639200427253,1
752,1019,67,0.00192263675898375,0.00827038986800946,1
753,1019,67,0.00892652780956741,0.00784313725490196,1
754,1019,67,0.00512703135729,0.0127870603494316,1
755,1019,67,0.00178530556191348,0.00839246204318303,1
756,1019,67,0.00224307621881437,0.0144655527580682,1
743,1020,67,0.00177004654001678,0.00968947890440223,1
744,1020,67,0.044632639047837,0.00819409475852598,1
745,1020,67,0.00267032883192187,0.00775158312352178,1
746,1020,67,0.0021362630655375,0.00816357671473259,1
747,1020,67,0.0012970168612192,0.00747692072938125,1
748,1020,67,0.0971389333943694,0.00802624551766232,1
749,1020,67,0.00349431601434348,0.0112458991378653,1
750,1020,67,0.00216678110933089,0.0081177996490425,1
751,1020,67,0.0870984969863432,0.00785839627679866,1
752,1020,67,0.00453192950331884,0.00732433051041428,1
753,1020,67,0.00289921416037232,0.00753795681696803,1
754,1020,67,0.00250247959105821,0.0185702296482795,1
755,1020,67,0.00160219729915312,0.0166170748455024,1
756,1020,67,0.00151064316777295,0.0105439841306172,1
757,1020,67,0.00190737773708705,0.00781261921110857,1
742,1021,67,0.00192263675898375,0.0080872816052491,1
743,1021,67,0.00245670252536812,0.00830090791180285,1
744,1021,67,0.00193789578088045,0.00784313725490196,1
745,1021,67,0.0287479972533761,0.00778210116731518,1
746,1021,67,0.00239566643778134,0.00752269779507134,1
747,1021,67,0.00283817807278553,0.00782787823300526,1
748,1021,67,0.00328068970778973,0.00772106507972839,1
749,1021,67,0.00270084687571527,0.00749217975127794,1
750,1021,67,0.0389868009460594,0.00764476997024491,1
751,1021,67,0.00703440909437705,0.00802624551766232,1
752,1021,67,0.00234988937209125,0.01538109407187,1
753,1021,67,0.00210574502174411,0.00798046845197223,1
754,1021,67,0.0131990539406424,0.0076752880140383,1
755,1021,67,0.00192263675898375,0.00675974670023652,1
756,1021,67,0.00250247959105821,0.00828564888990616,1
757,1021,67,0.042221713588159,0.0110933089188983,1
741,1022,67,0.00238040741588464,0.00788891432059205,1
742,1022,67,0.00183108262760357,0.00753795681696803,1
743,1022,67,0.00202944991226062,0.00793469138628214,1
744,1022,67,0.00219729915312428,0.00778210116731518,1
745,1022,67,0.00228885328450446,0.0139467460135805,1
746,1022,67,0.00228885328450446,0.00814831769283589,1
747,1022,67,0.0114900434882124,0.016586556801709,1
748,1022,67,0.00193789578088045,0.0146334019989319,1
749,1022,67,0.00241092545967803,0.00753795681696803,1
750,1022,67,0.0341496910048066,0.00805676356145571,1
751,1022,67,0.0231326771953918,0.00801098649576562,1
752,1022,67,0.004272526131075,0.00782787823300526,1
753,1022,67,0.00303654535744259,0.00744640268558785,1
754,1022,67,0.0126497291523613,0.00738536659800107,1
755,1022,67,0.00183108262760357,0.00846875715266651,1
756,1022,67,0.00166323338673991,0.00801098649576562,1
757,1022,67,0.00238040741588464,0.0122377355611505,1
758,1022,67,0.00207522697795071,0.00752269779507134,1
748,1023,67,0.0241855497062638,0.00935378042267491,1
749,1023,67,0.00209048599984741,0.00801098649576562,1
750,1023,67,0.0017242694743267,0.00717174029144732,1
751,1023,67,0.00199893186846723,0.0174868390936141,1
752,1023,67,0.00198367284657053,0.00791943236438544,1
753,1023,67,0.00173952849622339,0.00721751735713741,1
