x,y,z,fucci_ch00,fucci_ch02,cellCycle
428,81,8,0.00199893186846723,0.00804150453955901,2
429,81,8,0.00253299763485161,0.00794995040817884,2
430,81,8,0.0442053864347295,0.0122987716487373,2
431,81,8,0.00473029678797589,0.00727855344472419,2
432,81,8,0.0372777904936294,0.0154421301594568,2
433,81,8,0.00999465934233616,0.0211795223926146,2
426,82,8,0.00160219729915312,0.0120393682764935,2
427,82,8,0.00112916762035554,0.00787365529869535,2
428,82,8,0.0402075226977951,0.00796520943007553,2
429,82,8,0.0594033722438392,0.0205844205386435,2
430,82,8,0.00207522697795071,0.0097962920576791,2
431,82,8,0.00158693827725643,0.0140383001449607,2
432,82,8,0.00193789578088045,0.0113832303349355,2
433,82,8,0.0207980468451972,0.0076752880140383,2
434,82,8,0.00166323338673991,0.0104219119554437,2
426,83,8,0.00904859998474098,0.00775158312352178,2
427,83,8,0.00190737773708705,0.0285038529030289,2
428,83,8,0.00663767452506294,0.0156557564660105,2
429,83,8,0.012115663385977,0.00762951094834821,2
430,83,8,0.00199893186846723,0.00807202258335241,2
431,83,8,0.00195315480277714,0.0076600289921416,2
432,83,8,0.0578927290760662,0.0072327763790341,2
433,83,8,0.0241702906843671,0.00741588464179446,2
434,83,8,0.00685130083161669,0.017792019531548,2
435,83,8,0.00230411230640116,0.0085297932402533,2
425,84,8,0.00192263675898375,0.022064545662623,2
426,84,8,0.00115968566414893,0.0107423514152743,2
427,84,8,0.0826733806363012,0.018097199969482,2
428,84,8,0.0021515220874342,0.0103303578240635,2
429,84,8,0.047699702449073,0.00738536659800107,2
430,84,8,0.0110322728313115,0.00727855344472419,2
431,84,8,0.0168459601739528,0.00788891432059205,2
432,84,8,0.00276188296330205,0.00782787823300526,2
433,84,8,0.00181582360570687,0.00759899290455482,2
434,84,8,0.00476081483176928,0.0199435416189822,2
435,84,8,0.00679026474402991,0.00793469138628214,2
436,84,8,0.0167696650644694,0.00790417334248875,2
425,85,8,0.00152590218966964,0.0103303578240635,2
426,85,8,0.00207522697795071,0.00840772106507973,2
427,85,8,0.00204470893415732,0.00735484855420768,2
428,85,8,0.0691386282139315,0.00747692072938125,2
429,85,8,0.00202944991226062,0.018951705195697,2
430,85,8,0.00325017166399634,0.0304570077058061,2
431,85,8,0.00711070420386053,0.00849927519645991,2
432,85,8,0.0259403372243839,0.00872816052491035,2
433,85,8,0.0316929884794385,0.0118715190356298,2
434,85,8,0.00170901045243,0.011612115663386,2
435,85,8,0.0042420080872816,0.0101625085831998,2
436,85,8,0.00560006103608759,0.00756847486076143,2
437,85,8,0.00173952849622339,0.0100251773861295,2
424,86,8,0.0021362630655375,0.00762951094834821,2
425,86,8,0.0021515220874342,0.00714122224765393,2
426,86,8,0.00138857099259937,0.00820935378042268,2
427,86,8,0.00190737773708705,0.00796520943007553,2
428,86,8,0.00202944991226062,0.0130312046997787,2
429,86,8,0.00790417334248875,0.00781261921110857,2
430,86,8,0.0157625696192874,0.0156557564660105,2
431,86,8,0.0485999847409781,0.00872816052491035,2
432,86,8,0.0119935912108034,0.00775158312352178,2
433,86,8,0.00195315480277714,0.00761425192645151,2
434,86,8,0.00201419089036393,0.0227664606698711,2
435,86,8,0.00224307621881437,0.0101625085831998,2
436,86,8,0.00199893186846723,0.00892652780956741,2
437,86,8,0.00289921416037232,0.00801098649576562,2
424,87,8,0.0122377355611505,0.0137331197070268,2
425,87,8,0.00187685969329366,0.0117341878385595,2
426,87,8,0.0145418478675517,0.00773632410162509,2
427,87,8,0.0471808957045853,0.0118410009918364,2
428,87,8,0.0116273746852827,0.0142824444953079,2
429,87,8,0.00164797436484321,0.00907911802853437,2
430,87,8,0.00201419089036393,0.0176241702906844,2
431,87,8,0.00198367284657053,0.0132448310063325,2
432,87,8,0.00163271534294652,0.00978103303578241,2
433,87,8,0.00166323338673991,0.00743114366369116,2
434,87,8,0.00431830319676509,0.0100404364080262,2
435,87,8,0.0184634164950027,0.0107881284809644,2
436,87,8,0.0384985122453651,0.0072327763790341,2
437,87,8,0.0142824444953079,0.0146181429770352,2
424,88,8,0.0144045166704814,0.0123903257801175,2
425,88,8,0.0383459220263981,0.0102845807583734,2
426,88,8,0.00164797436484321,0.00817883573662928,2
427,88,8,0.0227054245822843,0.00820935378042268,2
428,88,8,0.0339055466544594,0.0115968566414893,2
429,88,8,0.00291447318226902,0.0181734950789654,2
430,88,8,0.00202944991226062,0.029205767910277,2
431,88,8,0.00183108262760357,0.00831616693369955,2
432,88,8,0.00193789578088045,0.00784313725490196,2
433,88,8,0.00183108262760357,0.00689707789730678,2
434,88,8,0.00201419089036393,0.00712596322575723,2
435,88,8,0.00202944991226062,0.0076600289921416,2
436,88,8,0.0510414282444495,0.0112916762035554,2
437,88,8,0.00192263675898375,0.0081177996490425,2
424,89,8,0.00238040741588464,0.00784313725490196,2
425,89,8,0.00250247959105821,0.00790417334248875,2
426,89,8,0.00196841382467384,0.00801098649576562,2
427,89,8,0.0521705958648051,0.00796520943007553,2
428,89,8,0.00201419089036393,0.0279697871366445,2
429,89,8,0.00222781719691768,0.00827038986800946,2
430,89,8,0.002563515678645,0.0151522087434195,2
431,89,8,0.00164797436484321,0.0182497901884489,2
432,89,8,0.00238040741588464,0.00819409475852598,2
433,89,8,0.0021210040436408,0.0105745021744106,2
434,89,8,0.00192263675898375,0.00961318379491875,2
435,89,8,0.00199893186846723,0.0144045166704814,2
436,89,8,0.00167849240863661,0.00779736018921187,2
437,89,8,0.00164797436484321,0.00822461280231937,2
425,90,8,0.0427405203326467,0.0076752880140383,2
426,90,8,0.0633096818493935,0.0171969176775769,2
427,90,8,0.0186312657358663,0.00816357671473259,2
428,90,8,0.0166018158236057,0.00720225833524071,2
429,90,8,0.00166323338673991,0.0156099794003204,2
430,90,8,0.0571145189593347,0.018142977035172,2
431,90,8,0.00642404821850919,0.0277714198519875,2
432,90,8,0.00154116121156634,0.0114290074006256,2
433,90,8,0.00163271534294652,0.0178835736629282,2
434,90,8,0.00134279392690929,0.00971999694819562,2
435,90,8,0.00204470893415732,0.0081025406271458,2
436,90,8,0.00160219729915312,0.0081177996490425,2
426,91,8,0.00187685969329366,0.0139009689478904,2
427,91,8,0.0188754100862135,0.0175020981155108,2
428,91,8,0.00234988937209125,0.0228122377355611,2
429,91,8,0.00193789578088045,0.00770580605783169,2
430,91,8,0.00160219729915312,0.00764476997024491,2
431,91,8,0.00219729915312428,0.0204623483634699,2
432,91,8,0.00219729915312428,0.0108796826123445,2
433,91,8,0.0025482566567483,0.0130922407873655,2
434,91,8,0.00148012512397955,0.013321126115816,2
435,91,8,0.0519569695582513,0.00758373388265812,2
436,91,8,0.0280003051804379,0.00784313725490196,2
427,92,8,0.0012664988174258,0.00761425192645151,2
428,92,8,0.00202944991226062,0.00695811398489357,2
429,92,8,0.00190737773708705,0.00788891432059205,2
430,92,8,0.00177004654001678,0.0111848630502785,2
431,92,8,0.00192263675898375,0.0221866178377966,2
432,92,8,0.00524910353246357,0.00747692072938125,2
433,92,8,0.00296025024795911,0.00776684214541848,2
434,92,8,0.00303654535744259,0.00814831769283589,2
435,92,8,0.0482795452811475,0.00778210116731518,2
436,92,8,0.0445868619821469,0.0114137483787289,2
428,93,8,0.00277714198519875,0.00790417334248875,2
429,93,8,0.0234836346990158,0.00743114366369116,2
430,93,8,0.00146486610208286,0.00761425192645151,2
431,93,8,0.0311436636911574,0.00802624551766232,2
432,93,8,0.00451667048142214,0.00831616693369955,2
433,93,8,0.00135805294880598,0.00787365529869535,2
434,93,8,0.00146486610208286,0.007690547035935,2
435,93,8,0.00178530556191348,0.0126802471961547,2
430,94,8,0.00352483405813687,0.00946059357595178,2
431,94,8,0.00193789578088045,0.00773632410162509,2
432,94,8,0.0145876249332418,0.00781261921110857,2
433,94,8,0.0219119554436561,0.00761425192645151,2
434,94,8,0.00234988937209125,0.014526588845655,2
433,95,8,0.00202944991226062,0.0169069962615396,2
429,80,9,0.00221255817502098,0.00750743877317464,2
430,80,9,0.00148012512397955,0.0089723048752575,2
431,80,9,0.00134279392690929,0.0155184252689403,2
432,80,9,0.00198367284657053,0.00747692072938125,2
427,81,9,0.00155642023346304,0.00799572747386892,2
428,81,9,0.00140383001449607,0.00814831769283589,2
429,81,9,0.00193789578088045,0.0174105439841306,2
430,81,9,0.00216678110933089,0.0121461814297704,2
431,81,9,0.00248722056916152,0.0156862745098039,2
432,81,9,0.0419623102159152,0.00825513084611276,2
433,81,9,0.0753795681696803,0.00782787823300526,2
434,81,9,0.0021362630655375,0.00735484855420768,2
426,82,9,0.00503547722590982,0.0080872816052491,2
427,82,9,0.027695124742504,0.0100099183642329,2
428,82,9,0.00157167925535973,0.0104829480430304,2
429,82,9,0.00183108262760357,0.0205996795605402,2
430,82,9,0.0175631342030976,0.0195315480277714,2
431,82,9,0.038452735179675,0.0354009308003357,2
432,82,9,0.0100404364080262,0.00877393759060044,2
433,82,9,0.0111696040283818,0.0158083466849775,2
434,82,9,0.0382543678950179,0.0093690394445716,2
435,82,9,0.0105439841306172,0.00917067215991455,2
425,83,9,0.0016937514305333,0.00822461280231937,2
426,83,9,0.00207522697795071,0.00822461280231937,2
427,83,9,0.00413519493400473,0.00764476997024491,2
428,83,9,0.0145571068894484,0.00733958953231098,2
429,83,9,0.00158693827725643,0.0147096971084154,2
430,83,9,0.00955214770733196,0.00822461280231937,2
431,83,9,0.0338597695887694,0.00793469138628214,2
432,83,9,0.00251773861295491,0.00727855344472419,2
433,83,9,0.00225833524071107,0.0166170748455024,2
434,83,9,0.00199893186846723,0.0105439841306172,2
435,83,9,0.00177004654001678,0.0081177996490425,2
436,83,9,0.13510337987335,0.00738536659800107,2
425,84,9,0.00192263675898375,0.0128786144808118,2
426,84,9,0.00207522697795071,0.0127107652399481,2
427,84,9,0.00173952849622339,0.00845349813076982,2
428,84,9,0.00155642023346304,0.00955214770733196,2
429,84,9,0.00196841382467384,0.013519493400473,2
430,84,9,0.00173952849622339,0.00737010757610437,2
431,84,9,0.0398413061722744,0.014175631342031,2
432,84,9,0.0294651712825208,0.012817578393225,2
433,84,9,0.0114900434882124,0.00793469138628214,2
434,84,9,0.00567635614557107,0.00712596322575723,2
435,84,9,0.00355535210193027,0.00764476997024491,2
436,84,9,0.00155642023346304,0.00785839627679866,2
437,84,9,0.00193789578088045,0.00773632410162509,2
424,85,9,0.0185549706263828,0.0170290684367132,2
425,85,9,0.00167849240863661,0.0135652704661631,2
426,85,9,0.00224307621881437,0.0150759136339361,2
427,85,9,0.00209048599984741,0.00793469138628214,2
428,85,9,0.00166323338673991,0.0076600289921416,2
429,85,9,0.00166323338673991,0.0176852063782712,2
430,85,9,0.0204013122758831,0.00802624551766232,2
431,85,9,0.020157167925536,0.00753795681696803,2
432,85,9,0.00227359426260777,0.00891126878767071,2
433,85,9,0.000930800335698482,0.00785839627679866,2
434,85,9,0.0434729533836881,0.00805676356145571,2
435,85,9,0.00199893186846723,0.00733958953231098,2
436,85,9,0.00173952849622339,0.00755321583886473,2
437,85,9,0.0017242694743267,0.00750743877317464,2
424,86,9,0.0109254596780346,0.00859082932784009,2
425,86,9,0.069764248111696,0.0102388036926833,2
426,86,9,0.00978103303578241,0.016937514305333,2
427,86,9,0.0355992980849928,0.00747692072938125,2
428,86,9,0.00202944991226062,0.0076752880140383,2
429,86,9,0.00195315480277714,0.00750743877317464,2
430,86,9,0.00181582360570687,0.0211337453269245,2
431,86,9,0.00190737773708705,0.00885023270008392,2
432,86,9,0.00199893186846723,0.00793469138628214,2
433,86,9,0.0869611657892729,0.0076600289921416,2
434,86,9,0.00231937132829786,0.0109102006561379,2
435,86,9,0.00167849240863661,0.00804150453955901,2
436,86,9,0.00199893186846723,0.00781261921110857,2
437,86,9,0.00222781719691768,0.00788891432059205,2
424,87,9,0.0249027237354086,0.0127412832837415,2
425,87,9,0.0255588616769665,0.00814831769283589,2
426,87,9,0.0156099794003204,0.0148317692835889,2
427,87,9,0.00192263675898375,0.00759899290455482,2
428,87,9,0.00158693827725643,0.00828564888990616,2
429,87,9,0.0230411230640116,0.00778210116731518,2
430,87,9,0.00242618448157473,0.0110475318532082,2
431,87,9,0.0105745021744106,0.0114442664225223,2
432,87,9,0.0265354390783551,0.00778210116731518,2
433,87,9,0.00180056458381018,0.00764476997024491,2
434,87,9,0.00161745632104982,0.00781261921110857,2
435,87,9,0.00270084687571527,0.00997940032043946,2
436,87,9,0.00222781719691768,0.0101777676050965,2
437,87,9,0.00141908903639277,0.00770580605783169,2
438,87,9,0.00166323338673991,0.00791943236438544,2
424,88,9,0.00204470893415732,0.0202944991226062,2
425,88,9,0.00152590218966964,0.00753795681696803,2
426,88,9,0.00178530556191348,0.00799572747386892,2
427,88,9,0.00236514839398795,0.0105745021744106,2
428,88,9,0.00230411230640116,0.0139314869916838,2
429,88,9,0.00186160067139696,0.0164797436484321,2
430,88,9,0.0012970168612192,0.0160677500572213,2
431,88,9,0.0021362630655375,0.0192263675898375,2
432,88,9,0.0072632944228275,0.011306935225452,2
433,88,9,0.0302128633554589,0.00750743877317464,2
434,88,9,0.0188754100862135,0.00968947890440223,2
435,88,9,0.00186160067139696,0.0217441062027924,2
436,88,9,0.00193789578088045,0.0223392080567636,2
437,88,9,0.00209048599984741,0.00970473792629892,2
438,88,9,0.00198367284657053,0.0194094758525978,2
423,89,9,0.00759899290455482,0.0187685969329366,2
424,89,9,0.00209048599984741,0.0101319905394064,2
425,89,9,0.037445639734493,0.0111238269626917,2
426,89,9,0.0322270542458228,0.00845349813076982,2
427,89,9,0.00477607385366598,0.00787365529869535,2
428,89,9,0.0341039139391165,0.00802624551766232,2
429,89,9,0.00192263675898375,0.00799572747386892,2
430,89,9,0.00195315480277714,0.00790417334248875,2
431,89,9,0.00210574502174411,0.00755321583886473,2
432,89,9,0.00186160067139696,0.0149843595025559,2
433,89,9,0.00199893186846723,0.00787365529869535,2
434,89,9,0.00233463035019455,0.00750743877317464,2
435,89,9,0.00311284046692607,0.0113832303349355,2
436,89,9,0.00729381246662089,0.0102082856488899,2
437,89,9,0.00260929274433509,0.00764476997024491,2
438,89,9,0.00218204013122759,0.00776684214541848,2
424,90,9,0.00173952849622339,0.00764476997024491,2
425,90,9,0.0308232242313268,0.0154726482032502,2
426,90,9,0.0616006713969635,0.0143434805828946,2
427,90,9,0.0021362630655375,0.0107881284809644,2
428,90,9,0.0021210040436408,0.0153353170061799,2
429,90,9,0.00205996795605402,0.0076600289921416,2
430,90,9,0.0132906080720226,0.00727855344472419,2
431,90,9,0.0361791409170672,0.00781261921110857,2
432,90,9,0.00218204013122759,0.00778210116731518,2
433,90,9,0.00219729915312428,0.0119478141451133,2
434,90,9,0.0203250171663996,0.0120851453421836,2
435,90,9,0.0173495078965438,0.00781261921110857,2
436,90,9,0.0463569085221637,0.00775158312352178,2
437,90,9,0.0263218127718013,0.00791943236438544,2
425,91,9,0.00202944991226062,0.00782787823300526,2
426,91,9,0.00202944991226062,0.0154116121156634,2
427,91,9,0.00199893186846723,0.00781261921110857,2
428,91,9,0.00198367284657053,0.0110780498970016,2
429,91,9,0.019851987487602,0.0133516441596094,2
430,91,9,0.00248722056916152,0.00762951094834821,2
431,91,9,0.00248722056916152,0.0195620660715648,2
432,91,9,0.00239566643778134,0.00898756389715419,2
433,91,9,0.0318303196765087,0.00975051499198901,2
434,91,9,0.0313878080415045,0.0191805905241474,2
435,91,9,0.0809338521400778,0.0125734340428779,2
436,91,9,0.00158693827725643,0.00892652780956741,2
437,91,9,0.140077821011673,0.0170748455024033,2
426,92,9,0.0564888990615702,0.00764476997024491,2
427,92,9,0.0574044403753719,0.0148317692835889,2
428,92,9,0.00170901045243,0.00991836423285267,2
429,92,9,0.00160219729915312,0.007690547035935,2
430,92,9,0.00199893186846723,0.00781261921110857,2
431,92,9,0.00227359426260777,0.00814831769283589,2
432,92,9,0.00209048599984741,0.00970473792629892,2
433,92,9,0.0042877851529717,0.0126344701304646,2
434,92,9,0.00248722056916152,0.00836194399938964,2
435,92,9,0.00196841382467384,0.00791943236438544,2
436,92,9,0.00216678110933089,0.0154879072251469,2
427,93,9,0.00166323338673991,0.00976577401388571,2
428,93,9,0.00170901045243,0.00964370183871214,2
429,93,9,0.00189211871519036,0.00714122224765393,2
430,93,9,0.00224307621881437,0.012970168612192,2
431,93,9,0.00148012512397955,0.007690547035935,2
432,93,9,0.00175478751812009,0.00741588464179446,2
433,93,9,0.0137178606851301,0.0115815976195926,2
434,93,9,0.0250095368886854,0.0120241092545968,2
435,93,9,0.00184634164950027,0.011459525444419,2
436,93,9,0.00160219729915312,0.0111543450064851,2
430,94,9,0.00180056458381018,0.0129396505683986,2
431,94,9,0.00244144350347143,0.0130006866559854,2
432,94,9,0.0349279011215381,0.00814831769283589,2
433,94,9,0.014724956130312,0.00787365529869535,2
434,94,9,0.00180056458381018,0.00717174029144732,2
427,80,10,0.00227359426260777,0.00862134737163348,2
428,80,10,0.00263981078812848,0.0191653315022507,2
429,80,10,0.00175478751812009,0.00816357671473259,2
430,80,10,0.032318608377203,0.00839246204318303,2
431,80,10,0.00247196154726482,0.00828564888990616,2
432,80,10,0.00207522697795071,0.00750743877317464,2
433,80,10,0.0021515220874342,0.00756847486076143,2
426,81,10,0.00193789578088045,0.00898756389715419,2
427,81,10,0.00166323338673991,0.00842298008697642,2
428,81,10,0.00187685969329366,0.00874341954680705,2
429,81,10,0.00228885328450446,0.00679026474402991,2
430,81,10,0.0021362630655375,0.00700389105058366,2
431,81,10,0.00148012512397955,0.00813305867093919,2
432,81,10,0.00199893186846723,0.00817883573662928,2
433,81,10,0.00219729915312428,0.00796520943007553,2
434,81,10,0.00210574502174411,0.0134737163347829,2
425,82,10,0.103379873350118,0.018295567254139,2
426,82,10,0.0204013122758831,0.00848401617456321,2
427,82,10,0.00183108262760357,0.00854505226215,2
428,82,10,0.00154116121156634,0.00752269779507134,2
429,82,10,0.0025787747005417,0.00733958953231098,2
430,82,10,0.0021515220874342,0.0089570458533608,2
431,82,10,0.0157167925535973,0.010605020218204,2
432,82,10,0.0441138323033494,0.00741588464179446,2
433,82,10,0.0260166323338674,0.0128786144808118,2
434,82,10,0.00204470893415732,0.00790417334248875,2
435,82,10,0.00202944991226062,0.0085297932402533,2
436,82,10,0.00193789578088045,0.00772106507972839,2
425,83,10,0.0737773708705272,0.0168612191958495,2
426,83,10,0.00198367284657053,0.00787365529869535,2
427,83,10,0.0397955291065843,0.00819409475852598,2
428,83,10,0.0335393301289387,0.00775158312352178,2
429,83,10,0.00205996795605402,0.00740062561989776,2
430,83,10,0.0107881284809644,0.00729381246662089,2
431,83,10,0.0016937514305333,0.00778210116731518,2
432,83,10,0.00178530556191348,0.00825513084611276,2
433,83,10,0.00175478751812009,0.00773632410162509,2
434,83,10,0.00143434805828946,0.0114900434882124,2
435,83,10,0.00180056458381018,0.0152437628747997,2
436,83,10,0.00216678110933089,0.0151064316777295,2
424,84,10,0.0072480354009308,0.0112153810940719,2
425,84,10,0.0101472495613031,0.011108567940795,2
426,84,10,0.00135805294880598,0.0089723048752575,2
427,84,10,0.00114442664225223,0.00694285496299687,2
428,84,10,0.00175478751812009,0.00764476997024491,2
429,84,10,0.00192263675898375,0.00758373388265812,2
430,84,10,0.00187685969329366,0.0182040131227588,2
431,84,10,0.0046692607003891,0.0246585793850614,2
432,84,10,0.00193789578088045,0.0133363851377127,2
433,84,10,0.00163271534294652,0.0138551918822004,2
434,84,10,0.0157930876630808,0.0212710765239948,2
435,84,10,0.0495307850766766,0.010605020218204,2
436,84,10,0.0235294117647059,0.00929274433508812,2
437,84,10,0.0016937514305333,0.0072480354009308,2
424,85,10,0.00125123979552911,0.00735484855420768,2
425,85,10,0.0121309224078737,0.00750743877317464,2
426,85,10,0.00224307621881437,0.00785839627679866,2
427,85,10,0.00225833524071107,0.0110780498970016,2
428,85,10,0.0274814984359503,0.0102845807583734,2
429,85,10,0.00575265125505455,0.00759899290455482,2
430,85,10,0.00187685969329366,0.0114900434882124,2
431,85,10,0.032318608377203,0.00804150453955901,2
432,85,10,0.00700389105058366,0.0136110475318532,2
433,85,10,0.00465400167849241,0.00871290150301366,2
434,85,10,0.00167849240863661,0.00845349813076982,2
435,85,10,0.0376134889753567,0.00804150453955901,2
436,85,10,0.00474555580987259,0.0144502937361715,2
437,85,10,0.00422674906538491,0.00788891432059205,2
438,85,10,0.107545586327916,0.00798046845197223,2
424,86,10,0.00236514839398795,0.00813305867093919,2
425,86,10,0.00186160067139696,0.0182650492103456,2
426,86,10,0.00177004654001678,0.0132600900282292,2
427,86,10,0.00161745632104982,0.0227054245822843,2
428,86,10,0.0121919584954604,0.00787365529869535,2
429,86,10,0.0530098420691234,0.00784313725490196,2
430,86,10,0.0180819409475853,0.00756847486076143,2
431,86,10,0.00209048599984741,0.00746166170748455,2
432,86,10,0.00573739223315786,0.00770580605783169,2
433,86,10,0.0210879682612345,0.00798046845197223,2
434,86,10,0.00164797436484321,0.0105745021744106,2
435,86,10,0.00166323338673991,0.023422598611429,2
436,86,10,0.055039291981384,0.00711070420386053,2
437,86,10,0.0233005264362554,0.010757610437171,2
438,86,10,0.00204470893415732,0.00801098649576562,2
424,87,10,0.00189211871519036,0.0102693217364767,2
425,87,10,0.00183108262760357,0.00753795681696803,2
426,87,10,0.0424963759822995,0.00743114366369116,2
427,87,10,0.039154650186923,0.00737010757610437,2
428,87,10,0.010452429999237,0.00782787823300526,2
429,87,10,0.00192263675898375,0.018142977035172,2
430,87,10,0.00189211871519036,0.00746166170748455,2
431,87,10,0.00958266575112535,0.00785839627679866,2
432,87,10,0.0692454413672084,0.00772106507972839,2
433,87,10,0.0168154421301595,0.00798046845197223,2
434,87,10,0.00157167925535973,0.0093690394445716,2
435,87,10,0.0413977264057374,0.0168459601739528,2
436,87,10,0.0496375982299535,0.0185854886701762,2
437,87,10,0.00199893186846723,0.00799572747386892,2
438,87,10,0.0213778896772717,0.00802624551766232,2
423,88,10,0.00155642023346304,0.0190890363927672,2
424,88,10,0.00440985732814527,0.00779736018921187,2
425,88,10,0.00328068970778973,0.00904859998474098,2
426,88,10,0.00581368734264134,0.00840772106507973,2
427,88,10,0.038300144960708,0.00756847486076143,2
428,88,10,0.00157167925535973,0.00784313725490196,2
429,88,10,0.0121461814297704,0.01025406271458,2
430,88,10,0.0312809948882277,0.00804150453955901,2
431,88,10,0.0181277180132754,0.00799572747386892,2
432,88,10,0.0175326161593042,0.0139009689478904,2
433,88,10,0.00144960708018616,0.0118715190356298,2
434,88,10,0.00140383001449607,0.0076752880140383,2
435,88,10,0.00817883573662928,0.00819409475852598,2
436,88,10,0.00721751735713741,0.00988784618905928,2
437,88,10,0.00199893186846723,0.0138857099259937,2
438,88,10,0.0967421988250553,0.00759899290455482,2
423,89,10,0.0269779507133593,0.00799572747386892,2
424,89,10,0.00219729915312428,0.00799572747386892,2
425,89,10,0.00396734569314107,0.00961318379491875,2
426,89,10,0.0241702906843671,0.0134431982909895,2
427,89,10,0.00152590218966964,0.036942092011902,2
428,89,10,0.00186160067139696,0.0136568245975433,2
429,89,10,0.0016937514305333,0.00988784618905928,2
430,89,10,0.00177004654001678,0.0122072175173571,2
431,89,10,0.0021362630655375,0.0107881284809644,2
432,89,10,0.00727855344472419,0.00740062561989776,2
433,89,10,0.00210574502174411,0.0125123979552911,2
434,89,10,0.00209048599984741,0.00793469138628214,2
435,89,10,0.00204470893415732,0.00709544518196384,2
436,89,10,0.00193789578088045,0.00830090791180285,2
437,89,10,0.00221255817502098,0.00730907148851759,2
438,89,10,0.0225223163195239,0.00741588464179446,2
424,90,10,0.00155642023346304,0.0102998397802701,2
425,90,10,0.00987258716716258,0.0100709544518196,2
426,90,10,0.00508125429159991,0.00779736018921187,2
427,90,10,0.00205996795605402,0.00764476997024491,2
428,90,10,0.00198367284657053,0.00752269779507134,2
429,90,10,0.00141908903639277,0.00820935378042268,2
430,90,10,0.0017242694743267,0.00935378042267491,2
431,90,10,0.00210574502174411,0.0120698863202869,2
432,90,10,0.0675822079804684,0.00740062561989776,2
433,90,10,0.0113984893568322,0.0132448310063325,2
434,90,10,0.00180056458381018,0.00825513084611276,2
435,90,10,0.00917067215991455,0.00814831769283589,2
436,90,10,0.00224307621881437,0.00779736018921187,2
437,90,10,0.00225833524071107,0.0120088502327001,2
438,90,10,0.0269779507133593,0.00849927519645991,2
425,91,10,0.0299687190051118,0.00834668497749294,2
426,91,10,0.00492866407263294,0.00994888227664607,2
427,91,10,0.0191653315022507,0.0143434805828946,2
428,91,10,0.00140383001449607,0.00987258716716258,2
429,91,10,0.00154116121156634,0.00776684214541848,2
430,91,10,0.00192263675898375,0.00793469138628214,2
431,91,10,0.00816357671473259,0.0112306401159686,2
432,91,10,0.00567635614557107,0.013168535896849,2
433,91,10,0.0207217517357137,0.00781261921110857,2
434,91,10,0.0341191729610132,0.0147859922178988,2
435,91,10,0.00221255817502098,0.00859082932784009,2
436,91,10,0.025482566567483,0.00907911802853437,2
437,91,10,0.0176394293125811,0.00915541313801785,2
438,91,10,0.00163271534294652,0.00892652780956741,2
426,92,10,0.0398260471503777,0.00845349813076982,2
427,92,10,0.00279240100709545,0.0072480354009308,2
428,92,10,0.00173952849622339,0.00746166170748455,2
429,92,10,0.00309758144502937,0.0089570458533608,2
430,92,10,0.00323491264209964,0.00825513084611276,2
431,92,10,0.0021362630655375,0.00784313725490196,2
432,92,10,0.0270847638666361,0.00746166170748455,2
433,92,10,0.00192263675898375,0.0134889753566796,2
434,92,10,0.0224917982757305,0.00975051499198901,2
435,92,10,0.0118867780575265,0.0158083466849775,2
436,92,10,0.0257724879835203,0.00785839627679866,2
437,92,10,0.0346532387273976,0.0072327763790341,2
428,93,10,0.0162050812542916,0.00985732814526589,2
429,93,10,0.00201419089036393,0.00784313725490196,2
430,93,10,0.00166323338673991,0.00733958953231098,2
431,93,10,0.00137331197070268,0.0116731517509728,2
432,93,10,0.0276493476768139,0.00814831769283589,2
433,93,10,0.0423590447852293,0.00749217975127794,2
434,93,10,0.00167849240863661,0.00946059357595178,2
435,93,10,0.00181582360570687,0.00753795681696803,2
436,93,10,0.00157167925535973,0.00782787823300526,2
437,93,10,0.00204470893415732,0.00773632410162509,2
430,94,10,0.00798046845197223,0.00781261921110857,2
431,94,10,0.0034027618829633,0.0076600289921416,2
432,94,10,0.00498970016021973,0.00743114366369116,2
433,94,10,0.00144960708018616,0.0120698863202869,2
434,94,10,0.0185244525825895,0.0115510795757992,2
435,94,10,0.00228885328450446,0.00796520943007553,2
436,94,10,0.00195315480277714,0.00776684214541848,2
434,95,10,0.0419775692378119,0.0182040131227588,2
435,95,10,0.0549477378500038,0.0124513618677043,2
428,79,11,0.00898756389715419,0.00779736018921187,2
429,79,11,0.00700389105058366,0.0161440451667048,2
430,79,11,0.0124513618677043,0.00888075074387732,2
431,79,11,0.00175478751812009,0.010101472495613,2
432,79,11,0.00175478751812009,0.0110017547875181,2
426,80,11,0.0263828488593881,0.0132906080720226,2
427,80,11,0.00218204013122759,0.00907911802853437,2
428,80,11,0.00209048599984741,0.0118715190356298,2
429,80,11,0.00164797436484321,0.00794995040817884,2
430,80,11,0.00227359426260777,0.012115663385977,2
431,80,11,0.00222781719691768,0.0117341878385595,2
432,80,11,0.00187685969329366,0.00761425192645151,2
433,80,11,0.0333562218661784,0.00791943236438544,2
434,80,11,0.00572213321126116,0.00799572747386892,2
425,81,11,0.046845197222858,0.0129549095902953,2
426,81,11,0.031815060654612,0.00869764248111696,2
427,81,11,0.00909437705043107,0.00781261921110857,2
428,81,11,0.00556954299229419,0.00770580605783169,2
429,81,11,0.00245670252536812,0.0146944380865187,2
430,81,11,0.00253299763485161,0.00764476997024491,2
431,81,11,0.00199893186846723,0.00914015411612116,2
432,81,11,0.0105439841306172,0.00807202258335241,2
433,81,11,0.0557564660105287,0.00752269779507134,2
434,81,11,0.00178530556191348,0.00790417334248875,2
435,81,11,0.00216678110933089,0.0108491645685512,2
425,82,11,0.0246738384069581,0.0089570458533608,2
426,82,11,0.0164797436484321,0.0173189898527504,2
427,82,11,0.00221255817502098,0.0106813153276875,2
428,82,11,0.00234988937209125,0.00828564888990616,2
429,82,11,0.00135805294880598,0.00910963607232776,2
430,82,11,0.029251544975967,0.0134584573128862,2
431,82,11,0.0205691615167468,0.00788891432059205,2
432,82,11,0.00231937132829786,0.00819409475852598,2
433,82,11,0.00198367284657053,0.00779736018921187,2
434,82,11,0.00154116121156634,0.00904859998474098,2
435,82,11,0.00204470893415732,0.0076600289921416,2
436,82,11,0.0321355001144427,0.0072327763790341,2
424,83,11,0.0169680323491264,0.00733958953231098,2
425,83,11,0.00236514839398795,0.00798046845197223,2
426,83,11,0.00196841382467384,0.00781261921110857,2
427,83,11,0.00183108262760357,0.00727855344472419,2
428,83,11,0.0343022812237736,0.00752269779507134,2
429,83,11,0.00440985732814527,0.00735484855420768,2
430,83,11,0.00209048599984741,0.0104219119554437,2
431,83,11,0.0521553368429084,0.0234531166552224,2
432,83,11,0.00195315480277714,0.00753795681696803,2
433,83,11,0.00210574502174411,0.00729381246662089,2
434,83,11,0.00224307621881437,0.00888075074387732,2
435,83,11,0.0186923018234531,0.0128480964370184,2
436,83,11,0.0656900892652781,0.00782787823300526,2
437,83,11,0.00663767452506294,0.0126039520866712,2
424,84,11,0.00186160067139696,0.0109102006561379,2
425,84,11,0.00186160067139696,0.00727855344472419,2
426,84,11,0.00173952849622339,0.00775158312352178,2
427,84,11,0.0212405584802014,0.0152895399404898,2
428,84,11,0.011108567940795,0.0080872816052491,2
429,84,11,0.0016937514305333,0.0157930876630808,2
430,84,11,0.00190737773708705,0.00999465934233616,2
431,84,11,0.0221408407721065,0.00837720302128634,2
432,84,11,0.0364385442893111,0.00959792477302205,2
433,84,11,0.0374761577782864,0.0280155642023346,2
434,84,11,0.00195315480277714,0.00878919661249714,2
435,84,11,0.0364080262455177,0.00772106507972839,2
436,84,11,0.00265506981002518,0.0081025406271458,2
437,84,11,0.00234988937209125,0.00907911802853437,2
438,84,11,0.00196841382467384,0.00839246204318303,2
424,85,11,0.0142824444953079,0.0076752880140383,2
425,85,11,0.00227359426260777,0.00752269779507134,2
426,85,11,0.00205996795605402,0.00740062561989776,2
427,85,11,0.00253299763485161,0.00776684214541848,2
428,85,11,0.00245670252536812,0.00730907148851759,2
429,85,11,0.0475165941863127,0.00762951094834821,2
430,85,11,0.0818341344319829,0.0080872816052491,2
431,85,11,0.0131990539406424,0.00770580605783169,2
432,85,11,0.00238040741588464,0.00996414129854276,2
433,85,11,0.00210574502174411,0.0113832303349355,2
434,85,11,0.00222781719691768,0.00881971465629053,2
435,85,11,0.0016937514305333,0.00805676356145571,2
436,85,11,0.00190737773708705,0.0200503547722591,2
437,85,11,0.0258793011367971,0.00793469138628214,2
438,85,11,0.0381628137636378,0.0207370107576104,2
424,86,11,0.00161745632104982,0.00770580605783169,2
425,86,11,0.011108567940795,0.00755321583886473,2
426,86,11,0.0116731517509728,0.00787365529869535,2
427,86,11,0.00242618448157473,0.0199435416189822,2
428,86,11,0.026642252231632,0.0197299153124285,2
429,86,11,0.0059510185397116,0.00770580605783169,2
430,86,11,0.00253299763485161,0.00871290150301366,2
431,86,11,0.00207522697795071,0.0177157244220645,2
432,86,11,0.00190737773708705,0.0176699473563745,2
433,86,11,0.00161745632104982,0.0124513618677043,2
434,86,11,0.00173952849622339,0.00756847486076143,2
435,86,11,0.00286869611657893,0.0231326771953918,2
436,86,11,0.00280766002899214,0.0264438849469749,2
437,86,11,0.0180666819256886,0.00746166170748455,2
438,86,11,0.00190737773708705,0.0256046387426566,2
439,86,11,0.00230411230640116,0.0134889753566796,2
423,87,11,0.0021362630655375,0.0127718013275349,2
424,87,11,0.00205996795605402,0.0144655527580682,2
425,87,11,0.00198367284657053,0.00859082932784009,2
426,87,11,0.00187685969329366,0.00741588464179446,2
427,87,11,0.00242618448157473,0.00750743877317464,2
428,87,11,0.00242618448157473,0.00781261921110857,2
429,87,11,0.00227359426260777,0.00784313725490196,2
430,87,11,0.00186160067139696,0.00727855344472419,2
431,87,11,0.00209048599984741,0.00773632410162509,2
432,87,11,0.00273136491950866,0.00840772106507973,2
433,87,11,0.00410467689021134,0.0137178606851301,2
434,87,11,0.00177004654001678,0.010101472495613,2
435,87,11,0.00178530556191348,0.0076600289921416,2
436,87,11,0.00189211871519036,0.00820935378042268,2
437,87,11,0.00228885328450446,0.00758373388265812,2
438,87,11,0.0157778286411841,0.00758373388265812,2
439,87,11,0.00196841382467384,0.00715648126955062,2
423,88,11,0.071122301060502,0.00912489509422446,2
424,88,11,0.00274662394140536,0.0113527122911421,2
425,88,11,0.0527809567406729,0.00778210116731518,2
426,88,11,0.00224307621881437,0.0111543450064851,2
427,88,11,0.0042420080872816,0.00862134737163348,2
428,88,11,0.00315861753261616,0.00782787823300526,2
429,88,11,0.00189211871519036,0.00744640268558785,2
430,88,11,0.00202944991226062,0.00790417334248875,2
431,88,11,0.00239566643778134,0.00756847486076143,2
432,88,11,0.00207522697795071,0.0104982070649271,2
433,88,11,0.00167849240863661,0.0215304798962387,2
434,88,11,0.0106355382619974,0.0196231021591516,2
435,88,11,0.00738536659800107,0.00962844281681544,2
436,88,11,0.00253299763485161,0.00743114366369116,2
437,88,11,0.00488288700694285,0.0076752880140383,2
438,88,11,0.0286411841000992,0.00753795681696803,2
439,88,11,0.00189211871519036,0.0100099183642329,2
423,89,11,0.00570687418936446,0.00796520943007553,2
424,89,11,0.0219424734874495,0.00712596322575723,2
425,89,11,0.0303654535744259,0.00727855344472419,2
426,89,11,0.00164797436484321,0.00755321583886473,2
427,89,11,0.00230411230640116,0.00814831769283589,2
428,89,11,0.00273136491950866,0.0140535591668574,2
429,89,11,0.0124818799114977,0.0072632944228275,2
430,89,11,0.00633249408712902,0.00737010757610437,2
431,89,11,0.00196841382467384,0.0111543450064851,2
432,89,11,0.00837720302128634,0.0157778286411841,2
433,89,11,0.00283817807278553,0.0146334019989319,2
434,89,11,0.00201419089036393,0.00695811398489357,2
435,89,11,0.00160219729915312,0.00875867856870375,2
436,89,11,0.002563515678645,0.0105745021744106,2
437,89,11,0.00230411230640116,0.0161898222323949,2
438,89,11,0.00578316929884794,0.00781261921110857,2
439,89,11,0.0727550164034485,0.00718699931334401,2
424,90,11,0.00170901045243,0.00856031128404669,2
425,90,11,0.00251773861295491,0.0112764171816587,2
426,90,11,0.025284199282826,0.00865186541542687,2
427,90,11,0.00221255817502098,0.0076600289921416,2
428,90,11,0.00199893186846723,0.0148622873273823,2
429,90,11,0.01538109407187,0.0102235446707866,2
430,90,11,0.0216678110933089,0.0101625085831998,2
431,90,11,0.00251773861295491,0.0128786144808118,2
432,90,11,0.017944609750515,0.00733958953231098,2
433,90,11,0.00195315480277714,0.00776684214541848,2
434,90,11,0.00201419089036393,0.0194705119401846,2
435,90,11,0.00178530556191348,0.0125276569771878,2
436,90,11,0.00204470893415732,0.00711070420386053,2
437,90,11,0.0016937514305333,0.00714122224765393,2
438,90,11,0.00190737773708705,0.00798046845197223,2
425,91,11,0.00177004654001678,0.00729381246662089,2
426,91,11,0.0219882505531395,0.00802624551766232,2
427,91,11,0.0140993362325475,0.0108033875028611,2
428,91,11,0.00219729915312428,0.0132295719844358,2
429,91,11,0.00216678110933089,0.00950637064164187,2
430,91,11,0.00733958953231098,0.0100862134737163,2
431,91,11,0.00311284046692607,0.00827038986800946,2
432,91,11,0.0021210040436408,0.00813305867093919,2
433,91,11,0.0112001220721752,0.0126497291523613,2
434,91,11,0.00570687418936446,0.0156862745098039,2
435,91,11,0.00758373388265812,0.0081025406271458,2
436,91,11,0.0222781719691768,0.0081025406271458,2
437,91,11,0.0072632944228275,0.00778210116731518,2
438,91,11,0.00250247959105821,0.00752269779507134,2
426,92,11,0.00221255817502098,0.0104371709773404,2
427,92,11,0.00198367284657053,0.0153505760280766,2
428,92,11,0.00889600976577401,0.0115053025101091,2
429,92,11,0.00192263675898375,0.0106660563057908,2
430,92,11,0.00189211871519036,0.00761425192645151,2
431,92,11,0.00151064316777295,0.00753795681696803,2
432,92,11,0.00167849240863661,0.0107118333714809,2
433,92,11,0.0016937514305333,0.00762951094834821,2
434,92,11,0.00187685969329366,0.0133669031815061,2
435,92,11,0.00175478751812009,0.0104829480430304,2
436,92,11,0.00170901045243,0.00935378042267491,2
437,92,11,0.0533607995727474,0.00772106507972839,2
438,92,11,0.00189211871519036,0.0125429159990845,2
428,93,11,0.00581368734264134,0.00752269779507134,2
429,93,11,0.0326848249027237,0.0122835126268406,2
430,93,11,0.0421454184786755,0.00802624551766232,2
431,93,11,0.0167696650644694,0.0080872816052491,2
432,93,11,0.0237888151369497,0.00720225833524071,2
433,93,11,0.0119172961013199,0.00868238345922026,2
434,93,11,0.0390783550774395,0.0141298542763409,2
435,93,11,0.00180056458381018,0.0107881284809644,2
436,93,11,0.00152590218966964,0.00804150453955901,2
437,93,11,0.00157167925535973,0.00733958953231098,2
430,94,11,0.00239566643778134,0.0137483787289235,2
431,94,11,0.00166323338673991,0.0118867780575265,2
432,94,11,0.00152590218966964,0.0142824444953079,2
433,94,11,0.0113984893568322,0.0109712367437247,2
434,94,11,0.029404135194934,0.00755321583886473,2
435,94,11,0.00199893186846723,0.00892652780956741,2
436,94,11,0.00186160067139696,0.00885023270008392,2
434,95,11,0.00222781719691768,0.0080872816052491,2
435,95,11,0.00248722056916152,0.00831616693369955,2
436,95,11,0.0488899061570153,0.00732433051041428,2
427,79,12,0.00161745632104982,0.00776684214541848,2
428,79,12,0.00198367284657053,0.00730907148851759,2
429,79,12,0.00146486610208286,0.00674448767833982,2
430,79,12,0.00149538414587625,0.00727855344472419,2
431,79,12,0.00160219729915312,0.00764476997024491,2
432,79,12,0.0194705119401846,0.00729381246662089,2
426,80,12,0.00308232242313268,0.0108033875028611,2
427,80,12,0.0142519264515145,0.0072480354009308,2
428,80,12,0.0229800869764248,0.00772106507972839,2
429,80,12,0.00157167925535973,0.0153658350499733,2
430,80,12,0.00180056458381018,0.00781261921110857,2
431,80,12,0.00163271534294652,0.00733958953231098,2
432,80,12,0.00199893186846723,0.00697337300679027,2
433,80,12,0.00198367284657053,0.0120241092545968,2
434,80,12,0.000900282291905089,0.0188754100862135,2
435,80,12,0.0173495078965438,0.00881971465629053,2
425,81,12,0.00180056458381018,0.00999465934233616,2
426,81,12,0.036392767223621,0.00823987182421607,2
427,81,12,0.00164797436484321,0.0158693827725643,2
428,81,12,0.00137331197070268,0.0119478141451133,2
429,81,12,0.0016937514305333,0.0162203402761883,2
430,81,12,0.00219729915312428,0.0121766994735637,2
431,81,12,0.00180056458381018,0.00819409475852598,2
432,81,12,0.00187685969329366,0.014724956130312,2
433,81,12,0.0501716639963378,0.00732433051041428,2
434,81,12,0.00173952849622339,0.0081177996490425,2
435,81,12,0.00196841382467384,0.00775158312352178,2
436,81,12,0.00743114366369116,0.0128328374151217,2
425,82,12,0.0012970168612192,0.00764476997024491,2
426,82,12,0.00183108262760357,0.0293888761730373,2
427,82,12,0.00163271534294652,0.0120088502327001,2
428,82,12,0.00186160067139696,0.0176699473563745,2
429,82,12,0.00137331197070268,0.0150453955901427,2
430,82,12,0.00114442664225223,0.00791943236438544,2
431,82,12,0.00149538414587625,0.00753795681696803,2
432,82,12,0.00218204013122759,0.00775158312352178,2
433,82,12,0.00161745632104982,0.013824673838407,2
434,82,12,0.00148012512397955,0.0138094148165103,2
435,82,12,0.00125123979552911,0.00729381246662089,2
436,82,12,0.0012817578393225,0.0224612802319371,2
437,82,12,0.0467689021133745,0.00955214770733196,2
424,83,12,0.00920119020370794,0.0167544060425727,2
425,83,12,0.00476081483176928,0.00801098649576562,2
426,83,12,0.00550850690470741,0.00791943236438544,2
427,83,12,0.00784313725490196,0.00729381246662089,2
428,83,12,0.0446784161135271,0.00756847486076143,2
429,83,12,0.016235599298085,0.00793469138628214,2
430,83,12,0.00152590218966964,0.00793469138628214,2
431,83,12,0.0140535591668574,0.00732433051041428,2
432,83,12,0.00976577401388571,0.0154421301594568,2
433,83,12,0.0607766842145418,0.00764476997024491,2
434,83,12,0.00196841382467384,0.00814831769283589,2
435,83,12,0.0331883726253147,0.0173037308308537,2
436,83,12,0.0609140154116121,0.0149233234149691,2
437,83,12,0.00480659189745937,0.00781261921110857,2
424,84,12,0.0362706950484474,0.00721751735713741,2
425,84,12,0.0226901655603876,0.0101930266269932,2
426,84,12,0.00202944991226062,0.00801098649576562,2
427,84,12,0.00219729915312428,0.00776684214541848,2
428,84,12,0.00120546272983902,0.00746166170748455,2
429,84,12,0.00178530556191348,0.00758373388265812,2
430,84,12,0.00152590218966964,0.0185091935606928,2
431,84,12,0.00193789578088045,0.00959792477302205,2
432,84,12,0.00148012512397955,0.00798046845197223,2
433,84,12,0.000885023270008392,0.00875867856870375,2
434,84,12,0.00183108262760357,0.00743114366369116,2
435,84,12,0.0537270160982681,0.00785839627679866,2
436,84,12,0.00486762798504616,0.00790417334248875,2
437,84,12,0.00164797436484321,0.0100862134737163,2
438,84,12,0.00140383001449607,0.0107118333714809,2
423,85,12,0.00181582360570687,0.0130922407873655,2
424,85,12,0.00161745632104982,0.00814831769283589,2
425,85,12,0.00183108262760357,0.00794995040817884,2
426,85,12,0.0191348134584573,0.00677500572213321,2
427,85,12,0.0127412832837415,0.0130312046997787,2
428,85,12,0.00192263675898375,0.0098115510795758,2
429,85,12,0.0194399938963912,0.00999465934233616,2
430,85,12,0.0854657816433967,0.0281834134431983,2
431,85,12,0.00566109712367437,0.00704966811627375,2
432,85,12,0.00225833524071107,0.0132448310063325,2
433,85,12,0.00195315480277714,0.014877546349279,2
434,85,12,0.00163271534294652,0.0176089112687877,2
435,85,12,0.00122072175173571,0.0104371709773404,2
436,85,12,0.00166323338673991,0.00744640268558785,2
437,85,12,0.00196841382467384,0.00735484855420768,2
438,85,12,0.00201419089036393,0.0187075608453498,2
423,86,12,0.00134279392690929,0.00878919661249714,2
424,86,12,0.00144960708018616,0.0103150988021668,2
425,86,12,0.00201419089036393,0.022369726100557,2
426,86,12,0.00314335851071946,0.00883497367818723,2
427,86,12,0.0419928282597086,0.00787365529869535,2
428,86,12,0.00141908903639277,0.00720225833524071,2
429,86,12,0.00155642023346304,0.00721751735713741,2
430,86,12,0.00192263675898375,0.00770580605783169,2
431,86,12,0.00216678110933089,0.007690547035935,2
432,86,12,0.017944609750515,0.010452429999237,2
433,86,12,0.0072327763790341,0.00775158312352178,2
434,86,12,0.00138857099259937,0.00711070420386053,2
435,86,12,0.00225833524071107,0.00727855344472419,2
436,86,12,0.0121461814297704,0.00740062561989776,2
437,86,12,0.00143434805828946,0.00793469138628214,2
438,86,12,0.0588845654993515,0.00831616693369955,2
439,86,12,0.00195315480277714,0.00990310521095598,2
423,87,12,0.0021362630655375,0.0179140917067216,2
424,87,12,0.00221255817502098,0.00773632410162509,2
425,87,12,0.00134279392690929,0.00744640268558785,2
426,87,12,0.00119020370794232,0.00756847486076143,2
427,87,12,0.00196841382467384,0.0098115510795758,2
428,87,12,0.00227359426260777,0.00947585259784848,2
429,87,12,0.0016937514305333,0.00978103303578241,2
430,87,12,0.00146486610208286,0.0193484397650111,2
431,87,12,0.00216678110933089,0.0151369497215229,2
432,87,12,0.00216678110933089,0.00833142595559625,2
433,87,12,0.00233463035019455,0.00833142595559625,2
434,87,12,0.0156404974441138,0.00813305867093919,2
435,87,12,0.00193789578088045,0.0151369497215229,2
436,87,12,0.00181582360570687,0.0128938735027085,2
437,87,12,0.0089570458533608,0.0072327763790341,2
438,87,12,0.0259098191805905,0.00714122224765393,2
439,87,12,0.00180056458381018,0.00759899290455482,2
423,88,12,0.00120546272983902,0.00798046845197223,2
424,88,12,0.00398260471503777,0.0110780498970016,2
425,88,12,0.0224917982757305,0.0118410009918364,2
426,88,12,0.0051117723353933,0.0211337453269245,2
427,88,12,0.00151064316777295,0.00933852140077821,2
428,88,12,0.00138857099259937,0.00758373388265812,2
429,88,12,0.00201419089036393,0.0323338673990997,2
430,88,12,0.00209048599984741,0.0136873426413367,2
431,88,12,0.00202944991226062,0.0100709544518196,2
432,88,12,0.00100709544518196,0.00814831769283589,2
433,88,12,0.0341496910048066,0.00729381246662089,2
434,88,12,0.0123445487144274,0.0141908903639277,2
435,88,12,0.127016098268101,0.00740062561989776,2
436,88,12,0.0107881284809644,0.00773632410162509,2
437,88,12,0.00140383001449607,0.0121766994735637,2
438,88,12,0.00144960708018616,0.020859082932784,2
439,88,12,0.0245975432974746,0.0136415655756466,2
423,89,12,0.0108644235904479,0.0131380178530556,2
424,89,12,0.00190737773708705,0.0150759136339361,2
425,89,12,0.00177004654001678,0.00804150453955901,2
426,89,12,0.00125123979552911,0.00750743877317464,2
427,89,12,0.00180056458381018,0.00778210116731518,2
428,89,12,0.0303959716182193,0.014175631342031,2
429,89,12,0.00163271534294652,0.007690547035935,2
430,89,12,0.044083314259556,0.00761425192645151,2
431,89,12,0.00183108262760357,0.00750743877317464,2
432,89,12,0.00227359426260777,0.00743114366369116,2
433,89,12,0.00547798886091402,0.0114137483787289,2
434,89,12,0.0414740215152209,0.0170443274586099,2
435,89,12,0.00190737773708705,0.0107423514152743,2
436,89,12,0.00178530556191348,0.0142366674296178,2
437,89,12,0.00198367284657053,0.00750743877317464,2
438,89,12,0.00155642023346304,0.00840772106507973,2
439,89,12,0.00137331197070268,0.00823987182421607,2
424,90,12,0.00204470893415732,0.0170290684367132,2
425,90,12,0.00224307621881437,0.00755321583886473,2
426,90,12,0.00173952849622339,0.00750743877317464,2
427,90,12,0.00154116121156634,0.0130312046997787,2
428,90,12,0.00199893186846723,0.0076752880140383,2
429,90,12,0.00186160067139696,0.00740062561989776,2
430,90,12,0.0021515220874342,0.0119935912108034,2
431,90,12,0.00201419089036393,0.0101472495613031,2
432,90,12,0.00163271534294652,0.00840772106507973,2
433,90,12,0.00209048599984741,0.00776684214541848,2
434,90,12,0.00210574502174411,0.00737010757610437,2
435,90,12,0.0164034485389487,0.0201266498817426,2
436,90,12,0.00195315480277714,0.00721751735713741,2
437,90,12,0.00152590218966964,0.00759899290455482,2
438,90,12,0.0021362630655375,0.00857557030594339,2
439,90,12,0.00195315480277714,0.0072327763790341,2
425,91,12,0.00276188296330205,0.0161593041886015,2
426,91,12,0.00241092545967803,0.00863660639353018,2
427,91,12,0.00195315480277714,0.0072327763790341,2
428,91,12,0.0438696879530022,0.00782787823300526,2
429,91,12,0.0218966964217594,0.00959792477302205,2
430,91,12,0.0235141527428092,0.0121766994735637,2
431,91,12,0.00227359426260777,0.0288853284504463,2
432,91,12,0.00195315480277714,0.00773632410162509,2
433,91,12,0.0438086518654154,0.0152437628747997,2
434,91,12,0.00144960708018616,0.00735484855420768,2
435,91,12,0.00205996795605402,0.00888075074387732,2
436,91,12,0.00683604180972,0.0076600289921416,2
437,91,12,0.0290074006256199,0.00755321583886473,2
438,91,12,0.0111390859845884,0.00773632410162509,2
426,92,12,0.00205996795605402,0.0174563210498207,2
427,92,12,0.00148012512397955,0.0118410009918364,2
428,92,12,0.00157167925535973,0.00965896086060884,2
429,92,12,0.00163271534294652,0.00781261921110857,2
430,92,12,0.00192263675898375,0.00866712443732357,2
431,92,12,0.00178530556191348,0.00817883573662928,2
432,92,12,0.0276798657206073,0.00921644922560464,2
433,92,12,0.00288395513847562,0.00828564888990616,2
434,92,12,0.00184634164950027,0.011108567940795,2
435,92,12,0.0012664988174258,0.00762951094834821,2
436,92,12,0.00463874265659571,0.0170901045243,2
437,92,12,0.00155642023346304,0.00761425192645151,2
438,92,12,0.0016937514305333,0.0184634164950027,2
427,93,12,0.0021362630655375,0.00805676356145571,2
428,93,12,0.00178530556191348,0.00813305867093919,2
429,93,12,0.00154116121156634,0.00717174029144732,2
430,93,12,0.00904859998474098,0.00727855344472419,2
431,93,12,0.0233310444800488,0.00798046845197223,2
432,93,12,0.0133974212252995,0.00791943236438544,2
433,93,12,0.00166323338673991,0.00779736018921187,2
434,93,12,0.00193789578088045,0.00715648126955062,2
435,93,12,0.00563057907988098,0.00709544518196384,2
436,93,12,0.00856031128404669,0.00819409475852598,2
437,93,12,0.00227359426260777,0.011108567940795,2
430,94,12,0.0344548714427405,0.0105134660868238,2
431,94,12,0.0292362859540703,0.0117036697947662,2
432,94,12,0.0051117723353933,0.011810482948043,2
433,94,12,0.0186312657358663,0.0123750667582208,2
434,94,12,0.00198367284657053,0.0104829480430304,2
435,94,12,0.00177004654001678,0.0102693217364767,2
436,94,12,0.00192263675898375,0.00747692072938125,2
433,95,12,0.00166323338673991,0.00744640268558785,2
434,95,12,0.00123598077363241,0.00711070420386053,2
435,95,12,0.00144960708018616,0.00750743877317464,2
436,95,12,0.00160219729915312,0.0102693217364767,2
429,79,13,0.00177004654001678,0.00782787823300526,2
430,79,13,0.0112916762035554,0.0191653315022507,2
431,79,13,0.0170595864805066,0.0076600289921416,2
432,79,13,0.00154116121156634,0.00770580605783169,2
426,80,13,0.00183108262760357,0.0252231631952392,2
427,80,13,0.00984206912336919,0.0131074998092622,2
428,80,13,0.0348973830777447,0.0102998397802701,2
429,80,13,0.0081177996490425,0.0230258640421149,2
430,80,13,0.044281681544213,0.00967421988250553,2
431,80,13,0.00164797436484321,0.0076752880140383,2
432,80,13,0.00570687418936446,0.00770580605783169,2
433,80,13,0.0312046997787442,0.0173037308308537,2
434,80,13,0.0197604333562219,0.00758373388265812,2
425,81,13,0.0247501335164416,0.00866712443732357,2
426,81,13,0.0465400167849241,0.00785839627679866,2
427,81,13,0.0788891432059205,0.00988784618905928,2
428,81,13,0.00193789578088045,0.013015945677882,2
429,81,13,0.0016937514305333,0.017441062027924,2
430,81,13,0.00181582360570687,0.0158236057068742,2
431,81,13,0.00192263675898375,0.0103150988021668,2
432,81,13,0.00180056458381018,0.00878919661249714,2
433,81,13,0.00187685969329366,0.0163118944075685,2
434,81,13,0.0143282215609979,0.00759899290455482,2
435,81,13,0.00228885328450446,0.00741588464179446,2
436,81,13,0.046341649500267,0.034531166552224,2
425,82,13,0.0042572671091783,0.00865186541542687,2
426,82,13,0.00175478751812009,0.00802624551766232,2
427,82,13,0.00149538414587625,0.0114137483787289,2
428,82,13,0.00224307621881437,0.0076600289921416,2
429,82,13,0.00181582360570687,0.010452429999237,2
430,82,13,0.00144960708018616,0.00871290150301366,2
431,82,13,0.00204470893415732,0.0171663996337835,2
432,82,13,0.00205996795605402,0.017288471808957,2
433,82,13,0.00190737773708705,0.00747692072938125,2
434,82,13,0.00173952849622339,0.00773632410162509,2
435,82,13,0.00860608834973678,0.0192416266117342,2
436,82,13,0.00164797436484321,0.00796520943007553,2
424,83,13,0.00207522697795071,0.0156252384222171,2
425,83,13,0.00221255817502098,0.00668345159075303,2
426,83,13,0.0243228809033341,0.00733958953231098,2
427,83,13,0.0151216906996262,0.0237888151369497,2
428,83,13,0.00170901045243,0.009399557488365,2
429,83,13,0.00167849240863661,0.0105439841306172,2
430,83,13,0.00556954299229419,0.00744640268558785,2
431,83,13,0.0481879911497673,0.00779736018921187,2
432,83,13,0.00219729915312428,0.00793469138628214,2
433,83,13,0.00148012512397955,0.00752269779507134,2
434,83,13,0.00186160067139696,0.00909437705043107,2
435,83,13,0.00154116121156634,0.0130312046997787,2
436,83,13,0.00141908903639277,0.0233310444800488,2
437,83,13,0.00170901045243,0.00791943236438544,2
424,84,13,0.00167849240863661,0.0224002441443503,2
425,84,13,0.0227359426260777,0.00862134737163348,2
426,84,13,0.0016937514305333,0.00727855344472419,2
427,84,13,0.0144655527580682,0.00700389105058366,2
428,84,13,0.00241092545967803,0.0133821622034028,2
429,84,13,0.00317387655451286,0.00917067215991455,2
430,84,13,0.042069123369192,0.0110780498970016,2
431,84,13,0.00219729915312428,0.0167544060425727,2
432,84,13,0.00146486610208286,0.0131837949187457,2
433,84,13,0.00132753490501259,0.020157167925536,2
434,84,13,0.00201419089036393,0.00950637064164187,2
435,84,13,0.00247196154726482,0.00743114366369116,2
436,84,13,0.00227359426260777,0.00711070420386053,2
437,84,13,0.00164797436484321,0.00778210116731518,2
438,84,13,0.00120546272983902,0.00804150453955901,2
423,85,13,0.00245670252536812,0.00849927519645991,2
424,85,13,0.00292973220416571,0.00820935378042268,2
425,85,13,0.0017242694743267,0.013519493400473,2
426,85,13,0.00161745632104982,0.00923170824750134,2
427,85,13,0.00167849240863661,0.0203097581445029,2
428,85,13,0.00218204013122759,0.0130464637216754,2
429,85,13,0.00245670252536812,0.0164492256046387,2
430,85,13,0.00178530556191348,0.0177309834439612,2
431,85,13,0.00140383001449607,0.00791943236438544,2
432,85,13,0.00193789578088045,0.00814831769283589,2
433,85,13,0.00236514839398795,0.00898756389715419,2
434,85,13,0.00706492713817044,0.00759899290455482,2
435,85,13,0.00419623102159152,0.0106965743495842,2
436,85,13,0.00167849240863661,0.0111238269626917,2
437,85,13,0.00227359426260777,0.0276340886549172,2
438,85,13,0.00564583810177768,0.0164187075608454,2
423,86,13,0.0137178606851301,0.00804150453955901,2
424,86,13,0.0154726482032502,0.0085297932402533,2
425,86,13,0.00221255817502098,0.0076600289921416,2
426,86,13,0.0540779736018921,0.0136873426413367,2
427,86,13,0.00184634164950027,0.0108949416342412,2
428,86,13,0.000869764248111696,0.0127870603494316,2
429,86,13,0.00186160067139696,0.0114290074006256,2
430,86,13,0.00219729915312428,0.007690547035935,2
431,86,13,0.00180056458381018,0.00993362325474937,2
432,86,13,0.00186160067139696,0.00762951094834821,2
433,86,13,0.0012970168612192,0.00775158312352178,2
434,86,13,0.00158693827725643,0.00799572747386892,2
435,86,13,0.00234988937209125,0.00849927519645991,2
436,86,13,0.00222781719691768,0.0136873426413367,2
437,86,13,0.00119020370794232,0.0151674677653162,2
438,86,13,0.00132753490501259,0.0119172961013199,2
439,86,13,0.0373693446250095,0.0123292896925307,2
423,87,13,0.0525520714122225,0.00749217975127794,2
424,87,13,0.00234988937209125,0.0081177996490425,2
425,87,13,0.0017242694743267,0.0127412832837415,2
426,87,13,0.00177004654001678,0.00845349813076982,2
427,87,13,0.021713588158999,0.00793469138628214,2
428,87,13,0.00238040741588464,0.00762951094834821,2
429,87,13,0.00221255817502098,0.00701915007248035,2
430,87,13,0.00683604180972,0.00727855344472419,2
431,87,13,0.00358587014572366,0.0107118333714809,2
432,87,13,0.00210574502174411,0.0110017547875181,2
433,87,13,0.00170901045243,0.0110933089188983,2
434,87,13,0.00183108262760357,0.0214847028305486,2
435,87,13,0.00201419089036393,0.00749217975127794,2
436,87,13,0.00216678110933089,0.00784313725490196,2
437,87,13,0.00451667048142214,0.00737010757610437,2
438,87,13,0.00195315480277714,0.00859082932784009,2
439,87,13,0.00189211871519036,0.00910963607232776,2
422,88,13,0.00230411230640116,0.010452429999237,2
423,88,13,0.0336614023041123,0.0130769817654688,2
424,88,13,0.0299229419394217,0.00857557030594339,2
425,88,13,0.00216678110933089,0.0110322728313115,2
426,88,13,0.00210574502174411,0.00901808194094758,2
427,88,13,0.00367742427710384,0.0076600289921416,2
428,88,13,0.00497444113832303,0.0110170138094148,2
429,88,13,0.00158693827725643,0.00738536659800107,2
430,88,13,0.00199893186846723,0.00738536659800107,2
431,88,13,0.0234988937209125,0.00846875715266651,2
432,88,13,0.00177004654001678,0.00988784618905928,2
433,88,13,0.00178530556191348,0.00776684214541848,2
434,88,13,0.00219729915312428,0.00756847486076143,2
435,88,13,0.0342717631799802,0.010955977721828,2
436,88,13,0.0316472114137484,0.0298619058518349,2
437,88,13,0.00189211871519036,0.0149538414587625,2
438,88,13,0.0021515220874342,0.00799572747386892,2
439,88,13,0.00183108262760357,0.0113374532692454,2
422,89,13,0.00245670252536812,0.00717174029144732,2
423,89,13,0.00164797436484321,0.00721751735713741,2
424,89,13,0.00189211871519036,0.00836194399938964,2
425,89,13,0.0286106660563058,0.0116426337071794,2
426,89,13,0.039658197909514,0.00932326237888151,2
427,89,13,0.00230411230640116,0.0068207827878233,2
428,89,13,0.00166323338673991,0.00758373388265812,2
429,89,13,0.00187685969329366,0.00794995040817884,2
430,89,13,0.00190737773708705,0.0076600289921416,2
431,89,13,0.00248722056916152,0.00743114366369116,2
432,89,13,0.00221255817502098,0.0216067750057221,2
433,89,13,0.00204470893415732,0.00802624551766232,2
434,89,13,0.00158693827725643,0.0108644235904479,2
435,89,13,0.00192263675898375,0.0229800869764248,2
436,89,13,0.00265506981002518,0.0100099183642329,2
437,89,13,0.00219729915312428,0.00971999694819562,2
438,89,13,0.00198367284657053,0.00807202258335241,2
439,89,13,0.00196841382467384,0.00881971465629053,2
423,90,13,0.0751659418631266,0.00865186541542687,2
424,90,13,0.00285343709468223,0.0129396505683986,2
425,90,13,0.00175478751812009,0.00843823910887312,2
426,90,13,0.00209048599984741,0.00825513084611276,2
427,90,13,0.010101472495613,0.00764476997024491,2
428,90,13,0.00242618448157473,0.0196688792248417,2
429,90,13,0.00198367284657053,0.0243533989471275,2
430,90,13,0.00178530556191348,0.00772106507972839,2
431,90,13,0.00210574502174411,0.00776684214541848,2
432,90,13,0.0021515220874342,0.00793469138628214,2
433,90,13,0.00781261921110857,0.00816357671473259,2
434,90,13,0.00190737773708705,0.0120698863202869,2
435,90,13,0.00164797436484321,0.00961318379491875,2
436,90,13,0.00143434805828946,0.0112458991378653,2
437,90,13,0.0176241702906844,0.00796520943007553,2
438,90,13,0.00204470893415732,0.00698863202868696,2
424,91,13,0.00224307621881437,0.0124055848020142,2
425,91,13,0.0217898832684825,0.00776684214541848,2
426,91,13,0.0639047837033646,0.00758373388265812,2
427,91,13,0.00202944991226062,0.0181887541008621,2
428,91,13,0.0017242694743267,0.00970473792629892,2
429,91,13,0.00173952849622339,0.00773632410162509,2
430,91,13,0.00207522697795071,0.0072632944228275,2
431,91,13,0.0406347753109026,0.00955214770733196,2
432,91,13,0.042374303807126,0.00857557030594339,2
433,91,13,0.00163271534294652,0.0188754100862135,2
434,91,13,0.00173952849622339,0.0150606546120394,2
435,91,13,0.00207522697795071,0.0080872816052491,2
436,91,13,0.0016937514305333,0.00738536659800107,2
437,91,13,0.0128786144808118,0.00796520943007553,2
438,91,13,0.0527962157625696,0.00746166170748455,2
425,92,13,0.01879911497673,0.0227054245822843,2
426,92,13,0.00119020370794232,0.00978103303578241,2
427,92,13,0.00195315480277714,0.00881971465629053,2
428,92,13,0.00193789578088045,0.00669871061264973,2
429,92,13,0.00187685969329366,0.00735484855420768,2
430,92,13,0.00183108262760357,0.00790417334248875,2
431,92,13,0.0021362630655375,0.00828564888990616,2
432,92,13,0.007690547035935,0.00715648126955062,2
433,92,13,0.00198367284657053,0.00950637064164187,2
434,92,13,0.00207522697795071,0.00920119020370794,2
435,92,13,0.00180056458381018,0.0109712367437247,2
436,92,13,0.0021210040436408,0.0093690394445716,2
437,92,13,0.00218204013122759,0.00704966811627375,2
438,92,13,0.00154116121156634,0.00837720302128634,2
426,93,13,0.00186160067139696,0.00790417334248875,2
427,93,13,0.00227359426260777,0.0110780498970016,2
428,93,13,0.0021210040436408,0.0278629739833677,2
429,93,13,0.00190737773708705,0.00712596322575723,2
430,93,13,0.00196841382467384,0.00755321583886473,2
431,93,13,0.013519493400473,0.0175326161593042,2
432,93,13,0.00198367284657053,0.00929274433508812,2
433,93,13,0.00222781719691768,0.00762951094834821,2
434,93,13,0.00187685969329366,0.00746166170748455,2
435,93,13,0.00184634164950027,0.00743114366369116,2
436,93,13,0.0154116121156634,0.010406652933547,2
437,93,13,0.00184634164950027,0.00793469138628214,2
429,94,13,0.00204470893415732,0.0143892576485847,2
430,94,13,0.00189211871519036,0.00785839627679866,2
431,94,13,0.0021362630655375,0.00747692072938125,2
432,94,13,0.00183108262760357,0.00740062561989776,2
433,94,13,0.00581368734264134,0.00772106507972839,2
434,94,13,0.0426337071793698,0.00970473792629892,2
435,94,13,0.00216678110933089,0.00953688868543526,2
436,94,13,0.00193789578088045,0.00743114366369116,2
432,95,13,0.0169985503929198,0.0103913939116503,2
433,95,13,0.00935378042267491,0.00759899290455482,2
434,95,13,0.0384985122453651,0.00740062561989776,2
435,95,13,0.0101472495613031,0.00796520943007553,2
436,95,13,0.00196841382467384,0.0139162279697871,2
430,79,14,0.00210574502174411,0.00773632410162509,2
431,79,14,0.00253299763485161,0.00791943236438544,2
432,79,14,0.00227359426260777,0.0136415655756466,2
427,80,14,0.00155642023346304,0.0115815976195926,2
428,80,14,0.0541084916456855,0.00923170824750134,2
429,80,14,0.0497138933394369,0.00874341954680705,2
430,80,14,0.0255741206988632,0.0208133058670939,2
431,80,14,0.00349431601434348,0.0112306401159686,2
432,80,14,0.012817578393225,0.00900282291905089,2
433,80,14,0.0025482566567483,0.0142214084077211,2
434,80,14,0.0158236057068742,0.0147554741741054,2
426,81,14,0.0138399328603037,0.0134737163347829,2
427,81,14,0.00233463035019455,0.0153658350499733,2
428,81,14,0.00160219729915312,0.0100251773861295,2
429,81,14,0.00103761348897536,0.0377508201724269,2
430,81,14,0.00167849240863661,0.0118410009918364,2
431,81,14,0.016388189517052,0.010605020218204,2
432,81,14,0.0468909742885481,0.0125429159990845,2
433,81,14,0.0120546272983902,0.00889600976577401,2
434,81,14,0.00178530556191348,0.0139467460135805,2
435,81,14,0.00227359426260777,0.00854505226215,2
436,81,14,0.00231937132829786,0.0146639200427253,2
425,82,14,0.00735484855420768,0.00854505226215,2
426,82,14,0.0245212481879911,0.0106355382619974,2
427,82,14,0.0344396124208438,0.00743114366369116,2
428,82,14,0.00167849240863661,0.00697337300679027,2
429,82,14,0.00218204013122759,0.0160219729915312,2
430,82,14,0.00189211871519036,0.00802624551766232,2
431,82,14,0.0390630960555428,0.00804150453955901,2
432,82,14,0.0129854276340887,0.00729381246662089,2
433,82,14,0.012817578393225,0.00770580605783169,2
434,82,14,0.0016937514305333,0.00830090791180285,2
435,82,14,0.00160219729915312,0.00837720302128634,2
436,82,14,0.00192263675898375,0.0146334019989319,2
437,82,14,0.00175478751812009,0.00854505226215,2
424,83,14,0.00233463035019455,0.0157015335317006,2
425,83,14,0.00193789578088045,0.0208133058670939,2
426,83,14,0.00202944991226062,0.0169069962615396,2
427,83,14,0.00132753490501259,0.00863660639353018,2
428,83,14,0.00209048599984741,0.00807202258335241,2
429,83,14,0.0951552605477989,0.014724956130312,2
430,83,14,0.0315709163042649,0.0132600900282292,2
431,83,14,0.0194705119401846,0.0135347524223697,2
432,83,14,0.0310521095597772,0.00807202258335241,2
433,83,14,0.00192263675898375,0.0124513618677043,2
434,83,14,0.11949340047303,0.0125123979552911,2
435,83,14,0.00250247959105821,0.0080872816052491,2
436,83,14,0.00675974670023652,0.013870450904097,2
437,83,14,0.00613412680247196,0.00846875715266651,2
424,84,14,0.0021362630655375,0.0165560387579156,2
425,84,14,0.00161745632104982,0.0124361028458076,2
426,84,14,0.0050965133134966,0.00807202258335241,2
427,84,14,0.0179598687724117,0.00935378042267491,2
428,84,14,0.0320592050049592,0.0111696040283818,2
429,84,14,0.00265506981002518,0.00758373388265812,2
430,84,14,0.0106660563057908,0.00782787823300526,2
431,84,14,0.00238040741588464,0.007690547035935,2
432,84,14,0.00247196154726482,0.00729381246662089,2
433,84,14,0.00730907148851759,0.0150453955901427,2
434,84,14,0.0012817578393225,0.0110627908751049,2
435,84,14,0.020004577706569,0.0202792401007095,2
436,84,14,0.0304264896620127,0.0117494468604562,2
437,84,14,0.00271610589761196,0.0147707331960021,2
438,84,14,0.0012970168612192,0.0209811551079576,2
423,85,14,0.00157167925535973,0.00712596322575723,2
424,85,14,0.0021362630655375,0.00920119020370794,2
425,85,14,0.00219729915312428,0.00901808194094758,2
426,85,14,0.00721751735713741,0.0110627908751049,2
427,85,14,0.0133516441596094,0.00828564888990616,2
428,85,14,0.00178530556191348,0.00727855344472419,2
429,85,14,0.00192263675898375,0.00814831769283589,2
430,85,14,0.00164797436484321,0.00828564888990616,2
431,85,14,0.00177004654001678,0.0140688181887541,2
432,85,14,0.00143434805828946,0.00764476997024491,2
433,85,14,0.0749675745784695,0.00794995040817884,2
434,85,14,0.00202944991226062,0.00813305867093919,2
435,85,14,0.00209048599984741,0.0142824444953079,2
436,85,14,0.00163271534294652,0.0143587396047913,2
437,85,14,0.00187685969329366,0.00779736018921187,2
438,85,14,0.00173952849622339,0.0106355382619974,2
422,86,14,0.00230411230640116,0.010406652933547,2
423,86,14,0.00202944991226062,0.0101319905394064,2
424,86,14,0.00585946440833143,0.0169985503929198,2
425,86,14,0.00270084687571527,0.0081177996490425,2
426,86,14,0.00204470893415732,0.0120241092545968,2
427,86,14,0.0101167315175097,0.0098115510795758,2
428,86,14,0.0183871213855192,0.00804150453955901,2
429,86,14,0.00164797436484321,0.00796520943007553,2
430,86,14,0.0232852674143587,0.00749217975127794,2
431,86,14,0.010406652933547,0.00772106507972839,2
432,86,14,0.00253299763485161,0.00770580605783169,2
433,86,14,0.00222781719691768,0.0309300373846036,2
434,86,14,0.106218051422904,0.00820935378042268,2
435,86,14,0.00941481651026169,0.0106202792401007,2
436,86,14,0.038803692683299,0.0135042343785763,2
437,86,14,0.0299687190051118,0.00827038986800946,2
438,86,14,0.00195315480277714,0.00801098649576562,2
439,86,14,0.00155642023346304,0.00782787823300526,2
422,87,14,0.0514534218356603,0.0105287251087205,2
423,87,14,0.00222781719691768,0.0101930266269932,2
424,87,14,0.00242618448157473,0.0182803082322423,2
425,87,14,0.00238040741588464,0.00836194399938964,2
426,87,14,0.00225833524071107,0.00817883573662928,2
427,87,14,0.0021210040436408,0.0167238879987793,2
428,87,14,0.0085297932402533,0.02050812542916,2
429,87,14,0.00813305867093919,0.00756847486076143,2
430,87,14,0.00247196154726482,0.00782787823300526,2
431,87,14,0.00238040741588464,0.00756847486076143,2
432,87,14,0.0021515220874342,0.00965896086060884,2
433,87,14,0.00231937132829786,0.0208438239108873,2
434,87,14,0.069062333104448,0.0141145952544442,2
435,87,14,0.0532539864194705,0.0201266498817426,2
436,87,14,0.00288395513847562,0.00793469138628214,2
437,87,14,0.0636911573968109,0.0201419089036393,2
438,87,14,0.0137483787289235,0.00773632410162509,2
439,87,14,0.0017242694743267,0.0136263065537499,2
421,88,14,0.0440222781719692,0.00764476997024491,2
422,88,14,0.00205996795605402,0.00798046845197223,2
423,88,14,0.00192263675898375,0.00801098649576562,2
424,88,14,0.00183108262760357,0.00721751735713741,2
425,88,14,0.00151064316777295,0.00743114366369116,2
426,88,14,0.00201419089036393,0.00740062561989776,2
427,88,14,0.0623025864042115,0.0111238269626917,2
428,88,14,0.0211795223926146,0.011261158159762,2
429,88,14,0.0174563210498207,0.00775158312352178,2
430,88,14,0.0238345922026398,0.0076600289921416,2
431,88,14,0.00985732814526589,0.00799572747386892,2
432,88,14,0.00167849240863661,0.00788891432059205,2
433,88,14,0.00210574502174411,0.00782787823300526,2
434,88,14,0.00210574502174411,0.00909437705043107,2
435,88,14,0.047196154726482,0.00819409475852598,2
436,88,14,0.00831616693369955,0.0076752880140383,2
437,88,14,0.047348744945449,0.00778210116731518,2
438,88,14,0.00205996795605402,0.00746166170748455,2
422,89,14,0.00199893186846723,0.0102235446707866,2
423,89,14,0.0021362630655375,0.0182497901884489,2
424,89,14,0.035538261997406,0.00825513084611276,2
425,89,14,0.0414587624933242,0.00788891432059205,2
426,89,14,0.0175173571374075,0.0145113298237583,2
427,89,14,0.00224307621881437,0.00927748531319142,2
428,89,14,0.0191348134584573,0.00865186541542687,2
429,89,14,0.00183108262760357,0.0103761348897536,2
430,89,14,0.00175478751812009,0.00755321583886473,2
431,89,14,0.0112306401159686,0.0202334630350195,2
432,89,14,0.0882734416723888,0.0110170138094148,2
433,89,14,0.0131227588311589,0.00988784618905928,2
434,89,14,0.00175478751812009,0.00762951094834821,2
435,89,14,0.00184634164950027,0.00828564888990616,2
436,89,14,0.00228885328450446,0.0164187075608454,2
437,89,14,0.00242618448157473,0.0248569466697185,2
438,89,14,0.00259403372243839,0.0142061493858244,2
423,90,14,0.00244144350347143,0.0191805905241474,2
424,90,14,0.00230411230640116,0.00802624551766232,2
425,90,14,0.00234988937209125,0.00740062561989776,2
426,90,14,0.00216678110933089,0.0167849240863661,2
427,90,14,0.00247196154726482,0.00785839627679866,2
428,90,14,0.00216678110933089,0.00750743877317464,2
429,90,14,0.00183108262760357,0.0123903257801175,2
430,90,14,0.00210574502174411,0.0126497291523613,2
431,90,14,0.00205996795605402,0.0103608758678569,2
432,90,14,0.00245670252536812,0.00785839627679866,2
433,90,14,0.0325017166399634,0.00817883573662928,2
434,90,14,0.00712596322575723,0.0102845807583734,2
435,90,14,0.00709544518196384,0.00738536659800107,2
436,90,14,0.00221255817502098,0.0292973220416571,2
437,90,14,0.0308384832532235,0.00752269779507134,2
438,90,14,0.0025787747005417,0.00785839627679866,2
423,91,14,0.00198367284657053,0.00747692072938125,2
424,91,14,0.00123598077363241,0.0142061493858244,2
425,91,14,0.0059510185397116,0.0285191119249256,2
426,91,14,0.0386968795300221,0.00817883573662928,2
427,91,14,0.00863660639353018,0.0103761348897536,2
428,91,14,0.0179293507286183,0.014679179064622,2
429,91,14,0.010406652933547,0.0076600289921416,2
430,91,14,0.0184634164950027,0.012970168612192,2
431,91,14,0.0016937514305333,0.00788891432059205,2
432,91,14,0.00228885328450446,0.0110475318532082,2
433,91,14,0.00218204013122759,0.00759899290455482,2
434,91,14,0.00177004654001678,0.00848401617456321,2
435,91,14,0.0021210040436408,0.0101777676050965,2
436,91,14,0.00201419089036393,0.00788891432059205,2
437,91,14,0.0021515220874342,0.00779736018921187,2
438,91,14,0.0046692607003891,0.00878919661249714,2
425,92,14,0.0117341878385595,0.00823987182421607,2
426,92,14,0.00201419089036393,0.00881971465629053,2
427,92,14,0.00155642023346304,0.00752269779507134,2
428,92,14,0.00221255817502098,0.00776684214541848,2
429,92,14,0.00198367284657053,0.00744640268558785,2
430,92,14,0.00251773861295491,0.00781261921110857,2
431,92,14,0.00204470893415732,0.0137026016632334,2
432,92,14,0.00158693827725643,0.00816357671473259,2
433,92,14,0.00218204013122759,0.00759899290455482,2
434,92,14,0.00445563439383535,0.00709544518196384,2
435,92,14,0.00224307621881437,0.0202792401007095,2
436,92,14,0.00242618448157473,0.00761425192645151,2
437,92,14,0.00202944991226062,0.013168535896849,2
426,93,14,0.00230411230640116,0.0128023193713283,2
427,93,14,0.00187685969329366,0.0112458991378653,2
428,93,14,0.00404364080262455,0.010452429999237,2
429,93,14,0.00323491264209964,0.00750743877317464,2
430,93,14,0.00137331197070268,0.00814831769283589,2
431,93,14,0.0025787747005417,0.00791943236438544,2
432,93,14,0.00976577401388571,0.0130617227435721,2
433,93,14,0.00216678110933089,0.0157473105973907,2
434,93,14,0.00167849240863661,0.00944533455405508,2
435,93,14,0.00187685969329366,0.010605020218204,2
436,93,14,0.00479133287556268,0.00946059357595178,2
437,93,14,0.0275730525673304,0.00747692072938125,2
428,94,14,0.00187685969329366,0.00764476997024491,2
429,94,14,0.034683756771191,0.00782787823300526,2
430,94,14,0.00230411230640116,0.0175631342030976,2
431,94,14,0.00195315480277714,0.0105287251087205,2
432,94,14,0.00202944991226062,0.00817883573662928,2
433,94,14,0.00199893186846723,0.00796520943007553,2
434,94,14,0.00198367284657053,0.0105287251087205,2
435,94,14,0.00186160067139696,0.0236209658960861,2
436,94,14,0.00184634164950027,0.00776684214541848,2
431,95,14,0.00195315480277714,0.00886549172198062,2
432,95,14,0.00219729915312428,0.0219577325093461,2
433,95,14,0.0021362630655375,0.0130006866559854,2
434,95,14,0.00718699931334401,0.0329442282749676,2
435,95,14,0.00950637064164187,0.0134584573128862,2
434,96,14,0.00144960708018616,0.0224917982757305,2
435,96,14,0.00210574502174411,0.0161898222323949,2
428,80,15,0.093842984664683,0.00761425192645151,2
429,80,15,0.0219272144655528,0.0072327763790341,2
430,80,15,0.0149385824368658,0.00749217975127794,2
431,80,15,0.00659189745937285,0.00743114366369116,2
432,80,15,0.00186160067139696,0.00814831769283589,2
433,80,15,0.014373998626688,0.00796520943007553,2
434,80,15,0.00817883573662928,0.00743114366369116,2
426,81,15,0.00216678110933089,0.0106965743495842,2
427,81,15,0.00239566643778134,0.0072480354009308,2
428,81,15,0.00242618448157473,0.0072327763790341,2
429,81,15,0.0017242694743267,0.0111390859845884,2
430,81,15,0.00157167925535973,0.00781261921110857,2
431,81,15,0.00199893186846723,0.0128023193713283,2
432,81,15,0.00198367284657053,0.00759899290455482,2
433,81,15,0.0123750667582208,0.00718699931334401,2
434,81,15,0.00180056458381018,0.0072632944228275,2
435,81,15,0.00170901045243,0.00746166170748455,2
436,81,15,0.0357518883039597,0.0194247348744945,2
425,82,15,0.0021362630655375,0.00753795681696803,2
426,82,15,0.00231937132829786,0.0218204013122759,2
427,82,15,0.00221255817502098,0.00784313725490196,2
428,82,15,0.121828030823224,0.0124208438239109,2
429,82,15,0.00483710994125277,0.00836194399938964,2
430,82,15,0.0245212481879911,0.0149691004806592,2
431,82,15,0.00283817807278553,0.0115510795757992,2
432,82,15,0.0348363469901579,0.00813305867093919,2
433,82,15,0.028198672465095,0.00804150453955901,2
434,82,15,0.00502021820401312,0.0124971389333944,2
435,82,15,0.00210574502174411,0.00946059357595178,2
436,82,15,0.00236514839398795,0.0171663996337835,2
437,82,15,0.00160219729915312,0.0106813153276875,2
425,83,15,0.00120546272983902,0.00730907148851759,2
426,83,15,0.00210574502174411,0.0191195544365606,2
427,83,15,0.00515754940108339,0.00874341954680705,2
428,83,15,0.0256046387426566,0.014373998626688,2
429,83,15,0.00158693827725643,0.0166628519111925,2
430,83,15,0.0318303196765087,0.00772106507972839,2
431,83,15,0.0411688410772869,0.00927748531319142,2
432,83,15,0.0108644235904479,0.00782787823300526,2
433,83,15,0.0100709544518196,0.00776684214541848,2
434,83,15,0.00227359426260777,0.0131074998092622,2
435,83,15,0.00592050049591821,0.00752269779507134,2
436,83,15,0.0194247348744945,0.0076600289921416,2
437,83,15,0.0025482566567483,0.0081025406271458,2
424,84,15,0.00205996795605402,0.00711070420386053,2
425,84,15,0.00230411230640116,0.00790417334248875,2
426,84,15,0.00196841382467384,0.0121919584954604,2
427,84,15,0.048355840390631,0.0127412832837415,2
428,84,15,0.00173952849622339,0.0130312046997787,2
429,84,15,0.00210574502174411,0.00737010757610437,2
430,84,15,0.00196841382467384,0.0178225375753414,2
431,84,15,0.00170901045243,0.00761425192645151,2
432,84,15,0.00137331197070268,0.0108796826123445,2
433,84,15,0.00189211871519036,0.0102693217364767,2
434,84,15,0.00314335851071946,0.00825513084611276,2
435,84,15,0.00738536659800107,0.0256198977645533,2
436,84,15,0.00338750286106661,0.0251010910200656,2
437,84,15,0.014175631342031,0.00874341954680705,2
438,84,15,0.00625619897764553,0.00706492713817044,2
423,85,15,0.00205996795605402,0.00721751735713741,2
424,85,15,0.0370031280994888,0.0105592431525139,2
425,85,15,0.0258793011367971,0.0108491645685512,2
426,85,15,0.0252384222171359,0.0120393682764935,2
427,85,15,0.0422369726100557,0.00801098649576562,2
428,85,15,0.00219729915312428,0.00762951094834821,2
429,85,15,0.00630197604333562,0.00759899290455482,2
430,85,15,0.00433356221866178,0.0141145952544442,2
431,85,15,0.0152895399404898,0.0093842984664683,2
432,85,15,0.00158693827725643,0.00775158312352178,2
433,85,15,0.00531013962005035,0.0137636377508202,2
434,85,15,0.0261692225528344,0.0109864957656214,2
435,85,15,0.00193789578088045,0.0147859922178988,2
436,85,15,0.00917067215991455,0.00788891432059205,2
437,85,15,0.00236514839398795,0.00732433051041428,2
438,85,15,0.00195315480277714,0.00790417334248875,2
423,86,15,0.0308995193408103,0.00741588464179446,2
424,86,15,0.00683604180972,0.00733958953231098,2
425,86,15,0.00244144350347143,0.00750743877317464,2
426,86,15,0.00202944991226062,0.00883497367818723,2
427,86,15,0.00180056458381018,0.0119020370794232,2
428,86,15,0.00227359426260777,0.00741588464179446,2
429,86,15,0.0313420309758144,0.00717174029144732,2
430,86,15,0.0142671854734112,0.0174563210498207,2
431,86,15,0.00148012512397955,0.00819409475852598,2
432,86,15,0.00155642023346304,0.015030136568246,2
433,86,15,0.00202944991226062,0.0100251773861295,2
434,86,15,0.00228885328450446,0.00782787823300526,2
435,86,15,0.0017242694743267,0.00741588464179446,2
436,86,15,0.00187685969329366,0.0195773250934615,2
437,86,15,0.00398260471503777,0.0089417868314641,2
438,86,15,0.046997787441825,0.00796520943007553,2
422,87,15,0.0160067139696345,0.0323796444647898,2
423,87,15,0.0110627908751049,0.00793469138628214,2
424,87,15,0.00166323338673991,0.0148470283054856,2
425,87,15,0.00202944991226062,0.00932326237888151,2
426,87,15,0.00915541313801785,0.00837720302128634,2
427,87,15,0.0135042343785763,0.0243228809033341,2
428,87,15,0.0034027618829633,0.00830090791180285,2
429,87,15,0.00205996795605402,0.00885023270008392,2
430,87,15,0.00994888227664607,0.0108491645685512,2
431,87,15,0.0189059281300069,0.00779736018921187,2
432,87,15,0.0025787747005417,0.0122835126268406,2
433,87,15,0.0392004272526131,0.00814831769283589,2
434,87,15,0.00251773861295491,0.00943007553215839,2
435,87,15,0.0424658579385061,0.00759899290455482,2
436,87,15,0.0110780498970016,0.0105745021744106,2
437,87,15,0.0021362630655375,0.0124971389333944,2
438,87,15,0.0290684367132067,0.00714122224765393,2
422,88,15,0.00679026474402991,0.00776684214541848,2
423,88,15,0.0187380788891432,0.00782787823300526,2
424,88,15,0.0118715190356298,0.00747692072938125,2
425,88,15,0.0177157244220645,0.0171358815899901,2
426,88,15,0.00155642023346304,0.00740062561989776,2
427,88,15,0.00494392309452964,0.00720225833524071,2
428,88,15,0.0021210040436408,0.00737010757610437,2
429,88,15,0.00210574502174411,0.0129854276340887,2
430,88,15,0.0219729915312428,0.0333867399099718,2
431,88,15,0.0158083466849775,0.00720225833524071,2
432,88,15,0.0231784542610819,0.00941481651026169,2
433,88,15,0.00161745632104982,0.017441062027924,2
434,88,15,0.00184634164950027,0.00825513084611276,2
435,88,15,0.0012664988174258,0.0207980468451972,2
436,88,15,0.0290074006256199,0.00755321583886473,2
437,88,15,0.0108491645685512,0.00758373388265812,2
438,88,15,0.00184634164950027,0.0221255817502098,2
422,89,15,0.00202944991226062,0.00762951094834821,2
423,89,15,0.014175631342031,0.00779736018921187,2
424,89,15,0.00233463035019455,0.00787365529869535,2
425,89,15,0.00221255817502098,0.00738536659800107,2
426,89,15,0.00251773861295491,0.00764476997024491,2
427,89,15,0.00225833524071107,0.0160372320134279,2
428,89,15,0.109040970473793,0.00910963607232776,2
429,89,15,0.0483405813687343,0.00968947890440223,2
430,89,15,0.00521858548867018,0.00834668497749294,2
431,89,15,0.00514229037918669,0.0142977035172045,2
432,89,15,0.00170901045243,0.00755321583886473,2
433,89,15,0.0240939955748837,0.007690547035935,2
434,89,15,0.0124361028458076,0.00781261921110857,2
435,89,15,0.00204470893415732,0.00872816052491035,2
436,89,15,0.0388189517051957,0.00839246204318303,2
437,89,15,0.00379949645227741,0.00747692072938125,2
438,89,15,0.00167849240863661,0.00814831769283589,2
422,90,15,0.00379949645227741,0.0124513618677043,2
423,90,15,0.00198367284657053,0.0109712367437247,2
424,90,15,0.00196841382467384,0.00738536659800107,2
425,90,15,0.00151064316777295,0.0209658960860609,2
426,90,15,0.00166323338673991,0.00773632410162509,2
427,90,15,0.00207522697795071,0.00822461280231937,2
428,90,15,0.00198367284657053,0.0164187075608454,2
429,90,15,0.00175478751812009,0.0193331807431144,2
430,90,15,0.00132753490501259,0.00802624551766232,2
431,90,15,0.0132906080720226,0.00805676356145571,2
432,90,15,0.0318455786984054,0.0124055848020142,2
433,90,15,0.00204470893415732,0.0114747844663157,2
434,90,15,0.0123445487144274,0.00793469138628214,2
435,90,15,0.0046692607003891,0.0085145342183566,2
436,90,15,0.00230411230640116,0.0183718623636225,2
437,90,15,0.0159456778820478,0.0140077821011673,2
438,90,15,0.0224002441443503,0.00727855344472419,2
423,91,15,0.00151064316777295,0.0115663385976959,2
424,91,15,0.0279087510490578,0.0218814373998627,2
425,91,15,0.0272373540856031,0.0313725490196078,2
426,91,15,0.00184634164950027,0.0179598687724117,2
427,91,15,0.00167849240863661,0.021210040436408,2
428,91,15,0.00189211871519036,0.0132600900282292,2
429,91,15,0.00218204013122759,0.0127718013275349,2
430,91,15,0.00274662394140536,0.0106507972838941,2
431,91,15,0.00161745632104982,0.0183260852979324,2
432,91,15,0.00131227588311589,0.00743114366369116,2
433,91,15,0.00175478751812009,0.031815060654612,2
434,91,15,0.00216678110933089,0.00891126878767071,2
435,91,15,0.00282291905088884,0.0178988326848249,2
436,91,15,0.0177767605096513,0.0308537422751202,2
437,91,15,0.00173952849622339,0.00839246204318303,2
424,92,15,0.00102235446707866,0.00859082932784009,2
425,92,15,0.00181582360570687,0.00721751735713741,2
426,92,15,0.00230411230640116,0.00758373388265812,2
427,92,15,0.00413519493400473,0.00790417334248875,2
428,92,15,0.0012664988174258,0.00886549172198062,2
429,92,15,0.00117494468604562,0.00791943236438544,2
430,92,15,0.0150759136339361,0.00755321583886473,2
431,92,15,0.0596169985503929,0.00714122224765393,2
432,92,15,0.00207522697795071,0.00746166170748455,2
433,92,15,0.0242313267719539,0.00784313725490196,2
434,92,15,0.00602731364919509,0.00799572747386892,2
435,92,15,0.00219729915312428,0.00772106507972839,2
436,92,15,0.00209048599984741,0.00741588464179446,2
437,92,15,0.00209048599984741,0.00755321583886473,2
426,93,15,0.00151064316777295,0.0208438239108873,2
427,93,15,0.0351720454718853,0.0127565423056382,2
428,93,15,0.0127565423056382,0.00781261921110857,2
429,93,15,0.00219729915312428,0.00828564888990616,2
430,93,15,0.00192263675898375,0.007690547035935,2
431,93,15,0.00111390859845884,0.0164034485389487,2
432,93,15,0.00210574502174411,0.0147402151522087,2
433,93,15,0.00210574502174411,0.0125429159990845,2
434,93,15,0.00184634164950027,0.0145418478675517,2
435,93,15,0.00849927519645991,0.0115510795757992,2
436,93,15,0.0176546883344778,0.017288471808957,2
428,94,15,0.00202944991226062,0.00820935378042268,2
429,94,15,0.00170901045243,0.0076752880140383,2
430,94,15,0.0141451132982376,0.0137331197070268,2
431,94,15,0.00798046845197223,0.00759899290455482,2
432,94,15,0.00184634164950027,0.0143892576485847,2
433,94,15,0.00134279392690929,0.00843823910887312,2
434,94,15,0.0527046616311894,0.00915541313801785,2
435,94,15,0.0494697489890898,0.0111848630502785,2
430,95,15,0.031616693369955,0.0103456168459602,2
431,95,15,0.00170901045243,0.0081177996490425,2
432,95,15,0.00183108262760357,0.00788891432059205,2
433,95,15,0.0566872663462272,0.00744640268558785,2
434,95,15,0.0142519264515145,0.00991836423285267,2
433,96,15,0.0222018768596933,0.020004577706569,2
430,80,16,0.0442664225223163,0.00775158312352178,2
431,80,16,0.00619516289005875,0.00755321583886473,2
432,80,16,0.079667353322652,0.00752269779507134,2
433,80,16,0.00190737773708705,0.00799572747386892,2
434,80,16,0.00204470893415732,0.0103608758678569,2
429,81,16,0.00222781719691768,0.00717174029144732,2
430,81,16,0.0021210040436408,0.022369726100557,2
431,81,16,0.00177004654001678,0.0125886930647745,2
432,81,16,0.0359655146105135,0.00755321583886473,2
433,81,16,0.0258793011367971,0.00718699931334401,2
434,81,16,0.00445563439383535,0.00738536659800107,2
435,81,16,0.00209048599984741,0.00833142595559625,2
426,82,16,0.00973525597009232,0.011612115663386,2
427,82,16,0.0021515220874342,0.00778210116731518,2
428,82,16,0.00218204013122759,0.0166170748455024,2
429,82,16,0.00225833524071107,0.00761425192645151,2
430,82,16,0.00177004654001678,0.007690547035935,2
431,82,16,0.00234988937209125,0.00738536659800107,2
432,82,16,0.00231937132829786,0.00790417334248875,2
433,82,16,0.00288395513847562,0.00805676356145571,2
434,82,16,0.0138399328603037,0.00782787823300526,2
435,82,16,0.0309452964065003,0.00753795681696803,2
436,82,16,0.00863660639353018,0.00886549172198062,2
425,83,16,0.00997940032043946,0.00779736018921187,2
426,83,16,0.0113832303349355,0.00854505226215,2
427,83,16,0.00180056458381018,0.0122224765392538,2
428,83,16,0.00195315480277714,0.0160677500572213,2
429,83,16,0.00929274433508812,0.0127107652399481,2
430,83,16,0.00253299763485161,0.0104676890211337,2
431,83,16,0.00198367284657053,0.0134279392690929,2
432,83,16,0.0012664988174258,0.0128633554589151,2
433,83,16,0.00222781719691768,0.00712596322575723,2
434,83,16,0.014175631342031,0.00749217975127794,2
435,83,16,0.00700389105058366,0.0165712977798123,2
436,83,16,0.00163271534294652,0.0145723659113451,2
437,83,16,0.00160219729915312,0.0076600289921416,2
425,84,16,0.0258640421149004,0.00796520943007553,2
426,84,16,0.0175631342030976,0.00703440909437705,2
427,84,16,0.00248722056916152,0.00753795681696803,2
428,84,16,0.00236514839398795,0.0081177996490425,2
429,84,16,0.0103761348897536,0.00787365529869535,2
430,84,16,0.0803082322423133,0.0124055848020142,2
431,84,16,0.024124513618677,0.00756847486076143,2
432,84,16,0.00210574502174411,0.00872816052491035,2
433,84,16,0.00189211871519036,0.0125123979552911,2
434,84,16,0.0493476768139162,0.0121461814297704,2
435,84,16,0.0131990539406424,0.0126192111085679,2
436,84,16,0.00216678110933089,0.00715648126955062,2
437,84,16,0.00230411230640116,0.0142671854734112,2
438,84,16,0.00219729915312428,0.00904859998474098,2
424,85,16,0.0301518272678721,0.0160219729915312,2
425,85,16,0.00321965362020294,0.0117647058823529,2
426,85,16,0.00289921416037232,0.00842298008697642,2
427,85,16,0.00434882124055848,0.0224612802319371,2
428,85,16,0.00227359426260777,0.00762951094834821,2
429,85,16,0.0129549095902953,0.00770580605783169,2
430,85,16,0.0125886930647745,0.00833142595559625,2
431,85,16,0.0186160067139696,0.0141908903639277,2
432,85,16,0.00198367284657053,0.0155947203784237,2
433,85,16,0.0283817807278553,0.00848401617456321,2
434,85,16,0.00219729915312428,0.0176241702906844,2
435,85,16,0.00482185091935607,0.020004577706569,2
436,85,16,0.00460822461280232,0.00935378042267491,2
437,85,16,0.0390936140993362,0.0161440451667048,2
438,85,16,0.0025787747005417,0.0100709544518196,2
423,86,16,0.00666819256885634,0.00787365529869535,2
424,86,16,0.0025482566567483,0.00790417334248875,2
425,86,16,0.00205996795605402,0.00753795681696803,2
426,86,16,0.0859388113221942,0.00762951094834821,2
427,86,16,0.0183108262760357,0.00781261921110857,2
428,86,16,0.00198367284657053,0.0277866788738842,2
429,86,16,0.00207522697795071,0.00802624551766232,2
430,86,16,0.00189211871519036,0.00727855344472419,2
431,86,16,0.0158236057068742,0.00788891432059205,2
432,86,16,0.00857557030594339,0.0128023193713283,2
433,86,16,0.00891126878767071,0.00827038986800946,2
434,86,16,0.0161440451667048,0.00762951094834821,2
435,86,16,0.00990310521095598,0.0127565423056382,2
436,86,16,0.063736934462501,0.0122224765392538,2
437,86,16,0.0146334019989319,0.00793469138628214,2
438,86,16,0.00187685969329366,0.0193942168307012,2
422,87,16,0.00233463035019455,0.0111543450064851,2
423,87,16,0.00244144350347143,0.0210879682612345,2
424,87,16,0.00193789578088045,0.0081025406271458,2
425,87,16,0.00984206912336919,0.00825513084611276,2
426,87,16,0.00186160067139696,0.00819409475852598,2
427,87,16,0.00184634164950027,0.00822461280231937,2
428,87,16,0.00312809948882277,0.00857557030594339,2
429,87,16,0.0135957885099565,0.00830090791180285,2
430,87,16,0.0253452353704128,0.0115815976195926,2
431,87,16,0.0263675898374914,0.0137941557946136,2
432,87,16,0.0170901045243,0.0103761348897536,2
433,87,16,0.00210574502174411,0.0109407186999313,2
434,87,16,0.00675974670023652,0.007690547035935,2
435,87,16,0.00776684214541848,0.00747692072938125,2
436,87,16,0.00198367284657053,0.00794995040817884,2
437,87,16,0.0025787747005417,0.0250400549324788,2
438,87,16,0.0021515220874342,0.0204470893415732,2
423,88,16,0.00566109712367437,0.00787365529869535,2
424,88,16,0.0154116121156634,0.00732433051041428,2
425,88,16,0.0406958113984894,0.0130922407873655,2
426,88,16,0.00202944991226062,0.0160524910353246,2
427,88,16,0.0111238269626917,0.00840772106507973,2
428,88,16,0.0252079041733425,0.00799572747386892,2
429,88,16,0.00201419089036393,0.00718699931334401,2
430,88,16,0.00245670252536812,0.00755321583886473,2
431,88,16,0.00205996795605402,0.0121766994735637,2
432,88,16,0.00167849240863661,0.0113679713130388,2
433,88,16,0.00189211871519036,0.0076600289921416,2
434,88,16,0.00190737773708705,0.00721751735713741,2
435,88,16,0.00245670252536812,0.00756847486076143,2
436,88,16,0.00228885328450446,0.00794995040817884,2
437,88,16,0.0494544899671931,0.0194094758525978,2
438,88,16,0.00238040741588464,0.00735484855420768,2
424,89,16,0.00207522697795071,0.00801098649576562,2
425,89,16,0.0401312275883116,0.00778210116731518,2
426,89,16,0.0290226596475166,0.0072632944228275,2
427,89,16,0.0180209048599985,0.00877393759060044,2
428,89,16,0.00416571297779812,0.0125276569771878,2
429,89,16,0.00204470893415732,0.013321126115816,2
430,89,16,0.00161745632104982,0.0080872816052491,2
431,89,16,0.00209048599984741,0.00692759594110018,2
432,89,16,0.00274662394140536,0.00691233691920348,2
433,89,16,0.00244144350347143,0.00804150453955901,2
434,89,16,0.00192263675898375,0.0081025406271458,2
435,89,16,0.00273136491950866,0.00727855344472419,2
436,89,16,0.0616159304188602,0.00672922865644312,2
437,89,16,0.00418097199969482,0.0129243915465019,2
425,90,16,0.0121461814297704,0.010406652933547,2
426,90,16,0.00180056458381018,0.00839246204318303,2
427,90,16,0.00183108262760357,0.012817578393225,2
428,90,16,0.00151064316777295,0.0265659571221485,2
429,90,16,0.00204470893415732,0.0130922407873655,2
430,90,16,0.00201419089036393,0.00784313725490196,2
431,90,16,0.00218204013122759,0.00817883573662928,2
432,90,16,0.00193789578088045,0.0147096971084154,2
433,90,16,0.00189211871519036,0.00743114366369116,2
434,90,16,0.00218204013122759,0.0396124208438239,2
435,90,16,0.0648661020828565,0.0192263675898375,2
436,90,16,0.00721751735713741,0.00866712443732357,2
437,90,16,0.00209048599984741,0.00793469138628214,2
426,91,16,0.0196993972686351,0.00727855344472419,2
427,91,16,0.0166628519111925,0.0152742809185931,2
428,91,16,0.0449683375295644,0.00773632410162509,2
429,91,16,0.00560006103608759,0.00820935378042268,2
430,91,16,0.00248722056916152,0.00753795681696803,2
431,91,16,0.00260929274433509,0.00727855344472419,2
432,91,16,0.00192263675898375,0.00737010757610437,2
433,91,16,0.00236514839398795,0.0080872816052491,2
434,91,16,0.0389257648584726,0.00773632410162509,2
435,91,16,0.0248264286259251,0.00755321583886473,2
436,91,16,0.00199893186846723,0.0299687190051118,2
428,92,16,0.0599679560540169,0.00752269779507134,2
429,92,16,0.0204318303196765,0.00729381246662089,2
430,92,16,0.00181582360570687,0.00798046845197223,2
431,92,16,0.00222781719691768,0.00956740672922866,2
432,92,16,0.0306858930342565,0.00933852140077821,2
433,92,16,0.0199740596627756,0.0173189898527504,2
434,92,16,0.00160219729915312,0.0141908903639277,2
435,92,16,0.00181582360570687,0.012314030670634,2
436,92,16,0.00717174029144732,0.0131227588311589,2
430,93,16,0.033524071107042,0.0170595864805066,2
431,93,16,0.018997482261387,0.00784313725490196,2
432,93,16,0.00846875715266651,0.00741588464179446,2
433,93,16,0.0102388036926833,0.00781261921110857,2
434,93,16,0.00238040741588464,0.0125734340428779,2
435,93,16,0.0325322346837568,0.0151369497215229,2
433,94,16,0.00134279392690929,0.0175783932249943,2
434,94,16,0.0017242694743267,0.00802624551766232,2
435,94,16,0.00222781719691768,0.0080872816052491,2
