x,y,z,signal,cytoplasm.p
145,848,1,0.0771552807254663,1
145,849,1,0.0689504376705349,1
146,846,1,0.117081013013914,1
146,847,1,0.114117116125081,1
146,848,1,0.0931704562302152,1
146,849,1,0.0730417601431106,1
147,846,1,0.12389487435223,1
147,847,1,0.119323609099744,1
147,848,1,0.0942157320363983,1
147,849,1,0.0707417221056372,1
148,846,1,0.099485033801983,1
148,847,1,0.095892054701126,1
148,848,1,0.0807443425128327,1
149,845,1,0.0771094709187751,1
149,846,1,0.0805315557211609,1
149,847,1,0.0779160841010549,1
149,848,1,0.0702217556426325,1
150,844,1,0.0733932641566918,1
150,845,1,0.079301818773913,1
150,846,1,0.0806961367957497,1
150,847,1,0.0756877137331763,1
151,844,1,0.0793294855491623,1
151,845,1,0.0872676937263661,1
151,846,1,0.0872733241157869,1
151,847,1,0.0789280028448082,1
152,843,1,0.0738550938540394,1
152,844,1,0.087649080732309,1
152,845,1,0.0989903082549559,1
152,846,1,0.0933453397194887,1
152,847,1,0.080068324416234,1
153,842,1,0.067781796438278,1
153,843,1,0.0801675151064546,1
153,844,1,0.114589086513162,1
153,845,1,0.143007686463883,1
153,846,1,0.122053138034052,1
153,847,1,0.0861563566809051,1
154,842,1,0.0707913833382833,1
154,843,1,0.0886130932477782,1
154,844,1,0.141985243683733,1
154,845,1,0.184238189623274,1
154,846,1,0.150717881838875,1
154,847,1,0.0903789810327275,1
155,842,1,0.072279794750982,1
155,843,1,0.0866521064796247,1
155,844,1,0.121324913050016,1
155,845,1,0.147054762461298,1
155,846,1,0.116196814263372,1
155,847,1,0.0682670281903775,1
156,842,1,0.0763774843554239,1
156,843,1,0.0875914830464901,1
156,844,1,0.093194475231893,1
156,845,1,0.0893108003231987,1
156,846,1,0.0679280607779214,1
157,841,1,0.0682271123232501,1
157,842,1,0.078065097747873,1
157,843,1,0.0871998295645184,1
157,844,1,0.080243968607057,1
158,842,1,0.0727823189863344,1
158,843,1,0.0771557179791128,1
158,844,1,0.0684636545664567,1
163,841,1,0.0679349550100738,1
145,846,2,0.0844286537178252,1
145,847,2,0.0866618638246953,1
145,848,2,0.0781459177951644,1
146,845,2,0.0875161855726518,1
146,846,2,0.121979140341601,1
146,847,2,0.125868002396294,1
146,848,2,0.100651512725111,1
146,849,2,0.0727656674091114,1
147,845,2,0.0953145324807343,1
147,846,2,0.129260779224812,1
147,847,2,0.130808130033149,1
147,848,2,0.102276191541344,1
147,849,2,0.071446664830441,1
148,846,2,0.0975956128772325,1
148,847,2,0.0973262466616583,1
148,848,2,0.0831817141339642,1
149,845,2,0.0747939253512908,1
149,846,2,0.0779074588236444,1
149,847,2,0.076133149413668,1
149,848,2,0.0702956874475475,1
150,844,2,0.073916584894245,1
150,845,2,0.0787349823138687,1
150,846,2,0.0806341366245859,1
150,847,2,0.076905818535472,1
150,848,2,0.0686483193599047,1
151,844,2,0.0801718397247118,1
151,845,2,0.0894359087740826,1
151,846,2,0.0910743760546199,1
151,847,2,0.0822759162512398,1
151,848,2,0.0683532809644824,1
152,843,2,0.074005125762774,1
152,844,2,0.0873495080764702,1
152,845,2,0.105136764794531,1
152,846,2,0.102004004141283,1
152,847,2,0.0858308183461951,1
153,843,2,0.076190417661808,1
153,844,2,0.106249473498691,1
153,845,2,0.145900472732288,1
153,846,2,0.126862005720092,1
153,847,2,0.087564043882728,1
154,842,2,0.069480239345698,1
154,843,2,0.085708680824197,1
154,844,2,0.135881554144652,1
154,845,2,0.190658606536599,1
154,846,2,0.155354771076991,1
154,847,2,0.0901148678506872,1
155,842,2,0.0703561901747165,1
155,843,2,0.0816145850853428,1
155,844,2,0.108998732755076,1
155,845,2,0.137853723824559,1
155,846,2,0.104647483953869,1
156,842,2,0.0736629897588248,1
156,843,2,0.0834228924637789,1
156,844,2,0.0861523315514469,1
156,845,2,0.0828797815063894,1
157,842,2,0.0738627607672932,1
157,843,2,0.0818393334596457,1
157,844,2,0.0756652640528051,1
158,842,2,0.0694786460652874,1
158,843,2,0.0732154277078603,1
145,848,3,0.0808791903394593,1
145,849,3,0.068909791050738,1
146,846,3,0.116083020499313,1
146,847,3,0.129983541533155,1
146,848,3,0.10534344800448,1
146,849,3,0.075771666433305,1
147,846,3,0.123348127600821,1
147,847,3,0.134598484232082,1
147,848,3,0.108081686073062,1
147,849,3,0.0758962358043507,1
148,846,3,0.0926308672611016,1
148,847,3,0.0966923546595234,1
148,848,3,0.0847225241069316,1
149,845,3,0.0753998990075852,1
149,846,3,0.0757834962408645,1
149,847,3,0.074998428282783,1
149,848,3,0.0712054026437625,1
150,844,3,0.075982374772712,1
150,845,3,0.0794845907981515,1
150,846,3,0.0800591780283133,1
150,847,3,0.0776731447771022,1
150,848,3,0.0711201022440384,1
151,844,3,0.081845982110983,1
151,845,3,0.096828346533362,1
151,846,3,0.0982095768946835,1
151,847,3,0.0857826365882159,1
151,848,3,0.07032184479925,1
152,843,3,0.0741915455605841,1
152,844,3,0.0952414572137843,1
152,845,3,0.128384079673796,1
152,846,3,0.126780760398706,1
152,847,3,0.0956076481580672,1
152,848,3,0.0677661870820754,1
153,843,3,0.0744875063815073,1
153,844,3,0.10631948200034,1
153,845,3,0.15566498157497,1
153,846,3,0.143572330665918,1
153,847,3,0.093343201369464,1
154,842,3,0.069048598119287,1
154,843,3,0.0829840515266406,1
154,844,3,0.123825644521459,1
154,845,3,0.173221086848206,1
154,846,3,0.147239151725051,1
154,847,3,0.0847455787546767,1
155,842,3,0.0730125539954345,1
155,843,3,0.0813417627690284,1
155,844,3,0.0996873504652427,1
155,845,3,0.118816550603975,1
155,846,3,0.0909472909776627,1
156,841,3,0.072059742361047,1
156,842,3,0.0768332224506004,1
156,843,3,0.0815211924982704,1
156,844,3,0.0833106800005789,1
156,845,3,0.0798533573461056,1
157,841,3,0.0710931482521307,1
157,842,3,0.0747804603348889,1
157,843,3,0.0774398250333726,1
157,844,3,0.072735676600782,1
158,842,3,0.0705508938327062,1
158,843,3,0.0709990907999245,1
163,841,3,0.0686349621594705,1
145,848,4,0.0803454593712537,1
145,849,4,0.0701805639532215,1
146,847,4,0.119668440502884,1
146,848,4,0.101106364333443,1
146,849,4,0.076367810867217,1
147,847,4,0.124552408000156,1
147,848,4,0.103802434379129,1
147,849,4,0.0757311036703718,1
148,846,4,0.0862803210845769,1
148,847,4,0.0926804086982281,1
148,848,4,0.0826849999813119,1
149,845,4,0.0747133209359346,1
149,846,4,0.074513915303801,1
149,847,4,0.0756848985384659,1
149,848,4,0.0724428124940402,1
150,845,4,0.0781357291862233,1
150,846,4,0.0793381527550047,1
150,847,4,0.0792072402111966,1
150,848,4,0.0736081952881643,1
150,872,4,0.0777165167449698,1
151,844,4,0.0823995272581288,1
151,845,4,0.10737966036916,1
151,846,4,0.111921408005618,1
151,847,4,0.0941631358135223,1
151,848,4,0.0733359959085517,1
151,871,4,0.0677879898666408,1
151,872,4,0.0823252121075511,1
152,843,4,0.0727033917082525,1
152,844,4,0.104316069648923,1
152,845,4,0.16621435472335,1
152,846,4,0.17164720133228,1
152,847,4,0.117244485979947,1
152,848,4,0.0702237023198259,1
153,843,4,0.0738569207357132,1
153,844,4,0.113497066495234,1
153,845,4,0.186551489024766,1
153,846,4,0.186303069055792,1
153,847,4,0.114983980463938,1
154,842,4,0.0686004969884844,1
154,843,4,0.0794427462231587,1
154,844,4,0.11050368792903,1
154,845,4,0.15688127746492,1
154,846,4,0.144542434783559,1
154,847,4,0.0851601071911142,1
155,841,4,0.0684052003426727,1
155,842,4,0.0741996976456922,1
155,843,4,0.0801391235683118,1
155,844,4,0.091952471223439,1
155,845,4,0.10258186178913,1
155,846,4,0.0823806894126732,1
156,841,4,0.0775170392355244,1
156,842,4,0.0790881454953962,1
156,843,4,0.0789823121436143,1
156,844,4,0.0804919273632805,1
156,845,4,0.0773951353147896,1
157,841,4,0.0758841424466481,1
157,842,4,0.0767668497429715,1
157,843,4,0.0754291950019009,1
157,844,4,0.0713466116124793,1
158,841,4,0.0704221435980268,1
158,842,4,0.0734148572990979,1
158,843,4,0.0720244985191836,1
159,842,4,0.0685054811721215,1
162,841,4,0.0732365236988601,1
163,841,4,0.072209947973285,1
145,848,5,0.0755949380930298,1
145,849,5,0.0730437307794079,1
145,850,5,0.0707774870580108,1
146,848,5,0.0880387875370875,1
146,849,5,0.0763155380922439,1
146,850,5,0.0679513669962577,1
147,847,5,0.104328720055792,1
147,848,5,0.0909216966649023,1
147,849,5,0.0736359998282611,1
148,846,5,0.0813804926605119,1
148,847,5,0.0854609197305808,1
148,848,5,0.0785135223265785,1
149,846,5,0.0732229568562665,1
149,847,5,0.0757445686867737,1
149,848,5,0.0734657284664918,1
150,845,5,0.0754163589119768,1
150,846,5,0.0769087834745818,1
150,847,5,0.0777828175752869,1
150,848,5,0.0740041314599614,1
150,871,5,0.0684400428695455,1
151,844,5,0.0820034113930523,1
151,845,5,0.10851640005455,1
151,846,5,0.118680007670747,1
151,847,5,0.0971534835530814,1
151,848,5,0.0761481597922727,1
151,871,5,0.0717260938696608,1
151,872,5,0.0965351709582693,1
152,843,5,0.0723751699539036,1
152,844,5,0.105923737501374,1
152,845,5,0.182091226300733,1
152,846,5,0.202573265262644,1
152,847,5,0.134014241483042,1
152,848,5,0.0766887969721826,1
153,843,5,0.0736183060300177,1
153,844,5,0.11463047586518,1
153,845,5,0.202685849091955,1
153,846,5,0.221789856232918,1
153,847,5,0.137439411020057,1
153,848,5,0.0689751155475705,1
154,842,5,0.0684097106439853,1
154,843,5,0.0757388125120574,1
154,844,5,0.0965588305733883,1
154,845,5,0.140808576151664,1
154,846,5,0.143706825095762,1
154,847,5,0.0899308559428209,1
155,841,5,0.0688769491090424,1
155,842,5,0.073940532018611,1
155,843,5,0.0777996907742212,1
155,844,5,0.0846556123194646,1
155,845,5,0.0912878456807534,1
155,846,5,0.0781460016520281,1
156,841,5,0.079315553330234,1
156,842,5,0.0801628490709666,1
156,843,5,0.0779360899528264,1
156,844,5,0.0788753527139483,1
156,845,5,0.0763475115164225,1
157,841,5,0.0769803553077609,1
157,842,5,0.0773522006005685,1
157,843,5,0.0746815571539153,1
157,844,5,0.0718922802042121,1
158,841,5,0.0714491206385925,1
158,842,5,0.0736260508103592,1
158,843,5,0.072098610017378,1
159,842,5,0.069389637994232,1
161,841,5,0.0699106466782571,1
162,840,5,0.070765154109269,1
162,841,5,0.0769898011844806,1
162,842,5,0.0680590511888172,1
163,840,5,0.0693864753925148,1
163,841,5,0.0736413666675388,1
140,853,6,0.0722129428612748,1
145,848,6,0.0682263995399085,1
145,849,6,0.0714152185065486,1
145,850,6,0.0740184170756725,1
146,847,6,0.0804931133389244,1
146,848,6,0.0732364937499802,1
146,849,6,0.071516505618362,1
146,850,6,0.0700059739629709,1
147,847,6,0.0847305084783123,1
147,848,6,0.0755388797796376,1
148,846,6,0.0788589646868684,1
148,847,6,0.0774559075818776,1
148,848,6,0.0727843674897194,1
149,846,6,0.072231589033899,1
149,847,6,0.0741183564878905,1
149,848,6,0.0726419306169268,1
150,845,6,0.0726858117157526,1
150,846,6,0.075060967533785,1
150,847,6,0.0764805384511513,1
150,848,6,0.0741893772616795,1
151,844,6,0.0790959202246176,1
151,845,6,0.1019102401881,1
151,846,6,0.117804122729264,1
151,847,6,0.0974224065252332,1
151,848,6,0.0786754798792883,1
152,843,6,0.0721165973146445,1
152,844,6,0.0999270313510625,1
152,845,6,0.176594229191063,1
152,846,6,0.216134213916655,1
152,847,6,0.147686444236096,1
152,848,6,0.0861186091126823,1
153,843,6,0.0725473460644345,1
153,844,6,0.109522502725827,1
153,845,6,0.206189436776094,1
153,846,6,0.25162258239464,1
153,847,6,0.163813149369583,1
153,848,6,0.0825135126950187,1
154,842,6,0.0706633938051533,1
154,843,6,0.073626691716389,1
154,844,6,0.089807208997276,1
154,845,6,0.13916101639119,1
154,846,6,0.160534238182436,1
154,847,6,0.107091444328578,1
155,842,6,0.0752429429178183,1
155,843,6,0.0776503896181561,1
155,844,6,0.0844463654853966,1
155,845,6,0.0929485709688305,1
155,846,6,0.0855243454684278,1
156,841,6,0.0788760834666178,1
156,842,6,0.0814814143959905,1
156,843,6,0.0810828487125384,1
156,844,6,0.0853228733635812,1
156,845,6,0.0840595757015202,1
157,841,6,0.0764757825690235,1
157,842,6,0.0785572956094367,1
157,843,6,0.0778672913859259,1
157,844,6,0.0791954104036371,1
157,845,6,0.0729237495767624,1
158,841,6,0.0715688502706468,1
158,842,6,0.0746624078401088,1
158,843,6,0.0742984151436104,1
159,842,6,0.0706653524618986,1
159,843,6,0.0691904420042576,1
161,840,6,0.0684450802711442,1
161,841,6,0.0701895366376388,1
162,839,6,0.0684528849492455,1
162,840,6,0.0733215605484411,1
162,841,6,0.0759869329922324,1
162,842,6,0.0681480951985285,1
163,840,6,0.0707309464986501,1
163,841,6,0.0716312397772493,1
139,853,7,0.0704867732808456,1
139,854,7,0.0691541978698057,1
139,859,7,0.0691683936388771,1
140,853,7,0.0818612620295067,1
140,854,7,0.0790314163270943,1
140,858,7,0.0681794576655572,1
140,859,7,0.075010701333765,1
141,853,7,0.0753689258759952,1
141,854,7,0.0739399150716852,1
145,849,7,0.0709193129736535,1
145,850,7,0.0777956356958831,1
145,851,7,0.0694639531448097,1
146,848,7,0.0689225492735743,1
146,849,7,0.0707345164051339,1
146,850,7,0.0730463722706148,1
147,847,7,0.07508756812891,1
147,848,7,0.0714026998747514,1
148,846,7,0.0774474979364024,1
148,847,7,0.0743547849253535,1
148,848,7,0.0721232938841895,1
149,846,7,0.0742493289294584,1
149,847,7,0.0749189858839668,1
149,848,7,0.0735390912426888,1
150,845,7,0.0768506107702689,1
150,846,7,0.0794830514257248,1
150,847,7,0.0796731010277785,1
150,848,7,0.0763101592734143,1
151,844,7,0.0817739131263976,1
151,845,7,0.100882274834498,1
151,846,7,0.119303794920804,1
151,847,7,0.102920775293602,1
151,848,7,0.0839674649265074,1
152,844,7,0.09905631558625,1
152,845,7,0.165801922708506,1
152,846,7,0.216730579972278,1
152,847,7,0.159644397062921,1
152,848,7,0.0979951369248413,1
152,849,7,0.0694634679729553,1
153,843,7,0.0768885500113231,1
153,844,7,0.108577411912677,1
153,845,7,0.201300030562233,1
153,846,7,0.266082740177798,1
153,847,7,0.187540221345702,1
153,848,7,0.100541109174257,1
154,842,7,0.0746232406949788,1
154,843,7,0.0760930179146053,1
154,844,7,0.0912238868528442,1
154,845,7,0.142521005185996,1
154,846,7,0.179021717681828,1
154,847,7,0.128613811541714,1
154,848,7,0.0763732316144785,1
155,842,7,0.077505185468861,1
155,843,7,0.0798387422927157,1
155,844,7,0.0891009185728769,1
155,845,7,0.101110796767668,1
155,846,7,0.097762631790645,1
155,847,7,0.0721833054497282,1
156,841,7,0.0793232741514716,1
156,842,7,0.0818808785458396,1
156,843,7,0.0837360918599711,1
156,844,7,0.0941146306076402,1
156,845,7,0.097347366611762,1
156,846,7,0.0749092644775521,1
157,841,7,0.0768207157983552,1
157,842,7,0.0789208810011685,1
157,843,7,0.0799085171931009,1
157,844,7,0.0865823974667752,1
157,845,7,0.0852795073854896,1
158,841,7,0.0748403640844599,1
158,842,7,0.0772110635091634,1
158,843,7,0.0779478538728502,1
158,844,7,0.0745351131209924,1
159,841,7,0.0715902397606696,1
159,842,7,0.0740286476130455,1
159,843,7,0.0755618685398469,1
160,841,7,0.0700198043557076,1
160,842,7,0.0704268635414987,1
160,843,7,0.0684822049026652,1
161,840,7,0.0701948735280365,1
161,841,7,0.0714467067588728,1
161,842,7,0.069245847432068,1
162,840,7,0.0742796851141225,1
162,841,7,0.0755023601154906,1
162,842,7,0.071150027164832,1
163,840,7,0.0723308935298632,1
163,841,7,0.071338800944602,1
168,843,7,0.0690658786229879,1
139,854,8,0.0698264184484333,1
139,859,8,0.074807582040524,1
140,853,8,0.0802908565734245,1
140,854,8,0.0842114165226006,1
140,855,8,0.0712626229736947,1
140,858,8,0.0701757062449021,1
140,859,8,0.078331624809633,1
141,853,8,0.0772958727472572,1
141,854,8,0.0819848490772918,1
145,850,8,0.0734667407386323,1
145,851,8,0.0717340902205934,1
146,849,8,0.0679222926236532,1
146,850,8,0.0700545031279569,1
147,847,8,0.0684517588713614,1
147,848,8,0.06903195253184,1
148,847,8,0.0710832711115405,1
148,848,8,0.0713925172555862,1
149,846,8,0.0725467530766125,1
149,847,8,0.0742274602573572,1
149,848,8,0.0748436704408005,1
149,849,8,0.0686010480478745,1
150,845,8,0.0755129141007664,1
150,846,8,0.0797919621423157,1
150,847,8,0.0809793513733885,1
150,848,8,0.0787755810154577,1
150,849,8,0.0695866537057498,1
151,845,8,0.0978606664541015,1
151,846,8,0.11643192495012,1
151,847,8,0.104858503761627,1
151,848,8,0.0865123709957988,1
151,849,8,0.0718403248873659,1
152,844,8,0.0989454927510773,1
152,845,8,0.156871442252761,1
152,846,8,0.206906676510983,1
152,847,8,0.161165632447987,1
152,848,8,0.103055928598804,1
152,849,8,0.0791403823317134,1
153,843,8,0.0812034588416617,1
153,844,8,0.110041648589523,1
153,845,8,0.195049076390919,1
153,846,8,0.261530486474271,1
153,847,8,0.193968496845113,1
153,848,8,0.109905105656294,1
153,849,8,0.0778528680053672,1
154,843,8,0.0783361710496014,1
154,844,8,0.0933472804069061,1
154,845,8,0.142480538259478,1
154,846,8,0.181245697543914,1
154,847,8,0.136276280381701,1
154,848,8,0.085045918101841,1
155,842,8,0.0771145921772376,1
155,843,8,0.0811354629047423,1
155,844,8,0.0924204045025098,1
155,845,8,0.10689271554113,1
155,846,8,0.103061367315393,1
155,847,8,0.0793877660694429,1
156,841,8,0.0785552890344836,1
156,842,8,0.0789020251863851,1
156,843,8,0.0854420818851253,1
156,844,8,0.103304420445089,1
156,845,8,0.11295493187133,1
156,846,8,0.086460577402904,1
157,840,8,0.0695554889013285,1
157,841,8,0.0772434142892287,1
157,842,8,0.0787128441018484,1
157,843,8,0.0828739414748094,1
157,844,8,0.0954500871009264,1
157,845,8,0.100067042364583,1
157,846,8,0.0716662020996417,1
158,840,8,0.0696062103243229,1
158,841,8,0.079979196549659,1
158,842,8,0.0820211351401756,1
158,843,8,0.0835389623427097,1
158,844,8,0.0845064010100392,1
158,845,8,0.0750436391118763,1
159,840,8,0.0705371652661612,1
159,841,8,0.078268205061562,1
159,842,8,0.0797244214283709,1
159,843,8,0.0820459747411626,1
159,844,8,0.0765322242280784,1
160,840,8,0.0696966259927335,1
160,841,8,0.0732462391154989,1
160,842,8,0.0727389230593629,1
160,843,8,0.0720842285652512,1
161,839,8,0.0684678114709864,1
161,840,8,0.0699719340660794,1
161,841,8,0.0716232554058687,1
161,842,8,0.0703590952160666,1
162,840,8,0.0733519466819852,1
162,841,8,0.0746217672100879,1
162,842,8,0.0731946551647634,1
162,843,8,0.0680919350589447,1
163,840,8,0.0719873379490068,1
163,841,8,0.0708571570683142,1
167,843,8,0.0696689891663641,1
168,842,8,0.068210472725579,1
168,843,8,0.0776447891776153,1
139,859,9,0.0702444808526988,1
140,853,9,0.0690733418838583,1
140,854,9,0.0758073535185909,1
140,858,9,0.0681661483833307,1
140,859,9,0.0719219116259827,1
141,853,9,0.0690598169696966,1
141,854,9,0.0760055372364247,1
148,848,9,0.0692313162355418,1
149,846,9,0.0696675995383368,1
149,847,9,0.0719560413695139,1
149,848,9,0.0736937592380315,1
149,849,9,0.0708758032409384,1
150,846,9,0.079047277253888,1
150,847,9,0.0807220365870851,1
150,848,9,0.078499919545329,1
150,849,9,0.072656192273534,1
151,845,9,0.096679901915262,1
151,846,9,0.112861072081731,1
151,847,9,0.104605603440221,1
151,848,9,0.0868735964157947,1
151,849,9,0.0747701579202041,1
152,843,9,0.0830673753002914,1
152,844,9,0.0978381508861945,1
152,845,9,0.144315781660494,1
152,846,9,0.183098526927206,1
152,847,9,0.150901564309062,1
152,848,9,0.102701884920207,1
152,849,9,0.0833867022373107,1
153,842,9,0.0781381909841509,1
153,843,9,0.0854385239581935,1
153,844,9,0.109471984955216,1
153,845,9,0.177094028078345,1
153,846,9,0.227078061731494,1
153,847,9,0.178094476401097,1
153,848,9,0.109845136019187,1
153,849,9,0.0841297099884642,1
154,843,9,0.081236977628043,1
154,844,9,0.0941086528112127,1
154,845,9,0.132036704963857,1
154,846,9,0.159465182965614,1
154,847,9,0.127192737190577,1
154,848,9,0.0851145010368063,1
155,840,9,0.102208111747561,1
155,842,9,0.0766323613029037,1
155,843,9,0.0819634056792852,1
155,844,9,0.0943403732847558,1
155,845,9,0.108722963468979,1
155,846,9,0.10415797550172,1
155,847,9,0.0851435634298588,1
155,848,9,0.0678871086795496,1
156,841,9,0.0838197330917489,1
156,842,9,0.0775610341400939,1
156,843,9,0.086689422783977,1
156,844,9,0.106853961690543,1
156,845,9,0.119791470501503,1
156,846,9,0.0985961031284169,1
156,847,9,0.0725921675580891,1
157,840,9,0.0736184018664334,1
157,841,9,0.0785536358563132,1
157,842,9,0.0816993284359008,1
157,843,9,0.0868414792369926,1
157,844,9,0.0990555069664928,1
157,845,9,0.105056094491639,1
157,846,9,0.0828222856467621,1
158,840,9,0.0745711536030611,1
158,841,9,0.0852483186219643,1
158,842,9,0.0891600616208986,1
158,843,9,0.0887307204684637,1
158,844,9,0.0904310441655413,1
158,845,9,0.0818237840012029,1
159,840,9,0.0745693806293712,1
159,841,9,0.083490636830107,1
159,842,9,0.0850094643252297,1
159,843,9,0.0846558638900557,1
159,844,9,0.0825504336741564,1
159,872,9,0.0724028786575848,1
159,873,9,0.0847052795418866,1
159,874,9,0.0692729631479272,1
160,840,9,0.0734770491430931,1
160,841,9,0.077869884958925,1
160,842,9,0.0756945720266728,1
160,843,9,0.0737073021215212,1
160,872,9,0.0736312379563574,1
160,873,9,0.0846257832350866,1
160,874,9,0.068373562345949,1
161,837,9,0.0703251870942466,1
161,839,9,0.0695890975343494,1
161,840,9,0.0745927527352432,1
161,841,9,0.0770769644045343,1
161,842,9,0.0733950071815018,1
161,843,9,0.0709905553691537,1
162,839,9,0.072328299956864,1
162,840,9,0.0792128226824095,1
162,841,9,0.0814426305965232,1
162,842,9,0.0770423914175806,1
162,843,9,0.0734406612540176,1
163,840,9,0.0760881182778541,1
163,841,9,0.07615652151954,1
163,842,9,0.0697264910157673,1
167,843,9,0.0716454774747526,1
168,842,9,0.0688645382932129,1
168,843,9,0.0799975911516921,1
140,858,10,0.0707473824439379,1
140,859,10,0.0696817593687524,1
141,858,10,0.0773098109559615,1
141,859,10,0.0713190107247658,1
149,847,10,0.068319486648406,1
149,848,10,0.070231542936583,1
149,849,10,0.0708865968172535,1
150,846,10,0.0772853367313093,1
150,847,10,0.0795862013578678,1
150,848,10,0.0769300292099811,1
150,849,10,0.0731069768239754,1
151,845,10,0.0918830317505087,1
151,846,10,0.106089845968838,1
151,847,10,0.100824413598536,1
151,848,10,0.0857461588525008,1
151,849,10,0.0739460725613921,1
152,843,10,0.0833253609415046,1
152,844,10,0.094456904376437,1
152,845,10,0.124953746949886,1
152,846,10,0.150757641971827,1
152,847,10,0.132119627422517,1
152,848,10,0.0993566549334143,1
152,849,10,0.0811663701487966,1
153,842,10,0.0773055522252401,1
153,843,10,0.0905312950461103,1
153,844,10,0.108988166790248,1
153,845,10,0.148111299046322,1
153,846,10,0.174772941968079,1
153,847,10,0.146418899822866,1
153,848,10,0.103006872333531,1
153,849,10,0.0812643688735972,1
154,840,10,0.163418650744021,1
154,842,10,0.0769898730617923,1
154,843,10,0.086837280404031,1
154,844,10,0.098814945583604,1
154,845,10,0.116885926010262,1
154,846,10,0.126591387641338,1
154,847,10,0.107210796604746,1
154,848,10,0.0793877600796669,1
155,839,10,0.160826455393372,1
155,840,10,0.187263206186202,1
155,841,10,0.125948756556049,1
155,842,10,0.0760286877205855,1
155,843,10,0.0834248211716443,1
155,844,10,0.0962899794785483,1
155,845,10,0.104617271523829,1
155,846,10,0.0988300937270562,1
155,847,10,0.0835721457016361,1
156,840,10,0.12902038555565,1
156,841,10,0.0966605788979521,1
156,842,10,0.0771003125513024,1
156,843,10,0.0863834949758238,1
156,844,10,0.102417729947739,1
156,845,10,0.112869146299751,1
156,846,10,0.101960913692887,1
156,847,10,0.0812584749340334,1
157,840,10,0.0764990827975838,1
157,841,10,0.0793584101773673,1
157,842,10,0.086137093561355,1
157,843,10,0.0916373191602775,1
157,844,10,0.0984618782384922,1
157,845,10,0.102357353005866,1
157,846,10,0.0904377167759825,1
157,847,10,0.0713466295818073,1
158,839,10,0.0679902286628127,1
158,840,10,0.077322251720671,1
158,841,10,0.0882072799353909,1
158,842,10,0.0959872502107682,1
158,843,10,0.0941913236992818,1
158,844,10,0.0933658427226666,1
158,845,10,0.086960322382202,1
158,846,10,0.0713486900647442,1
158,873,10,0.0705923490722604,1
159,839,10,0.0687692828858108,1
159,840,10,0.0792940200855877,1
159,841,10,0.0900150182851089,1
159,842,10,0.0929053247862584,1
159,843,10,0.087288771748038,1
159,844,10,0.0844529123105422,1
159,845,10,0.0728082846652055,1
159,872,10,0.0743083222330805,1
159,873,10,0.0990787592768452,1
159,874,10,0.0848359405151035,1
160,837,10,0.0696895221184218,1
160,839,10,0.0706369429544278,1
160,840,10,0.0814223791639365,1
160,841,10,0.0893007614586571,1
160,842,10,0.0859013599379057,1
160,843,10,0.0778572645009362,1
160,844,10,0.0714894977184704,1
160,872,10,0.0749402136500382,1
160,873,10,0.0978423616987081,1
160,874,10,0.0820864416676801,1
161,836,10,0.0696347456170892,1
161,837,10,0.0712535484630858,1
161,838,10,0.068306632589154,1
161,839,10,0.0729418566695485,1
161,840,10,0.0845273113179836,1
161,841,10,0.089471745603768,1
161,842,10,0.0828294434290576,1
161,843,10,0.0762485364581372,1
162,839,10,0.0751297002131498,1
162,840,10,0.0887917622754709,1
162,841,10,0.0919771011822668,1
162,842,10,0.0837053702989722,1
162,843,10,0.0779412830886007,1
163,839,10,0.0696433109967399,1
163,840,10,0.0825198139393492,1
163,841,10,0.0842541535742143,1
163,842,10,0.0762276501092966,1
163,843,10,0.0700937241810706,1
164,840,10,0.0687737812075714,1
164,841,10,0.0700859794007291,1
167,843,10,0.0697954513066193,1
168,843,10,0.074912786465828,1
140,858,11,0.0700975995661294,1
140,859,11,0.0708599542936966,1
141,858,11,0.0866889735507785,1
141,859,11,0.0857480396421583,1
142,858,11,0.0721241025039468,1
142,859,11,0.0710603003206591,1
149,849,11,0.067992486808357,1
150,846,11,0.0772049659172163,1
150,847,11,0.0796572041623289,1
150,848,11,0.0751525392289596,1
150,849,11,0.0700352759470626,1
151,845,11,0.0864036865106507,1
151,846,11,0.0980458164194039,1
151,847,11,0.0966412858295222,1
151,848,11,0.0843747038055778,1
151,849,11,0.0714072700738237,1
152,843,11,0.0832141367913412,1
152,844,11,0.0924081853595116,1
152,845,11,0.105864223087242,1
152,846,11,0.120817830595143,1
152,847,11,0.11434465573499,1
152,848,11,0.0954001084101534,1
152,849,11,0.0770535863088863,1
152,850,11,0.0679311455125509,1
153,840,11,0.123812287321024,1
153,842,11,0.0790474449676154,1
153,843,11,0.0964435154062309,1
153,844,11,0.112079154745815,1
153,845,11,0.1209869579097,1
153,846,11,0.127460288504029,1
153,847,11,0.116385504186278,1
153,848,11,0.0953293212376276,1
153,849,11,0.0760390021148222,1
154,839,11,0.202856222279916,1
154,840,11,0.243650957257246,1
154,841,11,0.146293210363712,1
154,842,11,0.0812009790744061,1
154,843,11,0.0963246602814696,1
154,844,11,0.111495702647203,1
154,845,11,0.109360611060653,1
154,846,11,0.103774054820538,1
154,847,11,0.0933403562258738,1
154,848,11,0.0770991744938663,1
155,838,11,0.10728976581126,1
155,839,11,0.236891495064377,1
155,840,11,0.282197226168287,1
155,841,11,0.165146940705147,1
155,842,11,0.0787567791086581,1
155,843,11,0.0862429628517927,1
155,844,11,0.100462589200942,1
155,845,11,0.0999457973192063,1
155,846,11,0.093332401803373,1
155,847,11,0.0825684628998547,1
155,867,11,0.0692216247780069,1
156,839,11,0.137595696254914,1
156,840,11,0.161891844867294,1
156,841,11,0.106008816279387,1
156,842,11,0.0763885414818821,1
156,843,11,0.0855191104042217,1
156,844,11,0.0970186656753348,1
156,845,11,0.100310149402263,1
156,846,11,0.0969718256271751,1
156,847,11,0.0838341744416355,1
157,840,11,0.0772166100417205,1
157,841,11,0.0775589976162608,1
157,842,11,0.0859612876465806,1
157,843,11,0.0939243114656675,1
157,844,11,0.0976964387762955,1
157,845,11,0.0970361138927631,1
157,846,11,0.0921821312140452,1
157,847,11,0.0782513558217316,1
158,839,11,0.0686747462515263,1
158,840,11,0.0760540604116346,1
158,841,11,0.0856681599896957,1
158,842,11,0.0957940320172214,1
158,843,11,0.0953931003722574,1
158,844,11,0.0928769032992357,1
158,845,11,0.0884861279663407,1
158,846,11,0.078642524131849,1
158,873,11,0.0683159167419222,1
159,839,11,0.0726167136600531,1
159,840,11,0.083159845461863,1
159,841,11,0.095548690793101,1
159,842,11,0.099229330265418,1
159,843,11,0.0893421867493313,1
159,844,11,0.0828401651280609,1
159,845,11,0.0772384128262859,1
159,872,11,0.0690691969588805,1
159,873,11,0.0980405993245258,1
159,874,11,0.0896776741019433,1
160,836,11,0.0702394674102039,1
160,837,11,0.0690091015364782,1
160,838,11,0.0677654443498539,1
160,839,11,0.0750134985591474,1
160,840,11,0.0882630088111042,1
160,841,11,0.100287094754518,1
160,842,11,0.0966242149679806,1
160,843,11,0.0824968491382437,1
160,844,11,0.0732621659298284,1
160,873,11,0.094411915169055,1
160,874,11,0.0848975513508287,1
161,836,11,0.0732788234968274,1
161,837,11,0.07111904205369,1
161,838,11,0.0686623474152487,1
161,839,11,0.0760630929938117,1
161,840,11,0.0890505385671133,1
161,841,11,0.0952679020747338,1
161,842,11,0.087890762203306,1
161,843,11,0.0774668568923681,1
162,839,11,0.0757572490425223,1
162,840,11,0.0897407823816633,1
162,841,11,0.0934054411316671,1
162,842,11,0.085561973241131,1
162,843,11,0.0774924392255766,1
163,839,11,0.0698659270107942,1
163,840,11,0.0851094396761036,1
163,841,11,0.0921037430158014,1
163,842,11,0.0873534972672725,1
163,843,11,0.0771745917632242,1
164,840,11,0.0708926524807687,1
164,841,11,0.0799088945489876,1
164,842,11,0.0801456344548015,1
164,843,11,0.0718988989066694,1
169,840,11,0.0723357093097507,1
169,841,11,0.0708964140600839,1
170,840,11,0.075584042690523,1
170,841,11,0.0732722407330259,1
140,859,12,0.0725041777489502,1
141,858,12,0.084321155208321,1
141,859,12,0.0924676578452121,1
141,860,12,0.0696039162401227,1
142,858,12,0.0688622861374446,1
142,859,12,0.0735085553647453,1
150,846,12,0.0734617871938973,1
150,847,12,0.0769302628112443,1
150,848,12,0.0722719960626567,1
151,844,12,0.0738314581980243,1
151,845,12,0.0778124430072816,1
151,846,12,0.0871998834725022,1
151,847,12,0.0916008713734422,1
151,848,12,0.08333138665614,1
151,849,12,0.0700184326970083,1
152,843,12,0.0801094022999015,1
152,844,12,0.08821048446554,1
152,845,12,0.0901188211028337,1
152,846,12,0.0983462995211917,1
152,847,12,0.10292736404718,1
152,848,12,0.0933300118827572,1
152,849,12,0.0755870555478407,1
152,850,12,0.067897494951098,1
153,839,12,0.115881608292227,1
153,840,12,0.134414861659655,1
153,841,12,0.0897384463690313,1
153,842,12,0.0785038608179236,1
153,843,12,0.0975783144042037,1
153,844,12,0.111664650268481,1
153,845,12,0.102488193672362,1
153,846,12,0.09844614908677,1
153,847,12,0.0999923798069989,1
153,848,12,0.0909704774004794,1
153,849,12,0.0733584455889229,1
154,838,12,0.104300124865266,1
154,839,12,0.233088658172302,1
154,840,12,0.283575305907443,1
154,841,12,0.156335213547972,1
154,842,12,0.0847505382891877,1
154,843,12,0.101849144473109,1
154,844,12,0.11839255832149,1
154,845,12,0.105004534500008,1
154,846,12,0.0934445184301573,1
154,847,12,0.0899620806450021,1
154,848,12,0.0780816115602485,1
155,838,12,0.11931716410079,1
155,839,12,0.274836414426179,1
155,840,12,0.331455610441071,1
155,841,12,0.180202757750363,1
155,842,12,0.0812968933571659,1
155,843,12,0.0865147369573107,1
155,844,12,0.100108473645034,1
155,845,12,0.095395244712058,1
155,846,12,0.0927646788564837,1
155,847,12,0.0878975665888187,1
155,848,12,0.0699636442161238,1
155,867,12,0.0678806517010437,1
156,838,12,0.0832075480377638,1
156,839,12,0.148969621964633,1
156,840,12,0.178289683200269,1
156,841,12,0.10812894540554,1
156,842,12,0.0753174138025714,1
156,843,12,0.0833522789947565,1
156,844,12,0.0930426044619327,1
156,845,12,0.0940382609639016,1
156,846,12,0.0976623749203,1
156,847,12,0.0911662831772494,1
157,839,12,0.0743403555550189,1
157,840,12,0.0796921724744972,1
157,841,12,0.0764309850344728,1
157,842,12,0.0824014260171143,1
157,843,12,0.0925471122235802,1
157,844,12,0.097165894368911,1
157,845,12,0.0962168922320464,1
157,846,12,0.0968903706636298,1
157,847,12,0.0867560111235411,1
158,839,12,0.0688506659720443,1
158,840,12,0.074695950585594,1
158,841,12,0.082288991932203,1
158,842,12,0.091606489783311,1
158,843,12,0.0933653755201402,1
158,844,12,0.090863631776557,1
158,845,12,0.0884291951456555,1
158,846,12,0.0834812508511472,1
158,847,12,0.0694377119362435,1
159,839,12,0.0744339158558187,1
159,840,12,0.0850443368009824,1
159,841,12,0.09888915890799,1
159,842,12,0.10332704981874,1
159,843,12,0.0925806489792895,1
159,844,12,0.0828881791723126,1
159,845,12,0.0803667350555329,1
159,846,12,0.0690405778092505,1
159,873,12,0.0811181644317135,1
159,874,12,0.0795793131154914,1
160,836,12,0.0722058150278592,1
160,839,12,0.0768531624148362,1
160,840,12,0.0917661352824927,1
160,841,12,0.107792331975044,1
160,842,12,0.105979682009023,1
160,843,12,0.0879960864241296,1
160,844,12,0.0758694315568424,1
160,845,12,0.0720985860582741,1
160,873,12,0.0778252611278777,1
160,874,12,0.0757194176174358,1
161,836,12,0.0732831840537405,1
161,837,12,0.0683724781964967,1
161,838,12,0.067936668086004,1
161,839,12,0.076396160476928,1
161,840,12,0.0881212128443414,1
161,841,12,0.0964535003627888,1
161,842,12,0.0915936117649551,1
161,843,12,0.0779669612582248,1
162,839,12,0.0733948813962062,1
162,840,12,0.0843923377060615,1
162,841,12,0.0898540849840916,1
162,842,12,0.0862297793548618,1
162,843,12,0.0747836888241418,1
163,840,12,0.0829906283006661,1
163,841,12,0.0968728026506819,1
163,842,12,0.0987261711138118,1
163,843,12,0.083372590325103,1
164,840,12,0.070833838870426,1
164,841,12,0.0881840635636944,1
164,842,12,0.0955949498329907,1
164,843,12,0.0831695668682777,1
165,841,12,0.070102672906384,1
165,842,12,0.0776674065717139,1
165,843,12,0.0739902771081208,1
169,840,12,0.0794474481973027,1
169,841,12,0.0751517066500985,1
170,840,12,0.0864006257351252,1
170,841,12,0.0783706482001394,1
172,842,12,0.0710403962950792,1
172,843,12,0.0741118336218489,1
173,843,12,0.0701267757649255,1
141,858,13,0.0697976495544038,1
141,859,13,0.0819308033286287,1
150,846,13,0.069028724042587,1
150,847,13,0.0723121515208233,1
150,848,13,0.0700416610482568,1
151,844,13,0.0734891065621398,1
151,845,13,0.0741539177878809,1
151,846,13,0.0782099365208334,1
151,847,13,0.0845491380616529,1
151,848,13,0.0814085248120959,1
151,849,13,0.0695763213421852,1
152,843,13,0.0816976632781785,1
152,844,13,0.0896784168341648,1
152,845,13,0.0848043504365876,1
152,846,13,0.0845182188380467,1
152,847,13,0.0919850915434234,1
152,848,13,0.0885585683170368,1
152,849,13,0.0740580394437769,1
153,839,13,0.11952532079563,1
153,840,13,0.134369267484899,1
153,841,13,0.0911214976222506,1
153,842,13,0.0818181895504381,1
153,843,13,0.100183399752761,1
153,844,13,0.113469561443937,1
153,845,13,0.0983763622068328,1
153,846,13,0.0871835972716139,1
153,847,13,0.0910489314862589,1
153,848,13,0.0864862555725282,1
153,849,13,0.0724526477061985,1
154,838,13,0.111357111210589,1
154,839,13,0.227196755132304,1
154,840,13,0.271197026541033,1
154,841,13,0.152138644721661,1
154,842,13,0.0910580059968679,1
154,843,13,0.106035614537119,1
154,844,13,0.12081358983375,1
154,845,13,0.105847224103012,1
154,846,13,0.0928547650872154,1
154,847,13,0.0905809383094284,1
154,848,13,0.0789034687223961,1
155,838,13,0.124197226264123,1
155,839,13,0.265448806247231,1
155,840,13,0.31770821204037,1
155,841,13,0.176180790893854,1
155,842,13,0.088604995070654,1
155,843,13,0.090227158180975,1
155,844,13,0.10118908313972,1
155,845,13,0.0975334150434613,1
155,846,13,0.0971049424085435,1
155,847,13,0.0939618314224031,1
155,848,13,0.0739627780465989,1
156,838,13,0.0886405563706443,1
156,839,13,0.151935794968339,1
156,840,13,0.181830299679513,1
156,841,13,0.113661833252879,1
156,842,13,0.080791020837041,1
156,843,13,0.0855073884126298,1
156,844,13,0.0956231676676301,1
156,845,13,0.098190733059452,1
156,846,13,0.101710193649937,1
156,847,13,0.0970377610811574,1
156,848,13,0.0727731186904299,1
157,839,13,0.081513992787543,1
157,840,13,0.0897144633060094,1
157,841,13,0.0829141807898397,1
157,842,13,0.0826539669519621,1
157,843,13,0.090485485239419,1
157,844,13,0.0982126975679689,1
157,845,13,0.0992308217196369,1
157,846,13,0.0990752013499134,1
157,847,13,0.0917596363755549,1
157,848,13,0.0682715864098979,1
158,839,13,0.0704776628315808,1
158,840,13,0.0768057653175104,1
158,841,13,0.0824238996565894,1
158,842,13,0.0884174671642877,1
158,843,13,0.0902977237317895,1
158,844,13,0.0896326789047853,1
158,845,13,0.0876337409160255,1
158,846,13,0.0844267250099598,1
158,847,13,0.0746682358921369,1
159,839,13,0.0754392158971146,1
159,840,13,0.084204851728127,1
159,841,13,0.0959986787033371,1
159,842,13,0.101858236953046,1
159,843,13,0.0949108694979236,1
159,844,13,0.0841900210428018,1
159,845,13,0.0800840475781802,1
159,846,13,0.0730497984224751,1
160,836,13,0.071472654468416,1
160,838,13,0.0680279822208115,1
160,839,13,0.077629365504468,1
160,840,13,0.0890415299440402,1
160,841,13,0.103846363396163,1
160,842,13,0.107412268709592,1
160,843,13,0.0943102387218029,1
160,844,13,0.0799696009285399,1
160,845,13,0.0744302561026952,1
161,836,13,0.0705877010061003,1
161,839,13,0.0758422379738955,1
161,840,13,0.0828673706905598,1
161,841,13,0.0915616263612245,1
161,842,13,0.0918016306949472,1
161,843,13,0.0808423232683055,1
161,844,13,0.0694135491799422,1
162,839,13,0.0707792959703566,1
162,840,13,0.0776912518698883,1
162,841,13,0.0861244671135902,1
162,842,13,0.087715447450162,1
162,843,13,0.0759518388947684,1
163,840,13,0.0777976662299401,1
163,841,13,0.0970224512137538,1
163,842,13,0.105543506522195,1
163,843,13,0.088494825121063,1
164,840,13,0.0704194901272679,1
164,841,13,0.0925058606364094,1
164,842,13,0.106136470385062,1
164,843,13,0.0913874856041724,1
164,844,13,0.0706712404116864,1
165,841,13,0.0754079852051575,1
165,842,13,0.0860502717585321,1
165,843,13,0.0792732056140589,1
165,844,13,0.0691762342556343,1
169,840,13,0.0768759235635583,1
169,841,13,0.0718790427992974,1
170,840,13,0.0832003303577085,1
170,841,13,0.0742893166738975,1
172,842,13,0.0695696906601759,1
172,843,13,0.0727411512560273,1
150,847,14,0.0677743032285276,1
150,848,14,0.0684221993269025,1
151,844,14,0.0729526682151915,1
151,846,14,0.0721132550196479,1
151,847,14,0.0799768186085952,1
151,848,14,0.0821240514710554,1
151,849,14,0.0714132538600273,1
152,843,14,0.0836362842228247,1
152,844,14,0.0913978059881851,1
152,845,14,0.0828087667223764,1
152,846,14,0.0780603358759693,1
152,847,14,0.0872509343331755,1
152,848,14,0.0891868598786308,1
152,849,14,0.0752819064105649,1
153,840,14,0.116835360321443,1
153,842,14,0.0842710687015805,1
153,843,14,0.102647210245066,1
153,844,14,0.114517688383486,1
153,845,14,0.0980190541003275,1
153,846,14,0.085256889991391,1
153,847,14,0.0893254812641245,1
153,848,14,0.0885784423937368,1
153,849,14,0.0751417576321965,1
154,839,14,0.17955961154434,1
154,840,14,0.207828550952437,1
154,841,14,0.129556111119257,1
154,842,14,0.0931125710351492,1
154,843,14,0.106159698736311,1
154,844,14,0.116743081832703,1
154,845,14,0.103192076206818,1
154,846,14,0.0939583154239031,1
154,847,14,0.0917655003662389,1
154,848,14,0.0825611493833837,1
154,849,14,0.0681402366124434,1
155,838,14,0.111049644030009,1
155,839,14,0.208894371690229,1
155,840,14,0.247107728852329,1
155,841,14,0.151562979331823,1
155,842,14,0.093183645716922,1
155,843,14,0.0928280806352268,1
155,844,14,0.0994995949473892,1
155,845,14,0.0975555832043615,1
155,846,14,0.100742018240162,1
155,847,14,0.0968269269564549,1
155,848,14,0.078631724565758,1
156,838,14,0.086159315630239,1
156,839,14,0.136245600749134,1
156,840,14,0.163110105403765,1
156,841,14,0.113643971740908,1
156,842,14,0.0858932737403333,1
156,843,14,0.0858470865777554,1
156,844,14,0.0936793835360896,1
156,845,14,0.0981762857197895,1
156,846,14,0.103576907333949,1
156,847,14,0.098900856940478,1
156,848,14,0.0782778605804409,1
157,839,14,0.0837514256864786,1
157,840,14,0.0960129762986002,1
157,841,14,0.088856889109696,1
157,842,14,0.0835129966638385,1
157,843,14,0.0862102706544966,1
157,844,14,0.0938642280228171,1
157,845,14,0.0968372832791235,1
157,846,14,0.0974340326804094,1
157,847,14,0.0923482037428529,1
157,848,14,0.0738851086214727,1
158,839,14,0.0718687164255087,1
158,840,14,0.0803296164137879,1
158,841,14,0.0844922351898476,1
158,842,14,0.0860706010582065,1
158,843,14,0.0871938218192109,1
158,844,14,0.0869847007704385,1
158,845,14,0.0844729301418657,1
158,846,14,0.0819629145176548,1
158,847,14,0.0758825072378057,1
159,839,14,0.0747308769693305,1
159,840,14,0.0829442374857048,1
159,841,14,0.0905993149421335,1
159,842,14,0.095752648654979,1
159,843,14,0.0943989832427152,1
159,844,14,0.0835060185748224,1
159,845,14,0.075955474688788,1
159,846,14,0.0714947267929005,1
160,839,14,0.0750509047101394,1
160,840,14,0.0827544873724501,1
160,841,14,0.0933171817826091,1
160,842,14,0.100688924865879,1
160,843,14,0.0965283965216365,1
160,844,14,0.0811448728428061,1
160,845,14,0.0718638407478614,1
161,839,14,0.0728260383612088,1
161,840,14,0.0770517115090047,1
161,841,14,0.0844561348100192,1
161,842,14,0.0877324763832717,1
161,843,14,0.0816388376882838,1
161,844,14,0.070469145370138,1
162,840,14,0.072000731088097,1
162,841,14,0.0820065021174577,1
162,842,14,0.0867050620890594,1
162,843,14,0.0771374012441675,1
163,840,14,0.070083092328707,1
163,841,14,0.0894271157829447,1
163,842,14,0.102150921366508,1
163,843,14,0.0888583745741389,1
163,844,14,0.0709925559543309,1
164,841,14,0.0890752583725807,1
164,842,14,0.104854263000234,1
164,843,14,0.0922248682656589,1
164,844,14,0.0744417744419038,1
165,841,14,0.079389497114701,1
165,842,14,0.0882173247897085,1
165,843,14,0.0793654661334712,1
165,844,14,0.0715369127851241,1
166,842,14,0.0699102094246106,1
170,840,14,0.0716058431270962,1
151,844,15,0.0724030104326564,1
151,846,15,0.070065554264639,1
151,847,15,0.0791348058502765,1
151,848,15,0.0841622764004647,1
151,849,15,0.0750859389098435,1
152,843,15,0.0815062959254094,1
152,844,15,0.0890679328765578,1
152,845,15,0.0821302688585222,1
152,846,15,0.0764839166848037,1
152,847,15,0.0864855248198587,1
152,848,15,0.0914133494568519,1
152,849,15,0.0796316877166562,1
153,842,15,0.0800809808128787,1
153,843,15,0.0957046885187112,1
153,844,15,0.106503248327391,1
153,845,15,0.0943640209203229,1
153,846,15,0.0829015543420749,1
153,847,15,0.0867323335390941,1
153,848,15,0.0892937174821052,1
153,849,15,0.0789413300963626,1
153,850,15,0.068828264209881,1
154,840,15,0.133297852296341,1
154,841,15,0.0992857898938008,1
154,842,15,0.0857052007643529,1
154,843,15,0.0964749796994512,1
154,844,15,0.105053842335871,1
154,845,15,0.0967426987266311,1
154,846,15,0.0898556063871904,1
154,847,15,0.0882316283747476,1
154,848,15,0.0837392125332564,1
154,849,15,0.0720800057731857,1
155,839,15,0.136221953113567,1
155,840,15,0.159519114908533,1
155,841,15,0.116994388873699,1
155,842,15,0.0885975138404556,1
155,843,15,0.0889678916381481,1
155,844,15,0.0937081344607913,1
155,845,15,0.0938994538953526,1
155,846,15,0.096295609867969,1
155,847,15,0.0927860683465065,1
155,848,15,0.08128169130573,1
156,839,15,0.104540374779804,1
156,840,15,0.125691339943554,1
156,841,15,0.102693798722635,1
156,842,15,0.0841095543922931,1
156,843,15,0.0819217647566756,1
156,844,15,0.0867126810841054,1
156,845,15,0.0918518609563113,1
156,846,15,0.0959880169020936,1
156,847,15,0.0927437505792113,1
156,848,15,0.0801326665898059,1
157,839,15,0.0769218411862172,1
157,840,15,0.0900543291848624,1
157,841,15,0.0865612176189117,1
157,842,15,0.0798263314768861,1
157,843,15,0.0795593432023757,1
157,844,15,0.0850978554493592,1
157,845,15,0.0889790925192298,1
157,846,15,0.0893033670112082,1
157,847,15,0.0863818657567574,1
157,848,15,0.0751386489384632,1
158,839,15,0.0700925202360988,1
158,840,15,0.0789277093457852,1
158,841,15,0.0813904057397579,1
158,842,15,0.0800549192975919,1
158,843,15,0.0813672133271653,1
158,844,15,0.0819516836876933,1
158,845,15,0.0802756485322126,1
158,846,15,0.0772708474632149,1
158,847,15,0.073873632210696,1
159,839,15,0.0713404361534445,1
159,840,15,0.0781174963081417,1
159,841,15,0.0809805493285845,1
159,842,15,0.0840898061008887,1
159,843,15,0.0872044357022466,1
159,844,15,0.0790007307047513,1
159,845,15,0.0714553020874034,1
159,846,15,0.0678652220381205,1
160,839,15,0.0691870637706052,1
160,840,15,0.0739146621761556,1
160,841,15,0.0792578897568793,1
160,842,15,0.0867639116380581,1
160,843,15,0.0896456647391088,1
160,844,15,0.0771421511365193,1
161,840,15,0.0705943316881096,1
161,841,15,0.075448470101003,1
161,842,15,0.0784480361057946,1
161,843,15,0.0766317203968739,1
162,841,15,0.0759821291918968,1
162,842,15,0.0802485807345612,1
162,843,15,0.074316348532893,1
163,841,15,0.0797519743978766,1
163,842,15,0.0901163233662503,1
163,843,15,0.0826603939815881,1
163,844,15,0.0700476568140123,1
164,841,15,0.0845933545879336,1
164,842,15,0.0946048638226827,1
164,843,15,0.0851569146405171,1
164,844,15,0.0712759023070413,1
165,840,15,0.0682147494256284,1
165,841,15,0.0840536038948686,1
165,842,15,0.0862855801078869,1
165,843,15,0.07583214520137,1
165,844,15,0.0681643634300888,1
166,841,15,0.0732359007621583,1
166,842,15,0.0711400122593943,1
151,846,16,0.0684909080471634,1
151,847,16,0.0781538722176652,1
151,848,16,0.0859559747152868,1
151,849,16,0.0811850462703007,1
151,850,16,0.0690201946015922,1
152,844,16,0.0865650989937464,1
152,846,16,0.0744821275626777,1
152,847,16,0.0836861131691981,1
152,848,16,0.0918243259561336,1
152,849,16,0.0872179246777525,1
152,850,16,0.0737975860148602,1
153,843,16,0.0874143474014483,1
153,844,16,0.0949013697132201,1
153,845,16,0.0877595801195789,1
153,846,16,0.0764992924397431,1
153,847,16,0.0792840770574617,1
153,848,16,0.084628885939044,1
153,849,16,0.0807207667545774,1
153,850,16,0.0695512780888149,1
154,840,16,0.0915762533941665,1
154,841,16,0.0838564683878312,1
154,842,16,0.0804084238963502,1
154,843,16,0.086070750802606,1
154,844,16,0.0911676368666207,1
154,845,16,0.0879724028499067,1
154,846,16,0.0800338292963681,1
154,847,16,0.0809239459455781,1
154,848,16,0.0834297507572754,1
154,849,16,0.0755956987945791,1
155,839,16,0.0914152362362854,1
155,840,16,0.105583434368875,1
155,841,16,0.096940001947396,1
155,842,16,0.0857224932476057,1
155,843,16,0.0831970719195756,1
155,844,16,0.0847074837794471,1
155,845,16,0.086636814581549,1
155,846,16,0.0849518546598588,1
155,847,16,0.0868968427363712,1
155,848,16,0.0864308501447178,1
155,849,16,0.0731892583766059,1
156,839,16,0.0810119297649411,1
156,840,16,0.0968537252141872,1
156,841,16,0.0934527663516811,1
156,842,16,0.0829216260813822,1
156,843,16,0.0776076465767664,1
156,844,16,0.0780872239803413,1
156,845,16,0.0818416275438459,1
156,846,16,0.0821792831953624,1
156,847,16,0.0842157111919779,1
156,848,16,0.0817291994487106,1
157,839,16,0.0698328155291795,1
157,840,16,0.0813649012736372,1
157,841,16,0.0815939443173174,1
157,842,16,0.075717884234785,1
157,843,16,0.0740517322096705,1
157,844,16,0.0769639972295609,1
157,845,16,0.079593760455154,1
157,846,16,0.0780368559541296,1
157,847,16,0.0773870970354251,1
157,848,16,0.0721423054331485,1
158,840,16,0.0742391882387251,1
158,841,16,0.0750387215057971,1
158,842,16,0.0730644673838489,1
158,843,16,0.0748098940940521,1
158,844,16,0.0761789592203593,1
158,845,16,0.0751362051098635,1
158,846,16,0.0721060612986965,1
158,847,16,0.0699029078876916,1
159,840,16,0.0712036176905206,1
159,841,16,0.0718254822224886,1
159,842,16,0.0738157230565261,1
159,843,16,0.0777456629948861,1
159,844,16,0.0735285731960688,1
159,845,16,0.0685498354632497,1
160,841,16,0.0690380081953552,1
160,842,16,0.074468620617844,1
160,843,16,0.078475379433141,1
160,844,16,0.0717534371970072,1
161,841,16,0.0693269430090545,1
161,842,16,0.0710227923434754,1
161,843,16,0.0705524032562531,1
162,841,16,0.0705956194899452,1
162,842,16,0.0732259876829122,1
162,843,16,0.0704059592233302,1
162,850,16,0.0686078943618191,1
163,841,16,0.0706872271237757,1
163,842,16,0.0765503492901924,1
163,843,16,0.073879747771971,1
163,844,16,0.0680709169350326,1
163,849,16,0.0693201685724217,1
163,850,16,0.0733962231060256,1
163,861,16,0.0763311474484465,1
164,841,16,0.077426857168377,1
164,842,16,0.0812360671820941,1
164,843,16,0.0745349154583851,1
165,840,16,0.069231843335828,1
165,841,16,0.0827483119134153,1
165,842,16,0.0807517159270635,1
165,843,16,0.0693047149503946,1
166,841,16,0.0714423222428558,1
166,842,16,0.0678857609799542,1
151,847,17,0.0772340882080287,1
151,848,17,0.0844324871744521,1
151,849,17,0.0848529155402294,1
151,850,17,0.0753812887736168,1
152,846,17,0.0789158735484497,1
152,847,17,0.0819574758010655,1
152,848,17,0.0889741449642708,1
152,849,17,0.0911461275810783,1
152,850,17,0.0806252477970323,1
153,842,17,0.0718988809373415,1
153,844,17,0.085629202486725,1
153,845,17,0.083680027556803,1
153,846,17,0.076736894873298,1
153,847,17,0.0759011773695338,1
153,848,17,0.0805636848795149,1
153,849,17,0.081069239941513,1
153,850,17,0.071062648312843,1
154,841,17,0.0735091423627912,1
154,842,17,0.0743181993736707,1
154,843,17,0.0771461223579937,1
154,844,17,0.081832535063909,1
154,845,17,0.0832529744987923,1
154,846,17,0.0774561831115727,1
154,847,17,0.0788367725668643,1
154,848,17,0.0853743195494692,1
154,849,17,0.0794630216148494,1
155,840,17,0.0771342925504341,1
155,841,17,0.0809035926867998,1
155,842,17,0.079001982567931,1
155,843,17,0.0763077394039186,1
155,844,17,0.078363154990389,1
155,845,17,0.0817841676228745,1
155,846,17,0.0792787701159439,1
155,847,17,0.0856853925751887,1
155,848,17,0.0940687549134132,1
155,849,17,0.0822262550185937,1
156,840,17,0.0766727863009894,1
156,841,17,0.0812187387601854,1
156,842,17,0.0778253929029492,1
156,843,17,0.0728918899583274,1
156,844,17,0.0739742604471516,1
156,845,17,0.0764945066087355,1
156,846,17,0.0749404412615254,1
156,847,17,0.0801607227004939,1
156,848,17,0.0845503779452807,1
156,849,17,0.0721857313089999,1
157,840,17,0.0729962797740982,1
157,841,17,0.0745645947983635,1
157,842,17,0.0715140438204344,1
157,843,17,0.0704534761161756,1
157,844,17,0.0744303998573187,1
157,845,17,0.0754824141614788,1
157,846,17,0.0728875952889501,1
157,847,17,0.0724349119795232,1
157,848,17,0.0705864431531446,1
158,840,17,0.0691846199420055,1
158,841,17,0.0692004389403674,1
158,842,17,0.0681379844566751,1
158,843,17,0.0694459299088874,1
158,844,17,0.0730514695699734,1
158,845,17,0.073199171455852,1
158,846,17,0.0713305230741984,1
158,847,17,0.0685137171140933,1
159,842,17,0.0682954137387444,1
159,843,17,0.0698426926697697,1
159,844,17,0.0700321013657935,1
159,845,17,0.0690098083300437,1
159,846,17,0.0680133372185416,1
160,843,17,0.0683097113340074,1
161,836,17,0.0697779192323273,1
161,849,17,0.0677547645792825,1
161,850,17,0.0762924594853949,1
161,851,17,0.0700120416060381,1
162,835,17,0.0680863525877318,1
162,836,17,0.0723425676032472,1
162,842,17,0.0681134263751591,1
162,849,17,0.073644804798951,1
162,850,17,0.0843421314038013,1
162,851,17,0.0681776487532114,1
162,860,17,0.0704873962175475,1
162,861,17,0.0837333545323485,1
162,862,17,0.072683942905647,1
163,842,17,0.0697031129201193,1
163,843,17,0.0689052747596495,1
163,849,17,0.0731235565238867,1
163,850,17,0.0839696452049639,1
163,860,17,0.0867585867272123,1
163,861,17,0.101722832077253,1
163,862,17,0.0853663172087606,1
164,841,17,0.0726527960705536,1
164,842,17,0.0756607297923886,1
164,843,17,0.0718719868431935,1
164,860,17,0.0706405787484473,1
164,861,17,0.0823426902738593,1
164,862,17,0.0711395989648517,1
165,841,17,0.0781863967012339,1
165,842,17,0.079644296195093,1
165,843,17,0.0715563855468335,1
168,847,17,0.0709590611270535,1
168,848,17,0.074811092049248,1
169,847,17,0.0707572176560962,1
169,848,17,0.0802173200937242,1
169,849,17,0.069266032977119,1
151,847,18,0.07306471895444,1
151,848,18,0.0774530264996315,1
151,849,18,0.0818244069379048,1
151,850,18,0.0763947888182287,1
152,847,18,0.0770640923759544,1
152,848,18,0.0807009585654132,1
152,849,18,0.086334055364889,1
152,850,18,0.0807904757674269,1
153,841,18,0.069368595911216,1
153,842,18,0.0726684473551881,1
153,843,18,0.0745940585064067,1
153,845,18,0.0756178609657033,1
153,846,18,0.0738094397815236,1
153,847,18,0.0713978840948639,1
153,848,18,0.0740281444718632,1
153,849,18,0.0765813523706623,1
153,850,18,0.0696071626987036,1
154,841,18,0.0701352512979365,1
154,842,18,0.073404015804575,1
154,843,18,0.0721945123205858,1
154,844,18,0.07260418903848,1
154,845,18,0.0737831087263177,1
154,846,18,0.0719060926276208,1
154,847,18,0.0742689454457912,1
154,848,18,0.0812184752100423,1
154,849,18,0.0778416311856297,1
155,841,18,0.0738806821770239,1
155,842,18,0.0759148879667509,1
155,843,18,0.0710919143582789,1
155,844,18,0.0703809938370476,1
155,845,18,0.0726223200903699,1
155,846,18,0.0715616984781273,1
155,847,18,0.0801436817878322,1
155,848,18,0.0913260125332948,1
155,849,18,0.0833005932178294,1
155,869,18,0.0711528842879742,1
156,841,18,0.0753512979652875,1
156,842,18,0.0753690576510667,1
156,843,18,0.0693015822975573,1
156,844,18,0.0690807632162969,1
156,845,18,0.0698255499309163,1
156,846,18,0.0683411277090199,1
156,847,18,0.0742131207336623,1
156,848,18,0.0803867828357363,1
156,849,18,0.0719192042472399,1
157,840,18,0.068332915726152,1
157,841,18,0.0711385028358475,1
157,842,18,0.0696543142152143,1
157,844,18,0.0705963742017186,1
157,845,18,0.0708171633340991,1
157,846,18,0.068759285949701,1
157,847,18,0.0679648619615395,1
158,844,18,0.0687629277334966,1
158,845,18,0.0705954697455457,1
158,846,18,0.0703550820661603,1
159,845,18,0.0694806047220327,1
159,846,18,0.0692767486863463,1
159,852,18,0.0694725185244604,1
160,850,18,0.0704233834816546,1
160,851,18,0.0795010387229913,1
160,852,18,0.0807478824704366,1
161,836,18,0.0744261950345811,1
161,849,18,0.0701515075499449,1
161,850,18,0.0847687172592855,1
161,851,18,0.0843568542731589,1
161,852,18,0.0756434792375676,1
162,835,18,0.0687644850752512,1
162,836,18,0.0769601877320379,1
162,849,18,0.0754848999185103,1
162,850,18,0.0919307762548413,1
162,851,18,0.0815234925722465,1
162,860,18,0.0809085761804147,1
162,861,18,0.0943365577974568,1
162,862,18,0.0838715985619554,1
163,849,18,0.0702532019665249,1
163,850,18,0.0837391526354966,1
163,851,18,0.0710823067576078,1
163,860,18,0.0953811687385062,1
163,861,18,0.111956364338235,1
163,862,18,0.0989900866332447,1
164,841,18,0.0699737130295453,1
164,842,18,0.0738149383958728,1
164,843,18,0.0722271326405702,1
164,860,18,0.0766885993095753,1
164,861,18,0.0939548054151792,1
164,862,18,0.0877952372559849,1
165,841,18,0.0734924308878084,1
165,842,18,0.0795302209115634,1
165,843,18,0.0759492992297531,1
168,847,18,0.0740661675697811,1
168,848,18,0.0878339911065723,1
168,849,18,0.0731160153959285,1
169,847,18,0.0754212405794001,1
169,848,18,0.0941242801367432,1
169,849,18,0.0788588808300047,1
170,848,18,0.0678242519704207,1
151,848,19,0.0695522364529716,1
151,849,19,0.0753029065651491,1
151,850,19,0.0705286897331502,1
152,842,19,0.0860062768539626,1
152,847,19,0.0710780540166623,1
152,848,19,0.0712266903075937,1
152,849,19,0.0774158000419189,1
152,850,19,0.0738608500287557,1
153,841,19,0.071161138199274,1
153,842,19,0.0747314879264804,1
153,843,19,0.0751882802222293,1
153,848,19,0.0678972553600588,1
153,849,19,0.0717690106145539,1
153,850,19,0.0678141472183432,1
154,841,19,0.0703918053826906,1
154,842,19,0.0741277784055063,1
154,843,19,0.070426480195836,1
154,848,19,0.073034338810672,1
154,849,19,0.0737979214423151,1
155,841,19,0.0718656676295351,1
155,842,19,0.074236870195421,1
155,843,19,0.0684342567459493,1
155,847,19,0.0716229020090859,1
155,848,19,0.0801175424054576,1
155,849,19,0.0778184866912449,1
155,869,19,0.0690385951934012,1
156,841,19,0.0725875554305849,1
156,842,19,0.0726103704872908,1
156,847,19,0.0694952557140786,1
156,848,19,0.0736936634016158,1
156,849,19,0.0697725224441698,1
157,841,19,0.0688855683966769,1
158,852,19,0.0693945795594151,1
159,851,19,0.078243059982,1
159,852,19,0.0896531399795313,1
159,853,19,0.0740318701125225,1
160,850,19,0.0746905777565404,1
160,851,19,0.0874954309988828,1
160,852,19,0.0941576851173809,1
160,853,19,0.0753612350036375,1
161,836,19,0.0732121752595035,1
161,849,19,0.0702577242473894,1
161,850,19,0.0827336908702493,1
161,851,19,0.0853419987182838,1
161,852,19,0.0812500712783342,1
162,835,19,0.0685292486032082,1
162,836,19,0.0763038819881878,1
162,841,19,0.069282079586968,1
162,849,19,0.0731032871219721,1
162,850,19,0.0879199144429983,1
162,851,19,0.0862543913443616,1
162,852,19,0.0747036773966076,1
162,860,19,0.0774502951617848,1
162,861,19,0.08920345754787,1
162,862,19,0.0811523420934526,1
163,841,19,0.0684569879457915,1
163,850,19,0.0770656317483811,1
163,851,19,0.0753005166445332,1
163,860,19,0.0887970512476608,1
163,861,19,0.105900928434444,1
163,862,19,0.0978570905578417,1
164,842,19,0.068362439331955,1
164,860,19,0.076682256136813,1
164,861,19,0.098779875445244,1
164,862,19,0.0970057157796671,1
165,841,19,0.067808085565052,1
165,842,19,0.0725625600954224,1
165,843,19,0.0701419239083777,1
165,861,19,0.0731398606941029,1
165,862,19,0.0727165272869755,1
168,847,19,0.0723132236907236,1
168,848,19,0.0883189293596489,1
168,849,19,0.07251359367679,1
169,847,19,0.0721782740379054,1
169,848,19,0.0902357355401777,1
169,849,19,0.0754334896712782,1
151,849,20,0.0707342648345427,1
152,841,20,0.0716469868982994,1
152,842,20,0.0902333096809059,1
152,849,20,0.068692655681705,1
153,841,20,0.0697245982465578,1
153,842,20,0.0724468615826023,1
153,843,20,0.0718578330025539,1
154,841,20,0.069666964622083,1
154,842,20,0.0732933427138017,1
154,843,20,0.0678674861734407,1
154,849,20,0.0684405639800557,1
155,841,20,0.072029074708032,1
155,842,20,0.0743948385573284,1
155,843,20,0.0678966863313408,1
155,848,20,0.0684697521584038,1
155,849,20,0.0702464155503401,1
156,841,20,0.0715774396094014,1
156,842,20,0.0714333016402307,1
157,841,20,0.068661682550115,1
158,851,20,0.0690448964377317,1
158,852,20,0.0755971183714863,1
159,851,20,0.0829848301975179,1
159,852,20,0.0952974077112088,1
159,853,20,0.0768988943544397,1
160,850,20,0.0781900864032373,1
160,851,20,0.0909346166116901,1
160,852,20,0.0960604452732378,1
160,853,20,0.0740385846513955,1
161,849,20,0.0687795493618397,1
161,850,20,0.0804199901537666,1
161,851,20,0.0856634580155518,1
161,852,20,0.081826982541576,1
162,836,20,0.0719405458190549,1
162,840,20,0.0680270837544146,1
162,841,20,0.0706236756006332,1
162,849,20,0.0707567324842419,1
162,850,20,0.0837563193334539,1
162,851,20,0.0870298337324441,1
162,852,20,0.0773395142550439,1
162,860,20,0.0692141555273605,1
162,861,20,0.0778308975070744,1
162,862,20,0.0735275908728081,1
163,841,20,0.0681949232671362,1
163,849,20,0.0679208550774181,1
163,850,20,0.080066874890447,1
163,851,20,0.080696340448133,1
163,852,20,0.0693143824488255,1
163,860,20,0.0788683686351562,1
163,861,20,0.0945476075540946,1
163,862,20,0.0916585828650047,1
164,850,20,0.071355482470705,1
164,860,20,0.0743770549124453,1
164,861,20,0.098493791764911,1
164,862,20,0.0996158505093753,1
164,863,20,0.0678969858201398,1
165,861,20,0.0741428486818707,1
165,862,20,0.0742890591135304,1
168,847,20,0.0693327710610826,1
168,848,20,0.0798612997890545,1
168,849,20,0.068014103909867,1
169,848,20,0.0773876301254872,1
169,849,20,0.0690203802846476,1
151,849,21,0.0683164258728805,1
152,842,21,0.0889007761982978,1
153,841,21,0.0698905988980537,1
153,842,21,0.0705738047258278,1
153,843,21,0.0683952393452188,1
154,841,21,0.0701739632200921,1
154,842,21,0.072254074652926,1
155,841,21,0.0716849381189056,1
155,842,21,0.073719635070263,1
155,843,21,0.0679875871716057,1
156,841,21,0.0693309980873927,1
156,842,21,0.0703189038192441,1
156,850,21,0.0680708929759287,1
156,851,21,0.068429057620399,1
157,850,21,0.0682122636685969,1
157,851,21,0.0706605666308909,1
158,851,21,0.0704121107232611,1
158,852,21,0.0720390297157099,1
159,850,21,0.0678435031104188,1
159,851,21,0.0791596394614875,1
159,852,21,0.0847566538504628,1
159,853,21,0.0706847293871923,1
160,850,21,0.0779182164613036,1
160,851,21,0.0881394756713029,1
160,852,21,0.0874897646708062,1
160,853,21,0.068060291072445,1
161,850,21,0.0773351477083548,1
161,851,21,0.0833131837269383,1
161,852,21,0.0782087385656375,1
162,841,21,0.071692137829633,1
162,842,21,0.0678504153118991,1
162,849,21,0.070214016852067,1
162,850,21,0.0821052735233597,1
162,851,21,0.0830668901284371,1
162,852,21,0.0717331318564367,1
162,861,21,0.0677450371830917,1
163,841,21,0.0684948612993099,1
163,849,21,0.074011858270975,1
163,850,21,0.0889242022121536,1
163,851,21,0.0836261734809712,1
163,860,21,0.0706482576412531,1
163,861,21,0.082416406446839,1
163,862,21,0.0832439538961672,1
164,850,21,0.0820343485859864,1
164,851,21,0.0733042620754123,1
164,860,21,0.0720648097115257,1
164,861,21,0.0917969526799072,1
164,862,21,0.0938231082107178,1
165,861,21,0.0706677483722904,1
165,862,21,0.0710189049788647,1
168,848,21,0.0697700726257942,1
154,841,22,0.0689676522867,1
154,842,22,0.0692020741492098,1
155,841,22,0.0696192440768543,1
155,842,22,0.0712518533564836,1
155,843,22,0.0679399265241368,1
156,842,22,0.0682146595789887,1
157,850,22,0.0678762671850267,1
157,851,22,0.0729111650574295,1
158,851,22,0.0707326595745802,1
158,852,22,0.0681894066834591,1
159,851,22,0.0726100530291639,1
159,852,22,0.0731935171073273,1
160,850,22,0.0702650737025163,1
160,851,22,0.0793283774406061,1
160,852,22,0.0770036854852011,1
161,850,22,0.0709043684825846,1
161,851,22,0.075918368026595,1
161,852,22,0.0710222832125172,1
162,841,22,0.0687776386233022,1
162,842,22,0.0700916816674616,1
162,850,22,0.079551975777921,1
162,851,22,0.0758200997618753,1
163,842,22,0.0694821680535634,1
163,849,22,0.0749759726126358,1
163,850,22,0.0929503619118483,1
163,851,22,0.0812914546405765,1
163,861,22,0.0744810494030014,1
163,862,22,0.0757072583721974,1
164,849,22,0.0693597310427663,1
164,850,22,0.0827645981143035,1
164,851,22,0.0711102670318801,1
164,860,22,0.0713958775199107,1
164,861,22,0.0826649462113325,1
164,862,22,0.0832509918829431,1
154,841,23,0.0677793166710224,1
155,842,23,0.069405109585587,1
155,843,23,0.0691572107271233,1
156,839,23,0.0694997300767353,1
157,839,23,0.0682488611998317,1
157,851,23,0.0712193947604507,1
157,852,23,0.0712847192572831,1
158,851,23,0.0709053388262933,1
158,852,23,0.0722431972197472,1
159,852,23,0.0687359557722609,1
160,851,23,0.0677470796967007,1
160,852,23,0.0685632825103237,1
162,842,23,0.0680628786556681,1
162,850,23,0.0744063029885532,1
162,851,23,0.0690592120023227,1
163,842,23,0.0685909193366932,1
163,849,23,0.0712311946191303,1
163,850,23,0.086458241390272,1
163,851,23,0.0747922661833445,1
163,859,23,0.0678933560158962,1
163,861,23,0.068705821209308,1
164,850,23,0.0747818260038122,1
164,859,23,0.0718719628840896,1
164,860,23,0.0726037637643854,1
164,861,23,0.0739257851901495,1
164,862,23,0.0706059638330618,1
155,843,24,0.0702646005102139,1
156,839,24,0.0709706992617817,1
156,843,24,0.0698574035595753,1
157,839,24,0.0701919624969105,1
157,852,24,0.0726023681465822,1
158,852,24,0.0763463135612266,1
158,853,24,0.0704841257998627,1
163,850,24,0.0718115080751285,1
163,859,24,0.0678407118748123,1
164,858,24,0.0681830455413689,1
164,859,24,0.07586898831342,1
164,860,24,0.0734790916567021,1
155,843,25,0.0679982250137453,1
156,843,25,0.0689344269993417,1
158,852,25,0.071745590590474,1
158,853,25,0.0695929789091842,1
161,860,25,0.0695349439697188,1
161,861,25,0.0696766620693938,1
164,859,25,0.0738621737692472,1
164,860,25,0.0711210246695393,1
160,860,26,0.0841833005141528,1
160,861,26,0.0766122895635964,1
161,860,26,0.0784643762146667,1
161,861,26,0.0732365057295322,1
164,859,26,0.0682833862685775,1
158,840,27,0.0678221675283798,1
159,860,27,0.0715420580026905,1
160,859,27,0.0685932673288771,1
160,860,27,0.0978933287025177,1
160,861,27,0.0826790461439883,1
161,860,27,0.0819273472278886,1
161,861,27,0.0707317371490794,1
159,860,28,0.0705483601574669,1
160,859,28,0.0689032621949204,1
160,860,28,0.0972747944859943,1
160,861,28,0.0796743768500621,1
161,860,28,0.0771510878822807,1
167,842,28,0.0681674002465104,1
160,860,29,0.0811994516815314,1
160,861,29,0.067840214723406,1
166,841,29,0.0712329316541643,1
166,842,29,0.0721101642952425,1
167,841,29,0.102578555432789,1
167,842,29,0.101251760155569,1
167,843,29,0.0718028408692861,1
168,841,29,0.103102337383093,1
168,842,29,0.0995080345417443,1
168,843,29,0.0681772354586688,1
169,841,29,0.0727881410485865,1
169,842,29,0.0701658949918477,1
166,841,30,0.0887965301371505,1
166,842,30,0.0882207868802247,1
166,843,30,0.0684205341691802,1
167,840,30,0.0818063896917585,1
167,841,30,0.150113489483439,1
167,842,30,0.144847338340019,1
167,843,30,0.0879443647085466,1
168,840,30,0.08278665246946,1
168,841,30,0.14966892831024,1
168,842,30,0.141466924409123,1
168,843,30,0.0827397884621964,1
169,841,30,0.0907086882515192,1
169,842,30,0.0855729405209495,1
166,841,31,0.10235798792212,1
166,842,31,0.100847438297401,1
166,843,31,0.0744758682467792,1
167,840,31,0.0965792616992544,1
167,841,31,0.181330752362823,1
167,842,31,0.172832673835039,1
167,843,31,0.0999846949244172,1
168,840,31,0.0967431898882614,1
168,841,31,0.177898059667177,1
168,842,31,0.1666369094596,1
168,843,31,0.0940838910773134,1
169,841,31,0.102220594440702,1
169,842,31,0.0961471951987489,1
169,843,31,0.068862453851172,1
166,841,32,0.10026331534388,1
166,842,32,0.10026560942808,1
166,843,32,0.0764226053378775,1
166,844,32,0.0678406939054844,1
167,840,32,0.0949578053824989,1
167,841,32,0.171819826676009,1
167,842,32,0.164025978089687,1
167,843,32,0.0983759309429623,1
168,840,32,0.093601264877765,1
168,841,32,0.165379260156288,1
168,842,32,0.155684065001241,1
168,843,32,0.092213445762866,1
169,841,32,0.0952705615352687,1
169,842,32,0.0915583559435397,1
169,843,32,0.0690813981325508,1
165,842,33,0.0682426857407968,1
166,841,33,0.0881787566221765,1
166,842,33,0.0920763457804712,1
166,843,33,0.077797983688067,1
167,840,33,0.0841770711471341,1
167,841,33,0.131506621769223,1
167,842,33,0.128626318193959,1
167,843,33,0.0897742532498368,1
168,840,33,0.0818440294440137,1
168,841,33,0.125118932991849,1
168,842,33,0.12134933935646,1
168,843,33,0.0850314108644186,1
169,841,33,0.0810638431533554,1
169,842,33,0.0815480446639865,1
