x,y,z,signal,cytoplasm.p
708,829,9,0.0701463024346187,1
708,826,11,0.0714476591332535,1
708,826,12,0.0702825937972563,1
711,826,12,0.0696189206289514,1
713,825,12,0.0723913064103924,1
713,827,12,0.0685444686239721,1
710,818,20,0.069996294484988,1
704,842,25,0.0711832824010702,1
703,842,26,0.0757009990562988,1
704,841,26,0.0723052632784469,1
704,842,26,0.0818402918238025,1
704,843,26,0.0747955845192371,1
703,842,27,0.0733087663869489,1
703,843,27,0.0690088799147669,1
704,842,27,0.0785650463795542,1
704,843,27,0.0692597437123405,1
704,842,28,0.0713526493066667,1
737,837,31,0.0689636451265697,1
737,838,31,0.0992508455407364,1
738,838,31,0.0962808271008516,1
747,842,31,0.07050945656248,1
748,842,31,0.0724103059797994,1
737,837,32,0.0815034388022671,1
737,838,32,0.120581713626031,1
737,839,32,0.0728381736473433,1
738,837,32,0.0779608996049335,1
738,838,32,0.117764865737494,1
738,839,32,0.0721688640998416,1
747,842,32,0.0684092194823549,1
748,842,32,0.07157669687718,1
737,837,33,0.0758117500141598,1
737,838,33,0.106473670813604,1
737,839,33,0.0719201446420687,1
738,837,33,0.0749072938412548,1
738,838,33,0.107580785067,1
738,839,33,0.0733009197804158,1
737,838,34,0.0757741402107845,1
738,838,34,0.0818429393047854,1
703,863,37,0.071195321850789,1
703,862,39,0.0687955660228089,1
711,873,39,0.069665790625991,1
712,831,39,0.0699184393768065,1
703,862,40,0.0683749579637522,1
710,872,40,0.0763538486994088,1
710,873,40,0.0767107135624916,1
711,872,40,0.072103012502723,1
711,873,40,0.0811007341836132,1
711,874,40,0.0694943572476816,1
712,831,40,0.0756236470892995,1
712,873,40,0.0683698786337216,1
728,802,40,0.0678450963908293,1
709,872,41,0.0686840783225024,1
710,871,41,0.073261123708808,1
710,872,41,0.0836281321377165,1
710,873,41,0.0799728473871208,1
711,872,41,0.0765978781625897,1
711,873,41,0.0805298965532146,1
712,831,41,0.0684319027639893,1
708,871,42,0.0695866776648537,1
709,871,42,0.0804303644457632,1
709,872,42,0.0773199935751267,1
710,871,42,0.0795076214867927,1
710,872,42,0.0835188846136264,1
710,873,42,0.0742303293600514,1
711,871,42,0.0714070185032326,1
711,872,42,0.0798018931908897,1
711,873,42,0.0738100088102417,1
712,872,42,0.0678913494409431,1
717,828,42,0.0758361343921724,1
717,829,42,0.0779793301456225,1
730,856,42,0.07181222085847,1
730,857,42,0.0750677120215379,1
731,856,42,0.0953370121099853,1
731,857,42,0.0991882284226466,1
732,856,42,0.0748283665631729,1
732,857,42,0.0765181961727344,1
702,845,43,0.0684528190617097,1
708,871,43,0.0720267985931597,1
709,870,43,0.0697905995880759,1
709,871,43,0.0818991353830251,1
709,872,43,0.0764947461997746,1
710,871,43,0.0770424932437723,1
710,872,43,0.0744962274953335,1
711,871,43,0.0757843288197257,1
711,872,43,0.07753294209075,1
712,872,43,0.0721125602056343,1
716,828,43,0.072588388009446,1
716,829,43,0.0695088165668962,1
717,817,43,0.0718252486212254,1
717,828,43,0.0915349778478917,1
717,829,43,0.0903660251472838,1
718,817,43,0.0693495424338252,1
718,828,43,0.0721019223634947,1
718,829,43,0.0746089011712839,1
730,856,43,0.0802351276977112,1
730,857,43,0.0847805889952769,1
731,856,43,0.113857028072499,1
731,857,43,0.121542126286137,1
731,858,43,0.0695137761014072,1
732,856,43,0.09004801596098,1
732,857,43,0.0952480938855696,1
709,870,44,0.0700646617880181,1
709,871,44,0.0765404422007223,1
709,872,44,0.071413912735385,1
710,870,44,0.0680660172982814,1
710,871,44,0.0734397448182927,1
711,871,44,0.0739759315946499,1
711,872,44,0.0701083631935645,1
716,828,44,0.0766812258953445,1
716,829,44,0.0709642063446199,1
717,817,44,0.0697538523124417,1
717,828,44,0.0955703558128188,1
717,829,44,0.0913850896937806,1
718,816,44,0.0698915033542266,1
718,817,44,0.0754608150292967,1
718,828,44,0.0711110996107412,1
718,829,44,0.0720262774826495,1
719,817,44,0.0730591304934512,1
730,804,44,0.0706116241713624,1
730,856,44,0.072653856260902,1
730,857,44,0.0787987614484984,1
731,856,44,0.108301810340308,1
731,857,44,0.12081928012093,1
731,858,44,0.0745179464230352,1
732,856,44,0.0883145029152,1
732,857,44,0.0987615886591786,1
743,843,44,0.0708090891160787,1
743,844,44,0.0688179138769884,1
709,870,45,0.0678807954556672,1
709,871,45,0.0692482912606677,1
710,871,45,0.0689916533190499,1
716,828,45,0.0739797231228449,1
716,829,45,0.0689528216013748,1
717,828,45,0.0876627553908703,1
717,829,45,0.0834089602448505,1
718,817,45,0.0709848171637654,1
719,817,45,0.0746582389560271,1
731,856,45,0.0814415763959508,1
731,857,45,0.094315479775785,1
732,856,45,0.071657630730215,1
732,857,45,0.0836461853225188,1
743,843,45,0.0705717801815468,1
743,844,45,0.0741306295388725,1
744,844,45,0.0704215266511009,1
745,844,45,0.0683667519706603,1
746,844,45,0.0695752611518368,1
717,828,46,0.0750159903059549,1
717,829,46,0.0726511369026073,1
743,844,46,0.0731101813541245,1
744,844,46,0.0697133434574923,1
745,844,46,0.0694847017288027,1
746,844,46,0.0691507357792895,1
714,879,48,0.0691946288576673,1
714,880,48,0.0684797071660817,1
730,806,48,0.067959447204054,1
714,879,49,0.0708959528473335,1
714,880,49,0.0734683759474747,1
715,880,49,0.0678116135431039,1
714,879,50,0.0682529881554815,1
714,880,50,0.0715306774283295,1
718,836,57,0.0688879463377408,1
718,837,57,0.0705799981541906,1
718,836,58,0.0855975704797772,1
718,837,58,0.0856327304647769,1
719,836,59,0.0695869412149968,1
719,837,59,0.072931769886799,1
