x,y,z,signal,cytoplasm.p
687,700,1,0.107697597678152,1
688,699,1,0.114865023512985,1
688,700,1,0.119664115884627,1
688,701,1,0.10297628853738,1
689,698,1,0.109261719859232,1
689,699,1,0.148035372646006,1
689,700,1,0.158146102519856,1
689,701,1,0.132101801849202,1
690,698,1,0.117870465488013,1
690,699,1,0.17282717522069,1
690,700,1,0.193768869591268,1
690,701,1,0.161861668375909,1
691,699,1,0.137559709680829,1
691,700,1,0.156981378601089,1
691,701,1,0.135693103812785,1
692,707,1,0.0780819050592715,1
692,708,1,0.0802391947556013,1
692,709,1,0.0772982446985451,1
693,707,1,0.0785207699555137,1
693,708,1,0.0811227406205619,1
693,709,1,0.0788895784318996,1
694,708,1,0.0821480105749735,1
686,700,2,0.0893376345195869,1
687,699,2,0.0962286142236383,1
687,700,2,0.105344418348188,1
687,701,2,0.0898898738955692,1
688,698,2,0.083909987036208,1
688,699,2,0.109224056147873,1
688,700,2,0.11462454598696,1
688,701,2,0.0934437697081599,1
688,702,2,0.0772461396372994,1
689,697,2,0.073404015804575,1
689,698,2,0.105870176924565,1
689,699,2,0.156755132782791,1
689,700,2,0.160669667017332,1
689,701,2,0.119208389769003,1
689,702,2,0.0873165822779109,1
690,697,2,0.0738193828096496,1
690,698,2,0.124318147861597,1
690,699,2,0.201503179804354,1
690,700,2,0.211810362350779,1
690,701,2,0.153708660842304,1
690,702,2,0.100233186770703,1
691,698,2,0.0978206128221266,1
691,699,2,0.152798370627595,1
691,700,2,0.162664669723273,1
691,701,2,0.121638298129264,1
691,702,2,0.0833992927464196,1
691,707,2,0.0715471373327211,1
691,708,2,0.0739285464768761,1
691,709,2,0.0719740765849882,1
692,699,2,0.0851115900056802,1
692,700,2,0.0896992372954695,1
692,701,2,0.0781098413744399,1
692,706,2,0.0709551378237869,1
692,707,2,0.0776162838337288,1
692,708,2,0.086961783887541,1
692,709,2,0.0846879630995299,1
692,710,2,0.0715384341882229,1
693,706,2,0.0729789872908454,1
693,707,2,0.0789250618648022,1
693,708,2,0.0883426548623037,1
693,709,2,0.0869188671426478,1
693,710,2,0.0733433633330065,1
694,707,2,0.0769736407688879,1
694,708,2,0.0809644967289594,1
694,709,2,0.0807739679448274,1
696,709,2,0.150780762507107,1
697,708,2,0.141101236606022,1
697,709,2,0.153355479691449,1
698,709,2,0.12190281861607,1
686,700,3,0.0843023173628655,1
687,699,3,0.0901397374005541,1
687,700,3,0.099387711921868,1
687,701,3,0.0849392102427661,1
688,698,3,0.0815353882673418,1
688,699,3,0.106842054015896,1
688,700,3,0.113044431104015,1
688,701,3,0.0903262530347799,1
688,702,3,0.0736405041397977,1
689,697,3,0.0727291896733962,1
689,698,3,0.106538899474021,1
689,699,3,0.166837015895524,1
689,700,3,0.166608985123984,1
689,701,3,0.113419223366605,1
689,702,3,0.0792265213000747,1
690,697,3,0.0745915428004953,1
690,698,3,0.132770740030593,1
690,699,3,0.226577675846166,1
690,700,3,0.225003802309792,1
690,701,3,0.144631586609238,1
690,702,3,0.0879334153980561,1
691,698,3,0.103415830278308,1
691,699,3,0.169884170670473,1
691,700,3,0.168232190455326,1
691,701,3,0.110306863890343,1
691,702,3,0.0723982246016488,1
691,707,3,0.070439328265312,1
691,708,3,0.0751576664771981,1
692,699,3,0.0881317608398413,1
692,700,3,0.0874052010135276,1
692,701,3,0.0706924382288779,1
692,707,3,0.0788709681979313,1
692,708,3,0.092928247658932,1
692,709,3,0.0899503047454264,1
693,706,3,0.070624598026134,1
693,707,3,0.0804206370495724,1
693,708,3,0.0939837420229361,1
693,709,3,0.0922124514600534,1
694,707,3,0.0756576270884312,1
694,708,3,0.0814446371714764,1
695,709,3,0.104480165551658,1
696,708,3,0.145395271067072,1
696,709,3,0.172294887788495,1
696,710,3,0.120171701480682,1
697,707,3,0.152327502358295,1
697,708,3,0.166611716461831,1
697,709,3,0.197119610171962,1
697,710,3,0.1371253550859,1
698,708,3,0.130163630137754,1
698,709,3,0.152910511213484,1
698,710,3,0.111518511714133,1
699,709,3,0.1038389480535,1
668,701,4,0.0935221698859556,1
669,701,4,0.0864378521928378,1
670,697,4,0.0786388404196217,1
670,698,4,0.0797154607235055,1
670,700,4,0.0800936851277313,1
670,701,4,0.0794384934822133,1
670,710,4,0.094007755034838,1
671,697,4,0.0697790872386433,1
671,698,4,0.0741394764379943,1
671,710,4,0.0905627174108987,1
671,711,4,0.0906797396642103,1
672,711,4,0.0885733331148263,1
672,712,4,0.0882419487587603,1
674,697,4,0.0685026300387553,1
675,696,4,0.0704345244649764,1
676,701,4,0.0788597972657296,1
676,702,4,0.0830147191796556,1
677,694,4,0.0677537642866939,1
677,701,4,0.0733447769201377,1
677,702,4,0.0781799876409358,1
678,700,4,0.0695615265955158,1
678,701,4,0.0702234627287867,1
678,702,4,0.0738696909381015,1
679,699,4,0.0680627169317166,1
679,700,4,0.0691717059849937,1
679,701,4,0.0686675585203509,1
679,702,4,0.0711361788027674,1
680,702,4,0.072488760065579,1
682,708,4,0.0728278532633306,1
683,708,4,0.0697430347770227,1
684,694,4,0.0774884140961184,1
685,694,4,0.080560168881015,1
685,695,4,0.0810216811202357,1
685,700,4,0.0682054113648764,1
685,701,4,0.0680415131247492,1
685,703,4,0.0688154760381647,1
685,704,4,0.0725343722096629,1
685,710,4,0.0712510327571744,1
686,699,4,0.0726229490168478,1
686,700,4,0.075758806384277,1
686,701,4,0.0705571291895009,1
687,698,4,0.071424137282982,1
687,699,4,0.0809459463927509,1
687,700,4,0.0878452039672059,1
687,701,4,0.0757866947812376,1
688,698,4,0.0760619249874957,1
688,699,4,0.100317666571118,1
688,700,4,0.106979627190593,1
688,701,4,0.0835530502958135,1
689,697,4,0.0690646387393601,1
689,698,4,0.101824550452937,1
689,699,4,0.162697254104602,1
689,700,4,0.161184248671731,1
689,701,4,0.102803507459475,1
689,702,4,0.0684520104419525,1
690,697,4,0.0728037024865812,1
690,698,4,0.131902210534013,1
690,699,4,0.225547841682458,1
690,700,4,0.21480946714282,1
690,701,4,0.124748573163484,1
690,702,4,0.0717560846779901,1
691,698,4,0.10423471651157,1
691,699,4,0.170293212472113,1
691,700,4,0.157763571466701,1
691,701,4,0.0924671906426857,1
691,707,4,0.0680291202782476,1
691,708,4,0.0737210306880662,1
691,709,4,0.0704948834375219,1
692,699,4,0.0858298599820383,1
692,700,4,0.0794329110110004,1
692,707,4,0.0772014559084923,1
692,708,4,0.0927461165407232,1
692,709,4,0.0890782352912425,1
693,707,4,0.0775253710139119,1
693,708,4,0.0924420335835718,1
693,709,4,0.0898338874594888,1
694,707,4,0.069144458494063,1
694,708,4,0.0758261733947185,1
694,709,4,0.0761592348880588,1
695,706,4,0.0910415880209081,1
695,707,4,0.0788584795150141,1
695,708,4,0.0832577243911441,1
695,709,4,0.0936874996825419,1
696,705,4,0.101295078215453,1
696,706,4,0.15233774487522,1
696,707,4,0.127283302603387,1
696,708,4,0.148080295965852,1
696,709,4,0.187639915177105,1
696,710,4,0.119333276598175,1
697,705,4,0.112641175425971,1
697,707,4,0.157004055892948,1
697,708,4,0.201040026366515,1
697,709,4,0.259223320603382,1
697,710,4,0.163519039389438,1
698,707,4,0.103887201688791,1
698,708,4,0.154789743529293,1
698,709,4,0.206931210633395,1
698,710,4,0.134820357513915,1
699,708,4,0.0905344037398436,1
699,709,4,0.114892360850556,1
667,698,5,0.0727208399256808,1
667,699,5,0.071333260401821,1
667,700,5,0.0761549282391295,1
667,701,5,0.0849281650958599,1
667,702,5,0.09203928104671,1
668,700,5,0.0783071266258768,1
668,701,5,0.0831178032242629,1
669,697,5,0.0755080204537912,1
669,698,5,0.0772258822149367,1
669,700,5,0.0779310106227958,1
669,701,5,0.0779734302162827,1
670,698,5,0.0708923709612977,1
670,699,5,0.0734153544505042,1
670,700,5,0.0746232946029627,1
670,701,5,0.0733658848906895,1
670,710,5,0.0907985229116598,1
670,711,5,0.0900853202857804,1
671,698,5,0.068785593045803,1
671,699,5,0.0767860948931937,1
671,701,5,0.0778553837112786,1
671,710,5,0.0872332764735879,1
671,711,5,0.0868628387781355,1
671,712,5,0.0872582238905426,1
672,698,5,0.0727627743473133,1
672,710,5,0.0856474952625664,1
672,711,5,0.0851813948549454,1
672,712,5,0.0851779627133091,1
674,702,5,0.0821365701028526,1
675,697,5,0.0741964152484554,1
675,701,5,0.0775430468428274,1
675,702,5,0.0751596191441674,1
676,696,5,0.0729512246791804,1
676,700,5,0.0698323423368771,1
676,701,5,0.0702885715936839,1
676,702,5,0.0721685825803706,1
677,693,5,0.0679896356749907,1
677,696,5,0.0724320728257089,1
677,702,5,0.0709879018983948,1
678,697,5,0.0682964978881967,1
678,702,5,0.0687538232740077,1
682,708,5,0.0709739277510346,1
684,694,5,0.0696585190379519,1
684,695,5,0.0701109627563397,1
685,693,5,0.0692813488342986,1
685,694,5,0.0736485184600583,1
685,695,5,0.0735622896450574,1
685,696,5,0.0689036754894629,1
685,710,5,0.0704640899992113,1
685,711,5,0.0842286670774215,1
686,695,5,0.0715370026317638,1
686,711,5,0.0788236130290374,1
686,712,5,0.0917478904248591,1
686,713,5,0.0944755505490612,1
687,699,5,0.0718377912121265,1
687,700,5,0.0749877664815395,1
687,712,5,0.0786388404196217,1
688,698,5,0.0716389965371428,1
688,699,5,0.0893625759467656,1
688,700,5,0.0945709137724309,1
688,701,5,0.0749035502312676,1
689,698,5,0.0926080342350677,1
689,699,5,0.137815233524115,1
689,700,5,0.136485814725016,1
689,701,5,0.0884021393275561,1
690,697,5,0.0721315777443692,1
690,698,5,0.119068049317803,1
690,699,5,0.1884574716801,1
690,700,5,0.17588143386995,1
690,701,5,0.101605731956854,1
691,698,5,0.0980890206735441,1
691,699,5,0.1463420629766,1
691,700,5,0.130591084510756,1
691,701,5,0.0768465676714827,1
691,708,5,0.069212250778599,1
692,699,5,0.0785867772868078,1
692,700,5,0.0701824028144472,1
692,707,5,0.0716887476164285,1
692,708,5,0.0830402356253283,1
692,709,5,0.0787987314996185,1
693,707,5,0.0710312558969345,1
693,708,5,0.0819907909350635,1
693,709,5,0.078781936167772,1
694,708,5,0.0700370908491844,1
694,709,5,0.0685760467229361,1
695,706,5,0.0812818889683373,1
695,707,5,0.0738163699523319,1
695,708,5,0.0750072572125768,1
695,709,5,0.0826118228881703,1
696,705,5,0.0859748065709663,1
696,706,5,0.130907392600681,1
696,707,5,0.114869204376619,1
696,708,5,0.135249548921951,1
696,709,5,0.180843232516299,1
696,710,5,0.1118833849077,1
697,705,5,0.095883878656914,1
697,706,5,0.151971613828696,1
697,707,5,0.143361286899057,1
697,708,5,0.202101246956355,1
697,709,5,0.282165624110219,1
697,710,5,0.175009394364646,1
697,711,5,0.0683194327404222,1
698,707,5,0.0909177913309637,1
698,708,5,0.152580258925078,1
698,709,5,0.227445570426492,1
698,710,5,0.144099107504212,1
699,708,5,0.0806629174981674,1
699,709,5,0.111834747926747,1
663,694,6,0.211085455702636,1
663,708,6,0.0921104156262426,1
664,694,6,0.14596628839075,1
664,706,6,0.0833850490591404,1
664,707,6,0.0932475506368474,1
665,694,6,0.0796462308927344,1
665,695,6,0.0707592062617214,1
665,704,6,0.0771830493269073,1
665,705,6,0.085780570115503,1
665,706,6,0.0956198313624095,1
666,701,6,0.0694146393191704,1
666,702,6,0.0728196712293426,1
666,703,6,0.0775623099623775,1
666,704,6,0.0892947297542457,1
666,705,6,0.101832984057516,1
667,700,6,0.0706461492401083,1
667,701,6,0.0762510222151687,1
667,702,6,0.0820778163902696,1
668,697,6,0.069259605947493,1
668,698,6,0.0706674369039394,1
668,699,6,0.0710994015782533,1
668,700,6,0.0726564019156933,1
668,701,6,0.0764188737074423,1
669,697,6,0.0687218199009492,1
669,698,6,0.0709350001969438,1
669,699,6,0.0718016548936422,1
669,700,6,0.072404591733515,1
669,701,6,0.0730987229126757,1
669,711,6,0.0929336803857454,1
670,699,6,0.0688921152218225,1
670,700,6,0.0701127477095815,1
670,701,6,0.069924722651809,1
670,702,6,0.073355193140566,1
670,710,6,0.0905320916863155,1
670,711,6,0.0887698636544898,1
670,712,6,0.0913019336338572,1
671,699,6,0.07058427485424,1
671,700,6,0.0731156200707139,1
671,701,6,0.0705992792430686,1
671,702,6,0.0711874093567201,1
671,710,6,0.0868277027522398,1
671,711,6,0.0856375043162326,1
671,712,6,0.0873572887954675,1
672,698,6,0.0682768993411917,1
672,699,6,0.079958453955442,1
672,701,6,0.0772574123956928,1
672,702,6,0.072715233495364,1
672,710,6,0.0854756605692664,1
672,711,6,0.0844717381764458,1
672,712,6,0.0856019549957942,1
673,698,6,0.0715175418496064,1
673,702,6,0.0743540182340281,1
673,703,6,0.0751394934968763,1
674,698,6,0.0714855863947558,1
674,701,6,0.0751347196454206,1
674,702,6,0.0725932397279894,1
675,698,6,0.0712190653227718,1
675,699,6,0.070994269030261,1
675,700,6,0.0706616328110153,1
675,701,6,0.0684700815960827,1
675,702,6,0.0690262921935393,1
676,697,6,0.0716558278076452,1
676,699,6,0.0684576588007012,1
677,697,6,0.0703484873228069,1
678,693,6,0.071427958760057,1
679,693,6,0.0683981982945527,1
681,702,6,0.0696501153822526,1
682,708,6,0.0702420250445472,1
683,709,6,0.0748740026663608,1
684,706,6,0.0711632286310908,1
684,710,6,0.081534747361312,1
685,705,6,0.0678212810415348,1
685,710,6,0.0703179933732952,1
685,711,6,0.0884503390548632,1
686,711,6,0.0802144989092378,1
686,712,6,0.102718452640566,1
687,695,6,0.0690444172556533,1
687,712,6,0.0787484712893745,1
687,713,6,0.0835381956513843,1
688,699,6,0.0760607569811797,1
688,700,6,0.0797605277979753,1
688,713,6,0.0719422888438649,1
689,698,6,0.0784361943186831,1
689,699,6,0.105901443555178,1
689,700,6,0.105801629928256,1
689,701,6,0.0745436605313152,1
690,698,6,0.0975474730476852,1
690,699,6,0.138546884660011,1
690,700,6,0.12908532670682,1
690,701,6,0.0812581994043383,1
690,715,6,0.0694024201761722,1
691,698,6,0.0841474876435713,1
691,699,6,0.111713814349721,1
691,700,6,0.0989041153786109,1
692,708,6,0.0711955973804841,1
693,708,6,0.070702333338796,1
695,709,6,0.0728418992880025,1
696,705,6,0.0699984747634446,1
696,706,6,0.0981151780252466,1
696,707,6,0.0911693619221028,1
696,708,6,0.114354443028941,1
696,709,6,0.161917457149382,1
696,710,6,0.106718664630718,1
697,705,6,0.0773993041988713,1
697,706,6,0.111319028214912,1
697,707,6,0.111792651781163,1
697,708,6,0.175799625509622,1
697,709,6,0.264273612200052,1
697,710,6,0.175089357873973,1
697,711,6,0.0729456062693116,1
698,706,6,0.0712547044898498,1
698,707,6,0.0729656300904111,1
698,708,6,0.129700476699915,1
698,709,6,0.208342617486102,1
698,710,6,0.140339444917397,1
699,709,6,0.0955094098422274,1
699,710,6,0.0726426014718365,1
662,693,7,0.0932661249321598,1
662,694,7,0.13678908906241,1
662,695,7,0.105356996877745,1
662,708,7,0.0822531071843098,1
663,693,7,0.130735653743797,1
663,694,7,0.198960567819262,1
663,695,7,0.152763737742882,1
663,696,7,0.0799655698093057,1
663,706,7,0.0743615533722103,1
663,707,7,0.083234058786249,1
663,708,7,0.0911123751934338,1
664,693,7,0.0958519830998231,1
664,694,7,0.142995670973268,1
664,695,7,0.113673225806792,1
664,696,7,0.0725938986033472,1
664,704,7,0.0702918000829368,1
664,705,7,0.0743409245837369,1
664,706,7,0.0811786791384345,1
664,707,7,0.0901349276104426,1
665,694,7,0.0782817838837075,1
665,695,7,0.0723161407116256,1
665,704,7,0.0739686480270588,1
665,705,7,0.0814955622468541,1
665,706,7,0.0901512677193147,1
666,702,7,0.0681699878297336,1
666,703,7,0.0734119941861797,1
666,704,7,0.0835287737337685,1
666,705,7,0.0918251645247707,1
667,701,7,0.0712736801001529,1
667,702,7,0.0766058805032983,1
667,703,7,0.0877819159942065,1
668,699,7,0.0682937964992299,1
668,700,7,0.0694026837263153,1
668,701,7,0.0730116375597097,1
668,702,7,0.0819211238506458,1
669,698,7,0.0678271270628908,1
669,699,7,0.0689620518461592,1
669,700,7,0.069041302572144,1
669,701,7,0.0705685397127419,1
669,711,7,0.091583698685709,1
669,712,7,0.0941878675985416,1
670,710,7,0.0902765738328059,1
670,711,7,0.0874043205164586,1
670,712,7,0.0899704483620454,1
670,713,7,0.0926033262711479,1
671,709,7,0.0887240179091427,1
671,710,7,0.0865653146256816,1
671,711,7,0.0849365328129033,1
671,712,7,0.0879750024126818,1
672,699,7,0.068405709473631,1
672,700,7,0.0705239997385583,1
672,701,7,0.0678006103246296,1
672,702,7,0.0678111223814736,1
672,703,7,0.0720198983712314,1
672,710,7,0.0852133263506921,1
672,711,7,0.0846779242349882,1
673,699,7,0.0715063529480767,1
673,700,7,0.0734769233577975,1
673,701,7,0.0702397908581068,1
673,702,7,0.0703120515155235,1
673,703,7,0.0730425927219717,1
673,711,7,0.0851086130870184,1
674,699,7,0.0694131957831594,1
674,700,7,0.0700169232734614,1
674,701,7,0.0683782703098688,1
674,702,7,0.0701562574422967,1
674,703,7,0.0727459370870349,1
675,703,7,0.0703607424044609,1
676,703,7,0.0686570464635069,1
678,703,7,0.0693795392319305,1
679,703,7,0.0728237622463366,1
680,703,7,0.0753598393858343,1
681,702,7,0.069156444035798,1
681,708,7,0.0729812394466137,1
682,707,7,0.0690485082726473,1
682,708,7,0.0700797320643825,1
683,709,7,0.0754121540892392,1
684,709,7,0.0687307746160386,1
684,710,7,0.081584438542838,1
685,710,7,0.0712974295619116,1
686,711,7,0.0827591773670421,1
687,712,7,0.0792689229242336,1
687,713,7,0.0871721508097171,1
687,714,7,0.0821609784399691,1
687,715,7,0.0774134700190628,1
688,700,7,0.0686491459489899,1
688,713,7,0.0717397745179979,1
688,714,7,0.0735140779381983,1
688,715,7,0.0739507565662081,1
689,699,7,0.0814081234971053,1
689,700,7,0.0818210586531323,1
689,714,7,0.0689128278671596,1
689,715,7,0.0720588079559942,1
690,698,7,0.0778619245466482,1
690,699,7,0.0967377451818961,1
690,700,7,0.0911619825180961,1
691,698,7,0.0715532528939962,1
691,699,7,0.0835670663716055,1
691,700,7,0.0755415332503965,1
695,709,7,0.0722887794149513,1
696,706,7,0.0743921611274656,1
696,707,7,0.0766103967943869,1
696,708,7,0.103827279969892,1
696,709,7,0.148492859755769,1
696,710,7,0.112293169441562,1
697,706,7,0.0807237436732392,1
697,707,7,0.0883056440365263,1
697,708,7,0.148993688884519,1
697,709,7,0.231072116231938,1
697,710,7,0.175337646067875,1
697,711,7,0.0822018466814772,1
698,708,7,0.111799180636981,1
698,709,7,0.178194469721299,1
698,710,7,0.137840426521885,1
698,711,7,0.0711271522103663,1
699,709,7,0.0843014009271407,1
699,710,7,0.0721755546796107,1
661,707,8,0.0703602153041747,1
661,708,8,0.072915687338294,1
662,693,8,0.0879667185525021,1
662,694,8,0.128041440528664,1
662,695,8,0.104284539468167,1
662,707,8,0.0732506535803958,1
662,708,8,0.0790801251853596,1
663,693,8,0.122825196198706,1
663,694,8,0.188966195333591,1
663,695,8,0.15323128767629,1
663,696,8,0.0833409643079312,1
663,706,8,0.0714666826617644,1
663,707,8,0.0788308906068525,1
663,708,8,0.0870957332477706,1
664,693,8,0.0927072548741682,1
664,694,8,0.13977577105907,1
664,695,8,0.11673878117355,1
664,696,8,0.0738173942040244,1
664,704,8,0.0681136420070944,1
664,705,8,0.0716209433523406,1
664,706,8,0.0773451027160328,1
664,707,8,0.0838888191678965,1
665,694,8,0.0756154650553115,1
665,695,8,0.07097643746717,1
665,704,8,0.0702778858333365,1
665,705,8,0.0764996757854058,1
665,706,8,0.0834628682286661,1
665,707,8,0.094698585847434,1
666,703,8,0.0689037952849825,1
666,704,8,0.0781892418448242,1
666,705,8,0.0832826777978747,1
666,706,8,0.0915869391545139,1
667,702,8,0.0717051056946286,1
667,703,8,0.0820833389637228,1
667,705,8,0.0938832755104319,1
668,701,8,0.0687477376616125,1
668,702,8,0.0776839503329693,1
669,710,8,0.0905567096655913,1
669,711,8,0.08889956626355,1
669,712,8,0.0918532266252347,1
670,709,8,0.0909898483359971,1
670,710,8,0.0879613157745686,1
670,711,8,0.0862094560449634,1
670,712,8,0.08922394258172,1
671,710,8,0.0859466246749828,1
671,711,8,0.0854544986907308,1
671,712,8,0.0895007780479406,1
672,703,8,0.0690273344145598,1
672,711,8,0.0860005745872302,1
673,703,8,0.0710923156732695,1
673,704,8,0.072801132872686,1
673,711,8,0.0865107717256123,1
674,703,8,0.0710183599092506,1
674,704,8,0.0714047843167923,1
675,703,8,0.069059721133281,1
675,704,8,0.0704857250700492,1
676,704,8,0.0701768802409941,1
677,704,8,0.0686699783898466,1
678,704,8,0.0705948587883958,1
679,703,8,0.0698298086616378,1
680,702,8,0.0679228616523712,1
680,703,8,0.07293847244612,1
680,708,8,0.0746372088525631,1
680,709,8,0.0791040902790536,1
681,702,8,0.0683728375830554,1
681,708,8,0.07034465386618,1
681,709,8,0.0779529212233288,1
682,709,8,0.0812061242919725,1
683,709,8,0.0744129037216826,1
684,706,8,0.0785414646315229,1
684,709,8,0.0681156785309274,1
684,710,8,0.0770626308706154,1
685,705,8,0.0732445979168805,1
686,711,8,0.0765758118278812,1
686,715,8,0.0796220381875532,1
687,712,8,0.0741008723318064,1
687,713,8,0.0871910126142765,1
687,714,8,0.0790294337112451,1
687,715,8,0.0716204641702622,1
688,713,8,0.0678511700236726,1
688,714,8,0.0698564931136264,1
688,715,8,0.0690519823427154,1
688,716,8,0.0700309812776853,1
689,715,8,0.0677669657529527,1
690,699,8,0.069040416085299,1
695,709,8,0.0699033092026822,1
696,708,8,0.0939355363058531,1
696,709,8,0.138890170700949,1
696,710,8,0.118457583329524,1
696,711,8,0.067775345449548,1
697,707,8,0.0724090840654996,1
697,708,8,0.126423566097945,1
697,709,8,0.202332260636333,1
697,710,8,0.173152252342649,1
697,711,8,0.0886458453428342,1
698,708,8,0.0971121600885989,1
698,709,8,0.151783738515323,1
698,710,8,0.13159343758227,1
698,711,8,0.0728824440816078,1
699,709,8,0.0751131983803262,1
699,710,8,0.0692348022851618,1
659,709,9,0.077064493690945,1
661,707,9,0.0684434510520778,1
661,708,9,0.0702619051110231,1
662,693,9,0.0775085637025134,1
662,694,9,0.109570313117696,1
662,695,9,0.0953737174571877,1
662,707,9,0.0700942632609088,1
662,708,9,0.0758571105876526,1
662,709,9,0.0820015964909305,1
663,693,9,0.10777188287985,1
663,694,9,0.16357794284642,1
663,695,9,0.141333184691053,1
663,696,9,0.0830295917934127,1
663,706,9,0.0687770276661523,1
663,707,9,0.0742998107614136,1
663,708,9,0.0816986396116632,1
664,693,9,0.0839917834169841,1
664,694,9,0.124170092578936,1
664,695,9,0.110755725722695,1
664,696,9,0.0738523625161928,1
664,705,9,0.0703551359741441,1
664,706,9,0.074724306185081,1
664,707,9,0.0789085001342189,1
664,708,9,0.0845778410681467,1
665,694,9,0.0715037234364217,1
665,695,9,0.0704051865422288,1
665,704,9,0.0681634529841399,1
665,705,9,0.0739488697867745,1
665,706,9,0.0803070229787932,1
665,707,9,0.0895019220951527,1
666,704,9,0.0741647532926278,1
666,705,9,0.0786830389765744,1
666,706,9,0.0862777694400096,1
667,702,9,0.0694540760042195,1
667,703,9,0.0786790977039799,1
667,704,9,0.0876367897119991,1
667,705,9,0.0872071191218854,1
667,706,9,0.0927341250092123,1
668,702,9,0.0752281900995807,1
668,706,9,0.0917802651640283,1
668,711,9,0.0884303931008514,1
668,712,9,0.0914725823515132,1
668,713,9,0.0916128569151772,1
669,707,9,0.0957072880814862,1
669,710,9,0.087974655005675,1
669,711,9,0.0865632301836408,1
669,712,9,0.0879341521405016,1
669,713,9,0.0890593016093713,1
670,708,9,0.0900215591204785,1
670,709,9,0.0877538359244146,1
670,710,9,0.0852704807930885,1
670,711,9,0.0841610005781811,1
670,712,9,0.0861307144499368,1
671,707,9,0.0829282387940636,1
671,710,9,0.0831821394080587,1
671,711,9,0.0839659614927365,1
671,712,9,0.0876633843173481,1
672,711,9,0.0847874892172053,1
673,703,9,0.0685942376725858,1
673,704,9,0.0702823062880093,1
673,705,9,0.0721060912475764,1
674,703,9,0.0686930809557996,1
674,704,9,0.0688857840286122,1
674,705,9,0.0701438226673632,1
675,705,9,0.0689434296326389,1
676,705,9,0.0709414272265698,1
676,709,9,0.0820042859003453,1
676,710,9,0.0849791560587734,1
677,705,9,0.0708544916180033,1
677,709,9,0.081710679061382,1
677,710,9,0.0838079931308291,1
678,705,9,0.0708315927044337,1
678,709,9,0.0809702109752438,1
678,710,9,0.0832565204461722,1
679,708,9,0.073829487561727,1
679,709,9,0.0782677138999316,1
679,710,9,0.0820364749564591,1
680,704,9,0.0703763337913356,1
680,707,9,0.0698539294895072,1
680,708,9,0.0709604088266489,1
680,709,9,0.0754470205752159,1
680,710,9,0.0838983309321519,1
681,703,9,0.0733753307674091,1
681,709,9,0.0747448151780348,1
682,702,9,0.0685330760700591,1
682,709,9,0.0775194171765883,1
683,702,9,0.0725241955802737,1
683,709,9,0.0719216001576317,1
683,710,9,0.0963343158003486,1
684,703,9,0.0926438351260972,1
684,706,9,0.0773236832771301,1
684,710,9,0.071799660298241,1
685,704,9,0.0731900370474832,1
685,705,9,0.070574050306643,1
685,711,9,0.0906032262658481,1
686,712,9,0.131704787517729,1
686,715,9,0.0799766449050918,1
686,716,9,0.0708436980416883,1
687,712,9,0.0685578557732863,1
687,713,9,0.0873891963321104,1
687,714,9,0.0777563547450095,1
687,715,9,0.0691793130004877,1
687,716,9,0.0682286996138847,1
696,708,9,0.081116271662504,1
696,709,9,0.119991457141907,1
696,710,9,0.112624020707566,1
696,711,9,0.0690657648172443,1
697,708,9,0.104098161598789,1
697,709,9,0.163344760867538,1
697,710,9,0.151639660443912,1
697,711,9,0.085371444456999,1
698,708,9,0.0828853579878263,1
698,709,9,0.12003489499731,1
698,710,9,0.110650305665456,1
658,681,10,0.0701037091376285,1
661,709,10,0.079538798270766,1
662,694,10,0.0786692385327176,1
662,695,10,0.0744926276399698,1
662,708,10,0.071005661584174,1
662,709,10,0.0759510003261313,1
663,693,10,0.0814198275193693,1
663,694,10,0.117186852355472,1
663,695,10,0.109413165355097,1
663,696,10,0.0731761707160907,1
663,707,10,0.0685248760667432,1
663,708,10,0.0741911382558175,1
664,694,10,0.0931674014444656,1
664,695,10,0.0906788591671413,1
664,706,10,0.0700170730178609,1
664,707,10,0.0724144329354493,1
664,708,10,0.0763159873254424,1
665,705,10,0.0685674873330614,1
665,706,10,0.074353185655167,1
665,707,10,0.0814263144467551,1
665,708,10,0.0915149180881363,1
666,705,10,0.0712351718303807,1
666,706,10,0.0782190529598741,1
666,707,10,0.101368824337313,1
667,703,10,0.0720355496558658,1
667,704,10,0.0771440379159528,1
667,705,10,0.0778339103643921,1
667,706,10,0.0823342267204002,1
667,707,10,0.118550832161973,1
667,712,10,0.0870971528246777,1
667,713,10,0.084004984883243,1
668,702,10,0.0692005108176792,1
668,703,10,0.0809924450236797,1
668,706,10,0.0804797681180421,1
668,707,10,0.0942408232079764,1
668,710,10,0.0911401557744268,1
668,711,10,0.0847184091308337,1
668,712,10,0.0855462979973927,1
668,713,10,0.0844232988580995,1
669,702,10,0.0678049589019907,1
669,707,10,0.0839797319877134,1
669,708,10,0.0914452210548388,1
669,709,10,0.0897879039492941,1
669,710,10,0.0840150057784567,1
669,711,10,0.0828689819402983,1
669,712,10,0.0829089636949615,1
669,713,10,0.0834175076551733,1
670,707,10,0.0797936632386939,1
670,708,10,0.0819202253842489,1
670,709,10,0.0815643488342027,1
670,710,10,0.0806710216650676,1
670,711,10,0.0808756144431995,1
670,712,10,0.0818708816097298,1
671,707,10,0.0731708817439008,1
671,708,10,0.0755999155968687,1
671,710,10,0.0779047274857978,1
671,711,10,0.0802862624152483,1
671,712,10,0.0833468402781671,1
672,706,10,0.0686085831860567,1
672,707,10,0.0706249813717967,1
672,711,10,0.0802017586557294,1
673,705,10,0.0682551265055062,1
673,706,10,0.0701298964382109,1
673,711,10,0.0803019196896587,1
674,706,10,0.0693340408935902,1
674,710,10,0.0771745977530002,1
675,706,10,0.0678104575163399,1
675,707,10,0.070895515593687,1
675,708,10,0.0714546372222697,1
675,709,10,0.0725579000497104,1
675,710,10,0.0767879696930752,1
676,706,10,0.0697808961509891,1
676,707,10,0.0742507005881577,1
676,708,10,0.0746091527418751,1
676,709,10,0.0741873587071744,1
676,710,10,0.0767763794765549,1
676,711,10,0.0785053163334866,1
677,706,10,0.0693162093304993,1
677,708,10,0.0740313010838044,1
677,709,10,0.0744314001499073,1
677,710,10,0.076559807146464,1
677,711,10,0.0773443899326912,1
678,708,10,0.0710891231226724,1
678,709,10,0.0732534028875704,1
678,710,10,0.0771430376233642,1
678,711,10,0.0783460901186234,1
679,709,10,0.070790592687854,1
679,710,10,0.0767425432320467,1
679,711,10,0.0813350721892593,1
680,709,10,0.0684192942855525,1
680,710,10,0.076618548879495,1
680,711,10,0.0866277879891479,1
681,704,10,0.0729248037773348,1
681,705,10,0.0705741880714905,1
681,710,10,0.0859816648644629,1
682,703,10,0.0820922397708283,1
682,706,10,0.068140937416233,1
682,709,10,0.0684959574283141,1
682,710,10,0.0995532214117337,1
683,703,10,0.0984336963425086,1
683,706,10,0.0791529848203743,1
683,710,10,0.0810877064208578,1
683,711,10,0.105460991368302,1
684,703,10,0.0755435278457977,1
684,704,10,0.101393298561965,1
684,705,10,0.0922799622251184,1
684,711,10,0.0826697080832362,1
684,715,10,0.0787615349907858,1
685,711,10,0.0786291250029829,1
685,715,10,0.088607624582309,1
685,716,10,0.0698471251039945,1
686,712,10,0.115183583758679,1
686,714,10,0.127011294896605,1
686,715,10,0.0747244259806006,1
687,713,10,0.0819769785116547,1
687,714,10,0.0726584025008704,1
695,679,10,0.0715310368148882,1
696,709,10,0.0915510723759486,1
696,710,10,0.0924423690110266,1
697,708,10,0.0800220174581365,1
697,709,10,0.116345744053326,1
697,710,10,0.113924628684203,1
697,711,10,0.0708782051411062,1
698,709,10,0.0830366118108607,1
698,710,10,0.0786335694167597,1
698,720,10,0.0753608636375267,1
662,708,11,0.0679403278391275,1
662,709,11,0.0728857204890686,1
663,708,11,0.0690960431348207,1
663,709,11,0.0749003157522387,1
664,708,11,0.0706595423791984,1
664,709,11,0.0759693230508526,1
665,706,11,0.0689410816404549,1
665,707,11,0.0742085984527977,1
665,708,11,0.0812571871321978,1
665,709,11,0.0820372835762164,1
666,706,11,0.0702234806981146,1
666,707,11,0.0849044994909649,1
666,708,11,0.10483069922153,1
666,709,11,0.100310688482102,1
666,710,11,0.0872023452704298,1
666,713,11,0.0829880766560988,1
667,704,11,0.0678730506753257,1
667,705,11,0.0679870960099754,1
667,706,11,0.0722822805080135,1
667,707,11,0.092960676306085,1
667,708,11,0.122284439223277,1
667,709,11,0.117773934258327,1
667,710,11,0.0936290574383099,1
667,711,11,0.0863695986955514,1
667,712,11,0.0846923236564429,1
667,713,11,0.0814018342323268,1
668,703,11,0.0708572648842818,1
668,704,11,0.0735636073957729,1
668,705,11,0.0715694612277967,1
668,706,11,0.0701049669905842,1
668,707,11,0.0794371817212738,1
668,708,11,0.0991852754630888,1
668,709,11,0.100247460406862,1
668,710,11,0.0873619248820757,1
668,711,11,0.0844188424647708,1
668,712,11,0.0834482172366202,1
668,713,11,0.0818508038806465,1
669,706,11,0.0706345889724678,1
669,707,11,0.0735738918411297,1
669,708,11,0.0814537596002931,1
669,709,11,0.0844476652667841,1
669,710,11,0.0818460899269506,1
669,711,11,0.0818874193812092,1
669,712,11,0.0812549170071016,1
669,713,11,0.0818639574286975,1
670,706,11,0.0684100101327842,1
670,707,11,0.0701312920560141,1
670,708,11,0.0745988083987585,1
670,709,11,0.0769241771988492,1
670,710,11,0.0781422700215929,1
670,711,11,0.0801613336576438,1
670,712,11,0.0806132922041772,1
671,708,11,0.0699765941117915,1
671,709,11,0.0725523595069293,1
671,710,11,0.0751154385565426,1
671,711,11,0.0791046533179957,1
671,712,11,0.0817974289868931,1
672,708,11,0.0700006370725732,1
672,710,11,0.0743081125909212,1
672,711,11,0.0776336242351895,1
673,710,11,0.0740595189184439,1
673,711,11,0.07681640315965,1
674,709,11,0.068701724202538,1
674,710,11,0.0723869817921352,1
674,711,11,0.076354663308942,1
675,710,11,0.0703957586348371,1
675,711,11,0.0748238922005162,1
676,707,11,0.0678247611013789,1
676,708,11,0.0684915669225211,1
676,710,11,0.0696431612523404,1
676,711,11,0.0724235553642661,1
677,708,11,0.0683845595746473,1
677,709,11,0.0679058986067973,1
677,710,11,0.0694538424029563,1
677,711,11,0.071058281766154,1
677,712,11,0.0743101191658743,1
678,710,11,0.0694108058625436,1
678,711,11,0.0710791860843224,1
678,712,11,0.0742597631192147,1
679,710,11,0.0685285477994186,1
679,711,11,0.0731272162770102,1
680,710,11,0.0690265557436824,1
680,711,11,0.0777429975445752,1
681,710,11,0.0723289887811017,1
681,711,11,0.088058230349917,1
681,712,11,0.0872859086351198,1
682,703,11,0.0688673954163551,1
682,704,11,0.0835164168259228,1
682,705,11,0.0743141323157806,1
682,710,11,0.0790329197608651,1
682,711,11,0.0991137455583415,1
682,712,11,0.0940066109876259,1
682,713,11,0.0830747247554183,1
683,703,11,0.076899972514116,1
683,704,11,0.0963585085055298,1
683,705,11,0.0848096633678814,1
683,710,11,0.0697276290732034,1
683,711,11,0.0844356138375134,1
683,712,11,0.0892435710776048,1
683,713,11,0.093466243347635,1
683,714,11,0.0818987879760183,1
684,704,11,0.071242389510436,1
684,711,11,0.0741710904756141,1
684,712,11,0.117395128845832,1
684,714,11,0.117214956384368,1
684,715,11,0.0752843262800607,1
684,716,11,0.0697852147794703,1
685,711,11,0.0725155403539833,1
685,712,11,0.152933703626076,1
685,714,11,0.162092933626478,1
685,715,11,0.0841122977096918,1
686,712,11,0.100308969416396,1
686,713,11,0.154838500305766,1
686,714,11,0.112679581869552,1
686,715,11,0.0705604115867377,1
687,713,11,0.0754165565745842,1
687,714,11,0.0679482103843165,1
696,710,11,0.0684748674270903,1
697,709,11,0.0761509450381031,1
697,710,11,0.0761975874236555,1
698,720,11,0.0684221693780226,1
698,721,11,0.0840779822831052,1
699,720,11,0.0930850300451955,1
664,709,12,0.068291149018247,1
664,710,12,0.078360249949039,1
665,709,12,0.0732825371579347,1
665,710,12,0.0775540380817498,1
666,708,12,0.0795601877607889,1
666,709,12,0.0807119977225434,1
666,710,12,0.0777225724084851,1
666,711,12,0.0799525061078944,1
667,708,12,0.0851260133862389,1
667,709,12,0.0876995625642643,1
667,710,12,0.0803607512693294,1
667,711,12,0.0785262026823271,1
667,712,12,0.0772798321271841,1
667,713,12,0.0753581143303522,1
668,708,12,0.0761176418836571,1
668,709,12,0.0822116639243076,1
668,710,12,0.0783300854372062,1
668,711,12,0.0772651032680505,1
668,712,12,0.076174053593832,1
668,713,12,0.0759881549065322,1
669,704,12,0.0684852776577427,1
669,708,12,0.0680606205101238,1
669,709,12,0.07404194491572,1
669,710,12,0.0743475672452982,1
669,711,12,0.0751960669310027,1
669,712,12,0.0750204347197317,1
669,713,12,0.0769731496072576,1
670,709,12,0.0679268089147417,1
670,710,12,0.0707844232185951,1
670,711,12,0.0742354625980658,1
670,712,12,0.07540197745985,1
671,710,12,0.0680116061732835,1
671,711,12,0.0732078985594541,1
671,712,12,0.0768926949363009,1
672,711,12,0.071130758055506,1
673,711,12,0.0704780102385876,1
674,711,12,0.0694592930990976,1
676,712,12,0.0689668436669428,1
677,713,12,0.0714985901984072,1
680,712,12,0.067817148096109,1
680,720,12,0.0713932779571356,1
681,712,12,0.0686742191512401,1
682,711,12,0.0691123473050369,1
682,712,12,0.0694814732395497,1
682,713,12,0.0697643703590617,1
683,712,12,0.0713074624366773,1
683,713,12,0.0783795010890371,1
683,714,12,0.074709984630714,1
683,715,12,0.0719124058515032,1
683,716,12,0.0707172179321051,1
684,712,12,0.089941074500642,1
684,713,12,0.118648058205672,1
684,714,12,0.0947670370073277,1
684,715,12,0.0689742949482613,1
685,712,12,0.110242365982596,1
685,713,12,0.15445388481057,1
685,714,12,0.118509957930689,1
685,715,12,0.0717588339851647,1
686,712,12,0.0768472265468405,1
686,713,12,0.107324099207174,1
686,714,12,0.0850560647823502,1
698,721,12,0.0706409141759022,1
699,720,12,0.070358663952196,1
699,721,12,0.083548522025173,1
699,722,12,0.0758943130862613,1
700,713,12,0.074993175249249,1
700,721,12,0.0749223820869472,1
702,714,12,0.0774106128959206,1
702,715,12,0.070150597103996,1
669,711,13,0.0688189560980088,1
669,712,13,0.069703478296454,1
669,713,13,0.0733726772966502,1
670,711,13,0.0681937792199242,1
670,712,13,0.0711682720224656,1
671,712,13,0.0720602514920053,1
672,712,13,0.0716553426357909,1
676,714,13,0.073791793901488,1
679,721,13,0.0819769545525508,1
680,720,13,0.0718919567563092,1
682,715,13,0.0705223465603879,1
684,713,13,0.0795087954828847,1
684,714,13,0.0707585174374838,1
685,712,13,0.072119370580923,1
685,713,13,0.0910952683932364,1
685,714,13,0.077090788807495,1
700,714,13,0.070965925410326,1
701,714,13,0.0754311536586462,1
701,715,13,0.0691729877970534,1
668,714,14,0.0718069378760561,1
669,714,14,0.0739187112647177,1
670,713,14,0.0680274790796292,1
676,715,14,0.0747434075806796,1
679,721,14,0.0803472802631515,1
679,722,14,0.0677485232327118,1
680,720,14,0.0707411351075912,1
668,715,15,0.0680136067584607,1
672,719,15,0.0868855520086498,1
676,716,15,0.0763682181719836,1
678,722,15,0.0797297403494407,1
679,721,15,0.0888794166571549,1
679,722,15,0.0715271853889334,1
680,719,15,0.074175205451712,1
680,720,15,0.0755199640670943,1
680,721,15,0.0692781443041495,1
663,716,16,0.0680502941363352,1
665,716,16,0.0694609043488361,1
670,720,16,0.0758806264481481,1
671,719,16,0.0778820442041634,1
671,720,16,0.0769931494692531,1
672,719,16,0.0810213756416607,1
672,720,16,0.0809420889770201,1
673,719,16,0.0874630682392656,1
673,720,16,0.08593165622481,1
673,721,16,0.0817415803156602,1
674,718,16,0.0935026492060384,1
674,719,16,0.103288355865912,1
674,720,16,0.0982903370442152,1
674,721,16,0.085611969901232,1
675,716,16,0.0745879309655797,1
675,717,16,0.0831460150691263,1
675,718,16,0.104092447352505,1
675,721,16,0.0940216872537663,1
676,716,16,0.0678395378787204,1
676,717,16,0.0778056685706487,1
676,721,16,0.113123843553952,1
676,722,16,0.0800836941813974,1
677,717,16,0.0718689919552038,1
677,718,16,0.102500664385952,1
677,721,16,0.118998987200759,1
677,722,16,0.0839359826639591,1
678,718,16,0.0827632444249321,1
678,721,16,0.121217300734768,1
678,722,16,0.0847103888207971,1
678,723,16,0.0716981575544924,1
679,718,16,0.0744270455827702,1
679,719,16,0.0995605169588767,1
679,720,16,0.122817193857997,1
679,721,16,0.107069893114604,1
679,722,16,0.0765087263369108,1
680,719,16,0.0727708066369018,1
680,720,16,0.0804757849170157,1
680,721,16,0.0734444887208685,1
687,667,16,0.067983136768053,1
689,670,16,0.0678481511765789,1
669,720,17,0.0696055274898612,1
670,719,17,0.0712446716150842,1
670,720,17,0.0707830276007919,1
670,721,17,0.0702087338696531,1
671,718,17,0.0712574178583685,1
671,719,17,0.0712925299251604,1
671,720,17,0.0726641107573789,1
671,721,17,0.0726215234501646,1
672,718,17,0.0729781187733284,1
672,719,17,0.0724374456547625,1
672,720,17,0.0747653181812127,1
672,721,17,0.0745410310196602,1
672,722,17,0.0726451950448356,1
673,718,17,0.0746209466107787,1
673,719,17,0.0754071646058483,1
673,720,17,0.0767011718493563,1
673,721,17,0.0751593496042483,1
673,722,17,0.0715991166086713,1
674,717,17,0.0780667988442512,1
674,718,17,0.0793273771480175,1
674,719,17,0.0845546845942099,1
674,720,17,0.0831464702921008,1
674,721,17,0.0763550286852768,1
674,722,17,0.0709927715862661,1
674,723,17,0.0689288385383528,1
675,717,17,0.0732565475199596,1
675,718,17,0.0849221813096564,1
675,719,17,0.103743866349601,1
675,720,17,0.100336318733518,1
675,721,17,0.0807864446481927,1
675,722,17,0.0721224613053284,1
675,723,17,0.0710144066571041,1
676,718,17,0.0876815153692381,1
676,719,17,0.121534878657201,1
676,720,17,0.123744530975144,1
676,721,17,0.0929856836207995,1
676,722,17,0.0765276300699021,1
676,723,17,0.0738999512863499,1
677,718,17,0.0783489771906456,1
677,719,17,0.118382016315766,1
677,720,17,0.140013397451729,1
677,721,17,0.111677384532213,1
677,722,17,0.0840388091481992,1
677,723,17,0.0742158580612849,1
677,724,17,0.0712267741644574,1
678,718,17,0.0732908569567702,1
678,719,17,0.11853406078923,1
678,720,17,0.161227974036382,1
678,721,17,0.138107558551019,1
678,722,17,0.0918867693707199,1
678,723,17,0.070323300314813,1
678,724,17,0.0682201941319938,1
679,719,17,0.101668229279424,1
679,720,17,0.139712710697558,1
679,721,17,0.123308355488317,1
679,722,17,0.0824984304391023,1
680,719,17,0.0709876802766836,1
680,720,17,0.0859709311859076,1
680,721,17,0.0787549162883285,1
688,665,17,0.0685297816932704,1
688,666,17,0.0681048789648364,1
672,717,18,0.0689325102710283,1
672,721,18,0.0680902758909984,1
674,720,18,0.0680716177388222,1
675,718,18,0.0685988857387459,1
675,719,18,0.0747510685041574,1
675,720,18,0.0747755487185857,1
675,721,18,0.068588613272941,1
676,718,18,0.0679615376358709,1
676,719,18,0.0815005277711411,1
676,720,18,0.0867649957875103,1
676,721,18,0.0773974773171976,1
676,722,18,0.0702314051717355,1
676,723,18,0.0690541925700519,1
677,719,18,0.0909371802358093,1
677,720,18,0.116266187848767,1
677,721,18,0.103770952116581,1
677,722,18,0.07962941759156,1
677,723,18,0.0684326035677789,1
678,719,18,0.109404084854712,1
678,720,18,0.159422751392575,1
678,721,18,0.141875499008237,1
678,722,18,0.0921510502664875,1
679,719,18,0.096468349017442,1
679,720,18,0.141124321202647,1
679,721,18,0.126749889093308,1
679,722,18,0.0822780665808164,1
680,720,18,0.0847758450927011,1
680,721,18,0.0778811756866464,1
689,666,18,0.0681141391585007,1
689,667,18,0.0756998729784147,1
689,669,18,0.0724099406034647,1
690,666,18,0.0695013233571458,1
690,670,18,0.0694643185211444,1
694,670,18,0.0721076965075389,1
677,719,19,0.0708156898492081,1
677,720,19,0.0913407833208602,1
677,721,19,0.087272988688332,1
677,722,19,0.0705706121752308,1
678,719,19,0.0863064784362794,1
678,720,19,0.127234306235874,1
678,721,19,0.119881904139242,1
678,722,19,0.0831784437162794,1
679,719,19,0.0802722044110244,1
679,720,19,0.119389233085376,1
679,721,19,0.113051786548918,1
679,722,19,0.0771585751022551,1
680,720,19,0.0786927064750053,1
680,721,19,0.0747975731248623,1
689,666,19,0.0684400668286494,1
689,667,19,0.0738365375280549,1
689,668,19,0.0710980778377618,1
690,666,19,0.0712745665869979,1
690,667,19,0.0805663143911699,1
690,669,19,0.0795944852180475,1
691,666,19,0.0707187573045318,1
691,667,19,0.101915355456787,1
691,670,19,0.0777643570857181,1
692,666,19,0.07753000710052,1
694,670,19,0.0753846190890615,1
698,679,19,0.0683370666409058,1
698,680,19,0.0677587298109809,1
699,681,19,0.0683624992297148,1
678,720,20,0.0808850423505913,1
678,721,20,0.0815088595495286,1
679,720,20,0.0854747381437655,1
679,721,20,0.0856825114929426,1
683,729,20,0.0677466184839503,1
684,728,20,0.0679478689670857,1
684,729,20,0.0702075119553533,1
685,661,20,0.0703927697366233,1
690,666,20,0.0683299807359221,1
690,667,20,0.0739453897269304,1
690,668,20,0.0754372692199213,1
690,669,20,0.0705818430051923,1
691,666,20,0.0704243837742431,1
691,667,20,0.0896963562132234,1
691,668,20,0.116931148818907,1
691,669,20,0.10472955586434,1
691,670,20,0.0712317336989684,1
692,666,20,0.0762798809558379,1
692,667,20,0.128565126642552,1
692,670,20,0.09733273957882,1
693,667,20,0.125736119508777,1
693,670,20,0.098480626237308,1
693,671,20,0.0678650842732729,1
694,668,20,0.110676912250357,1
694,669,20,0.10046373923793,1
694,670,20,0.0737568854870795,1
697,677,20,0.0694150346443851,1
697,678,20,0.0695491157796863,1
698,679,20,0.0700685850912847,1
698,680,20,0.0740873893460765,1
698,681,20,0.068306327110579,1
699,681,20,0.0696436763730747,1
703,723,20,0.0678014608728187,1
684,730,21,0.0698361877730559,1
685,661,21,0.0696039042605708,1
691,667,21,0.0754779218294942,1
691,668,21,0.087084789927056,1
691,669,21,0.081711847067698,1
692,666,21,0.0708830149312177,1
692,667,21,0.0937355556552254,1
692,668,21,0.124256021905138,1
692,669,21,0.117094418132557,1
692,670,21,0.0829808469964915,1
693,666,21,0.0682739463816338,1
693,667,21,0.0931121038326228,1
693,668,21,0.127150784799616,1
693,669,21,0.121109580603553,1
693,670,21,0.0870798004436651,1
694,668,21,0.0877100446722284,1
694,669,21,0.086238799957487,1
694,670,21,0.07122250944396,1
695,669,21,0.0679504864991887,1
697,677,21,0.068692655681705,1
697,678,21,0.0715844356677455,1
697,679,21,0.0715325222793311,1
697,680,21,0.0679937865897445,1
698,678,21,0.0685162987075405,1
698,679,21,0.074837986143396,1
698,680,21,0.0785552590856037,1
702,724,21,0.0684771135930826,1
702,725,21,0.0831674884160128,1
703,724,21,0.11022117415518,1
692,667,22,0.0680545169284007,1
692,668,22,0.0766180936565206,1
692,669,22,0.0771449303925738,1
693,667,22,0.0694410482414641,1
693,668,22,0.0821708376112313,1
693,669,22,0.0837980141640472,1
693,670,22,0.0726619244891464,1
694,668,22,0.0713728648005975,1
694,669,22,0.0725756657252656,1
697,678,22,0.0700242308001564,1
697,679,22,0.0725870103609707,1
698,679,22,0.076090472259814,1
702,725,22,0.0913602740518975,1
671,726,23,0.0689307133382344,1
672,726,23,0.0689903894763182,1
689,731,23,0.0689188835306749,1
697,679,23,0.0692713039799809,1
699,728,23,0.0699579179902874,1
699,729,23,0.112455839777614,1
700,728,23,0.0967653939878175,1
702,725,23,0.0932790089402917,1
702,726,23,0.0770474108498515,1
703,724,23,0.115647000746662,1
704,723,23,0.0735481118453139,1
674,727,24,0.0680467302196274,1
699,728,24,0.0753898242043876,1
699,729,24,0.13524972861523,1
700,728,24,0.116613558916922,1
700,729,24,0.236845876930517,1
701,728,24,0.09800136629186,1
702,725,24,0.0840069315604363,1
702,726,24,0.0721960397134606,1
703,724,24,0.104233686270101,1
703,725,24,0.153534214606677,1
703,726,24,0.10894072776449,1
704,722,24,0.0788458530672493,1
704,723,24,0.0913609029783754,1
704,724,24,0.130928272959746,1
670,727,25,0.0734380377321386,1
699,728,25,0.0818546792657052,1
699,729,25,0.149210674509152,1
699,730,25,0.150120569398647,1
700,728,25,0.130315327204211,1
700,729,25,0.266082620382278,1
701,728,25,0.104143827650857,1
702,725,25,0.069930538724285,1
703,724,25,0.0876968911241774,1
703,725,25,0.111757324082436,1
704,724,25,0.112428550358251,1
642,738,26,0.0700252071336411,1
670,728,26,0.0839556530882758,1
671,727,26,0.0848943048922478,1
673,727,26,0.0693972569892779,1
699,728,26,0.0785960255009202,1
699,729,26,0.137039114291347,1
699,730,26,0.137937724442896,1
699,731,26,0.0832294286894169,1
700,728,26,0.12197234793564,1
700,729,26,0.237709147403787,1
700,730,26,0.238295450635764,1
701,728,26,0.100652614843892,1
701,729,26,0.191971948776969,1
702,728,26,0.0683602710330504,1
703,725,26,0.078791298187628,1
703,726,26,0.0733303894782349,1
704,724,26,0.0880806979996161,1
704,725,26,0.0862681259006826,1
619,724,27,0.0707691972080552,1
642,738,27,0.070999528053571,1
671,728,27,0.0943731613184676,1
671,730,27,0.0687416161105615,1
672,727,27,0.0683958263432648,1
672,730,27,0.078160353155275,1
673,728,27,0.0781774958941284,1
691,735,27,0.0707931742813011,1
692,735,27,0.0696738648440114,1
694,734,27,0.0677772082698777,1
699,729,27,0.10422518078821,1
699,730,27,0.108973887164313,1
699,731,27,0.0773008622306482,1
700,728,27,0.095515962657149,1
700,729,27,0.165542840938288,1
700,730,27,0.171239872606569,1
701,728,27,0.086163963696399,1
701,729,27,0.145370449435413,1
704,723,27,0.0819786855978089,1
704,725,27,0.0682156598715773,1
705,724,27,0.0779970838416257,1
618,724,28,0.0817421912728101,1
619,723,28,0.0908025300717901,1
619,724,28,0.0982039644745907,1
619,725,28,0.0714768293422737,1
620,722,28,0.0724578767806286,1
620,723,28,0.0884057212135919,1
620,724,28,0.0895202687789779,1
621,721,28,0.0767346187584258,1
621,722,28,0.0763732136451505,1
622,722,28,0.0683579649692983,1
642,738,28,0.0723376380176161,1
672,728,28,0.0684653317037309,1
691,735,28,0.0748089477094474,1
691,736,28,0.0722760331716669,1
692,735,28,0.0718288125379332,1
692,736,28,0.0698107132558151,1
694,734,28,0.0691427514079088,1
695,734,28,0.0719633908246407,1
699,729,28,0.0728526868745416,1
699,730,28,0.0807655283504722,1
699,731,28,0.0701164374115849,1
700,728,28,0.0678250006924181,1
700,729,28,0.102452949830499,1
700,730,28,0.112436420923888,1
700,731,28,0.0871652146491328,1
701,728,28,0.0708985164714527,1
701,729,28,0.107299397371035,1
701,730,28,0.117515918668234,1
702,729,28,0.0863176673378091,1
705,723,28,0.0767010280947328,1
618,723,29,0.0808037071825656,1
618,724,29,0.0919322916681641,1
619,722,29,0.0704999447982246,1
619,723,29,0.108728018839906,1
619,724,29,0.120935445836277,1
619,725,29,0.0811506170379705,1
620,720,29,0.0681802423262105,1
620,721,29,0.0780485659661695,1
620,722,29,0.0823275061917512,1
620,723,29,0.0979935676035347,1
620,724,29,0.100936254695625,1
620,725,29,0.0699310957734511,1
621,720,29,0.0714534512466257,1
621,721,29,0.0913976802028895,1
621,722,29,0.0889101921261376,1
621,723,29,0.0736492432229518,1
622,721,29,0.0757253115569996,1
622,722,29,0.0790568369363513,1
642,738,29,0.0696411067591795,1
691,735,29,0.0743827272302979,1
691,736,29,0.0714943733961177,1
692,735,29,0.0711293684274787,1
692,736,29,0.0686322068625199,1
695,734,29,0.0698414827350218,1
700,730,29,0.076149806980667,1
700,731,29,0.0751147916607368,1
701,729,29,0.0836935824198446,1
701,730,29,0.0950839740237312,1
702,729,29,0.087957685970325,1
618,723,30,0.0709910824694399,1
618,724,30,0.0819733007892033,1
619,720,30,0.0677614072408437,1
619,721,30,0.0694920332146016,1
619,722,30,0.0711801856868888,1
619,723,30,0.0999580703701883,1
619,724,30,0.112632765780496,1
619,725,30,0.0776190271511274,1
620,720,30,0.0837034715399867,1
620,721,30,0.0939581297408478,1
620,722,30,0.0827613756148265,1
620,723,30,0.0861626519354595,1
620,724,30,0.0894833058714084,1
621,720,30,0.0798375443375198,1
621,721,30,0.100873110477249,1
621,722,30,0.0898588288866674,1
621,723,30,0.0686889899388056,1
622,721,30,0.0759066160861232,1
622,722,30,0.0759385595614219,1
673,738,30,0.0678008079872369,1
674,738,30,0.0769627633357091,1
700,731,30,0.0681474423129467,1
701,729,30,0.0714975719364907,1
701,730,30,0.081927514941616,1
702,729,30,0.0849934836029164,1
619,720,31,0.0759365170478129,1
619,721,31,0.0763626237212188,1
619,723,31,0.0766479347204505,1
619,724,31,0.0838502629799164,1
620,720,31,0.087132438594973,1
620,721,31,0.0906131692939741,1
620,722,31,0.0710082072389653,1
620,724,31,0.0690751627757561,1
621,720,31,0.0754746693811373,1
621,721,31,0.085761876024671,1
621,722,31,0.0715478800649426,1
674,738,31,0.0738811014613424,1
674,739,31,0.0743431467906253,1
619,720,32,0.077401161029425,1
619,721,32,0.0749270241633313,1
620,720,32,0.0805340055395365,1
620,721,32,0.0758666762598919,1
619,720,33,0.073142759745677,1
619,721,33,0.0698839981649243,1
620,720,33,0.0704687859835792,1
696,735,33,0.0722672521600809,1
697,734,33,0.0728726747569852,1
698,733,33,0.0712845215946758,1
619,720,34,0.0707358461354013,1
625,728,35,0.0714781650623171,1
625,729,35,0.0783385969088731,1
626,728,35,0.0730100023508673,1
626,729,35,0.0791280733420755,1
672,738,35,0.0702397728887789,1
672,739,35,0.067890480923426,1
673,738,35,0.0704572257159388,1
673,739,35,0.0694944890227532,1
696,734,35,0.0712685528519144,1
697,733,35,0.0710216902246952,1
625,728,36,0.0751312036469206,1
625,729,36,0.0806533458361521,1
626,728,36,0.078748908543021,1
626,729,36,0.0822014932846944,1
671,738,36,0.0713915349323256,1
672,737,36,0.0680534028300685,1
672,738,36,0.0910657268181055,1
672,739,36,0.0776652921807931,1
673,738,36,0.0883161261444905,1
673,739,36,0.0772599460709322,1
674,738,36,0.0689085511671102,1
696,733,36,0.0701141133785049,1
625,727,37,0.0678352072706872,1
625,728,37,0.0733424828359375,1
625,729,37,0.0766709534295397,1
626,726,37,0.0732687906220617,1
626,727,37,0.0794024230512647,1
626,728,37,0.0792847239532675,1
626,729,37,0.0783804354940899,1
627,727,37,0.0704725176140144,1
627,728,37,0.0686700023489505,1
671,738,37,0.078275500608705,1
672,737,37,0.0775632743163102,1
672,738,37,0.104895460679421,1
672,739,37,0.0828984935665493,1
673,737,37,0.073908708338832,1
673,738,37,0.100039782894101,1
673,739,37,0.0801816988959741,1
674,738,37,0.0743770189737894,1
625,727,38,0.0678612148779902,1
625,729,38,0.0691710231505321,1
626,726,38,0.0814388330785522,1
626,727,38,0.0820244055578604,1
626,728,38,0.0730678815561572,1
626,729,38,0.0699465853341341,1
627,726,38,0.07011787495782,1
627,727,38,0.0716107667229514,1
662,738,38,0.0735621938086417,1
663,738,38,0.0694771606008445,1
672,737,38,0.0778051893885704,1
672,738,38,0.101487302106187,1
673,737,38,0.0748805015732985,1
673,738,38,0.0966528221380587,1
673,739,38,0.0764607781801949,1
674,738,38,0.0754073982071115,1
702,716,38,0.107626882382938,1
702,717,38,0.10344507236464,1
703,715,38,0.0725310119453384,1
703,716,38,0.109080529135852,1
703,717,38,0.104490180457096,1
704,717,38,0.0753923159511951,1
626,726,39,0.0777942700269597,1
626,727,39,0.0755237316361854,1
627,726,39,0.0683838348117538,1
627,727,39,0.0680321870435491,1
633,732,39,0.0690959712575089,1
669,738,39,0.0723798599484956,1
669,739,39,0.0739155965812084,1
672,737,39,0.0724757502721515,1
672,738,39,0.0870113732428753,1
673,737,39,0.0712315120772572,1
673,738,39,0.0852428140178392,1
701,716,39,0.0897378174425535,1
701,717,39,0.0847927302711873,1
702,715,39,0.0930237366675972,1
702,716,39,0.156656588988377,1
702,717,39,0.148205973445454,1
702,718,39,0.0835147696375285,1
703,715,39,0.0982773931383235,1
703,716,39,0.162414213230466,1
703,717,39,0.153132324597557,1
703,718,39,0.0886837306759045,1
704,717,39,0.0980870979554547,1
704,718,39,0.0678641558579961,1
668,737,40,0.0736060030301558,1
668,738,40,0.0938451865249783,1
668,739,40,0.0814095071353566,1
669,737,40,0.0791465637805243,1
669,738,40,0.101105801294501,1
669,739,40,0.0887301753988496,1
669,740,40,0.0747727574829792,1
670,738,40,0.0801172908348665,1
670,739,40,0.0750342052147085,1
701,716,40,0.10236917682365,1
701,717,40,0.099492628837925,1
702,715,40,0.102900625687207,1
702,716,40,0.181108591571743,1
702,717,40,0.177353517153329,1
702,718,40,0.104694479736205,1
703,715,40,0.109200492369169,1
703,716,40,0.191729410768007,1
703,717,40,0.186181512542064,1
703,718,40,0.10908205053895,1
704,716,40,0.113389190629844,1
704,717,40,0.108810893380358,1
625,727,41,0.0680667779998308,1
633,731,41,0.0684662601190077,1
668,738,41,0.120148461149882,1
668,739,41,0.094351693961357,1
669,737,41,0.0999587771637539,1
669,738,41,0.132475899297778,1
669,739,41,0.103906656481172,1
669,740,41,0.0782069715817235,1
670,738,41,0.0932675684681709,1
670,739,41,0.0811959296932554,1
701,716,41,0.0984980145569765,1
701,717,41,0.10175467372636,1
701,718,41,0.0738926018312231,1
702,715,41,0.0962232533741366,1
702,716,41,0.169349343573263,1
702,717,41,0.178628968070852,1
702,718,41,0.11569248710545,1
703,715,41,0.102953299777171,1
703,716,41,0.181327050681268,1
703,717,41,0.189003811126742,1
703,718,41,0.1191215380173,1
704,716,41,0.107247525911052,1
704,717,41,0.109030418670007,1
624,726,42,0.0740357694566851,1
624,727,42,0.0730074087778682,1
625,726,42,0.0709538140832955,1
625,727,42,0.0723352061685684,1
668,738,42,0.130261119731597,1
668,739,42,0.101741388403238,1
669,737,42,0.108596471379844,1
669,738,42,0.144815293038529,1
669,739,42,0.112708452589773,1
669,740,42,0.0826701692959867,1
670,738,42,0.0987780964817781,1
670,739,42,0.0860364353760194,1
682,731,42,0.0688099594544876,1
682,732,42,0.0774414183137832,1
683,731,42,0.0758456221973239,1
683,732,42,0.0833594607361559,1
684,732,42,0.0682675073724559,1
700,712,42,0.0895104754952514,1
700,713,42,0.0755330876662654,1
701,711,42,0.0728834863026282,1
701,712,42,0.0951969112498247,1
701,713,42,0.0803438181726353,1
701,716,42,0.0840437207645024,1
701,717,42,0.0933275560746056,1
701,718,42,0.0726455065131866,1
702,715,42,0.079201292363649,1
702,716,42,0.13172827941912,1
702,717,42,0.151458385863669,1
702,718,42,0.107733524354477,1
703,715,42,0.085149924571949,1
703,716,42,0.140479402022934,1
703,717,42,0.159300512044385,1
703,718,42,0.110802146486536,1
704,716,42,0.0894497092179394,1
704,717,42,0.0966464909448484,1
624,726,43,0.0764791128844682,1
624,727,43,0.0726066388568556,1
625,726,43,0.0716817635376364,1
625,727,43,0.0716356362728183,1
668,738,43,0.11681350961867,1
668,739,43,0.0998872352794547,1
669,737,43,0.102361569808156,1
669,738,43,0.13108766089856,1
669,739,43,0.111610550611834,1
669,740,43,0.0854265084675786,1
670,738,43,0.0972841804649542,1
670,739,43,0.0903808139041772,1
670,740,43,0.0820062026286587,1
671,739,43,0.0723455145730291,1
682,731,43,0.088429350879831,1
682,732,43,0.0986128864807114,1
682,733,43,0.0746792091617313,1
683,731,43,0.104472247067813,1
683,732,43,0.113433610808508,1
683,733,43,0.0822843498558189,1
684,731,43,0.0850001622031335,1
684,732,43,0.0925953119508873,1
684,733,43,0.0746067029234994,1
700,711,43,0.0711083562933426,1
700,712,43,0.103815911375083,1
700,713,43,0.093240338946568,1
701,711,43,0.0764393467617402,1
701,712,43,0.109602011012179,1
701,713,43,0.0992313188710432,1
701,716,43,0.0689281437243392,1
701,717,43,0.0795705560630094,1
702,712,43,0.0717578995801119,1
702,716,43,0.0889591106265622,1
702,717,43,0.106816872997678,1
702,718,43,0.0855250462722174,1
703,715,43,0.0679466350732339,1
703,716,43,0.0956274922858873,1
703,717,43,0.11193193803179,1
703,718,43,0.0884481108581988,1
704,716,43,0.0712067623229099,1
704,717,43,0.0765860423652542,1
624,726,44,0.0713431016037553,1
669,738,44,0.111535498718811,1
669,739,44,0.104461513389258,1
670,738,44,0.0929481456947359,1
670,739,44,0.0918571439387253,1
670,740,44,0.0826652037716996,1
671,739,44,0.072927660900477,1
681,732,44,0.068799920589946,1
682,731,44,0.0942072145749554,1
682,732,44,0.106997812150467,1
682,733,44,0.0850559509766066,1
683,730,44,0.0684462362979083,1
683,731,44,0.120573196164588,1
683,732,44,0.134037913077713,1
683,733,44,0.0980188085195123,1
684,731,44,0.108657111871861,1
684,732,44,0.117985085841157,1
685,731,44,0.0761674887993585,1
685,732,44,0.0812732696807028,1
700,712,44,0.0992657121647175,1
700,713,44,0.0950825963752559,1
701,711,44,0.0719830852080613,1
701,712,44,0.108460275853622,1
701,713,44,0.105445429930307,1
701,714,44,0.0703813232747265,1
701,717,44,0.0723664069116456,1
702,712,44,0.0752291185148576,1
702,713,44,0.0745858225644349,1
702,716,44,0.0691180855104252,1
702,717,44,0.0768570737385508,1
702,718,44,0.0683620080680845,1
703,716,44,0.0739870546086439,1
703,717,44,0.0788180365476005,1
646,736,45,0.0690643512301131,1
670,739,45,0.0895833051813862,1
681,732,45,0.0701243978238617,1
682,731,45,0.0884009054337043,1
682,732,45,0.100924658489329,1
683,730,45,0.0731615736320286,1
683,731,45,0.117612629591199,1
683,732,45,0.132230797664697,1
684,730,45,0.0758453346880769,1
684,731,45,0.121110239478911,1
685,731,45,0.0925620447350971,1
688,729,45,0.0778355156243546,1
689,729,45,0.0815445047063826,1
700,712,45,0.0880279759914445,1
700,713,45,0.0867602458951586,1
701,711,45,0.069540712123987,1
701,712,45,0.102789191894884,1
701,713,45,0.102426654713949,1
701,714,45,0.0737829230432624,1
701,716,45,0.0682065254632085,1
701,717,45,0.0701848825817027,1
702,712,45,0.0803551747878924,1
702,713,45,0.0811252683060252,1
702,716,45,0.069019978969657,1
703,716,45,0.0699577622561119,1
645,736,46,0.0690753963770193,1
646,736,46,0.0730263244904114,1
647,736,46,0.0729002876242507,1
648,736,46,0.0689528575400306,1
673,708,46,0.0803379002739676,1
683,730,46,0.0721291399055456,1
683,731,46,0.102760620663462,1
696,697,46,0.0708335813100589,1
696,698,46,0.070673115211568,1
700,712,46,0.0762161976576238,1
700,713,46,0.0735946464148987,1
701,712,46,0.0915690117550072,1
701,713,46,0.0897834355764134,1
701,714,46,0.0715355231570969,1
701,715,46,0.0680234240012911,1
701,716,46,0.0724219201554237,1
702,712,46,0.0810582666719185,1
702,713,46,0.0809150990464564,1
702,714,46,0.0686960878233413,1
702,715,46,0.0697646339092048,1
702,716,46,0.0741447713999601,1
703,716,46,0.0682917839345008,1
705,716,46,0.0688136072280591,1
645,735,47,0.0678454138489562,1
647,736,47,0.075561557071496,1
648,736,47,0.0723701744807367,1
672,708,47,0.0759644473732053,1
673,708,47,0.10168746843987,1
673,709,47,0.0778009905556087,1
696,698,47,0.0702562807113784,1
700,712,47,0.0694181912563263,1
701,712,47,0.0783235985098204,1
701,713,47,0.0766127567661228,1
701,714,47,0.0689120372167303,1
701,715,47,0.0719278834326342,1
701,716,47,0.0741879337256685,1
702,712,47,0.0760427397350334,1
702,713,47,0.0760167740561623,1
702,714,47,0.0687393399956893,1
702,715,47,0.0737472179886486,1
702,716,47,0.0788921959640027,1
703,716,47,0.0684977902997639,1
705,716,47,0.0680184644667801,1
623,693,48,0.0714550804656921,1
623,694,48,0.071099473455565,1
643,734,48,0.0705611243700792,1
643,735,48,0.0690553725559198,1
644,734,48,0.0721810952223918,1
644,735,48,0.0714465749838012,1
644,736,48,0.0686556149070478,1
645,735,48,0.0702437860386851,1
645,736,48,0.0709716156975065,1
646,735,48,0.0702947650220467,1
646,736,48,0.0743291606637132,1
647,735,48,0.0751571753155678,1
647,736,48,0.0786365343558696,1
647,737,48,0.0746509254395561,1
648,735,48,0.0729189697355308,1
648,736,48,0.0755452948297116,1
648,737,48,0.0721142852611164,1
649,735,48,0.0687956079512407,1
649,736,48,0.0710340890609728,1
650,735,48,0.069090101277049,1
672,708,48,0.0711145796705853,1
673,708,48,0.105537432889352,1
673,709,48,0.0792089233382469,1
699,712,48,0.0693609110286343,1
699,713,48,0.0701704232624882,1
700,712,48,0.067807217047535,1
700,713,48,0.0682913047524224,1
701,715,48,0.0716091494834369,1
701,716,48,0.0726527960705536,1
702,712,48,0.0681837044167266,1
702,713,48,0.0681421473509808,1
702,715,48,0.0711745313383642,1
702,716,48,0.0746641808137988,1
623,693,49,0.0735415290815124,1
623,694,49,0.0777353965188572,1
624,693,49,0.0697812495477719,1
624,694,49,0.0729882534742857,1
642,734,49,0.0694459358986633,1
643,734,49,0.0754669246007958,1
643,735,49,0.0722704686697819,1
643,736,49,0.0691845121260379,1
644,734,49,0.0757457906010735,1
644,735,49,0.0739245512962977,1
644,736,49,0.0703468401344125,1
645,735,49,0.0707227105566783,1
645,736,49,0.070984062451992,1
646,735,49,0.0708412781721925,1
646,736,49,0.0744271893373937,1
646,737,49,0.0740064255441616,1
647,735,49,0.0763411024561244,1
647,736,49,0.0797165448729578,1
647,737,49,0.0761990728880984,1
647,738,49,0.0716513534449885,1
648,735,49,0.0743618828098892,1
648,736,49,0.0766769611748471,1
648,737,49,0.0741666580413892,1
648,738,49,0.072370971120942,1
649,735,49,0.0760015480456224,1
649,736,49,0.0750979603902344,1
649,737,49,0.0702786465348858,1
650,735,49,0.0809949547398151,1
650,736,49,0.0790398379521215,1
651,735,49,0.0727549337305561,1
673,708,49,0.0874730352264955,1
673,709,49,0.0684058232793746,1
699,712,49,0.0711173948652957,1
699,713,49,0.0779741609689522,1
699,714,49,0.0726810678131769,1
700,712,49,0.0683521728559262,1
700,713,49,0.0755041211096285,1
700,714,49,0.0725233090934287,1
623,694,50,0.0716589424911545,1
624,694,50,0.0698792362930206,1
639,733,50,0.0686408441194823,1
640,732,50,0.0686596160774021,1
640,733,50,0.0695856773722651,1
641,733,50,0.0703384544480412,1
642,733,50,0.0704400829770854,1
642,734,50,0.070988998027399,1
643,733,50,0.069738865892941,1
643,734,50,0.0775231907354554,1
643,735,50,0.0730014070223367,1
643,736,50,0.0703102186440738,1
644,734,50,0.0770209240604701,1
644,735,50,0.0750771099800497,1
644,736,50,0.0721354950578598,1
645,735,50,0.0713602862710405,1
645,736,50,0.0722583034347676,1
646,735,50,0.0720589756697217,1
646,736,50,0.0758573861173477,1
646,737,50,0.0761634277312444,1
647,735,50,0.077185762695426,1
647,736,50,0.0820252920447054,1
647,737,50,0.081137595264991,1
647,738,50,0.0756148960265935,1
648,735,50,0.077879217029901,1
648,736,50,0.0813566952805453,1
648,737,50,0.0801264671716671,1
648,738,50,0.0763057328289654,1
649,734,50,0.068780921020539,1
649,735,50,0.08368847913071,1
649,736,50,0.0811337857674681,1
649,737,50,0.0751512753862279,1
649,738,50,0.0759261547353683,1
650,734,50,0.0745056613925012,1
650,735,50,0.0920293919265678,1
650,736,50,0.0853862152445645,1
650,737,50,0.0747285469464745,1
651,735,50,0.0804951977809653,1
651,736,50,0.0783401961790596,1
699,712,50,0.0681654176306612,1
699,713,50,0.0797252120788002,1
699,714,50,0.0724126419924314,1
700,713,50,0.082148435849068,1
700,714,50,0.0764113984670199,1
705,714,50,0.0705788960354104,1
705,715,50,0.0710476319444624,1
706,714,50,0.0740833043188585,1
706,715,50,0.0740314029099961,1
639,732,51,0.0703046840910687,1
639,733,51,0.0721366810335037,1
640,732,51,0.0722011010741633,1
640,733,51,0.074092522584091,1
641,732,51,0.0700457460754748,1
641,733,51,0.0738417486331571,1
641,734,51,0.0685387603674636,1
642,733,51,0.0736061947029871,1
642,734,51,0.0728840493415703,1
642,735,51,0.068683299651625,1
643,733,51,0.0726403732751721,1
643,734,51,0.0769545034346334,1
643,735,51,0.0721650426227667,1
643,736,51,0.070872413027734,1
644,733,51,0.0678768362137447,1
644,734,51,0.0753649127260889,1
644,735,51,0.0734985404593075,1
644,736,51,0.0726683455289964,1
645,735,51,0.0703044145511497,1
645,736,51,0.071687723364736,1
645,737,51,0.0739539371372532,1
646,735,51,0.0710905067609237,1
646,736,51,0.0744629962181992,1
646,737,51,0.0763623721506276,1
646,738,51,0.0752945268685537,1
647,735,51,0.0750147384427752,1
647,736,51,0.0807516620190797,1
647,737,51,0.0823946156418256,1
647,738,51,0.0780538249894796,1
647,739,51,0.074775147403595,1
648,735,51,0.0793303540666793,1
648,736,51,0.0840904290375906,1
648,737,51,0.083766507942395,1
648,738,51,0.0785329112314241,1
649,734,51,0.0727997552242107,1
649,735,51,0.087098811992624,1
649,736,51,0.0849171079694017,1
649,737,51,0.0795183132369161,1
649,738,51,0.0776793142463611,1
650,734,51,0.0812794511295136,1
650,735,51,0.0968649800032527,1
650,736,51,0.0876330401122359,1
650,737,51,0.077677583201103,1
651,734,51,0.0749010285355803,1
651,735,51,0.0869916129719189,1
651,736,51,0.0799433776893016,1
652,735,51,0.0718521067767175,1
699,713,51,0.0723079227389818,1
700,713,51,0.0781446958808646,1
700,714,51,0.072815460416829,1
703,718,51,0.0692402290221993,1
703,719,51,0.0695118174446619,1
705,714,51,0.0781633899716966,1
705,715,51,0.0753751612327898,1
706,713,51,0.070617595978014,1
706,714,51,0.101225105652461,1
706,715,51,0.0956591242928351,1
707,713,51,0.0692393904535621,1
707,714,51,0.0944053324052535,1
707,715,51,0.0897967448586399,1
639,732,52,0.077160360055497,1
639,733,52,0.0768994993218136,1
640,731,52,0.0685043071760296,1
640,732,52,0.0790037076234131,1
640,733,52,0.0798285836326544,1
640,734,52,0.0684522260738878,1
641,732,52,0.073968887618098,1
641,733,52,0.0771038704782343,1
641,734,52,0.0724206802717959,1
642,732,52,0.0699182357244232,1
642,733,52,0.0758241608299894,1
642,734,52,0.0746608504983542,1
642,735,52,0.0694862470910054,1
643,733,52,0.0738474928283214,1
643,734,52,0.0750188055006653,1
643,735,52,0.0709199658592353,1
643,736,52,0.0710865175701214,1
644,733,52,0.0686116319820303,1
644,734,52,0.0725493646189396,1
644,735,52,0.0715479279831504,1
644,736,52,0.0729275470947334,1
645,734,52,0.0678863719371041,1
645,735,52,0.069811899231459,1
645,736,52,0.0715033820191909,1
646,735,52,0.0710089978893946,1
646,736,52,0.0735152459445144,1
646,737,52,0.0762483208262019,1
646,738,52,0.0778631404711721,1
647,735,52,0.074351406691701,1
647,736,52,0.0795673515328603,1
647,737,52,0.0819080721287865,1
647,738,52,0.0800829873878319,1
647,739,52,0.0771918542975972,1
648,734,52,0.0679444248458974,1
648,735,52,0.0801365419748646,1
648,736,52,0.085784649152945,1
648,737,52,0.0852669348457086,1
648,738,52,0.080231683576523,1
649,734,52,0.0735900342873944,1
649,735,52,0.0876690386658728,1
649,736,52,0.0885489487368138,1
649,737,52,0.084103169291099,1
649,738,52,0.0794515991120564,1
650,734,52,0.08288018282138,1
650,735,52,0.0967185359703298,1
650,736,52,0.0893141545977472,1
650,737,52,0.0818981051415566,1
651,734,52,0.0806261282941013,1
651,735,52,0.0919499016095438,1
651,736,52,0.0822937478143307,1
652,735,52,0.0767711863407807,1
700,713,52,0.0704962730655491,1
700,714,52,0.068601209771826,1
703,718,52,0.0717086756011124,1
703,719,52,0.0748784171312576,1
705,714,52,0.0780097821667023,1
705,715,52,0.0722027482625577,1
706,713,52,0.0780896737987169,1
706,714,52,0.114137421465651,1
706,715,52,0.103097952867076,1
707,713,52,0.0801467305838057,1
707,714,52,0.117791029078973,1
707,715,52,0.107051049279372,1
707,716,52,0.06851354341059,1
708,714,52,0.0810038435673687,1
708,715,52,0.0773023237359872,1
638,732,53,0.0688090430187628,1
639,731,53,0.0707614404481618,1
639,732,53,0.0865448355816077,1
639,733,53,0.0837482690745374,1
640,731,53,0.0749291205849242,1
640,732,53,0.0876589518831233,1
640,733,53,0.0855411947082581,1
640,734,53,0.0722847063672852,1
641,731,53,0.0741584939767292,1
641,732,53,0.0810967869212427,1
641,733,53,0.0811319289369144,1
641,734,53,0.0762124061294288,1
641,735,53,0.0685913745596676,1
642,731,53,0.067827953651976,1
642,732,53,0.0757264196655558,1
642,733,53,0.0785108988046995,1
642,734,53,0.0765094990180122,1
642,735,53,0.0702041457012528,1
643,732,53,0.0688074916667841,1
643,733,53,0.0748971890891774,1
643,734,53,0.0742462681539328,1
643,735,53,0.0707367505915742,1
643,736,53,0.0727284229820708,1
644,733,53,0.0693125855160317,1
644,734,53,0.0717674532727992,1
644,735,53,0.0710517049921285,1
644,736,53,0.0737271941675491,1
645,734,53,0.06937501096129,1
645,735,53,0.0705192139075506,1
645,736,53,0.0721574535766007,1
646,734,53,0.0679243351372622,1
646,735,53,0.0713276479817282,1
646,736,53,0.0735743530538801,1
646,737,53,0.0763224443039483,1
647,735,53,0.0732474550400227,1
647,736,53,0.0776595180367489,1
647,737,53,0.0802705093044222,1
647,738,53,0.0807646658227312,1
648,734,53,0.068436970114468,1
648,735,53,0.0787513823205006,1
648,736,53,0.0841464873509828,1
648,737,53,0.0836927019227756,1
648,738,53,0.079835142437352,1
649,734,53,0.0736499080880856,1
649,735,53,0.0854762715264163,1
649,736,53,0.0894981245771817,1
649,737,53,0.0863864179865018,1
649,738,53,0.0800500376301686,1
650,734,53,0.0811090300233448,1
650,735,53,0.0917513225664954,1
650,736,53,0.0893128068981519,1
650,737,53,0.0842132733531542,1
650,738,53,0.0797530585473289,1
651,734,53,0.0824030252873008,1
651,735,53,0.0913524573942443,1
651,736,53,0.0834485406845231,1
651,737,53,0.0776473707710624,1
652,735,53,0.0781821140114086,1
702,718,53,0.0683263868703344,1
703,718,53,0.0711108121014942,1
703,719,53,0.0734528923765677,1
705,714,53,0.0756880611401831,1
706,713,53,0.0799313621986867,1
706,714,53,0.108331543588271,1
706,715,53,0.0962491292063681,1
707,713,53,0.08337345884262,1
707,714,53,0.121343265723617,1
707,715,53,0.111018784704163,1
707,716,53,0.0743341321777762,1
708,714,53,0.0912276544219353,1
708,715,53,0.0882673214498095,1
708,716,53,0.070178671184012,1
638,732,54,0.0720183589988046,1
638,733,54,0.0697243047475348,1
639,731,54,0.0746410542887419,1
639,732,54,0.0913851735506443,1
639,733,54,0.0874397560311534,1
639,734,54,0.0692240506372786,1
640,731,54,0.0788543465695882,1
640,732,54,0.0926727477747503,1
640,733,54,0.0883373718798898,1
640,734,54,0.0739565666489082,1
641,731,54,0.079213277905384,1
641,732,54,0.0879088034085563,1
641,733,54,0.0850330101346051,1
641,734,54,0.0777581995960112,1
641,735,54,0.069030772545972,1
642,731,54,0.07157785889372,1
642,732,54,0.0812136953688106,1
642,733,54,0.0815064696289128,1
642,734,54,0.0772420306509775,1
642,735,54,0.0703389096710156,1
643,732,54,0.0709311128323331,1
643,733,54,0.075585510185638,1
643,734,54,0.0738808798396312,1
643,735,54,0.070869190528257,1
644,733,54,0.0689540315361226,1
644,734,54,0.0712751595748198,1
644,735,54,0.070935245777759,1
645,734,54,0.069946639242118,1
645,735,54,0.0713846706490531,1
645,736,54,0.0736010854240766,1
646,734,54,0.0681735996646492,1
646,735,54,0.0718647931222421,1
646,736,54,0.0750376673052247,1
647,735,54,0.0727989525942295,1
647,736,54,0.0771724773723035,1
647,737,54,0.0796222657990404,1
648,734,54,0.0692076506306467,1
648,735,54,0.0782660966604172,1
648,736,54,0.0832785388626728,1
648,737,54,0.0834569623095503,1
649,734,54,0.074866910771601,1
649,735,54,0.0851042764892092,1
649,736,54,0.0914807943343811,1
649,737,54,0.0904927508376822,1
649,738,54,0.0827642387277447,1
650,734,54,0.0803120963190479,1
650,735,54,0.0885733630637062,1
650,736,54,0.091116424281996,1
650,737,54,0.0886671569657692,1
650,738,54,0.0823687517891461,1
651,734,54,0.0807823057129908,1
651,735,54,0.0874865481611052,1
651,736,54,0.08437230190541,1
651,737,54,0.0807190416990953,1
705,714,54,0.069933767213538,1
706,713,54,0.0746737225269341,1
706,714,54,0.0910147897631758,1
706,715,54,0.083037108962267,1
707,713,54,0.0754191681169112,1
707,714,54,0.104927829428814,1
707,715,54,0.102291022226669,1
707,716,54,0.0762939808884937,1
708,714,54,0.0903668816852489,1
708,715,54,0.0925713169083134,1
708,716,54,0.0746137169511714,1
709,715,54,0.0693769037304996,1
638,732,55,0.0714957091161611,1
638,733,55,0.0697976974726116,1
639,731,55,0.0740696536194012,1
639,732,55,0.086503554045557,1
639,733,55,0.0836769667812774,1
639,734,55,0.0711413779283176,1
640,731,55,0.0759043160121471,1
640,732,55,0.0889556784849259,1
640,733,55,0.0858895480996741,1
640,734,55,0.0747661507600738,1
641,731,55,0.0766382732117955,1
641,732,55,0.0884315910560473,1
641,733,55,0.0860626945539136,1
641,734,55,0.0773531709442772,1
641,735,55,0.0688075515645439,1
642,731,55,0.0706003873516249,1
642,732,55,0.081966376608171,1
642,733,55,0.0821464891718747,1
642,734,55,0.0765175133382727,1
642,735,55,0.0703819282421004,1
643,732,55,0.0700863387872879,1
643,733,55,0.0744002712841418,1
643,734,55,0.0733715152801102,1
643,735,55,0.0716358519047536,1
644,733,55,0.0680612793854816,1
644,734,55,0.0711445465198108,1
644,735,55,0.0717123173849079,1
645,734,55,0.0700277288293285,1
645,735,55,0.0722191542589655,1
646,734,55,0.0677453366718907,1
646,735,55,0.0720302966223318,1
648,734,55,0.0698628063375088,1
648,735,55,0.0765005443029228,1
648,736,55,0.0808621314574697,1
648,737,55,0.0832225584163684,1
649,734,55,0.075932689580962,1
649,735,55,0.0830984203091932,1
649,736,55,0.0890774745896932,1
649,737,55,0.0913690910021394,1
649,738,55,0.0844790397133648,1
650,734,55,0.0788100581659958,1
650,735,55,0.0846786489978817,1
650,736,55,0.0893293806082871,1
650,737,55,0.0901168205176566,1
651,734,55,0.0769579954740294,1
651,735,55,0.0820883883448735,1
651,736,55,0.0834854496841088,1
706,714,55,0.07461003922872,1
706,715,55,0.0683266384409255,1
707,714,55,0.0834403287016552,1
707,715,55,0.0842581787036726,1
707,716,55,0.0715858971730845,1
708,714,55,0.085224455354462,1
708,715,55,0.0873926584226265,1
708,716,55,0.0732825191886067,1
709,714,55,0.0738137823691088,1
709,715,55,0.0745716267953635,1
639,731,56,0.0690044175316622,1
639,732,56,0.0764468100226107,1
639,733,56,0.0754868406059277,1
639,734,56,0.0697617588167346,1
640,731,56,0.069043914114471,1
640,732,56,0.0804644462710865,1
640,733,56,0.0802409018417555,1
640,734,56,0.0728554900897,1
641,731,56,0.0700159169910969,1
641,732,56,0.0840465179898849,1
641,733,56,0.0845048077296286,1
641,734,56,0.0745606115973372,1
642,732,56,0.078726129424971,1
642,733,56,0.0807138485633211,1
642,734,56,0.0738208742638685,1
643,733,56,0.0712258217900767,1
643,734,56,0.0712146388783229,1
644,734,56,0.069391105489347,1
645,734,56,0.0681885201966142,1
649,734,56,0.0749689765542918,1
649,735,56,0.0804335330372563,1
649,736,56,0.0847394272547457,1
649,737,56,0.0887387827069321,1
650,734,56,0.0766275515127922,1
650,735,56,0.0812491308835054,1
650,736,56,0.0857996475519977,1
707,714,56,0.0692217445735265,1
707,715,56,0.0689725758825552,1
708,714,56,0.0791883484577573,1
708,715,56,0.0781099851290634,1
639,733,57,0.0679680425325846,1
640,732,57,0.0710559158046421,1
640,733,57,0.0739149137467467,1
640,734,57,0.0697851429021586,1
641,732,57,0.0761074173360601,1
641,733,57,0.0799807179527578,1
641,734,57,0.0714253951359377,1
642,732,57,0.0730247970975366,1
642,733,57,0.0770784977871851,1
642,734,57,0.0706453825487829,1
643,733,57,0.067789367515116,1
645,709,57,0.0703140161620448,1
674,718,57,0.0702118485531624,1
675,718,57,0.08133370053056,1
675,719,57,0.0699318684545525,1
640,733,58,0.0693587666888336,1
641,732,58,0.0687179564954424,1
641,733,58,0.0743200322451204,1
642,733,58,0.0713369021856165,1
644,709,58,0.0777880107110612,1
645,708,58,0.0909392407187463,1
645,709,58,0.109032311439217,1
646,709,58,0.0695779325919237,1
674,717,58,0.0910358078870878,1
674,718,58,0.111446706279691,1
674,719,58,0.0870323075099236,1
675,717,58,0.102938816498852,1
675,718,58,0.134102051598901,1
675,719,58,0.110031034706487,1
676,717,58,0.0760964620357936,1
676,718,58,0.102413357411274,1
676,719,58,0.0913901630340352,1
644,708,59,0.0766320917629847,1
644,709,59,0.0941152116159103,1
645,708,59,0.108117564831179,1
645,709,59,0.132336469292527,1
645,710,59,0.0733485624585567,1
646,709,59,0.0833945847824997,1
673,718,59,0.0735796779647259,1
674,717,59,0.114368734634428,1
674,718,59,0.140392454434816,1
674,719,59,0.108452584981264,1
675,716,59,0.0697573563313897,1
675,717,59,0.131948499522783,1
675,718,59,0.171081622725191,1
675,719,59,0.138887547179069,1
675,720,59,0.072366017576207,1
676,717,59,0.098889476366117,1
676,718,59,0.130155268410487,1
676,719,59,0.112549244344238,1
677,718,59,0.0715106296481261,1
677,719,59,0.0684592041629039,1
644,708,60,0.0731796447861588,1
644,709,60,0.0875544482616089,1
645,708,60,0.099751842383214,1
645,709,60,0.120135954497637,1
645,710,60,0.0705839094779052,1
646,709,60,0.079574772865299,1
673,718,60,0.0759152473533097,1
674,717,60,0.116834186325351,1
674,718,60,0.143657756850938,1
674,719,60,0.112704559235386,1
675,716,60,0.0723831303661804,1
675,717,60,0.1374549604785,1
675,718,60,0.176565741816505,1
675,719,60,0.143396566679576,1
675,720,60,0.0754033371389974,1
676,717,60,0.106018076473051,1
676,718,60,0.135386055916523,1
676,719,60,0.114712571734755,1
677,718,60,0.0746363223657181,1
677,719,60,0.0700969347009957,1
679,704,60,0.0693123459249925,1
679,705,60,0.124056646221884,1
679,706,60,0.120113948060688,1
680,704,60,0.0801304144340376,1
680,705,60,0.146561791918633,1
680,706,60,0.142379969920783,1
680,707,60,0.0734467049379809,1
645,708,61,0.0747520508274181,1
645,709,61,0.0842990649145086,1
673,718,61,0.0680227950748133,1
674,717,61,0.0975050354848705,1
674,718,61,0.119049277359883,1
674,719,61,0.0973444196419801,1
675,717,61,0.115818967215033,1
675,718,61,0.1460534276517,1
675,719,61,0.120387596966087,1
675,720,61,0.0688507857675639,1
676,717,61,0.093557138198124,1
676,718,61,0.114957074390238,1
676,719,61,0.0972079006678552,1
677,718,61,0.0694531715480466,1
678,705,61,0.0813057282767357,1
678,706,61,0.0774963325799633,1
679,704,61,0.0942869025545867,1
679,705,61,0.187510176629389,1
679,706,61,0.179092960077329,1
679,707,61,0.0828050949897009,1
680,704,61,0.11267669479753,1
680,705,61,0.227907909254798,1
680,706,61,0.218946701248279,1
680,707,61,0.100496868688873,1
681,704,61,0.0729848452917534,1
681,705,61,0.133617826129166,1
681,706,61,0.128026442129612,1
674,717,62,0.0717572347149782,1
674,718,62,0.0847246744365082,1
674,719,62,0.0738339080163999,1
675,717,62,0.0840985451840428,1
675,718,62,0.101691757119472,1
675,719,62,0.0868803948115315,1
676,717,62,0.0723571527077573,1
676,718,62,0.0842243125102844,1
676,719,62,0.072865714637297,1
678,705,62,0.0955163100641558,1
678,706,62,0.0906820397381864,1
679,704,62,0.109173801927404,1
679,705,62,0.227715924955103,1
679,706,62,0.216417075097511,1
679,707,62,0.0970246794104182,1
680,704,62,0.136747244487417,1
680,705,62,0.288964690701865,1
680,706,62,0.276286730863648,1
680,707,62,0.123161474201747,1
681,704,62,0.0815451575919644,1
681,705,62,0.160468422523973,1
681,706,62,0.153023885693224,1
681,707,62,0.0733597034418786,1
678,705,63,0.0985993316176698,1
678,706,63,0.095705035925718,1
679,704,63,0.108554974211858,1
679,705,63,0.216071201473351,1
679,706,63,0.208243163245738,1
679,707,63,0.102685976075206,1
680,704,63,0.137909524577584,1
680,705,63,0.280692953828794,1
680,706,63,0.270889607278661,1
680,707,63,0.129927716821026,1
681,704,63,0.0844690847056868,1
681,705,63,0.16041710212338,1
681,706,63,0.154440240100889,1
681,707,63,0.079745721071754,1
678,705,64,0.0922268329121802,1
678,706,64,0.0934831464954492,1
678,707,64,0.0685151786194323,1
679,704,64,0.0943314604980983,1
679,705,64,0.169403155720663,1
679,706,64,0.169146649554116,1
679,707,64,0.0981228988464841,1
680,704,64,0.118664134764401,1
680,705,64,0.220830318080105,1
680,706,64,0.21833440238855,1
680,707,64,0.119113763288078,1
681,704,64,0.0803238722186236,1
681,705,64,0.138580822730711,1
681,706,64,0.136357429866671,1
681,707,64,0.0799351896655376,1
678,705,65,0.0781985140180404,1
678,706,65,0.0832806412740416,1
678,707,65,0.0688979193147466,1
679,704,65,0.0740480544872191,1
679,705,65,0.112632035027827,1
679,706,65,0.119235020313007,1
679,707,65,0.0862137207654608,1
680,704,65,0.0888782785997188,1
680,705,65,0.142242636337125,1
680,706,65,0.147432154286662,1
680,707,65,0.0984390931306661,1
681,704,65,0.069894893567431,1
681,705,65,0.10412470828593,1
681,706,65,0.106910313502958,1
681,707,65,0.0757207353681513,1
679,705,66,0.0701129274028609,1
679,706,66,0.0778461714358221,1
679,707,66,0.0691260159738221,1
680,705,66,0.0821730118999119,1
680,706,66,0.0891310830847097,1
680,707,66,0.075237168773774,1
681,705,66,0.073720192119429,1
681,706,66,0.0784034601929551,1
