x,y,z,signal,cytoplasm.p
731,937,1,0.0758994642936037,1
731,938,1,0.0766225440600733,1
732,936,1,0.079171487238375,1
732,937,1,0.104006314373919,1
732,938,1,0.103645801737265,1
732,939,1,0.0828973734784412,1
732,940,1,0.0681118091356447,1
733,936,1,0.0884596471667353,1
733,937,1,0.116119713866964,1
733,938,1,0.114799710995705,1
733,939,1,0.0899842188570223,1
733,940,1,0.0726756470659154,1
733,941,1,0.0685631088068203,1
734,936,1,0.0851205746696495,1
734,937,1,0.101474100639928,1
734,938,1,0.098055424020075,1
734,939,1,0.0814530707760555,1
734,940,1,0.0718647571835862,1
734,941,1,0.0705730859527103,1
734,942,1,0.0703845457742035,1
735,936,1,0.0774805794691372,1
735,937,1,0.0826611846320174,1
735,938,1,0.078850608949377,1
735,939,1,0.073173726887491,1
735,940,1,0.0727286925219899,1
735,941,1,0.0745623785812511,1
735,942,1,0.0742720002315408,1
735,943,1,0.0713043537429439,1
736,936,1,0.0686206226357755,1
736,937,1,0.0701440742379544,1
736,938,1,0.0693348914417793,1
736,939,1,0.0707602784316217,1
736,940,1,0.0747583161330926,1
736,941,1,0.0777325693445949,1
736,942,1,0.0765015086568555,1
736,943,1,0.0718583660926161,1
737,939,1,0.0727135982865216,1
737,940,1,0.0761508012834796,1
737,941,1,0.0768282988547453,1
737,942,1,0.0741846513284317,1
737,943,1,0.0697295997095007,1
738,939,1,0.0724875381512791,1
738,940,1,0.0748110561105922,1
738,941,1,0.0744036734768982,1
738,942,1,0.0719058111081498,1
739,938,1,0.0683160365374418,1
739,939,1,0.0722497739937727,1
739,940,1,0.0744901778215942,1
739,941,1,0.0742657648747461,1
739,942,1,0.0710885600837304,1
740,939,1,0.0686130036407296,1
740,940,1,0.0712506374319597,1
740,941,1,0.0705940142299827,1
741,964,1,0.0843689296615336,1
741,965,1,0.0747888340417082,1
742,962,1,0.0780471284199345,1
742,963,1,0.088002106148989,1
742,964,1,0.0854992183581938,1
742,965,1,0.0765888755292925,1
743,962,1,0.072357524073868,1
743,963,1,0.0795461537156689,1
743,964,1,0.0794866991992963,1
743,965,1,0.0757819448888858,1
743,966,1,0.074353748694109,1
743,967,1,0.0756338955960004,1
743,968,1,0.0827261257831872,1
744,962,1,0.0698543008556179,1
744,963,1,0.0733413986864853,1
744,964,1,0.0740157276662577,1
744,965,1,0.0743350066850692,1
744,966,1,0.0760173071462244,1
744,967,1,0.0786642670186547,1
744,968,1,0.0848865121936984,1
744,969,1,0.0903887443675741,1
745,962,1,0.0683491899474884,1
745,963,1,0.0687297144256902,1
745,964,1,0.0680105699420391,1
745,965,1,0.0699810145664643,1
745,966,1,0.074246801243995,1
745,967,1,0.0794077479621105,1
745,968,1,0.0848324065472756,1
745,969,1,0.086919699721509,1
746,966,1,0.0697843822006092,1
746,967,1,0.0750068439180342,1
746,968,1,0.0784586020706224,1
746,969,1,0.0793798655549259,1
746,970,1,0.0805618699773931,1
747,967,1,0.072257878160673,1
747,968,1,0.0741499765152863,1
747,969,1,0.0744134967095046,1
747,970,1,0.0778493520068673,1
747,971,1,0.0805827323671298,1
748,967,1,0.072658240776919,1
748,968,1,0.074503379287853,1
748,969,1,0.0739597472199533,1
748,970,1,0.077160054576922,1
748,971,1,0.0795988098363047,1
749,967,1,0.0722966260214844,1
749,968,1,0.0752879500945283,1
749,969,1,0.0748839277251588,1
749,970,1,0.0777511496296833,1
749,971,1,0.0799062470680047,1
750,967,1,0.0697544992082475,1
750,968,1,0.0729480261388074,1
750,969,1,0.0730850063256826,1
750,970,1,0.0757531460459764,1
750,971,1,0.0777420331906425,1
751,968,1,0.0699942938998109,1
751,969,1,0.0707120966736426,1
751,970,1,0.0736340172124119,1
751,971,1,0.076461622738608,1
751,972,1,0.0767849748050855,1
752,968,1,0.0680058979167751,1
752,969,1,0.0702810783839335,1
752,970,1,0.0734258545277962,1
752,971,1,0.0774456111569688,1
752,972,1,0.0776513899107447,1
752,973,1,0.0758770984700962,1
753,968,1,0.0684266317611274,1
753,969,1,0.073504230746488,1
753,970,1,0.0792016757093117,1
753,971,1,0.0841379698895399,1
753,972,1,0.0823370838435424,1
753,973,1,0.0754541723677354,1
754,968,1,0.0696355602266225,1
754,969,1,0.0785537676313848,1
754,970,1,0.0891799416873745,1
754,971,1,0.0938254442233498,1
754,972,1,0.0861186450513381,1
754,973,1,0.0736977723879378,1
755,967,1,0.0679857962285879,1
755,968,1,0.0708900888566495,1
755,969,1,0.080906156310919,1
755,970,1,0.094820435860185,1
755,971,1,0.0996267818505379,1
755,972,1,0.0876621863621522,1
755,973,1,0.0722002625055262,1
756,967,1,0.0717343837196164,1
756,968,1,0.0715329775023056,1
756,969,1,0.0765981357229569,1
756,970,1,0.0877810414869135,1
756,971,1,0.0943783963826737,1
756,972,1,0.0851180409944101,1
756,973,1,0.0710408215691737,1
757,967,1,0.0741356729302473,1
757,968,1,0.0721431859302175,1
757,969,1,0.072977070562532,1
757,970,1,0.0802451126542691,1
757,971,1,0.0878414723367707,1
757,972,1,0.0822990787149525,1
757,973,1,0.0698731686499534,1
758,967,1,0.0742316291414389,1
758,968,1,0.0730045875933818,1
758,969,1,0.0741228009016673,1
758,970,1,0.0799704634562809,1
758,971,1,0.0870070426348421,1
758,972,1,0.0826511457674757,1
758,973,1,0.0702343042233096,1
759,967,1,0.0746048341133938,1
759,968,1,0.0750085210553084,1
759,969,1,0.0771768259496646,1
759,970,1,0.0810886348361346,1
759,971,1,0.0854435014620324,1
759,972,1,0.0814711718790656,1
759,973,1,0.0705052337704145,1
760,967,1,0.0749579493767135,1
760,968,1,0.0752126825695698,1
760,969,1,0.0777019256506837,1
760,970,1,0.0792067490495663,1
760,971,1,0.080490897121812,1
760,972,1,0.0776624769860827,1
760,973,1,0.0707448547584745,1
761,967,1,0.0743503884297845,1
761,968,1,0.0744365693265776,1
761,969,1,0.0785096768903997,1
761,970,1,0.0799461269964762,1
761,971,1,0.0796313762483053,1
761,972,1,0.0767860589545378,1
761,973,1,0.0729535487122605,1
761,974,1,0.0699583851928138,1
762,967,1,0.0739102477112587,1
762,968,1,0.0753266560269078,1
762,969,1,0.0812903704911243,1
762,970,1,0.0833273195982499,1
762,971,1,0.0835323496300283,1
762,972,1,0.0824775141413819,1
762,973,1,0.0796563116857079,1
762,974,1,0.076347936790517,1
762,975,1,0.0724164035717465,1
763,924,1,0.06778352149376,1
763,925,1,0.0840540231791872,1
763,926,1,0.0845724742288691,1
763,967,1,0.0722699595388237,1
763,968,1,0.0745669547700995,1
763,969,1,0.081730265628835,1
763,970,1,0.0846175233340109,1
763,971,1,0.0888811177535331,1
763,972,1,0.0946128002758555,1
763,973,1,0.0927403903148868,1
763,974,1,0.0841549748635457,1
763,975,1,0.0775023103763908,1
763,976,1,0.0704141113084383,1
764,924,1,0.0748140749576858,1
764,925,1,0.0826028801526329,1
764,926,1,0.0770493874759247,1
764,967,1,0.0721460370635837,1
764,968,1,0.073783605877724,1
764,969,1,0.0806468109905585,1
764,970,1,0.0838999661409943,1
764,971,1,0.0906467180292353,1
764,972,1,0.100841592276045,1
764,973,1,0.0996398275826213,1
764,974,1,0.087134475118806,1
764,975,1,0.0783540086024683,1
764,976,1,0.0720478526557277,1
765,923,1,0.0720859476309574,1
765,924,1,0.078151590113017,1
765,925,1,0.0698669632420386,1
765,967,1,0.0765112420428222,1
765,968,1,0.0749344035673381,1
765,969,1,0.0792931036498628,1
765,970,1,0.0810237895213805,1
765,971,1,0.0832898595392741,1
765,972,1,0.0884675896096841,1
765,973,1,0.0875928007972056,1
765,974,1,0.0794992358004214,1
765,975,1,0.0743322094596867,1
765,976,1,0.0719182578626352,1
765,977,1,0.0699631889931493,1
766,923,1,0.0773090742135161,1
766,924,1,0.0793883470777129,1
766,967,1,0.0794138335745057,1
766,968,1,0.0751140189796354,1
766,969,1,0.0782703494013626,1
766,970,1,0.0809283963491309,1
766,971,1,0.0790516018721452,1
766,972,1,0.0771092612766158,1
766,973,1,0.076199192683618,1
766,974,1,0.0750764630842439,1
766,975,1,0.0739440360375591,1
766,976,1,0.0736809530969873,1
766,977,1,0.0729353517728347,1
767,967,1,0.0768203683913484,1
767,968,1,0.0722654552272871,1
767,969,1,0.0750418841075143,1
767,970,1,0.0794517488564559,1
767,971,1,0.0776269695940762,1
767,972,1,0.0742106110175269,1
767,973,1,0.0745674339521778,1
767,974,1,0.0773531529749492,1
767,975,1,0.0774386749963846,1
767,976,1,0.0768746836799305,1
767,977,1,0.0751402122699938,1
767,978,1,0.0732528158895244,1
768,967,1,0.0736329690016155,1
768,968,1,0.0679128826855894,1
768,969,1,0.0683163839444486,1
768,970,1,0.0708920475133948,1
768,971,1,0.070492816964809,1
768,972,1,0.0708487653921669,1
768,973,1,0.074335635611547,1
768,974,1,0.0788040743797922,1
768,975,1,0.07953882222987,1
768,976,1,0.0800846525455542,1
768,977,1,0.0786018894916041,1
768,978,1,0.0761189776037005,1
769,967,1,0.0689009741004962,1
769,973,1,0.0712612153763395,1
769,974,1,0.0746105184107984,1
769,975,1,0.0756852459454727,1
769,976,1,0.0785608235874886,1
769,977,1,0.0791176032136634,1
770,974,1,0.0704431796912668,1
770,975,1,0.0714341342190918,1
770,976,1,0.0735415949690482,1
731,937,2,0.0807641027837891,1
731,938,2,0.0797841754335424,1
732,936,2,0.0865287230842229,1
732,937,2,0.121551901600535,1
732,938,2,0.117201539286174,1
732,939,2,0.0854057598835856,1
733,935,2,0.0722002505259742,1
733,936,2,0.103218311425608,1
733,937,2,0.134873295154022,1
733,938,2,0.127032139317014,1
733,939,2,0.0912472769280442,1
733,940,2,0.0678014788421466,1
733,942,2,0.0700124009925969,1
734,935,2,0.0804761083649186,1
734,936,2,0.0976406619823743,1
734,937,2,0.107757531376603,1
734,938,2,0.0978557248889184,1
734,939,2,0.0772195150830705,1
734,942,2,0.0692010798463972,1
735,935,2,0.0742426563190172,1
735,936,2,0.0809271624552791,1
735,937,2,0.0784962118739977,1
735,938,2,0.0710217980406628,1
735,941,2,0.069863339427571,1
735,942,2,0.0693234809185384,1
736,940,2,0.0686543510643161,1
736,941,2,0.0738830361589838,1
736,942,2,0.0718665660959321,1
737,940,2,0.0693424984572733,1
737,941,2,0.0722613582205171,1
737,942,2,0.0691364501635784,1
738,940,2,0.068337911199319,1
738,941,2,0.0696520021616862,1
739,940,2,0.0689665501679198,1
739,941,2,0.0689999012405736,1
740,964,2,0.078982707468829,1
740,965,2,0.0724865917666744,1
741,963,2,0.0919523394483675,1
741,964,2,0.0962889192881999,1
741,965,2,0.0839563299329615,1
741,966,2,0.0712261991459634,1
742,962,2,0.0735755450193,1
742,963,2,0.0918577548958752,1
742,964,2,0.0964619339673679,1
742,965,2,0.0848793843602828,1
742,966,2,0.0730332786203236,1
742,967,2,0.0722648203110332,1
742,968,2,0.0791274444155977,1
743,963,2,0.077310254199384,1
743,964,2,0.0812911072335697,1
743,965,2,0.0778222782194399,1
743,966,2,0.0739095409176931,1
743,967,2,0.0748505227445211,1
743,968,2,0.0819311147969797,1
743,969,2,0.0949497790826864,1
744,963,2,0.0692040148366272,1
744,964,2,0.0710005103768317,1
744,965,2,0.0732098092979915,1
744,966,2,0.0752544672468028,1
744,967,2,0.0775786321019216,1
744,968,2,0.0826839457807395,1
744,969,2,0.0917411099984503,1
744,970,2,0.0921185677113507,1
745,962,2,0.0678432575296036,1
745,965,2,0.0688814294614751,1
745,966,2,0.073682228919271,1
745,967,2,0.0780675056378167,1
745,968,2,0.0818142063494117,1
745,969,2,0.0864308860833737,1
745,970,2,0.0868709070063799,1
746,966,2,0.0687781417644845,1
746,967,2,0.0731834782427856,1
746,968,2,0.0752734548366578,1
746,969,2,0.0779737536641856,1
746,970,2,0.0815862175063039,1
746,971,2,0.0849189468306274,1
747,967,2,0.0715614648768641,1
747,968,2,0.0733142170830903,1
747,969,2,0.0744051529515651,1
747,970,2,0.0796987432587467,1
747,971,2,0.0834401849470317,1
748,967,2,0.0714178779670834,1
748,968,2,0.0747148423390334,1
748,969,2,0.0746809641660933,1
748,970,2,0.0789158555791217,1
748,971,2,0.0814271709847201,1
749,967,2,0.0700034822161634,1
749,968,2,0.0748535535711667,1
749,969,2,0.0751461062095576,1
749,970,2,0.0786055732038315,1
749,971,2,0.0807358130718379,1
749,972,2,0.0829214583676547,1
750,968,2,0.0715561579353463,1
750,969,2,0.0722688634098194,1
750,970,2,0.074676974975291,1
750,971,2,0.0771204621576975,1
750,972,2,0.0786628654110754,1
751,968,2,0.0689054604427048,1
751,969,2,0.0694681399982194,1
751,970,2,0.0713102237234038,1
751,971,2,0.0746181913138281,1
751,972,2,0.0757980274373908,1
752,969,2,0.0690214883932038,1
752,970,2,0.0706727318659053,1
752,971,2,0.0747471691599948,1
752,972,2,0.0756387233554399,1
752,973,2,0.071277753147819,1
753,969,2,0.071657337231192,1
753,970,2,0.0755977053695323,1
753,971,2,0.080568620454922,1
753,972,2,0.0800700195228362,1
753,973,2,0.0702443790265071,1
754,969,2,0.0746449356635766,1
754,970,2,0.082659255924152,1
754,971,2,0.0877413532312733,1
754,972,2,0.0830205652010116,1
754,973,2,0.0692551675234921,1
755,968,2,0.0681110005158874,1
755,969,2,0.075765233413903,1
755,970,2,0.0863055260618986,1
755,971,2,0.0906028728690653,1
755,972,2,0.081939500483351,1
756,967,2,0.0683926996802035,1
756,968,2,0.0686478042391705,1
756,969,2,0.0720347649952125,1
756,970,2,0.079897388189331,1
756,971,2,0.0857567787253124,1
756,972,2,0.0796513761103008,1
757,967,2,0.071108835475421,1
757,968,2,0.0694870557107626,1
757,969,2,0.0701179288658038,1
757,970,2,0.0753635111185097,1
757,971,2,0.0822643440040474,1
757,972,2,0.0792527505290889,1
757,973,2,0.067842257237015,1
758,967,2,0.0709814628892168,1
758,968,2,0.0693666672033506,1
758,969,2,0.0708818469249017,1
758,970,2,0.0762901953500746,1
758,971,2,0.0834632515743288,1
758,972,2,0.0815789638875927,1
758,973,2,0.0696218795782853,1
759,967,2,0.0713038685710896,1
759,968,2,0.0717866924332454,1
759,969,2,0.0737211864222416,1
759,970,2,0.0768856809086289,1
759,971,2,0.0807397423648805,1
759,972,2,0.0784403871618688,1
759,973,2,0.0680370327723165,1
760,967,2,0.0716604099862695,1
760,968,2,0.0726941554736921,1
760,969,2,0.0747049352495633,1
760,970,2,0.0752122752648032,1
760,971,2,0.0754060445177401,1
760,972,2,0.0735978090166158,1
760,973,2,0.067995098350684,1
761,967,2,0.0708211165862455,1
761,968,2,0.0713717926306972,1
761,969,2,0.0763269905439167,1
761,970,2,0.0773509846760446,1
761,971,2,0.0759026448646488,1
761,972,2,0.0734205535760544,1
761,973,2,0.0714797882916076,1
761,974,2,0.0692722683339136,1
762,967,2,0.0698231061023167,1
762,968,2,0.0716510479664136,1
762,969,2,0.080215020019748,1
762,970,2,0.0820551630575152,1
762,971,2,0.0807939079090631,1
762,972,2,0.0787740775816869,1
762,973,2,0.0768238724102964,1
762,974,2,0.0741358646030786,1
762,975,2,0.069198522212054,1
763,919,2,0.0740271980872585,1
763,920,2,0.0739325416574544,1
763,925,2,0.0684794675750425,1
763,967,2,0.0680617705471119,1
763,968,2,0.0704765008150408,1
763,969,2,0.0800343444171023,1
763,970,2,0.0814039486232476,1
763,971,2,0.0834780403312222,1
763,972,2,0.087110791544583,1
763,973,2,0.0848729513408808,1
763,974,2,0.0772614854433589,1
763,975,2,0.0732984759518161,1
764,968,2,0.0682019253152563,1
764,969,2,0.0763938783722798,1
764,970,2,0.0786559352402672,1
764,971,2,0.0840861942659731,1
764,972,2,0.092910703605088,1
764,973,2,0.0907994093985048,1
764,974,2,0.0787713103051844,1
764,975,2,0.0734991514164574,1
765,967,2,0.0712181488870469,1
765,968,2,0.0689251069079176,1
765,969,2,0.0738365974258147,1
765,970,2,0.0746765736603004,1
765,971,2,0.0753466738582313,1
765,972,2,0.0795070464682987,1
765,973,2,0.078436230257339,1
765,974,2,0.0713491153388388,1
765,975,2,0.0691876447788752,1
766,923,2,0.0680326961745074,1
766,924,2,0.0693601443373089,1
766,967,2,0.0735461412090166,1
766,968,2,0.0695039888074567,1
766,969,2,0.0727606839154964,1
766,970,2,0.0742567562516729,1
766,971,2,0.0710592580996386,1
766,972,2,0.0697802851938392,1
766,973,2,0.0691917178265413,1
766,974,2,0.0686263428718359,1
766,975,2,0.0690724913356693,1
766,976,2,0.070407780115228,1
766,977,2,0.0706672272617801,1
766,978,2,0.0698695927536936,1
767,967,2,0.068985477860015,1
767,969,2,0.0693427979460723,1
767,970,2,0.0719446248564969,1
767,971,2,0.0689177035448069,1
767,974,2,0.0696087619688902,1
767,975,2,0.0706853103954623,1
767,976,2,0.0735668179156979,1
767,977,2,0.0752265548907383,1
767,978,2,0.07425410877069,1
767,979,2,0.0725077716145379,1
768,974,2,0.0718601750049619,1
768,975,2,0.0730734460580422,1
768,976,2,0.0767118995381356,1
768,977,2,0.0791107389303908,1
768,978,2,0.0779297168311843,1
768,979,2,0.0750005247043758,1
769,974,2,0.0705949725941394,1
769,975,2,0.0713019518427761,1
769,976,2,0.075294730520937,1
769,977,2,0.0779650265605834,1
769,978,2,0.0770989468823791,1
770,974,2,0.0685273198953428,1
770,975,2,0.0686827905206668,1
770,976,2,0.0707042440773335,1
770,977,2,0.0720092665188677,1
732,936,3,0.0828023816211822,1
732,937,3,0.112626165047367,1
732,938,3,0.106510412099462,1
732,939,3,0.0787928136009508,1
733,935,3,0.0839436735363168,1
733,936,3,0.111364909898915,1
733,937,3,0.133679712494586,1
733,938,3,0.117914610136982,1
733,939,3,0.084947727704209,1
733,942,3,0.0687117750466316,1
733,943,3,0.0680925939343024,1
734,935,3,0.0970039128570973,1
734,936,3,0.110552528562367,1
734,937,3,0.110359214532404,1
734,938,3,0.0917172107922921,1
734,939,3,0.0729968787516962,1
734,942,3,0.0678415863821053,1
735,935,3,0.081694015504607,1
735,936,3,0.0851773457663832,1
735,937,3,0.0778208466629808,1
735,942,3,0.0678312839674206,1
736,941,3,0.0727609414758636,1
736,942,3,0.0713281151842546,1
737,941,3,0.0721927932548797,1
737,942,3,0.0700708911550368,1
738,941,3,0.0678788727375778,1
740,964,3,0.0866664519930956,1
740,965,3,0.0783957992694773,1
741,963,3,0.0963945969058063,1
741,964,3,0.117547928031069,1
741,965,3,0.100480792130144,1
741,966,3,0.0752326464929095,1
742,962,3,0.0701401329653598,1
742,963,3,0.0961996596465534,1
742,964,3,0.117138658617941,1
742,965,3,0.102057325127053,1
742,966,3,0.0786573009091905,1
742,967,3,0.0719962447458883,1
742,968,3,0.0778418947357728,1
743,963,3,0.0781052651855915,1
743,964,3,0.0906208961049876,1
743,965,3,0.0863582121314143,1
743,966,3,0.0782724637922834,1
743,967,3,0.0768123720404157,1
743,968,3,0.0826787706142932,1
743,969,3,0.0940085936034751,1
744,964,3,0.0727192586248222,1
744,965,3,0.0756240364247382,1
744,966,3,0.0768650281610516,1
744,967,3,0.0771462481432892,1
744,968,3,0.0804214336897777,1
744,969,3,0.0892357963483834,1
745,962,3,0.0689541453418662,1
745,965,3,0.0686397899189099,1
745,966,3,0.0733297485722051,1
745,967,3,0.0754860499554984,1
745,968,3,0.0776360261353573,1
745,969,3,0.0843481271695568,1
745,970,3,0.0889887360585568,1
746,966,3,0.0686471453638128,1
746,967,3,0.0719030138827673,1
746,968,3,0.073667907364904,1
746,969,3,0.0786797086611298,1
746,970,3,0.0843020418331705,1
746,971,3,0.0876717400548395,1
747,967,3,0.0717068247603347,1
747,968,3,0.0751482206004784,1
747,969,3,0.0776956902938891,1
747,970,3,0.0825385858972689,1
747,971,3,0.0864564444574782,1
748,967,3,0.0701451404180787,1
748,968,3,0.0769127427165043,1
748,969,3,0.0783382614814182,1
748,970,3,0.0809239219864742,1
748,971,3,0.0835285880507132,1
749,968,3,0.0753790306280726,1
749,969,3,0.0777305208412099,1
749,970,3,0.079133494089337,1
749,971,3,0.0807438273920985,1
749,972,3,0.0841303628740459,1
750,968,3,0.0715395422967791,1
750,969,3,0.0738413293488385,1
750,970,3,0.0739029641436676,1
750,971,3,0.076244187880776,1
750,972,3,0.0807747286463768,1
751,968,3,0.0693035229849747,1
751,969,3,0.0703465646047174,1
751,970,3,0.0696161892911047,1
751,971,3,0.0731694801363215,1
751,972,3,0.0787681536932432,1
752,969,3,0.0697178297997009,1
752,970,3,0.0691943832768521,1
752,971,3,0.0728593475054308,1
752,972,3,0.0769690945289195,1
752,973,3,0.0711606230785398,1
753,969,3,0.0726603791269437,1
753,970,3,0.074294725441607,1
753,971,3,0.0778556832000776,1
753,972,3,0.0795447640876416,1
753,973,3,0.0684766823292121,1
754,969,3,0.0748450900177077,1
754,970,3,0.0785529949502834,1
754,971,3,0.0818833223744392,1
754,972,3,0.0811686223045649,1
755,969,3,0.0754773348314482,1
755,970,3,0.0809589861350582,1
755,971,3,0.0823647685881197,1
755,972,3,0.0788878653559695,1
756,968,3,0.0689513121778279,1
756,969,3,0.0747362378188322,1
756,970,3,0.0788588808300047,1
756,971,3,0.0797935614125023,1
756,972,3,0.0769701966476997,1
757,968,3,0.0691723409012476,1
757,969,3,0.0728408570669821,1
757,970,3,0.0768080953403664,1
757,971,3,0.0802417224410647,1
757,972,3,0.0804600557652936,1
757,973,3,0.069027867504622,1
758,967,3,0.0686422157781816,1
758,968,3,0.0687615980032291,1
758,969,3,0.0711355378967376,1
758,970,3,0.0756370462181657,1
758,971,3,0.0807094161290963,1
758,972,3,0.082603437201799,1
758,973,3,0.0719271526799647,1
759,967,3,0.0693084346012779,1
759,968,3,0.0706857895775406,1
759,969,3,0.07172339847047,1
759,970,3,0.0741472212183358,1
759,971,3,0.0767587575556232,1
759,972,3,0.0777259686114655,1
759,973,3,0.0698944862626644,1
760,967,3,0.071365425498831,1
760,968,3,0.0734870820178587,1
760,969,3,0.073584613540133,1
760,970,3,0.0731701090627994,1
760,971,3,0.0715782841678145,1
760,972,3,0.0708786483845287,1
761,967,3,0.0704335002132839,1
761,968,3,0.0713460066451054,1
761,969,3,0.074472406156263,1
761,970,3,0.0749705758244783,1
761,971,3,0.0723379974041748,1
761,972,3,0.0719820609563688,1
761,973,3,0.0719070689611055,1
761,974,3,0.0687825562293814,1
762,919,3,0.0731073721491901,1
762,967,3,0.0682387863966342,1
762,968,3,0.0709775036472944,1
762,969,3,0.0799518532223126,1
762,970,3,0.082113647230179,1
762,971,3,0.0789714646593154,1
762,972,3,0.0786872318197601,1
762,973,3,0.076970969328801,1
762,974,3,0.0738541235103307,1
763,919,3,0.0803525153273575,1
763,920,3,0.0763862833363378,1
763,968,3,0.0695121468823408,1
763,969,3,0.0807212758855357,1
763,970,3,0.0826396394078191,1
763,971,3,0.0819226991617285,1
763,972,3,0.0852581538341227,1
763,973,3,0.0814807794797367,1
763,974,3,0.0757802917107155,1
763,975,3,0.0698882868445256,1
764,969,3,0.0752403433550432,1
764,970,3,0.0784798897344536,1
764,971,3,0.0818823340614026,1
764,972,3,0.088799914360579,1
764,973,3,0.0845338761124571,1
764,974,3,0.0755469060794501,1
764,975,3,0.070121384966544,1
765,967,3,0.0684733819626474,1
765,969,3,0.0707729827464743,1
765,970,3,0.0726461653885443,1
765,971,3,0.0730074806551799,1
765,972,3,0.0763896136517824,1
765,973,3,0.074331838093576,1
765,974,3,0.0690191463907958,1
766,967,3,0.0713316491520825,1
766,969,3,0.0701686383092463,1
766,970,3,0.0707960613533233,1
767,976,3,0.0708927243580805,1
767,977,3,0.0752232185855178,1
767,978,3,0.0753079858951797,1
767,979,3,0.072450155959391,1
768,975,3,0.0688234604095454,1
768,976,3,0.0731878268201468,1
768,977,3,0.0784125167342361,1
768,978,3,0.0789253433842733,1
768,979,3,0.0754855408245401,1
769,974,3,0.0688543976024796,1
769,975,3,0.0702062241535177,1
769,976,3,0.0723658199135996,1
769,977,3,0.0749415493700816,1
769,978,3,0.0755651629166356,1
770,976,3,0.0678819395028793,1
770,977,3,0.0687731882197495,1
732,936,4,0.0788770478205505,1
732,937,4,0.0960354139994194,1
732,938,4,0.0899445186218302,1
732,939,4,0.0694417071168218,1
732,943,4,0.0711143101306662,1
732,944,4,0.07083502484607,1
733,935,4,0.0890387387084337,1
733,936,4,0.115948382314846,1
733,937,4,0.123674857900951,1
733,938,4,0.104007608165531,1
733,939,4,0.0774970872917367,1
733,943,4,0.0741297550315795,1
733,944,4,0.0754612103545114,1
734,935,4,0.102528397048737,1
734,936,4,0.117538631898748,1
734,937,4,0.1082586480146,1
734,938,4,0.0860880912040667,1
734,939,4,0.0708022967101179,1
734,943,4,0.0714440892267698,1
734,944,4,0.0714456825071803,1
735,935,4,0.081346554589812,1
735,936,4,0.0845288267313064,1
735,937,4,0.0749783625332516,1
735,942,4,0.0680146070510493,1
736,941,4,0.0725460942012548,1
736,942,4,0.0721080019861139,1
737,941,4,0.0731335175213406,1
737,942,4,0.0725387806847838,1
740,964,4,0.0867709017066261,1
740,965,4,0.0782726614548907,1
741,963,4,0.0930881207696009,1
741,964,4,0.12500519912555,1
741,965,4,0.106527986102186,1
741,966,4,0.0765394958161175,1
742,962,4,0.0679851014145742,1
742,963,4,0.0924669151129907,1
742,964,4,0.124893729394572,1
742,965,4,0.109481233169328,1
742,966,4,0.0819314023062267,1
742,967,4,0.0709773479131189,1
742,968,4,0.0754755079497744,1
743,963,4,0.07598294380143,1
743,964,4,0.096079085456086,1
743,965,4,0.0922360931058445,1
743,966,4,0.0818884017044698,1
743,967,4,0.0774179204226156,1
743,968,4,0.0819791647798872,1
743,969,4,0.0905752480222479,1
744,964,4,0.0755952735204846,1
744,965,4,0.0782016646402057,1
744,966,4,0.077907884097739,1
744,967,4,0.0756760815882241,1
744,968,4,0.0782011734785753,1
744,969,4,0.0861966558936952,1
745,962,4,0.0688002320582969,1
745,963,4,0.068689451151556,1
745,965,4,0.0678793040014483,1
745,966,4,0.0716051063846508,1
745,967,4,0.0719042597561711,1
745,968,4,0.0737061341152051,1
745,969,4,0.0821659319847041,1
745,970,4,0.0916608769492049,1
746,967,4,0.0693606474784912,1
746,968,4,0.0714991472475733,1
746,969,4,0.0782601188639896,1
746,970,4,0.0862646158919586,1
746,971,4,0.0903309909475797,1
747,967,4,0.0683921007026055,1
747,968,4,0.074138967307036,1
747,969,4,0.0786652313725874,1
747,970,4,0.0830460576875804,1
747,971,4,0.0875992697552635,1
748,968,4,0.0772131299818764,1
748,969,4,0.0811089341869291,1
748,970,4,0.0806987782869567,1
748,971,4,0.0833277388825685,1
748,972,4,0.085986007452048,1
749,968,4,0.0753863141956636,1
749,969,4,0.080233450560437,1
749,970,4,0.0781898468121981,1
749,971,4,0.0794105451874929,1
749,972,4,0.0832562628858051,1
750,968,4,0.0702626059148127,1
750,969,4,0.073709105044091,1
750,970,4,0.072173122830563,1
750,971,4,0.0748651198285832,1
750,972,4,0.080316450886185,1
751,968,4,0.068405116485809,1
751,969,4,0.0695063367996406,1
751,970,4,0.0682281545442705,1
751,971,4,0.0722876473472911,1
751,972,4,0.079554892798823,1
751,973,4,0.0767393985996575,1
752,969,4,0.0690579960777988,1
752,970,4,0.0677573581522816,1
752,971,4,0.0706136666849714,1
752,972,4,0.075795637516775,1
752,973,4,0.0694049358820836,1
753,969,4,0.073123191147552,1
753,970,4,0.0726076211801162,1
753,971,4,0.073391724784265,1
753,972,4,0.075928886073215,1
754,969,4,0.0751863095859321,1
754,970,4,0.0746189280562736,1
754,971,4,0.0741077665639588,1
754,972,4,0.075615620789487,1
755,969,4,0.0747720866280695,1
755,970,4,0.0750162778152019,1
755,971,4,0.0720295778492142,1
755,972,4,0.0719656849088409,1
756,968,4,0.0677722487353666,1
756,969,4,0.0772987658090553,1
756,970,4,0.0774247248081283,1
756,971,4,0.0724317194289261,1
756,972,4,0.0705989438156138,1
757,968,4,0.0683876802479326,1
757,969,4,0.0757741102619046,1
757,970,4,0.0773486247043087,1
757,971,4,0.0761451109962991,1
757,972,4,0.0762151135081715,1
758,968,4,0.0683790010625383,1
758,969,4,0.0723669400017078,1
758,970,4,0.075045747513021,1
758,971,4,0.0777665253846227,1
758,972,4,0.0797904527187689,1
758,973,4,0.0701941068367111,1
759,967,4,0.0681283469071241,1
759,968,4,0.0695291937847784,1
759,969,4,0.0706198301644543,1
759,970,4,0.0719683623387037,1
759,971,4,0.0743203916316792,1
759,972,4,0.0753413369678336,1
759,973,4,0.0692588632152715,1
760,967,4,0.0716966301616176,1
760,968,4,0.0733537316352271,1
760,969,4,0.0729313146638245,1
760,970,4,0.0722454733346195,1
760,971,4,0.0710473324556634,1
760,972,4,0.0690768938210142,1
761,967,4,0.0717699809582626,1
761,968,4,0.0719386111214135,1
761,969,4,0.0739854373691294,1
761,970,4,0.0741986674042237,1
761,971,4,0.0725787265007911,1
761,972,4,0.0725186969659245,1
761,973,4,0.0717686272688912,1
762,967,4,0.0677745488093427,1
762,968,4,0.0705038800810431,1
762,969,4,0.0796389652944713,1
762,970,4,0.0818346973730376,1
762,971,4,0.0791041501768134,1
762,972,4,0.0798781250697809,1
762,973,4,0.0765219218133937,1
762,974,4,0.0699198409843857,1
763,919,4,0.074238325710984,1
763,968,4,0.0680875445531517,1
763,969,4,0.0811903112833866,1
763,970,4,0.0836477965722573,1
763,971,4,0.0819840584268625,1
763,972,4,0.0844820346013545,1
763,973,4,0.0783789979478548,1
763,974,4,0.0719867808998407,1
764,969,4,0.0736406239353173,1
764,970,4,0.0775992189619632,1
764,971,4,0.0797945796744188,1
764,972,4,0.0840459549509428,1
764,973,4,0.0774644130637685,1
764,974,4,0.0702598086894303,1
765,969,4,0.0679788181395718,1
765,970,4,0.0704900856269623,1
765,971,4,0.0716559056747329,1
765,972,4,0.0738035158930799,1
765,973,4,0.0703956208699896,1
767,977,4,0.0718883688804974,1
767,978,4,0.0715046099232667,1
768,976,4,0.0698205364884215,1
768,977,4,0.0755186702754827,1
768,978,4,0.0756289061126095,1
768,979,4,0.0718919148278773,1
769,976,4,0.0683265965124937,1
769,977,4,0.0706850288759912,1
769,978,4,0.0712609638057484,1
732,937,5,0.0716038245725912,1
732,938,5,0.0689719649254052,1
732,943,5,0.078505777546237,1
732,944,5,0.0823788625309995,1
733,935,5,0.0767637170901342,1
733,936,5,0.0980026660732476,1
733,937,5,0.0951783908624961,1
733,938,5,0.0814626723869507,1
733,942,5,0.067823856645206,1
733,943,5,0.0843722180485463,1
733,944,5,0.0891374621961279,1
733,945,5,0.0704793459586311,1
734,935,5,0.0850381553521715,1
734,936,5,0.099149534469819,1
734,937,5,0.0872730845247477,1
734,938,5,0.0721624909781994,1
734,943,5,0.0758941693316378,1
734,944,5,0.0788450204883881,1
735,935,5,0.0685254211363573,1
735,936,5,0.0715649569162602,1
736,942,5,0.0688323132984431,1
737,942,5,0.0682365761692977,1
741,963,5,0.0826518884996972,1
741,964,5,0.10806705904012,1
741,965,5,0.0949280122367769,1
741,966,5,0.0710575210646046,1
742,963,5,0.0825024495787846,1
742,964,5,0.110281059935424,1
742,965,5,0.101738046108241,1
742,966,5,0.0793868196848381,1
742,967,5,0.0696566502278463,1
743,963,5,0.0742502214060793,1
743,964,5,0.0936743521242669,1
743,965,5,0.0943990251711471,1
743,966,5,0.0840661884142015,1
743,967,5,0.0781303204185138,1
743,968,5,0.0793341755437543,1
744,963,5,0.0694285355994429,1
744,964,5,0.077921313175485,1
744,965,5,0.0811069575608559,1
744,966,5,0.078047272174558,1
744,967,5,0.0744922383045311,1
744,968,5,0.0749115885106321,1
744,969,5,0.0823215343850997,1
745,963,5,0.0705878747096037,1
745,964,5,0.0688762722643567,1
745,965,5,0.0680058679678952,1
745,966,5,0.0689062271340302,1
745,967,5,0.068860123828316,1
745,968,5,0.0702828034394156,1
745,969,5,0.0792899350583696,1
745,970,5,0.0926902678694903,1
746,968,5,0.0700774319904064,1
746,969,5,0.0774547815039935,1
746,970,5,0.0876191857603953,1
746,971,5,0.0918787370811314,1
747,968,5,0.0716498080827858,1
747,969,5,0.0779513219531423,1
747,970,5,0.0826153388866703,1
747,971,5,0.0865657398997762,1
748,968,5,0.0746524767915348,1
748,969,5,0.0812926286366685,1
748,970,5,0.0800412027105988,1
748,971,5,0.0822713041237356,1
748,972,5,0.0858004082535471,1
749,968,5,0.0724752830696251,1
749,969,5,0.0797801443143082,1
749,970,5,0.0768718864545481,1
749,971,5,0.0786027280602412,1
749,972,5,0.0813591810375768,1
750,969,5,0.0713429338900279,1
750,970,5,0.0707678255493559,1
750,971,5,0.0750437888562758,1
750,972,5,0.0776311624372619,1
751,971,5,0.0726093522253743,1
751,972,5,0.0760993970260235,1
751,973,5,0.0717938382359889,1
752,971,5,0.0694326625550928,1
752,972,5,0.0718071834568713,1
753,969,5,0.071718708475878,1
753,970,5,0.0708172591705147,1
753,971,5,0.0700168573859257,1
753,972,5,0.0711458343216464,1
754,969,5,0.0740949244842587,1
754,970,5,0.0721308889201316,1
754,971,5,0.0691856022652662,1
754,972,5,0.0709718552885457,1
755,969,5,0.0742141629546827,1
755,970,5,0.0727150118736527,1
755,971,5,0.0677872411446433,1
755,972,5,0.0707576129813108,1
756,968,5,0.0688913425407211,1
756,969,5,0.0812120661497442,1
756,970,5,0.0790738299308052,1
756,971,5,0.0698129294729275,1
756,972,5,0.0702079851476556,1
757,968,5,0.0723419266972174,1
757,969,5,0.0838813319479221,1
757,970,5,0.0814808273979445,1
757,971,5,0.0733953426089567,1
757,972,5,0.0726782825673464,1
758,968,5,0.0714218671578858,1
758,969,5,0.0778469381271475,1
758,970,5,0.0763307581130078,1
758,971,5,0.0735539818257738,1
758,972,5,0.0740196509695243,1
759,967,5,0.0678337218062443,1
759,968,5,0.0693234988878663,1
759,969,5,0.0711642648623353,1
759,970,5,0.0706714021356379,1
759,971,5,0.0716845967016747,1
759,972,5,0.0718443380372721,1
760,967,5,0.072447526447736,1
760,968,5,0.0716458548306393,1
760,969,5,0.0717323711548873,1
760,970,5,0.0713207597393518,1
760,971,5,0.0711420427934513,1
760,972,5,0.0683044642902494,1
761,967,5,0.0746459659050451,1
761,968,5,0.0729439530911413,1
761,969,5,0.0743727183146361,1
761,970,5,0.0737747589786023,1
761,971,5,0.0734788999838707,1
761,972,5,0.0720522671206246,1
761,973,5,0.0698647769738061,1
762,967,5,0.0694590115796266,1
762,968,5,0.0711674094947245,1
762,969,5,0.0782853957186231,1
762,970,5,0.0786541383074733,1
762,971,5,0.0772800777079993,1
762,972,5,0.0776039928134189,1
762,973,5,0.0739294868717048,1
763,968,5,0.0689234896684031,1
763,969,5,0.0803555102153473,1
763,970,5,0.0813671414498535,1
763,971,5,0.0795872615482162,1
763,972,5,0.0804580911187723,1
763,973,5,0.0751008953804643,1
763,974,5,0.0678611430006784,1
764,969,5,0.0721457136156808,1
764,970,5,0.0758027952990705,1
764,971,5,0.0769339045950399,1
764,972,5,0.078557786771067,1
764,973,5,0.0724536300294592,1
765,970,5,0.069856031900876,1
765,971,5,0.0712087449387591,1
765,972,5,0.0720286554237134,1
765,973,5,0.0680295275830142,1
768,977,5,0.0704577048980171,1
768,978,5,0.0694919613372898,1
731,943,6,0.0682827872909796,1
731,944,6,0.0706182907920276,1
732,942,6,0.0695294453553696,1
732,943,6,0.0932570624011028,1
732,944,6,0.0947838742676061,1
732,945,6,0.0711045827344755,1
733,936,6,0.0722963265326854,1
733,937,6,0.0702340766118224,1
733,942,6,0.0743310654124747,1
733,943,6,0.102744975368604,1
733,944,6,0.104632785043616,1
733,945,6,0.0751893404125777,1
734,936,6,0.0728229536265794,1
734,943,6,0.0823031457728426,1
734,944,6,0.0850159812014954,1
734,945,6,0.0686876182801063,1
741,963,6,0.0711837975218045,1
741,964,6,0.0820889334144876,1
741,965,6,0.0753605701385038,1
742,963,6,0.0719866251656652,1
742,964,6,0.0864557795923445,1
742,965,6,0.0847710772310214,1
742,966,6,0.0723347569353699,1
743,963,6,0.0702220970598633,1
743,964,6,0.0834160341702823,1
743,965,6,0.0878582137606334,1
743,966,6,0.0804299391716686,1
743,967,6,0.0751231713573321,1
744,963,6,0.0680300486935244,1
744,964,6,0.0747312782843211,1
744,965,6,0.0776149301443574,1
744,966,6,0.0739244913985379,1
744,967,6,0.0710984432140965,1
744,968,6,0.0709440627280008,1
745,963,6,0.0677728716720685,1
745,964,6,0.0678648866106656,1
745,969,6,0.0755491762045463,1
745,970,6,0.0913150991614601,1
746,969,6,0.0727658411126148,1
746,970,6,0.0841476254084189,1
746,971,6,0.0904756500272607,1
747,969,6,0.0724357685174883,1
747,970,6,0.0785429800448457,1
747,971,6,0.083525724937795,1
747,972,6,0.0894828686177619,1
748,969,6,0.0757351886975898,1
748,970,6,0.0774139492011412,1
748,971,6,0.0800664136776966,1
748,972,6,0.0845726898608043,1
749,969,6,0.07448672771063,1
749,970,6,0.0745342505932514,1
749,971,6,0.0766449637915646,1
749,972,6,0.0780842949798873,1
749,973,6,0.0758230347521052,1
750,970,6,0.0681930544570306,1
750,971,6,0.0728095425181612,1
750,972,6,0.0724665679455749,1
751,971,6,0.0694993048026407,1
751,972,6,0.0687921159118447,1
753,969,6,0.0687311759310292,1
753,970,6,0.0685762683446473,1
754,969,6,0.0709942031427252,1
754,970,6,0.0709315680553076,1
754,971,6,0.0678437067628021,1
755,969,6,0.0712258936673884,1
755,970,6,0.0715129536812061,1
755,971,6,0.0678758479007081,1
755,972,6,0.0700512267204961,1
755,973,6,0.0698223034723354,1
756,969,6,0.0795554258888851,1
756,970,6,0.0771200728222588,1
756,971,6,0.0693066137093801,1
756,972,6,0.0714987818712386,1
756,973,6,0.0710726332694009,1
757,968,6,0.075974462278643,1
757,969,6,0.0908213020297099,1
757,970,6,0.0844575364175984,1
757,971,6,0.0718496509685659,1
757,972,6,0.0707567624331218,1
758,968,6,0.0755384125771112,1
758,969,6,0.0854808417254887,1
758,970,6,0.0798194731833896,1
758,971,6,0.0707148340012652,1
758,972,6,0.069991933928075,1
759,967,6,0.0677865642999576,1
759,968,6,0.0700285853672935,1
759,969,6,0.0731095644071986,1
759,970,6,0.0716635246697789,1
759,971,6,0.0696605615515609,1
759,972,6,0.0696028800088783,1
760,967,6,0.0734112814028381,1
760,968,6,0.0706599796328449,1
760,969,6,0.0700063333495297,1
760,970,6,0.0715176975837819,1
760,971,6,0.0718640803389006,1
760,972,6,0.0691027277248138,1
761,967,6,0.077666478156437,1
761,968,6,0.0757364225914416,1
761,969,6,0.0750018724039712,1
761,970,6,0.0746053432443521,1
761,971,6,0.0741461849870913,1
761,972,6,0.0702072004870023,1
762,967,6,0.0723269342879407,1
762,968,6,0.0740460239531621,1
762,969,6,0.0765199212282165,1
762,970,6,0.0753328913837025,1
762,971,6,0.0743688549091294,1
762,972,6,0.0732026335463681,1
762,973,6,0.0692009061428938,1
763,968,6,0.0700069263373517,1
763,969,6,0.0766874732316911,1
763,970,6,0.0771035110916755,1
763,971,6,0.0763475774039583,1
763,972,6,0.0760692684528466,1
763,973,6,0.071669915760749,1
764,969,6,0.0694978852257336,1
764,970,6,0.073660599838209,1
764,971,6,0.0753240145357008,1
764,972,6,0.0750419979132579,1
764,973,6,0.0693953282814125,1
765,970,6,0.0686659951888203,1
765,971,6,0.0714209087937291,1
765,972,6,0.0713274443293449,1
731,943,7,0.0756130212267119,1
731,944,7,0.0746744233307237,1
732,942,7,0.0770730231319398,1
732,943,7,0.110075167375904,1
732,944,7,0.103107284938052,1
732,945,7,0.0724584997173305,1
733,942,7,0.0795853687790067,1
733,943,7,0.114878788018186,1
733,944,7,0.108632673585864,1
733,945,7,0.0756294811311035,1
734,943,7,0.0838802178495899,1
734,944,7,0.0835423046377062,1
734,945,7,0.070218413347636,1
742,964,7,0.070377945041074,1
742,965,7,0.0734887831142369,1
742,966,7,0.068825053689956,1
743,964,7,0.0749976795607855,1
743,965,7,0.0824432646023311,1
743,966,7,0.0783079112865301,1
743,967,7,0.0722356381224611,1
744,964,7,0.0705648859493943,1
744,965,7,0.0735315501147306,1
744,966,7,0.0710142209740487,1
744,967,7,0.068470285248466,1
745,969,7,0.0714634182338556,1
745,970,7,0.0868541476131893,1
746,969,7,0.0685447082150113,1
746,970,7,0.0787445659554359,1
746,971,7,0.0870533196440597,1
747,969,7,0.0696793934072405,1
747,970,7,0.0766133078255129,1
747,971,7,0.0816289545579176,1
747,972,7,0.0864011947638433,1
748,969,7,0.072339410991306,1
748,970,7,0.0792482581971043,1
748,971,7,0.0812855726805647,1
748,972,7,0.0810696412565036,1
748,973,7,0.0811937973330067,1
749,969,7,0.0711279847892275,1
749,970,7,0.077251224957106,1
749,971,7,0.078634947065235,1
749,972,7,0.0744059076633386,1
749,973,7,0.0692227209070112,1
750,970,7,0.0701369643738667,1
750,971,7,0.0720831923340068,1
750,972,7,0.0677712364632261,1
751,970,7,0.06796645524195,1
751,971,7,0.0685553640264788,1
752,970,7,0.0684555983177642,1
752,971,7,0.0684576647904772,1
753,969,7,0.0678731345321894,1
753,970,7,0.0708285019800283,1
753,971,7,0.0699218715184427,1
754,969,7,0.069325930736914,1
754,970,7,0.0729326803327479,1
754,971,7,0.0713395975848073,1
755,969,7,0.0687115654044723,1
755,970,7,0.0713747216311511,1
755,971,7,0.0705788361376506,1
755,972,7,0.0696424844076548,1
755,973,7,0.0738020783468448,1
755,974,7,0.0693573411221505,1
756,969,7,0.0757801060276601,1
756,970,7,0.073058309894142,1
756,971,7,0.068827102193341,1
756,972,7,0.0706997217964689,1
756,973,7,0.0747355190457146,1
757,968,7,0.0766403576538364,1
757,969,7,0.0914165839358808,1
757,970,7,0.0824160710193842,1
757,971,7,0.0699977260414471,1
757,972,7,0.0696897317605811,1
757,973,7,0.0704617120581474,1
758,968,7,0.0782253601939806,1
758,969,7,0.0910353287050095,1
758,970,7,0.0821092327652821,1
758,971,7,0.0698615245254492,1
758,972,7,0.0694932491391254,1
758,973,7,0.0687325955079364,1
759,967,7,0.0679304087701054,1
759,968,7,0.07149894359519,1
759,969,7,0.0769073339487948,1
759,970,7,0.0740741219922819,1
759,971,7,0.070436698753657,1
759,972,7,0.0708610863613568,1
759,973,7,0.070183043720477,1
760,967,7,0.0730585734442851,1
760,968,7,0.0714180516705869,1
760,969,7,0.071776276212817,1
760,970,7,0.0736239783478703,1
760,971,7,0.0746148729779355,1
760,972,7,0.0718398516950635,1
760,973,7,0.0685024024272681,1
761,967,7,0.0775778833799242,1
761,968,7,0.0776959658235841,1
761,969,7,0.0769680043896912,1
761,970,7,0.0771499677941725,1
761,971,7,0.077538207103836,1
761,972,7,0.071446053873291,1
762,967,7,0.0745250922257787,1
762,968,7,0.0767221720039404,1
762,969,7,0.0766435741635374,1
762,970,7,0.0750143670766644,1
762,971,7,0.0751866809520428,1
762,972,7,0.0722003823010458,1
762,973,7,0.0681004465306115,1
763,967,7,0.0681623568551357,1
763,968,7,0.0712367471414633,1
763,969,7,0.0738168970526181,1
763,970,7,0.0746460078334769,1
763,971,7,0.0758140201392561,1
763,972,7,0.0742929344985891,1
763,973,7,0.0709683752287016,1
764,969,7,0.0685714705340877,1
764,970,7,0.0730564650431403,1
764,971,7,0.0755921887858552,1
764,972,7,0.0730480254487852,1
764,973,7,0.0683214033767194,1
765,970,7,0.0681401407760277,1
765,971,7,0.0725310359044423,1
765,972,7,0.0710983593572328,1
731,943,8,0.0751535634806521,1
731,944,8,0.0742269091979671,1
732,942,8,0.0761081960069374,1
732,943,8,0.110936461223101,1
732,944,8,0.101602976659903,1
732,945,8,0.0702472780780812,1
733,942,8,0.0771878830761228,1
733,943,8,0.11000689590929,1
733,944,8,0.100731200704743,1
733,945,8,0.0723736904792367,1
734,943,8,0.0782735419519597,1
734,944,8,0.0770435055159128,1
734,945,8,0.0700812774265852,1
739,917,8,0.0685870439516344,1
743,964,8,0.0679227598261796,1
743,965,8,0.0750073889876483,1
743,966,8,0.0727280036977523,1
746,970,8,0.0697613694812959,1
746,971,8,0.0797518845512369,1
747,970,8,0.0713844789762217,1
747,971,8,0.0763254152328341,1
747,972,8,0.0806679069815583,1
748,970,8,0.0776126959579171,1
748,971,8,0.0797658227599412,1
748,972,8,0.074999895777898,1
748,973,8,0.0741537440843774,1
749,970,8,0.077458998306283,1
749,971,8,0.0800220653763443,1
749,972,8,0.0704919065188601,1
750,970,8,0.0710012231601732,1
750,971,8,0.0710342148462683,1
751,969,8,0.0682735330870912,1
751,970,8,0.072001300116815,1
752,969,8,0.0691973661852899,1
752,970,8,0.0744310407633486,1
752,971,8,0.0695004248907489,1
753,969,8,0.06778587547572,1
753,970,8,0.0740686113983808,1
753,971,8,0.0717963838907802,1
754,970,8,0.0724395121274755,1
754,971,8,0.0725382655640495,1
754,974,8,0.0698259692152349,1
755,970,8,0.0694025459614678,1
755,971,8,0.0709631461542715,1
755,972,8,0.068399545994148,1
755,973,8,0.0710219657543902,1
755,974,8,0.0720894037316975,1
756,969,8,0.0715142414830417,1
756,970,8,0.0684519146055368,1
756,973,8,0.0698015369190145,1
757,968,8,0.0733308027727775,1
757,969,8,0.0851095355125192,1
757,970,8,0.0764988791452005,1
757,973,8,0.0690257171750453,1
758,968,8,0.0764466662679872,1
758,969,8,0.0895113919309763,1
758,970,8,0.0801478926003458,1
758,971,8,0.0686779388021234,1
758,972,8,0.069301678133973,1
758,973,8,0.0723745949354096,1
759,968,8,0.0710334721140469,1
759,969,8,0.0777143604256172,1
759,970,8,0.0731546434612203,1
759,971,8,0.0695055521389873,1
759,972,8,0.0722027482625577,1
759,973,8,0.0756234015084843,1
760,967,8,0.0707410512507275,1
760,968,8,0.071339974940694,1
760,969,8,0.072633982184202,1
760,970,8,0.0718364614818591,1
760,971,8,0.0725339469355683,1
760,972,8,0.0719537532750897,1
760,973,8,0.0717243927732826,1
761,967,8,0.0758422858921033,1
761,968,8,0.078945888315883,1
761,969,8,0.0784306358065741,1
761,970,8,0.0765011852089526,1
761,971,8,0.0772978314040025,1
761,972,8,0.0720680801292105,1
762,967,8,0.0758619143879882,1
762,968,8,0.0785664599666853,1
762,969,8,0.0769960065923954,1
762,970,8,0.0740549008011637,1
762,971,8,0.0756569322744176,1
762,972,8,0.0724135045201725,1
763,967,8,0.0700553177374901,1
763,968,8,0.0710880210038922,1
763,969,8,0.0711720815199886,1
763,970,8,0.0728385030850221,1
763,971,8,0.076535554543523,1
763,972,8,0.0746793888550107,1
763,973,8,0.070304318714734,1
764,970,8,0.0731796747350387,1
764,971,8,0.0771789343508094,1
764,972,8,0.0736216303556863,1
764,973,8,0.0686061273779051,1
765,970,8,0.069048885628534,1
765,971,8,0.0746787599285329,1
765,972,8,0.0723078029434622,1
766,971,8,0.0684628998546832,1
766,972,8,0.0695169327133484,1
781,967,8,0.0749923306908358,1
731,943,9,0.068086879688018,1
731,944,9,0.0689698984526923,1
732,943,9,0.0920659295600428,1
732,944,9,0.086941029313772,1
733,942,9,0.068692386141786,1
733,943,9,0.0897542653673932,1
733,944,9,0.0836349485027812,1
734,943,9,0.067831757159723,1
734,944,9,0.0681462802964067,1
734,945,9,0.069055630116287,1
735,921,9,0.0690768039743745,1
739,917,9,0.0744585458146464,1
746,971,9,0.0767421119681762,1
747,970,9,0.0679323734166267,1
747,971,9,0.072955423512142,1
747,972,9,0.0774981055536532,1
748,970,9,0.0732353317334402,1
748,971,9,0.077703902276757,1
748,972,9,0.0722443472567353,1
749,970,9,0.075145123886297,1
749,971,9,0.0814776408371234,1
749,972,9,0.0700876086197956,1
750,970,9,0.0717764379367685,1
750,971,9,0.0739600467087523,1
751,970,9,0.0731544697577169,1
751,971,9,0.0681098504788994,1
752,970,9,0.075622922326406,1
752,971,9,0.0693038164839977,1
753,970,9,0.0736282191092638,1
753,971,9,0.0721172022820184,1
754,970,9,0.0687108646006827,1
754,971,9,0.0716695983026221,1
754,972,9,0.069232124855299,1
754,974,9,0.0696622326990592,1
755,971,9,0.0698371341576607,1
755,972,9,0.0717084060611933,1
755,973,9,0.07108164788225,1
755,974,9,0.0706108095618292,1
756,969,9,0.0680511686436282,1
756,973,9,0.0678194302007572,1
757,968,9,0.067779160936847,1
757,969,9,0.0749055148777889,1
757,970,9,0.0684399709922337,1
757,973,9,0.0699474718209791,1
758,968,9,0.0739841974855016,1
758,969,9,0.0818495699867947,1
758,970,9,0.0729436655818943,1
758,972,9,0.0679341164414367,1
758,973,9,0.0753737236865547,1
758,974,9,0.071251715591636,1
759,968,9,0.0742011531612552,1
759,969,9,0.0778954253637016,1
759,970,9,0.070469139380362,1
759,972,9,0.0701568983483265,1
759,973,9,0.0770085791321763,1
759,974,9,0.0703263910392185,1
760,967,9,0.06863743593695,1
760,968,9,0.0753729989236612,1
760,969,9,0.0755286492422646,1
760,970,9,0.0703054268232902,1
760,971,9,0.0688868981269443,1
760,972,9,0.0694818146567806,1
760,973,9,0.0710768860103463,1
761,967,9,0.0725905982367825,1
761,968,9,0.0808457314508378,1
761,969,9,0.0784718993732969,1
761,970,9,0.0734448840460831,1
761,971,9,0.0754201803890518,1
761,972,9,0.0749623997802663,1
761,973,9,0.0696387887158754,1
762,967,9,0.0756746919601968,1
762,968,9,0.0813436615280139,1
762,969,9,0.0770637389791716,1
762,970,9,0.0720826292950647,1
762,971,9,0.077360532378956,1
762,972,9,0.0784193870072846,1
762,973,9,0.0708623861427443,1
763,967,9,0.071555367284917,1
763,968,9,0.0722441196452481,1
763,969,9,0.069427625153494,1
763,970,9,0.0701176952645406,1
763,971,9,0.076545797060448,1
763,972,9,0.077173783143467,1
763,973,9,0.0715916593375768,1
764,970,9,0.0715403748756403,1
764,971,9,0.0770697287551511,1
764,972,9,0.0744114841447755,1
764,973,9,0.0701679015668008,1
765,970,9,0.0678875099945402,1
765,971,9,0.0746672176302204,1
765,972,9,0.0723411060979082,1
765,973,9,0.068138002426003,1
766,971,9,0.0679554400439237,1
766,972,9,0.0686928952727442,1
780,967,9,0.0690447287240043,1
781,967,9,0.0799166033906732,1
732,943,10,0.0728449960021839,1
732,944,10,0.0720032467940084,1
733,943,10,0.0719952264839718,1
733,944,10,0.0711706859021853,1
735,921,10,0.0737424860656248,1
736,920,10,0.0703027014752195,1
736,921,10,0.0698375594317552,1
737,918,10,0.0687110263246342,1
738,917,10,0.0751537791125874,1
738,918,10,0.0791226046766062,1
739,917,10,0.0776272930419791,1
739,918,10,0.0755716917724533,1
743,969,10,0.0776909404015373,1
744,969,10,0.0690641116390739,1
747,971,10,0.0680286770348251,1
748,971,10,0.0719093510657536,1
749,970,10,0.0699578401231996,1
749,971,10,0.0780751665612945,1
750,970,10,0.0702833005908219,1
750,971,10,0.0742019378219085,1
751,970,10,0.0718631878622796,1
752,970,10,0.0742670287174778,1
753,970,10,0.0705966856700695,1
753,971,10,0.0693124178023042,1
754,972,10,0.0728542801549522,1
754,973,10,0.0740532895514252,1
754,974,10,0.0683887104894011,1
755,972,10,0.0712973636743758,1
755,973,10,0.0715574217780779,1
757,973,10,0.0687675159018969,1
757,974,10,0.0703862528603576,1
758,968,10,0.0689669874215663,1
758,969,10,0.0723639331341661,1
758,973,10,0.0751375408299069,1
758,974,10,0.0766565719774129,1
759,968,10,0.0760463036517412,1
759,969,10,0.076845321798079,1
759,970,10,0.069051808639212,1
759,973,10,0.0740998959983217,1
759,974,10,0.0729190176537386,1
760,968,10,0.076891502970881,1
760,969,10,0.0759358761417831,1
760,970,10,0.0692977069124986,1
760,972,10,0.0678567884335413,1
760,973,10,0.0688526965061014,1
761,968,10,0.0789361728992442,1
761,969,10,0.0750692693632926,1
761,970,10,0.069584844793404,1
761,971,10,0.0742660104555613,1
761,972,10,0.0805936457389644,1
761,973,10,0.0722794593235272,1
762,967,10,0.0742368102976612,1
762,968,10,0.0803783132925013,1
762,969,10,0.0734583071340532,1
762,970,10,0.0688554997212598,1
762,971,10,0.0793961038376063,1
762,972,10,0.0876054931325062,1
762,973,10,0.0752182710305587,1
763,967,10,0.0759695326930119,1
763,968,10,0.0737361009644306,1
763,971,10,0.0754682782901672,1
763,972,10,0.0801460297800161,1
763,973,10,0.071951902434312,1
764,967,10,0.0710289678025103,1
764,970,10,0.0695984415848775,1
764,971,10,0.0771738789798827,1
764,972,10,0.0768202905242606,1
764,973,10,0.0720297455629417,1
765,971,10,0.075891491901775,1
765,972,10,0.0743181274963589,1
765,973,10,0.0698233397035799,1
781,967,10,0.0715841361789465,1
736,920,11,0.0760968873098881,1
736,921,11,0.0682558752275037,1
737,918,11,0.0775499171158759,1
737,919,11,0.0731630590964715,1
738,917,11,0.0724157746452687,1
738,918,11,0.0870691925504054,1
738,919,11,0.0738561181057319,1
739,918,11,0.0736787608389788,1
742,969,11,0.0865221463101974,1
743,968,11,0.0758139602414963,1
743,969,11,0.0829026444813031,1
743,970,11,0.0895163694348153,1
744,968,11,0.0682029315976208,1
744,969,11,0.0733234173789948,1
744,970,11,0.079609525545532,1
745,968,11,0.0689242982881604,1
745,969,11,0.0694428811129138,1
745,970,11,0.071830920939078,1
746,968,11,0.0701234933676888,1
746,969,11,0.0682048662952622,1
748,971,11,0.069782118065289,1
749,970,11,0.0687660783556618,1
749,971,11,0.0751940603560495,1
750,970,11,0.0708521975338032,1
750,971,11,0.0751639557419766,1
751,970,11,0.0720069364960117,1
751,971,11,0.0708701309230858,1
752,970,11,0.0735987673807725,1
752,971,11,0.069316299177139,1
753,970,11,0.0682643088320828,1
753,972,11,0.0685644385370878,1
753,973,11,0.0731665391563156,1
754,972,11,0.071534612711148,1
754,973,11,0.0780775504921344,1
755,973,11,0.0715750436990096,1
757,974,11,0.0700726222002949,1
758,973,11,0.0713465217658396,1
758,974,11,0.0759996792355167,1
759,968,11,0.0733371339659878,1
759,969,11,0.0731790338290089,1
759,973,11,0.0682755276824924,1
759,974,11,0.0708055132198189,1
760,968,11,0.0749445382682954,1
760,969,11,0.0745872840697739,1
760,970,11,0.0704459529575453,1
761,968,11,0.0743143898761477,1
761,969,11,0.0720349686475958,1
761,970,11,0.0698632915093632,1
761,971,11,0.0745570836192852,1
761,972,11,0.0833253549517286,1
761,973,11,0.0717775700044286,1
762,967,11,0.0709111848476493,1
762,968,11,0.0752790492874227,1
762,969,11,0.0703303502811409,1
762,970,11,0.0687373573798401,1
762,971,11,0.0790378134078404,1
762,972,11,0.0892710461800228,1
762,973,11,0.0744315738534107,1
763,967,11,0.0765187652014525,1
763,968,11,0.0727265601617412,1
763,971,11,0.0722015562971377,1
763,972,11,0.0774811005796474,1
764,967,11,0.0728028339690642,1
764,971,11,0.0733819794187464,1
764,972,11,0.0742645010320144,1
764,973,11,0.068040123496722,1
765,971,11,0.0739503971796493,1
765,972,11,0.0729573162813516,1
769,968,11,0.0677450851012996,1
770,967,11,0.0751758694063998,1
770,968,11,0.0689732647067928,1
771,967,11,0.0800967878316886,1
772,967,11,0.0689401472354021,1
736,920,12,0.0705032152159094,1
737,918,12,0.077731670878198,1
737,919,12,0.0731526129271633,1
738,918,12,0.0845264128515867,1
738,919,12,0.0758551998491152,1
742,968,12,0.077221120343033,1
742,969,12,0.0827352721711079,1
743,968,12,0.0780556339018254,1
743,969,12,0.0850786701968969,1
743,970,12,0.0878358838757818,1
744,968,12,0.0710147121356791,1
744,969,12,0.0772140524073772,1
744,970,12,0.0792175426258814,1
744,971,12,0.0873310955051092,1
745,968,12,0.0708146655975156,1
745,969,12,0.0725794812125645,1
745,970,12,0.0723028194498472,1
745,971,12,0.0757780455447232,1
746,968,12,0.0731740862740498,1
746,969,12,0.0705056830036129,1
746,970,12,0.0678991780781483,1
747,968,12,0.069173107592573,1
749,970,12,0.0688685634226711,1
749,971,12,0.0725199368495523,1
750,970,12,0.0710311540707428,1
750,971,12,0.0745223369288281,1
751,970,12,0.0721241144834987,1
751,971,12,0.0739549793582736,1
752,970,12,0.0716428539528736,1
752,971,12,0.0702348193440438,1
753,973,12,0.072658815795413,1
754,972,12,0.0691596725250509,1
754,973,12,0.076787155083542,1
755,973,12,0.0691275373769209,1
758,974,12,0.0727803603295891,1
759,969,12,0.0687218019316213,1
759,974,12,0.0686731649506677,1
760,968,12,0.069949256774221,1
760,969,12,0.0738507033482464,1
760,970,12,0.0736654455669764,1
760,971,12,0.0680344691481973,1
761,968,12,0.0686280379784382,1
761,969,12,0.0717037040870494,1
761,970,12,0.0745568080895902,1
761,971,12,0.0758107077931394,1
761,972,12,0.0796499385640657,1
761,973,12,0.0685020250713814,1
762,968,12,0.06795009716375,1
762,970,12,0.0700916876572376,1
762,971,12,0.0752470698734681,1
762,972,12,0.0803772051839451,1
762,973,12,0.0684215584208727,1
763,967,12,0.0726798818375329,1
763,968,12,0.0693153647720861,1
763,971,12,0.0679443409890337,1
763,972,12,0.0703576217311756,1
764,967,12,0.0709859911598573,1
764,971,12,0.0679577580872278,1
764,972,12,0.0682102211549879,1
765,971,12,0.0692447213541839,1
765,972,12,0.0679972307109327,1
769,968,12,0.069802261681908,1
770,967,12,0.078154219624672,1
770,968,12,0.0725792895397332,1
771,967,12,0.0920920869117453,1
771,968,12,0.0713359378316838,1
772,967,12,0.0789379398831582,1
775,922,12,0.0736057035413568,1
776,922,12,0.0901554306136204,1
776,923,12,0.0776984875192715,1
777,922,12,0.0683514301237047,1
737,918,13,0.0678808134249951,1
738,918,13,0.0711849834974484,1
744,971,13,0.0812449679891996,1
745,971,13,0.0723907134225705,1
746,968,13,0.0717308856904443,1
747,968,13,0.0681261247002357,1
775,922,13,0.0861088637471636,1
775,923,13,0.0798124292068377,1
776,922,13,0.111914376008618,1
776,923,13,0.102553578066955,1
777,922,13,0.076851173809211,1
777,923,13,0.0704733801417555,1
738,962,14,0.070002434005367,1
769,914,14,0.0697713424583018,1
775,922,14,0.0853634301367384,1
775,923,14,0.0871937559316752,1
776,922,14,0.112045192716011,1
776,923,14,0.112091553582092,1
776,924,14,0.0687827718613166,1
777,922,14,0.0722680787491661,1
777,923,14,0.0707820452775312,1
737,962,15,0.0714268865901566,1
738,962,15,0.0756532365826383,1
775,922,15,0.0720257324130354,1
775,923,15,0.0794880768477716,1
776,922,15,0.0888439332242523,1
776,923,15,0.0969373844152929,1
737,962,16,0.0709993723193956,1
738,962,16,0.076719063310207,1
738,963,16,0.0697939478728485,1
749,969,16,0.0730004187093001,1
776,923,16,0.0682479687232107,1
737,962,17,0.0694517459813635,1
738,962,17,0.0748585131056778,1
738,963,17,0.0730462225262153,1
749,969,17,0.0732730134141273,1
750,969,17,0.0784194828437003,1
737,962,18,0.0694991310991373,1
738,962,18,0.0741261671557678,1
738,963,18,0.0758399438896954,1
739,963,18,0.0694184248575895,1
750,968,18,0.0719062244026924,1
750,969,18,0.0786122338347207,1
751,968,18,0.0699157020491838,1
737,962,19,0.0720624796886696,1
738,962,19,0.0728433967319974,1
738,963,19,0.0747681633248029,1
739,963,19,0.0719231694789384,1
739,964,19,0.0680133611776455,1
750,968,19,0.0756566387753946,1
751,968,19,0.0735056323540672,1
738,962,20,0.0719672302710436,1
739,962,20,0.0687715110824752,1
739,963,20,0.0775320256550251,1
741,965,20,0.0688237000005846,1
742,965,20,0.0706974935998046,1
746,966,20,0.0735689742350505,1
747,966,20,0.069723933381424,1
747,967,20,0.0713266776380195,1
748,967,20,0.0700402115224698,1
748,968,20,0.0716135819176618,1
749,967,20,0.0710484106153397,1
749,968,20,0.0793062751672417,1
750,967,20,0.0690659265411957,1
751,968,20,0.0770225772386404,1
738,962,21,0.0710921120208862,1
739,962,21,0.0698629620716843,1
742,965,21,0.0790682235004883,1
743,964,21,0.0707475261985614,1
746,965,21,0.0682828651580673,1
747,966,21,0.0748326492529983,1
747,967,21,0.0763747709869052,1
748,966,21,0.0685838753601413,1
748,967,21,0.0766519478703567,1
748,968,21,0.080691955932116,1
749,967,21,0.0789424501844707,1
749,968,21,0.0916355521763635,1
750,967,21,0.0741547982849498,1
750,968,21,0.0915513898340755,1
760,909,21,0.0753167309681098,1
738,962,22,0.0701378388811597,1
739,962,22,0.0716276219525577,1
742,965,22,0.0874749100263771,1
747,967,22,0.0834843775142085,1
748,967,22,0.0836441248395818,1
749,967,22,0.0853905159037178,1
749,968,22,0.100832368021036,1
750,968,22,0.09748295717061,1
760,909,22,0.0717085917442486,1
761,909,22,0.0747090861643171,1
761,909,23,0.0724501020514072,1
731,925,24,0.069151454552407,1
741,934,25,0.0679476413555984,1
747,921,34,0.07531489809666,1
747,921,35,0.0748944098331229,1
738,953,36,0.0678053542272053,1
741,934,36,0.073809643433907,1
741,935,36,0.0727123763722217,1
742,934,36,0.0755775737324652,1
742,935,36,0.0771467033662637,1
745,923,36,0.0713801902966204,1
746,922,36,0.0685444746137481,1
747,958,36,0.0693364188346541,1
741,934,37,0.0789098418440383,1
741,935,37,0.0764568788360322,1
742,933,37,0.0677743870853913,1
742,934,37,0.0821044109956186,1
742,935,37,0.0827453948925132,1
743,934,37,0.069219270796047,1
743,935,37,0.0719876134787018,1
741,934,38,0.0751561630434272,1
741,935,38,0.0726382049762676,1
742,933,38,0.0689184822156843,1
742,934,38,0.0783814417764545,1
742,935,38,0.0771813542203051,1
743,935,38,0.069750533976549,1
772,912,38,0.0754627557167141,1
773,912,38,0.0851072354385431,1
773,913,38,0.0738313024638488,1
742,934,39,0.0697215015323764,1
742,935,39,0.0679742299711714,1
755,953,39,0.0700317060405789,1
756,953,39,0.0723604351049941,1
756,954,39,0.0707276281627574,1
771,912,39,0.0722679709331985,1
772,911,39,0.0918350835937927,1
772,912,39,0.107904700172419,1
772,913,39,0.0748985248092208,1
773,911,39,0.0824088533393289,1
773,912,39,0.103170596870155,1
773,913,39,0.0779653140698304,1
774,912,39,0.0706838968083311,1
758,926,40,0.073993721229309,1
758,927,40,0.0829068852426966,1
759,926,40,0.0782274985440053,1
759,927,40,0.0882970846466516,1
771,911,40,0.0775560865851348,1
771,912,40,0.0835757755058797,1
772,911,40,0.10931845501731,1
772,912,40,0.122931394926823,1
772,913,40,0.0715060414797258,1
773,911,40,0.0844531399220294,1
773,912,40,0.0994456570146937,1
758,926,41,0.0769863989917242,1
758,927,41,0.0854732526793226,1
759,926,41,0.0831619598527838,1
759,927,41,0.092735089363145,1
770,911,41,0.0744589111909812,1
771,911,41,0.0950716530545414,1
771,912,41,0.0938864920201329,1
772,911,41,0.113631393211351,1
772,912,41,0.120366261384048,1
773,911,41,0.078352067915051,1
773,912,41,0.0876568315024265,1
758,927,42,0.069693553237656,1
759,926,42,0.0695668155677057,1
759,927,42,0.0761091064528863,1
769,911,42,0.0756739312586474,1
770,910,42,0.0698888798323476,1
770,911,42,0.099244520337302,1
770,912,42,0.07934537043506,1
771,911,42,0.105242939563544,1
771,912,42,0.0933510240168933,1
772,911,42,0.0945600902472359,1
772,912,42,0.0948823401949332,1
773,912,42,0.0713505588748498,1
769,911,43,0.0805199954535204,1
770,910,43,0.072534899309949,1
770,911,43,0.108780105931824,1
770,912,43,0.083205727145866,1
771,911,43,0.100419061498899,1
771,912,43,0.0824737226131869,1
734,952,44,0.0980232169946333,1
734,953,44,0.0986795766464672,1
735,951,44,0.0892633612974411,1
735,954,44,0.0969754734007466,1
736,951,44,0.0878546797928055,1
736,955,44,0.0963571009081746,1
736,956,44,0.0905996144309325,1
737,952,44,0.0915496168603856,1
737,957,44,0.0909226849779389,1
738,957,44,0.0944988687469494,1
739,952,44,0.0819498627957955,1
739,953,44,0.0869519846140385,1
739,954,44,0.0920968967018568,1
739,956,44,0.0935534305267927,1
740,953,44,0.077264390484709,1
740,954,44,0.0776643997041721,1
769,911,44,0.0735112148252802,1
770,911,44,0.0979058413445389,1
770,912,44,0.076249458883638,1
771,911,44,0.0839952395177243,1
771,912,44,0.0684696623117641,1
734,952,45,0.0990258455958423,1
734,953,45,0.0981187659010583,1
735,951,45,0.0900352397688157,1
735,952,45,0.104574420666471,1
735,953,45,0.110603729167439,1
735,954,45,0.0971289973488772,1
736,952,45,0.100344770307425,1
736,953,45,0.108030485467989,1
736,954,45,0.0996061051438567,1
737,953,45,0.0953900635558358,1
737,954,45,0.0976485085889075,1
737,955,45,0.102117091111776,1
737,956,45,0.0961629303402471,1
738,953,45,0.0879358831857596,1
738,954,45,0.0940454127564211,1
738,955,45,0.102098367072064,1
738,956,45,0.0992831903310257,1
739,953,45,0.0848614569607762,1
739,954,45,0.0885242708597782,1
739,955,45,0.0884525253230957,1
740,954,45,0.0755805626306789,1
770,911,45,0.069990454453408,1
735,952,46,0.0991863296636611,1
735,953,46,0.104607376413911,1
736,953,46,0.102619465602729,1
738,954,46,0.0849394258747014,1
738,955,46,0.0865078427251583,1
739,954,46,0.0822526759204393,1
756,931,46,0.0703750160406201,1
756,932,46,0.0693559455043473,1
779,913,46,0.0680878140930708,1
779,914,46,0.0738174301426803,1
784,914,46,0.0729053729440573,1
755,931,47,0.0703611676785555,1
756,931,47,0.0863015608302002,1
756,932,47,0.0746954654137397,1
757,931,47,0.0686636651659642,1
757,932,47,0.0692352275592564,1
779,914,47,0.0730406400550024,1
784,914,47,0.0761469438677488,1
785,914,47,0.0686810474958568,1
755,931,48,0.0724448250587693,1
756,930,48,0.0730672646092313,1
756,931,48,0.0906357986676247,1
756,932,48,0.0717642128039943,1
757,931,48,0.0731500253439401,1
784,914,48,0.0699313832826982,1
785,913,48,0.0681508265363751,1
785,914,48,0.0698607877830037,1
756,930,49,0.0688292884615735,1
756,931,49,0.0783318284620162,1
783,914,49,0.0679828133201501,1
786,922,56,0.0689833035713344,1
