x,y,z,signal,cytoplasm.p
697,275,29,0.245692057279126,2
696,275,30,0.277939956952199,2
697,274,30,0.271114535346243,2
697,275,30,0.351086574113607,2
697,276,30,0.260634871210712,2
698,275,30,0.263073237134656,2
696,275,31,0.296742606484081,2
697,274,31,0.279091143977251,2
697,275,31,0.390107616627886,2
697,276,31,0.302863271048288,2
698,275,31,0.284527752165496,2
693,271,32,0.081189628448925,1
696,274,32,0.188288739690757,1
696,275,32,0.271991079163084,2
696,276,32,0.232103244187258,1
697,274,32,0.252046778329508,2
697,275,32,0.371873995814057,2
697,276,32,0.310583589144686,2
697,277,32,0.168648755415596,1
698,274,32,0.192217517612577,1
698,275,32,0.274794509953426,2
698,276,32,0.234371189005033,1
699,275,32,0.141058817012536,1
682,278,33,0.0706316539822379,1
682,279,33,0.0687690013663398,1
683,277,33,0.0680730792441612,1
684,276,33,0.0694437616099828,1
690,271,33,0.0680610637535463,1
691,270,33,0.0754395513245695,1
691,271,33,0.0701425887735114,1
692,270,33,0.0778452190614414,1
692,271,33,0.0758158350413779,1
692,272,33,0.0689213992365863,1
693,270,33,0.0820050466018947,1
693,271,33,0.0849717107672309,1
693,272,33,0.07681114413634,1
694,271,33,0.094607397497922,1
694,272,33,0.0878355604278789,1
694,273,33,0.078862289012537,1
694,274,33,0.0791414005936299,1
694,275,33,0.0831533046264934,1
694,276,33,0.0768615421114315,1
695,271,33,0.0935679916721988,1
695,272,33,0.0919826237557199,1
695,273,33,0.0904350752847755,1
695,274,33,0.103079576234371,1
695,275,33,0.123456243057251,1
695,276,33,0.115741866818625,1
695,277,33,0.0849947833843039,1
696,272,33,0.0911603712683576,1
696,273,33,0.103293087788936,1
696,274,33,0.154495633549147,1
696,275,33,0.219614465433578,1
696,276,33,0.194884920590425,1
696,277,33,0.124442004449301,1
696,278,33,0.0716153129629198,1
697,272,33,0.0919430612853753,1
697,273,33,0.11843896710578,1
697,274,33,0.212100555017434,1
697,275,33,0.31408317565847,2
697,276,33,0.272329213996678,1
697,277,33,0.158626171085061,1
697,278,33,0.0830073697245288,1
698,273,33,0.109412434602428,1
698,274,33,0.17131148636818,1
698,275,33,0.246711708823668,1
698,276,33,0.216634983147645,1
698,277,33,0.136896917009593,1
698,278,33,0.080237248078408,1
699,274,33,0.116080540732058,1
699,275,33,0.138912764135943,1
699,276,33,0.129973526627717,1
699,277,33,0.0998304282440651,1
699,278,33,0.0704951769365449,1
700,274,33,0.0975656280586791,1
700,275,33,0.0969739460078718,1
700,276,33,0.0946044385485881,1
700,277,33,0.0824709074184765,1
701,275,33,0.0908173667468913,1
701,276,33,0.0864325153024401,1
701,277,33,0.0762579943144088,1
702,276,33,0.0795104845997109,1
682,278,34,0.0682970729066907,1
682,279,34,0.0679838136127387,1
684,275,34,0.0680250711896855,1
684,276,34,0.069094485793066,1
685,275,34,0.0690440279202146,1
689,270,34,0.0706430645054788,1
689,271,34,0.0680267123883039,1
690,270,34,0.0743981329341172,1
690,271,34,0.0695836348586561,1
691,269,34,0.0811073049678627,1
691,270,34,0.0781522669577027,1
691,271,34,0.0720397844274833,1
692,269,34,0.0810937081763892,1
692,270,34,0.0830738861867811,1
692,271,34,0.0791278577101403,1
692,272,34,0.0694142799326117,1
693,269,34,0.0801522411777069,1
693,270,34,0.0872882566273038,1
693,271,34,0.0877086071259934,1
693,272,34,0.0755658577306493,1
694,270,34,0.0896988719191348,1
694,271,34,0.0953617858234365,1
694,272,34,0.08432438968735,1
694,273,34,0.0731793393075838,1
694,274,34,0.0715300005836438,1
694,275,34,0.0735699565583111,1
695,270,34,0.0872983793487091,1
695,271,34,0.0939358897026359,1
695,272,34,0.0889050109699153,1
695,273,34,0.0860585556187118,1
695,274,34,0.0943854403592256,1
695,275,34,0.106929624540716,1
695,276,34,0.0983467607339421,1
695,277,34,0.0729005272152899,1
696,271,34,0.0902530040643266,1
696,272,34,0.0904288399279809,1
696,273,34,0.098079982101591,1
696,274,34,0.127893972244049,1
696,275,34,0.167602006124522,1
696,276,34,0.150328594318415,1
696,277,34,0.102102859404049,1
697,271,34,0.0895678455695831,1
697,272,34,0.0927446370660563,1
697,273,34,0.112234457657411,1
697,274,34,0.174344912576584,1
697,275,34,0.244165982155068,1
697,276,34,0.214361935040736,1
697,277,34,0.132226365230472,1
697,278,34,0.072351989520863,1
698,272,34,0.0951654529463804,1
698,273,34,0.108433214045747,1
698,274,34,0.15464216742871,1
698,275,34,0.210945270985611,1
698,276,34,0.185177182844477,1
698,277,34,0.11978417495436,1
698,278,34,0.0708305564731892,1
699,273,34,0.103025632311899,1
699,274,34,0.115385103781734,1
699,275,34,0.135000158609268,1
699,276,34,0.123972837276379,1
699,277,34,0.0938125602152179,1
700,273,34,0.100410885454687,1
700,274,34,0.100231485674325,1
700,275,34,0.0996896924676507,1
700,276,34,0.0952800852790761,1
700,277,34,0.0805900039551689,1
701,274,34,0.0973430360037288,1
701,275,34,0.0936714530726928,1
701,276,34,0.0889759538766166,1
701,277,34,0.07671467879419,1
702,275,34,0.0854902037453446,1
702,276,34,0.0825728534056477,1
685,275,35,0.0681585114189568,1
689,270,35,0.0715208062775152,1
689,271,35,0.0700911306080715,1
689,272,35,0.0689627646295007,1
690,270,35,0.076165302531126,1
690,271,35,0.0721191250001078,1
690,272,35,0.068713110766675,1
691,269,35,0.0831299085615174,1
691,270,35,0.0807794545796246,1
691,271,35,0.0746000542721622,1
691,272,35,0.0679440714491146,1
692,269,35,0.0856321554462829,1
692,270,35,0.0877143513211577,1
692,271,35,0.0819023399131741,1
692,272,35,0.0711143580488741,1
693,269,35,0.0856671297482272,1
693,270,35,0.091112896303944,1
693,271,35,0.0880875443135607,1
693,272,35,0.0745748792437203,1
694,269,35,0.0818119781527473,1
694,270,35,0.091031656972334,1
694,271,35,0.0930845628426691,1
694,272,35,0.0807003236491594,1
695,270,35,0.088792870384027,1
695,271,35,0.0931122535770223,1
695,272,35,0.085990391968065,1
695,273,35,0.0797525613959226,1
695,274,35,0.0826174293184871,1
695,275,35,0.087325584911208,1
695,276,35,0.0781981726008096,1
696,271,35,0.0922371652757449,1
696,272,35,0.0900254704441932,1
696,273,35,0.0917626552226486,1
696,274,35,0.105486747405013,1
696,275,35,0.122427079748452,1
696,276,35,0.108771456695309,1
696,277,35,0.0767893233824466,1
697,271,35,0.0920326922931325,1
697,272,35,0.0929142435626919,1
697,273,35,0.103802110931226,1
697,274,35,0.137847698109924,1
697,275,35,0.173363859148453,1
697,276,35,0.151219741209093,1
697,277,35,0.0974488453964067,1
698,272,35,0.0956730085935556,1
698,273,35,0.105464106051811,1
698,274,35,0.134988694178043,1
698,275,35,0.166226022806959,1
698,276,35,0.143632156548402,1
698,277,35,0.0941312282768795,1
699,272,35,0.0963814373679793,1
699,273,35,0.101638723642949,1
699,274,35,0.111208708520921,1
699,275,35,0.122151094830421,1
699,276,35,0.108403492777336,1
699,277,35,0.0803664774951658,1
700,273,35,0.0996284230491563,1
700,274,35,0.100650051219772,1
700,275,35,0.0984563137366072,1
700,276,35,0.0897187100571789,1
700,277,35,0.0720733930605043,1
701,274,35,0.0969451771138423,1
701,275,35,0.0923737381578535,1
701,276,35,0.0849961011350194,1
701,277,35,0.0698999968565656,1
702,275,35,0.0861711214786946,1
702,276,35,0.0816427550017744,1
703,275,35,0.08048446410241,1
689,270,36,0.0719897578185025,1
689,271,36,0.0713044495793596,1
689,272,36,0.0705096662046393,1
690,270,36,0.0767052448970223,1
690,271,36,0.0735606783953189,1
690,272,36,0.0706255084720829,1
691,269,36,0.0842065827733851,1
691,270,36,0.0812706581383757,1
691,271,36,0.0758490303798563,1
691,272,36,0.0694663610347534,1
692,269,36,0.089104692131744,1
692,270,36,0.0888960263059461,1
692,271,36,0.0823361733975936,1
692,272,36,0.0711542140182417,1
693,269,36,0.0897449213168652,1
693,270,36,0.0918670689975233,1
693,271,36,0.0866980241022835,1
693,272,36,0.0731244310311797,1
694,269,36,0.0858197552299609,1
694,270,36,0.0910299858248358,1
694,271,36,0.0903678220800777,1
694,272,36,0.0782215626760096,1
695,270,36,0.0896855266982524,1
695,271,36,0.0923106538372374,1
695,272,36,0.0843252402355391,1
695,273,36,0.0742553486543178,1
695,274,36,0.0689782302310798,1
696,270,36,0.0892066441086911,1
696,271,36,0.0934850692135386,1
696,272,36,0.0898437047023192,1
696,273,36,0.0844850175097923,1
696,274,36,0.081416383398181,1
696,275,36,0.0809874375709609,1
696,276,36,0.071009752601168,1
697,271,36,0.0931183032507616,1
697,272,36,0.0931708874940857,1
697,273,36,0.0937345373933089,1
697,274,36,0.09882079160496,1
697,275,36,0.104716510132257,1
697,276,36,0.0905913365605288,1
698,271,36,0.0914581889198345,1
698,272,36,0.0958753731750231,1
698,273,36,0.0990129376286065,1
698,274,36,0.105627626936051,1
698,275,36,0.111110452235753,1
698,276,36,0.0948264376157165,1
699,272,36,0.0954997183846926,1
699,273,36,0.0990490859266428,1
699,274,36,0.100141070005914,1
699,275,36,0.0983376263255734,1
699,276,36,0.0842160825580886,1
700,272,36,0.0922005437854062,1
700,273,36,0.0978497950106987,1
700,274,36,0.0975947563392674,1
700,275,36,0.0910931959307475,1
700,276,36,0.0782779803759605,1
701,273,36,0.094023232615969,1
701,274,36,0.0950193683000163,1
701,275,36,0.0886618679935793,1
701,276,36,0.0774818612811968,1
702,274,36,0.0898179965838151,1
702,275,36,0.0855668728778823,1
702,276,36,0.07826993610682,1
703,275,36,0.080668290327221,1
671,296,37,0.0718604026164491,1
672,296,37,0.068825622718674,1
673,297,37,0.0717787499902966,1
689,270,37,0.0717186186292383,1
689,271,37,0.0712104280658093,1
689,272,37,0.0706422319266177,1
690,269,37,0.0792216096837715,1
690,270,37,0.0767246817200758,1
690,271,37,0.0745525253997648,1
690,272,37,0.0719243734239102,1
691,269,37,0.083861481830326,1
691,270,37,0.081426338405859,1
691,271,37,0.0770778209424994,1
691,272,37,0.0712562618316045,1
692,269,37,0.0888836753878763,1
692,270,37,0.0876380595445068,1
692,271,37,0.082030359395184,1
692,272,37,0.0721887261969896,1
693,269,37,0.0899266630996353,1
693,270,37,0.0903209401034861,1
693,271,37,0.0853998899031257,1
693,272,37,0.0735959162474063,1
694,269,37,0.0886454200687396,1
694,270,37,0.0912863182878786,1
694,271,37,0.0889038070249434,1
694,272,37,0.0774916785240272,1
695,269,37,0.0863656813820608,1
695,270,37,0.0920312607366734,1
695,271,37,0.0921812507169762,1
695,272,37,0.0835209870249952,1
695,273,37,0.0708524970226022,1
696,270,37,0.0919455350628548,1
696,271,37,0.0942782233691924,1
696,272,37,0.0903026473276447,1
696,273,37,0.0810258260452135,1
696,274,37,0.0703240610163624,1
697,271,37,0.0935915674304541,1
697,272,37,0.0947952189033113,1
697,273,37,0.0900080881143006,1
697,274,37,0.0808580164813718,1
697,275,37,0.0723174105441333,1
698,271,37,0.0910703449353857,1
698,272,37,0.0969765874990788,1
698,273,37,0.0961208162253352,1
698,274,37,0.089457699579096,1
698,275,37,0.0804465308511318,1
699,272,37,0.0955344710649256,1
699,273,37,0.0980421446867285,1
699,274,37,0.0930619514383465,1
699,275,37,0.0823477815834418,1
700,272,37,0.0917125387670281,1
700,273,37,0.0962313934796928,1
700,274,37,0.0933111680475257,1
700,275,37,0.0822880215884943,1
701,273,37,0.0917877643635547,1
701,274,37,0.0907377746036757,1
701,275,37,0.0820111382040658,1
702,273,37,0.0881706524552763,1
702,274,37,0.0876819526228846,1
702,275,37,0.081602821165319,1
702,276,37,0.0702143522795219,1
703,274,37,0.0833773402174547,1
703,275,37,0.0788159401260076,1
671,296,38,0.0678925114574831,1
671,297,38,0.0722830531891149,1
672,297,38,0.0736221334968686,1
673,297,38,0.0701901056663568,1
673,298,38,0.0773353573505141,1
675,298,38,0.0734221588360169,1
689,271,38,0.0693067035560198,1
689,272,38,0.0679567278457593,1
690,270,38,0.0758574160662276,1
690,271,38,0.0732322230397068,1
690,272,38,0.0703289606531137,1
691,269,38,0.0831977008460535,1
691,270,38,0.0809410767048795,1
691,271,38,0.0761662249566268,1
691,272,38,0.070823045294111,1
692,269,38,0.0865542095810156,1
692,270,38,0.0846203325389453,1
692,271,38,0.0794244534473173,1
692,272,38,0.0717325268890627,1
693,269,38,0.0878525713916607,1
693,270,38,0.0874995879034126,1
693,271,38,0.0826427241424486,1
693,272,38,0.0732387998137323,1
694,269,38,0.0910920339142074,1
694,270,38,0.0931906297957141,1
694,271,38,0.0878549852713805,1
694,272,38,0.0764818621916427,1
695,269,38,0.0909902376714358,1
695,270,38,0.0967356188114234,1
695,271,38,0.0928232648553392,1
695,272,38,0.0827773922757957,1
695,273,38,0.0689835850908055,1
696,270,38,0.0941840221623628,1
696,271,38,0.0941722223036832,1
696,272,38,0.0904308824415899,1
696,273,38,0.0790660492118078,1
697,271,38,0.0924596135760716,1
697,272,38,0.0955305417718831,1
697,273,38,0.0878975845581467,1
697,274,38,0.0694713445283684,1
698,271,38,0.0894892058007482,1
698,272,38,0.0958257538708089,1
698,273,38,0.0927376230383843,1
698,274,38,0.0774417178025822,1
699,271,38,0.084666310059364,1
699,272,38,0.0931308518314387,1
699,273,38,0.0950329950403696,1
699,274,38,0.0848715257741977,1
699,275,38,0.0689123906135131,1
700,272,38,0.0894602691929913,1
700,273,38,0.0935971319323391,1
700,274,38,0.087643827698775,1
700,275,38,0.0733224350557341,1
701,272,38,0.0847128266596208,1
701,273,38,0.0887076179025108,1
701,274,38,0.0854239268741314,1
701,275,38,0.0747676482040687,1
702,273,38,0.0872562951826771,1
702,274,38,0.0848524303683751,1
702,275,38,0.0771047988935111,1
703,274,38,0.0828449868977244,1
703,275,38,0.0771143046679905,1
704,274,38,0.0801208966800061,1
671,297,39,0.072663505790005,1
672,297,39,0.0735869974709728,1
672,298,39,0.077222306318677,1
673,297,39,0.0685698353252453,1
673,298,39,0.077291248640201,1
674,298,39,0.0755251452233166,1
675,298,39,0.0708717122239444,1
675,299,39,0.0777408831536544,1
690,271,39,0.071778330705978,1
690,272,39,0.0687935774171837,1
691,270,39,0.0819304559216219,1
691,271,39,0.0755276729087799,1
691,272,39,0.0703592389706901,1
692,269,39,0.0844777698808571,1
692,270,39,0.0825019344580503,1
692,271,39,0.0772701766083052,1
692,272,39,0.0715792664910752,1
693,269,39,0.0860910022351927,1
693,270,39,0.0867168379886351,1
693,271,39,0.0814122624323071,1
693,272,39,0.0736896382721576,1
694,269,39,0.0939924451674344,1
694,270,39,0.0983660298432682,1
694,271,39,0.0894490144039258,1
694,272,39,0.0769907894975172,1
695,269,39,0.0965522358300349,1
695,270,39,0.104058401465837,1
695,271,39,0.0952684112056921,1
695,272,39,0.0830810439690767,1
695,273,39,0.0683203431863711,1
696,270,39,0.09641106878975,1
696,271,39,0.0942997326547348,1
696,272,39,0.0906423874212021,1
696,273,39,0.0783341764542002,1
697,271,39,0.0931844782957832,1
697,272,39,0.0963231867965787,1
697,273,39,0.0873246445163793,1
698,271,39,0.0911929017417023,1
698,272,39,0.0961568866562837,1
698,273,39,0.092026420997682,1
698,274,39,0.0724734621777273,1
699,271,39,0.0873816072859443,1
699,272,39,0.0942654351974762,1
699,273,39,0.0957353741410541,1
699,274,39,0.0806913928931739,1
700,272,39,0.0912087806378239,1
700,273,39,0.095489643581495,1
700,274,39,0.0848405526426077,1
701,272,39,0.0857123345875445,1
701,273,39,0.0890468548548859,1
701,274,39,0.0825091341687777,1
701,275,39,0.0686199398013139,1
702,273,39,0.0871907191152535,1
702,274,39,0.0832142266379809,1
702,275,39,0.072906331308214,1
703,273,39,0.0854482813032641,1
703,274,39,0.0820110603369781,1
703,275,39,0.0753556645119765,1
704,274,39,0.0802661247884052,1
670,297,40,0.0685171792046095,1
671,297,40,0.0718717053237225,1
671,298,40,0.07353637787417,1
672,297,40,0.0711056908430317,1
672,298,40,0.0769205593741575,1
673,298,40,0.0752623617715438,1
674,298,40,0.0716332164033226,1
674,299,40,0.0790602391291077,1
675,299,40,0.0766021488728631,1
676,299,40,0.0727230501530172,1
677,299,40,0.0682085380279377,1
690,271,40,0.0693480569693823,1
691,271,40,0.0751267831922477,1
691,272,40,0.0682589360030292,1
692,270,40,0.0815710214446439,1
692,271,40,0.0759153671488293,1
692,272,40,0.0708273279839363,1
693,270,40,0.0862508993049656,1
693,271,40,0.0807845339096552,1
693,272,40,0.0745868468161274,1
694,270,40,0.102766993785104,1
694,271,40,0.0918434273517322,1
694,272,40,0.0788618936873224,1
695,270,40,0.108914708177635,1
695,271,40,0.0973072950104591,1
695,272,40,0.083470786712511,1
695,273,40,0.0696729783571664,1
696,271,40,0.0943115025645346,1
696,272,40,0.0904178786379384,1
696,273,40,0.0783457786502725,1
697,271,40,0.0940776677000707,1
697,272,40,0.0966039515558419,1
697,273,40,0.0871357389615377,1
698,271,40,0.0927812885052749,1
698,272,40,0.0972342077639572,1
698,273,40,0.0930437724682487,1
698,274,40,0.0723980209492655,1
699,271,40,0.0896061082585402,1
699,272,40,0.0960443687145088,1
699,273,40,0.0978095017876846,1
699,274,40,0.0805343229976634,1
700,272,40,0.0936608990874169,1
700,273,40,0.098665614478659,1
700,274,40,0.0853678865300672,1
701,272,40,0.0867872837439301,1
701,273,40,0.0906969602701514,1
701,274,40,0.0824960824469184,1
702,273,40,0.0860690497062278,1
702,274,40,0.0823250503835996,1
702,275,40,0.0699183914585986,1
703,273,40,0.0826236946241617,1
703,274,40,0.0808274506545483,1
703,275,40,0.0742089219007006,1
704,274,40,0.0810111630736157,1
704,275,40,0.083971070771647,1
663,259,41,0.0709430025376525,1
664,259,41,0.0753785873846501,1
664,260,41,0.0686963094450525,1
665,259,41,0.0814939509971156,1
665,260,41,0.0744105437499467,1
666,258,41,0.0887063420802272,1
666,259,41,0.0883993660612776,1
667,258,41,0.0926630563172155,1
667,259,41,0.0899511612833914,1
668,258,41,0.0893519920126098,1
668,259,41,0.0847873334830298,1
669,258,41,0.0823062185279201,1
670,258,41,0.0765032936100974,1
670,297,41,0.0691054351035565,1
671,297,41,0.0719667990071731,1
671,298,41,0.0746595986351744,1
672,297,41,0.0693328189792904,1
672,298,41,0.0770328317351174,1
673,298,41,0.0732489345146897,1
673,299,41,0.0786991814228392,1
674,258,41,0.0838172113960615,1
674,299,41,0.0768474900969836,1
675,299,41,0.0739909599425825,1
676,299,41,0.0713110083840572,1
677,299,41,0.068333796223221,1
691,271,41,0.0755756689837037,1
692,271,41,0.0762010555039477,1
692,272,41,0.070458333824495,1
693,271,41,0.080466357009624,1
693,272,41,0.0762096268733743,1
693,273,41,0.0699299397466871,1
694,271,41,0.092049787113778,1
694,272,41,0.0818661616662579,1
694,273,41,0.0721275885535669,1
695,271,41,0.0967159903155385,1
695,272,41,0.084919935143664,1
695,273,41,0.0729302305143723,1
696,270,41,0.0963916439462484,1
696,271,41,0.0953333403773099,1
696,272,41,0.0902328364886036,1
696,273,41,0.0794757798376857,1
697,270,41,0.09286803244101,1
697,271,41,0.0965099599911716,1
697,272,41,0.0956875517696338,1
697,273,41,0.0872019020270073,1
698,271,41,0.0946254566725002,1
698,272,41,0.0961424093677413,1
698,273,41,0.0920582027490292,1
698,274,41,0.0734643987362244,1
699,271,41,0.0911601855853022,1
699,272,41,0.0949061255953478,1
699,273,41,0.0949486410252503,1
699,274,41,0.0797544182264762,1
700,272,41,0.0927078298926623,1
700,273,41,0.0957066531652324,1
700,274,41,0.0833943451914606,1
701,272,41,0.085900976592243,1
701,273,41,0.0893733515537527,1
701,274,41,0.0808096310710093,1
702,273,41,0.0832182158287833,1
702,274,41,0.0792752541174439,1
703,273,41,0.0786714068316222,1
703,274,41,0.0778660275431942,1
703,275,41,0.0732485930974588,1
704,274,41,0.0804725564277628,1
704,275,41,0.0860592743918293,1
663,258,42,0.0699515328890932,1
663,259,42,0.0695733444235234,1
664,258,42,0.0750341153680689,1
664,259,42,0.0767990867172932,1
664,260,42,0.0692365453099719,1
665,258,42,0.082570409577048,1
665,259,42,0.0848348863145311,1
665,260,42,0.0752255845470297,1
666,257,42,0.0865519454456954,1
666,258,42,0.0897258858088023,1
666,259,42,0.0893793712786121,1
666,260,42,0.076512769435697,1
667,257,42,0.0922220590607245,1
667,258,42,0.0943653027323825,1
667,259,42,0.0915527435234469,1
667,260,42,0.0765922178242891,1
668,257,42,0.0913894143120378,1
668,258,42,0.0905214119157441,1
668,259,42,0.0856235062097685,1
668,260,42,0.0734263756383065,1
669,257,42,0.0869971115862681,1
669,258,42,0.083809754124967,1
669,259,42,0.078893567622702,1
669,260,42,0.071022325140949,1
670,257,42,0.0815005038120372,1
670,258,42,0.0784053829110445,1
670,259,42,0.0755887087260111,1
670,260,42,0.0725711793830569,1
671,257,42,0.0783835262184953,1
671,258,42,0.075816661630463,1
671,259,42,0.0754284941981113,1
671,260,42,0.0756398194844442,1
671,261,42,0.0707402546105222,1
671,297,42,0.0689658733232341,1
671,298,42,0.0730954824438708,1
672,257,42,0.0767687185530771,1
672,258,42,0.0762075005029016,1
672,259,42,0.0777925868999095,1
672,260,42,0.0776052027481667,1
672,261,42,0.072823642450817,1
672,298,42,0.0744075967801648,1
672,299,42,0.0760051119623302,1
673,257,42,0.0760422485734031,1
673,258,42,0.0790885468103868,1
673,259,42,0.0831631038999958,1
673,260,42,0.083418460029554,1
673,261,42,0.080668565856916,1
673,262,42,0.068774206481666,1
673,298,42,0.068719555765629,1
673,299,42,0.07551538188847,1
674,257,42,0.0775317261662262,1
674,258,42,0.082855061700922,1
674,259,42,0.0878189088506559,1
674,260,42,0.0871991407402807,1
674,261,42,0.0862112769368611,1
674,262,42,0.074250023743472,1
674,299,42,0.0723203155854834,1
675,258,42,0.0869198734250124,1
675,259,42,0.0890219313970352,1
675,260,42,0.0834379567503673,1
675,261,42,0.0793911143542154,1
675,262,42,0.0687393459854653,1
675,299,42,0.0681694247907915,1
675,300,42,0.0736893986811184,1
676,258,42,0.0845037475392802,1
676,259,42,0.0863072630969327,1
676,260,42,0.0804441109816361,1
676,261,42,0.0744989348740762,1
677,259,42,0.0797575388997615,1
677,260,42,0.0788678954428538,1
677,261,42,0.0745075302026068,1
678,259,42,0.0749605968576964,1
678,260,42,0.0762593360242282,1
678,261,42,0.0724475144681841,1
679,259,42,0.0706787036725569,1
679,260,42,0.0722383455012039,1
679,261,42,0.0709534906353926,1
680,260,42,0.0701019661128184,1
680,261,42,0.0721499843259542,1
680,262,42,0.0707696045128218,1
681,261,42,0.071935855824463,1
681,262,42,0.0726182470427039,1
681,263,42,0.0705199027317883,1
682,262,42,0.0696907979407054,1
682,263,42,0.0701427744565668,1
683,263,42,0.0690097124936281,1
683,264,42,0.0713341708477699,1
684,263,42,0.0699176307570492,1
684,264,42,0.0772671877100914,1
684,265,42,0.0761843919471727,1
685,264,42,0.076555129131424,1
685,265,42,0.0775772724227743,1
685,266,42,0.0685333815486341,1
686,265,42,0.076501957890054,1
686,266,42,0.0721186817566853,1
687,266,42,0.0760481365231909,1
690,269,42,0.073152972313722,1
690,270,42,0.0717366897833685,1
691,270,42,0.0820226026352906,1
691,271,42,0.074199446075101,1
692,269,42,0.0773769443651398,1
692,270,42,0.0792998361580638,1
692,271,42,0.0751185951684838,1
692,272,42,0.0682605292834397,1
693,269,42,0.0796130834724638,1
693,270,42,0.0802347263827206,1
693,271,42,0.0784299469823365,1
693,272,42,0.076512188427427,1
693,273,42,0.0710484465539956,1
694,270,42,0.0903934882701498,1
694,271,42,0.0893891885214425,1
694,272,42,0.0864374688471751,1
694,273,42,0.0772996103674684,1
695,271,42,0.094239187999134,1
695,272,42,0.0897074852169933,1
695,273,42,0.0784060837148342,1
696,270,42,0.0926010321869477,1
696,271,42,0.0948971109824986,1
696,272,42,0.0903981902442937,1
696,273,42,0.080795686872529,1
697,270,42,0.0920304101884844,1
697,271,42,0.0972885530014192,1
697,272,42,0.0936065897886107,1
697,273,42,0.0869373515913206,1
698,271,42,0.0965821787201564,1
698,272,42,0.0956085046960323,1
698,273,42,0.0918499741768778,1
698,274,42,0.0747676541938447,1
699,272,42,0.094106226951941,1
699,273,42,0.0928164065618427,1
699,274,42,0.0798914702906632,1
700,272,42,0.0909752332826071,1
700,273,42,0.0919435344776776,1
700,274,42,0.0814764548614795,1
701,272,42,0.0849461703624543,1
701,273,42,0.0878877733050923,1
701,274,42,0.0792969131473858,1
702,273,42,0.0818872217186019,1
702,274,42,0.0772248579632442,1
703,274,42,0.0760801458860254,1
703,275,42,0.0731914506346144,1
704,274,42,0.0813648773145333,1
704,275,42,0.0871396203363724,1
658,261,43,0.0786331141937853,1
659,260,43,0.122133628643665,1
659,261,43,0.0871688684124803,1
660,260,43,0.0902736029039201,1
660,261,43,0.0696577044284187,1
662,258,43,0.0685710572395451,1
663,257,43,0.0758544091986859,1
663,258,43,0.0704911877457425,1
663,259,43,0.0684455235145667,1
664,257,43,0.0749582848041683,1
664,258,43,0.0778304782227558,1
664,259,43,0.0801007171247312,1
664,260,43,0.0702458405318461,1
665,257,43,0.0797560474455426,1
665,258,43,0.086441308293578,1
665,259,43,0.090017054808942,1
665,260,43,0.0766329243418458,1
666,256,43,0.0853934928223796,1
666,257,43,0.0852939008171684,1
666,258,43,0.0892511900726507,1
666,259,43,0.0892410673512453,1
666,260,43,0.0745452957401576,1
667,256,43,0.0893531779882537,1
667,257,43,0.0908480284101304,1
667,258,43,0.0929495173534352,1
667,259,43,0.0899869741539729,1
667,260,43,0.0740142062631589,1
668,256,43,0.0896567757735508,1
668,257,43,0.0910221092694227,1
668,258,43,0.0909447033944396,1
668,259,43,0.0860899719937242,1
668,260,43,0.0722186571075592,1
669,256,43,0.088182116886501,1
669,257,43,0.0895217302843169,1
669,258,43,0.0861431252657664,1
669,259,43,0.0798281403892319,1
669,260,43,0.0700850150467964,1
670,256,43,0.0859944051179713,1
670,257,43,0.0874603967991787,1
670,258,43,0.0825791606397541,1
670,259,43,0.0760222846500634,1
670,260,43,0.0706503780219498,1
671,256,43,0.0837508626475366,1
671,257,43,0.0840074766300505,1
671,258,43,0.0790429706049588,1
671,259,43,0.0741649509552351,1
671,260,43,0.0713123441041006,1
671,298,43,0.0724104736935268,1
671,299,43,0.0713842873033904,1
672,257,43,0.0784182788987284,1
672,258,43,0.0763574126161166,1
672,259,43,0.0754414021653471,1
672,260,43,0.0733523719560797,1
672,261,43,0.0690878371417287,1
672,298,43,0.0721002811648763,1
672,299,43,0.0748451678847954,1
673,257,43,0.0762824565595091,1
673,258,43,0.0782646052061983,1
673,259,43,0.0808675222558512,1
673,260,43,0.080289257303238,1
673,261,43,0.0782837066017969,1
673,299,43,0.072299087819412,1
674,257,43,0.0771970773822513,1
674,258,43,0.082669785950324,1
674,259,43,0.087658724271636,1
674,260,43,0.0867611982695393,1
674,261,43,0.0853061199601666,1
674,262,43,0.0700518796060778,1
675,257,43,0.0803713052546053,1
675,258,43,0.0885907274242708,1
675,259,43,0.0931080846929406,1
675,260,43,0.0855698497965441,1
675,261,43,0.0763755197089026,1
675,300,43,0.0700380192644613,1
676,257,43,0.0797361014915309,1
676,258,43,0.0874657396793524,1
676,259,43,0.0919876791266466,1
676,260,43,0.0818776081281548,1
676,261,43,0.0677886128033426,1
676,300,43,0.0685220189436009,1
677,258,43,0.080024209716145,1
677,259,43,0.0845061793883279,1
677,260,43,0.0784527021412826,1
677,300,43,0.0707340671719354,1
678,258,43,0.0739736135513459,1
678,259,43,0.0778165160549476,1
678,260,43,0.0759309765050318,1
678,300,43,0.0702269847170626,1
679,258,43,0.0713330327903338,1
679,259,43,0.0728783949930456,1
679,260,43,0.073020310755328,1
679,261,43,0.068387560452413,1
680,259,43,0.069624898425379,1
680,260,43,0.0708866028070295,1
680,261,43,0.0695257436738142,1
681,260,43,0.0680232083693558,1
681,261,43,0.0689741751527417,1
681,262,43,0.0683698426950657,1
682,262,43,0.0681319228033838,1
684,263,43,0.0678453839000764,1
684,264,43,0.0709430923842921,1
684,265,43,0.068819495177847,1
685,263,43,0.0680181709677571,1
685,264,43,0.0720485055413095,1
685,265,43,0.0713298102908568,1
686,264,43,0.0709853742129315,1
686,265,43,0.0743201161019841,1
686,266,43,0.0709099150151417,1
687,264,43,0.0703178556084477,1
687,265,43,0.0780159636155131,1
687,266,43,0.0780510277640971,1
688,264,43,0.0696544340107339,1
688,265,43,0.0753447571299179,1
688,266,43,0.0755280742237706,1
689,265,43,0.070323899292411,1
689,266,43,0.0711698533233242,1
689,267,43,0.068888754957498,1
690,266,43,0.0701113041735705,1
690,267,43,0.0715664124318232,1
690,268,43,0.0714876588572447,1
690,269,43,0.0678535240056325,1
691,267,43,0.0737320279167645,1
691,268,43,0.0739574231868732,1
691,269,43,0.0735286091347246,1
691,270,43,0.0750281196023134,1
691,271,43,0.069687994725547,1
692,268,43,0.0763692544032281,1
692,269,43,0.0755126565403993,1
692,270,43,0.0769062497993425,1
692,271,43,0.073124047685517,1
693,268,43,0.0792989676405467,1
693,269,43,0.0781938300132245,1
693,270,43,0.0781960402405609,1
693,271,43,0.0764317397462463,1
693,272,43,0.0738968485823925,1
694,269,43,0.0815500811878195,1
694,270,43,0.0810763498056006,1
694,271,43,0.0829247168057876,1
694,272,43,0.0857815943671955,1
694,273,43,0.0764260913874976,1
695,270,43,0.0845610397465242,1
695,271,43,0.0884925849448466,1
695,272,43,0.0929303620498528,1
695,273,43,0.0817365429140615,1
696,270,43,0.0875152871062549,1
696,271,43,0.0904458329224347,1
696,272,43,0.0916145160831235,1
696,273,43,0.0822564075508745,1
697,270,43,0.0890665192894266,1
697,271,43,0.0933893286342822,1
697,272,43,0.0929094158032524,1
697,273,43,0.086375259033852,1
697,274,43,0.0683883391232904,1
698,271,43,0.0943128023459221,1
698,272,43,0.0950113779388596,1
698,273,43,0.0900862187521773,1
698,274,43,0.0759397215779619,1
699,272,43,0.092033153505883,1
699,273,43,0.0890647762646166,1
699,274,43,0.0798670379944428,1
700,272,43,0.0885317041717688,1
700,273,43,0.0874003912234161,1
700,274,43,0.0803143664441441,1
701,273,43,0.0853553259698382,1
701,274,43,0.0782654198157315,1
702,273,43,0.0812453273757584,1
702,274,43,0.0764628326733559,1
703,274,43,0.0757093547937902,1
703,275,43,0.0738440247480293,1
704,275,43,0.0870387285497737,1
658,261,44,0.0754772869132403,1
659,260,44,0.103828849291199,1
659,261,44,0.0831629002476126,1
660,259,44,0.08258268262803,1
660,260,44,0.0859152082999703,1
660,261,44,0.0712080261656415,1
661,259,44,0.0686786216365851,1
662,258,44,0.070207871341912,1
663,257,44,0.0799998552870123,1
663,258,44,0.0711654328686513,1
664,257,44,0.0769452432409691,1
664,258,44,0.0788194860733875,1
664,259,44,0.0802353612989744,1
664,260,44,0.0685662354698816,1
665,257,44,0.0798117284030481,1
665,258,44,0.0876785803790081,1
665,259,44,0.0916552465597841,1
665,260,44,0.0755152920418303,1
666,256,44,0.0839771743533701,1
666,257,44,0.0831205106030056,1
666,258,44,0.0871934025348924,1
666,259,44,0.0876037261485923,1
666,260,44,0.0721500082850581,1
667,256,44,0.0886537278880232,1
667,257,44,0.0878340090759002,1
667,258,44,0.0891682077162307,1
667,259,44,0.0858527768649359,1
667,260,44,0.0704841018407588,1
668,256,44,0.0875536037031958,1
668,257,44,0.0881331864065245,1
668,258,44,0.0885096318472843,1
668,259,44,0.0834716372607001,1
668,260,44,0.0693747114724911,1
669,256,44,0.0872812485894078,1
669,257,44,0.0896428076159666,1
669,258,44,0.0852460904253,1
669,259,44,0.0774855689525281,1
670,256,44,0.0895603583496088,1
670,257,44,0.0938473727932108,1
670,258,44,0.084951501263076,1
670,259,44,0.0742490953281952,1
671,256,44,0.0872916468405082,1
671,257,44,0.0901767602058835,1
671,258,44,0.0814447749363239,1
671,259,44,0.072374175651091,1
671,298,44,0.0689966727513207,1
671,299,44,0.0699320481478319,1
672,257,44,0.0797472125259729,1
672,258,44,0.0757318763514732,1
672,259,44,0.0721802027457708,1
672,260,44,0.06836506884361,1
672,299,44,0.0712632519001726,1
673,257,44,0.0756780462347454,1
673,258,44,0.0758212138602074,1
673,259,44,0.075453423645738,1
673,260,44,0.0737581433400352,1
673,261,44,0.0700115863830637,1
674,257,44,0.0762584076089514,1
674,258,44,0.0803389784336439,1
674,259,44,0.0827706597675948,1
674,260,44,0.0807599758281392,1
674,261,44,0.075449027150169,1
675,257,44,0.0780829892087238,1
675,258,44,0.0862090427504208,1
675,259,44,0.0908232846455591,1
675,260,44,0.0827517440550515,1
675,261,44,0.0685694459898066,1
676,257,44,0.0780898175533404,1
676,258,44,0.0859928058477848,1
676,259,44,0.0912665460373703,1
676,260,44,0.0789064875694898,1
677,257,44,0.0752314245786097,1
677,258,44,0.0803455791667733,1
677,259,44,0.0846221414512911,1
677,260,44,0.0740551224228749,1
678,257,44,0.0729555792463175,1
678,258,44,0.0740628132952326,1
678,259,44,0.076575578226618,1
678,260,44,0.0713405439694121,1
679,258,44,0.0721110208332075,1
679,259,44,0.0722214064147338,1
679,260,44,0.0708597746004173,1
679,300,44,0.069278306028101,1
680,258,44,0.0697842204766577,1
680,259,44,0.0696288995957332,1
680,260,44,0.069203493726117,1
681,259,44,0.0684278357060992,1
681,260,44,0.0682813737038484,1
682,260,44,0.068171335529329,1
686,265,44,0.0691974200932737,1
687,264,44,0.0684788386485647,1
687,265,44,0.0753727353735181,1
687,266,44,0.0765106490550002,1
688,264,44,0.0683374919150004,1
688,265,44,0.0729905235993819,1
688,266,44,0.0737766517478118,1
689,265,44,0.068305470572614,1
689,266,44,0.0685190180658352,1
690,266,44,0.0680808360040547,1
690,267,44,0.0682108321121378,1
691,266,44,0.0707425127560665,1
691,267,44,0.0716920419932173,1
691,268,44,0.0699825359695631,1
692,266,44,0.0747850485032892,1
692,267,44,0.0765277678347497,1
692,268,44,0.0748651138388072,1
692,269,44,0.072882965192118,1
692,270,44,0.0715809316487975,1
693,267,44,0.0790153697172452,1
693,268,44,0.0784288209044523,1
693,269,44,0.0766186147670308,1
693,270,44,0.0749847536242218,1
693,271,44,0.0718387316069553,1
694,268,44,0.0808595079355906,1
694,269,44,0.077294465149902,1
694,270,44,0.0739788126768961,1
694,271,44,0.0751672860574212,1
694,272,44,0.0777688254585988,1
694,273,44,0.0691537725957111,1
695,269,44,0.0801749364388932,1
695,270,44,0.0773206644300364,1
695,271,44,0.0812123057407834,1
695,272,44,0.0883752572129601,1
695,273,44,0.078315835760151,1
696,269,44,0.0829266275443251,1
696,270,44,0.0818364164387437,1
696,271,44,0.0839291662988944,1
696,272,44,0.0888698869235715,1
696,273,44,0.0800567521690416,1
697,270,44,0.0844487134775806,1
697,271,44,0.0873806010035798,1
697,272,44,0.0909693692919232,1
697,273,44,0.0839779709935754,1
698,270,44,0.0844043472069004,1
698,271,44,0.0906143373002901,1
698,272,44,0.0950309764858646,1
698,273,44,0.0885231088432382,1
698,274,44,0.0734279269902852,1
699,271,44,0.0888688866309829,1
699,272,44,0.0917985160114379,1
699,273,44,0.086681528259236,1
699,274,44,0.076572960694515,1
700,272,44,0.087570482891906,1
700,273,44,0.0828824110180444,1
700,274,44,0.0763224203448443,1
701,273,44,0.0816514821053766,1
701,274,44,0.0743247102601604,1
702,273,44,0.0805239487056669,1
702,274,44,0.0737392875252517,1
702,275,44,0.0680769546292199,1
703,274,44,0.0743300112119023,1
703,275,44,0.0731347813640723,1
704,275,44,0.0851373340628401,1
658,261,45,0.0680159068324368,1
659,260,45,0.0830339942787577,1
659,261,45,0.0746597603591259,1
660,259,45,0.0772915121903441,1
660,260,45,0.0774039043468236,1
660,261,45,0.0694527342944001,1
661,259,45,0.0681583197461255,1
662,258,45,0.0720443126981238,1
663,257,45,0.0827109177419752,1
663,258,45,0.0725114313676614,1
664,257,45,0.0802140137373835,1
664,258,45,0.0796283514114356,1
664,259,45,0.0784727020032782,1
665,257,45,0.082502916781311,1
665,258,45,0.088865957630529,1
665,259,45,0.0904201068346027,1
665,260,45,0.0742616379190962,1
666,256,45,0.0844394952123481,1
666,257,45,0.0847116706328567,1
666,258,45,0.0881376847282851,1
666,259,45,0.0870315947265821,1
666,260,45,0.0714633343769919,1
667,256,45,0.0886173100500678,1
667,257,45,0.0875694766095415,1
667,258,45,0.0877987352851569,1
667,259,45,0.0836469340445162,1
667,260,45,0.068999224395888,1
668,256,45,0.0869005504077025,1
668,257,45,0.0876290089930017,1
668,258,45,0.0871605605931967,1
668,259,45,0.0820906944086256,1
668,260,45,0.0680053528471609,1
669,256,45,0.0864444409464153,1
669,257,45,0.0901799108280487,1
669,258,45,0.0843172199255025,1
669,259,45,0.0760822003791864,1
670,256,45,0.0909832715619716,1
670,257,45,0.097821349564572,1
670,258,45,0.0859761782296656,1
670,259,45,0.0732786557831,1
671,257,45,0.0931597165618839,1
671,258,45,0.0819173203428989,1
671,259,45,0.0715000097753144,1
672,257,45,0.0806646006252176,1
672,258,45,0.0748212686786372,1
672,259,45,0.0705368957262421,1
672,299,45,0.0683152159381326,1
673,257,45,0.0752588517628198,1
673,258,45,0.0730280195970136,1
673,259,45,0.0709316399326193,1
674,257,45,0.0755701224511467,1
674,258,45,0.0765858986106307,1
674,259,45,0.0765904029221673,1
674,260,45,0.0717592772285872,1
675,257,45,0.0763655647012247,1
675,258,45,0.0802598954213865,1
675,259,45,0.0834435152624763,1
675,260,45,0.0749594528104844,1
676,257,45,0.0777231294576512,1
676,258,45,0.0807042529422019,1
676,259,45,0.0845291202303294,1
676,260,45,0.0720360168583922,1
677,257,45,0.0760743477828772,1
677,258,45,0.077159168090077,1
677,259,45,0.0795949584103499,1
678,257,45,0.0744933224539834,1
678,258,45,0.0727881530281384,1
678,259,45,0.0731994889139789,1
679,257,45,0.0759990682783668,1
679,258,45,0.0729381609777691,1
679,259,45,0.0715805123644789,1
679,260,45,0.0691707296515091,1
680,258,45,0.0718936338935834,1
680,259,45,0.0708629970998942,1
680,260,45,0.0690407754718578,1
680,300,45,0.0716793436681407,1
681,258,45,0.0694167836589711,1
681,259,45,0.0718227808335219,1
681,260,45,0.0701607617538332,1
682,259,45,0.0726788635756164,1
682,260,45,0.073084000043318,1
683,259,45,0.0687966381927092,1
683,260,45,0.0708873754881308,1
687,265,45,0.0685763222526311,1
687,266,45,0.0690605237632622,1
688,266,45,0.0679526547980933,1
691,264,45,0.0679634184255284,1
691,265,45,0.0704669471223535,1
691,266,45,0.0696463837518174,1
692,265,45,0.0731916722563256,1
692,266,45,0.0737540643025931,1
692,267,45,0.0733562293718105,1
692,268,45,0.0711916381385616,1
693,266,45,0.0740140684983114,1
693,267,45,0.0762913992950465,1
693,268,45,0.0751666032229595,1
693,269,45,0.0722877671428107,1
693,270,45,0.0691620265070109,1
694,267,45,0.0780124056885813,1
694,268,45,0.077335674808641,1
694,269,45,0.0730084390193366,1
694,270,45,0.0683448653292311,1
695,268,45,0.0791954163934131,1
695,269,45,0.0759760735283815,1
695,270,45,0.0713736314919229,1
695,271,45,0.072714335028967,1
695,272,45,0.0774443473142372,1
695,273,45,0.0706890719747774,1
696,269,45,0.0803538210985211,1
696,270,45,0.0766079769248912,1
696,271,45,0.0775477847556272,1
696,272,45,0.0826213047035459,1
696,273,45,0.076553967114884,1
697,269,45,0.0817484386091568,1
697,270,45,0.0800728466970986,1
697,271,45,0.0817148898738956,1
697,272,45,0.0870319720824688,1
697,273,45,0.0817688098372631,1
698,270,45,0.082067190527682,1
698,271,45,0.0862269162419436,1
698,272,45,0.0935683091303257,1
698,273,45,0.0889107491753037,1
698,274,45,0.07149194154707,1
699,271,45,0.0858377844556592,1
699,272,45,0.093071445233274,1
699,273,45,0.0895118172050709,1
699,274,45,0.0768999305856841,1
700,272,45,0.088860105619397,1
700,273,45,0.083779068502624,1
700,274,45,0.0770698066222388,1
700,275,45,0.0685985982294989,1
701,273,45,0.0816664445657733,1
701,274,45,0.0744419421556312,1
701,275,45,0.0696861678438733,1
702,273,45,0.083414967990158,1
702,274,45,0.0746858398437406,1
702,275,45,0.0701505791346681,1
703,274,45,0.0766202080474413,1
703,275,45,0.074911911958535,1
703,276,45,0.069562640693848,1
704,275,45,0.0856921011242857,1
659,260,46,0.0713121464414933,1
660,259,46,0.072629891167208,1
660,260,46,0.0699784449525691,1
662,258,46,0.0727408697365562,1
663,257,46,0.081857386644448,1
663,258,46,0.0725926766890473,1
664,257,46,0.0808454319620388,1
664,258,46,0.0776882809410024,1
664,259,46,0.0744899022918991,1
665,256,46,0.080136721668144,1
665,257,46,0.0830815471102589,1
665,258,46,0.0859622759596172,1
665,259,46,0.0850963520155884,1
665,260,46,0.0711843126425387,1
666,256,46,0.0817630955909786,1
666,257,46,0.0844635142140259,1
666,258,46,0.0861599445567168,1
666,259,46,0.0835641493507035,1
666,260,46,0.0690746596345738,1
667,256,46,0.0838955936045293,1
667,257,46,0.0846888795352547,1
667,258,46,0.0835302112800036,1
667,259,46,0.0792665988911535,1
668,256,46,0.0820144864888384,1
668,257,46,0.0830474293462797,1
668,258,46,0.0809485818941818,1
668,259,46,0.0764897926550396,1
669,256,46,0.0820369181998816,1
669,257,46,0.0851508949156577,1
669,258,46,0.0790484272908761,1
669,259,46,0.0713731822587244,1
670,256,46,0.0869221734989885,1
670,257,46,0.0921819095923339,1
670,258,46,0.0813484353794696,1
670,259,46,0.0683196962905653,1
671,257,46,0.0880980623601807,1
671,258,46,0.0777458786268213,1
672,257,46,0.0769582949628284,1
672,258,46,0.0707967561673369,1
673,257,46,0.072110296070314,1
673,258,46,0.0683405706598538,1
674,256,46,0.0752028473574115,1
674,257,46,0.0725079632873692,1
674,258,46,0.0704766146207844,1
674,259,46,0.0687193341439177,1
675,256,46,0.0772444505204732,1
675,257,46,0.0741860649155628,1
675,258,46,0.0732670655665796,1
675,259,46,0.072854897101878,1
676,256,46,0.0819962176721009,1
676,257,46,0.0769033687170964,1
676,258,46,0.0747943745844892,1
676,259,46,0.0741561220254413,1
677,256,46,0.0821390378905562,1
677,257,46,0.0767382425728934,1
677,258,46,0.0734033329701133,1
677,259,46,0.0712741053742474,1
678,256,46,0.0788639182316035,1
678,257,46,0.0755304222159545,1
678,258,46,0.0709676564555841,1
679,257,46,0.0769600559569664,1
679,258,46,0.0726735266852187,1
679,259,46,0.0692467518882409,1
680,257,46,0.0750410694979811,1
680,258,46,0.0729752436808582,1
680,259,46,0.0710919083685029,1
680,301,46,0.0748020055590871,1
681,257,46,0.0703267863644331,1
681,258,46,0.0715710904468632,1
681,259,46,0.0738487506812771,1
681,260,46,0.0704941766439563,1
682,258,46,0.0686998494026564,1
682,259,46,0.0753133826833372,1
682,260,46,0.0759350735118018,1
683,259,46,0.0711949864233342,1
683,260,46,0.0750170684656312,1
683,261,46,0.0681702693492046,1
684,259,46,0.0682983666983023,1
684,260,46,0.0709603489288891,1
684,261,46,0.0683553474371953,1
685,259,46,0.0695719248466162,1
685,260,46,0.068908323555623,1
685,261,46,0.0678362674610355,1
691,265,46,0.0691370970593842,1
692,265,46,0.0711388083144224,1
692,266,46,0.0712728055928599,1
692,267,46,0.0678425267769341,1
693,265,46,0.0694441150067656,1
693,266,46,0.0721373279293095,1
693,267,46,0.0718294234950832,1
693,268,46,0.0693888952620105,1
694,266,46,0.0716616319005693,1
694,267,46,0.0741842440236651,1
694,268,46,0.0725511316028535,1
694,269,46,0.0682782470407871,1
695,267,46,0.0750193086418475,1
695,268,46,0.0753233017523593,1
695,269,46,0.0720876547171115,1
695,270,46,0.0679586745229527,1
696,268,46,0.0786659681150328,1
696,269,46,0.0775409743803385,1
696,270,46,0.0727626425722417,1
696,271,46,0.0717538624711017,1
696,272,46,0.0736708423551339,1
696,273,46,0.0693386410415425,1
697,268,46,0.0806117408521985,1
697,269,46,0.0815781552678355,1
697,270,46,0.0772544714156869,1
697,271,46,0.0764710266868958,1
697,272,46,0.0789615276209654,1
697,273,46,0.0750736838281895,1
698,269,46,0.0842063491721219,1
698,270,46,0.0806804855111153,1
698,271,46,0.0811410693350592,1
698,272,46,0.0860715414530353,1
698,273,46,0.0834594480665818,1
699,270,46,0.0817465817786031,1
699,271,46,0.0833557291057207,1
699,272,46,0.0903395203885745,1
699,273,46,0.0889868612586752,1
699,274,46,0.0735847872436364,1
700,271,46,0.0827316902850721,1
700,272,46,0.0871913779906113,1
700,273,46,0.0834709005182546,1
700,274,46,0.0744420799204788,1
701,272,46,0.0914655383749613,1
701,273,46,0.0827679883275079,1
701,274,46,0.0733498742194962,1
701,275,46,0.0693486140185484,1
702,273,46,0.088225369058849,1
702,274,46,0.0760966956370568,1
702,275,46,0.0707433932531355,1
703,274,46,0.079480368006086,1
703,275,46,0.0762447030015103,1
703,276,46,0.0708692683953448,1
704,275,46,0.0845974695640315,1
662,258,47,0.0719582815457302,1
663,257,47,0.079152188180169,1
663,258,47,0.0720276970595567,1
664,257,47,0.0811070953257034,1
664,258,47,0.0755775917017931,1
664,259,47,0.0705044371302092,1
665,256,47,0.0798647019818108,1
665,257,47,0.0838663455284214,1
665,258,47,0.081469291089408,1
665,259,47,0.0774205679035985,1
666,256,47,0.0788946637517062,1
666,257,47,0.0848120233396173,1
666,258,47,0.0826951047333893,1
666,259,47,0.0776402848660787,1
667,256,47,0.0778131258417432,1
667,257,47,0.0819930490806077,1
667,258,47,0.0787794444209645,1
667,259,47,0.0736040024449786,1
668,256,47,0.07602269195483,1
668,257,47,0.0779969820154341,1
668,258,47,0.0744262489425649,1
668,259,47,0.0699529584557763,1
669,255,47,0.0777057710868626,1
669,256,47,0.0769763062191988,1
669,257,47,0.0781647915792758,1
669,258,47,0.072601266027802,1
670,256,47,0.0812716943696202,1
670,257,47,0.082092018149117,1
670,258,47,0.07366204337422,1
671,257,47,0.0814697343328305,1
671,258,47,0.0716142407930195,1
672,257,47,0.0757550867333937,1
673,257,47,0.0714297377235229,1
674,256,47,0.0754935850936806,1
674,257,47,0.0699240158582434,1
675,255,47,0.0809042575519335,1
675,256,47,0.076542275072172,1
675,257,47,0.0716697660163495,1
675,258,47,0.0679285639191037,1
676,255,47,0.0821420687172018,1
676,256,47,0.0798565079682709,1
676,257,47,0.0740779913875647,1
676,258,47,0.0690653754818056,1
677,255,47,0.0806325433441753,1
677,256,47,0.0800628377814368,1
677,257,47,0.0743595467972572,1
677,258,47,0.0684566285592327,1
678,256,47,0.0787570546383531,1
678,257,47,0.0747453961863048,1
678,258,47,0.0684333463000004,1
679,256,47,0.0778685133002257,1
679,257,47,0.0764875704481512,1
679,258,47,0.0720998319316778,1
680,257,47,0.0762147900602686,1
680,258,47,0.0745163471528486,1
680,259,47,0.0706464068004754,1
681,257,47,0.0730077861337549,1
681,258,47,0.073795585429683,1
681,259,47,0.0736814622279456,1
681,260,47,0.0694484635841267,1
682,257,47,0.0700731253414771,1
682,258,47,0.0707013090871035,1
682,259,47,0.0740687072347964,1
682,260,47,0.0742402065006416,1
683,258,47,0.068057931100709,1
683,259,47,0.0709516697434948,1
683,260,47,0.0744211216943265,1
683,261,47,0.0689322407311092,1
684,259,47,0.0688537387271218,1
684,260,47,0.0714235982031439,1
684,261,47,0.0689589611217537,1
685,258,47,0.0685328784074518,1
685,259,47,0.0694688527815609,1
685,260,47,0.0699370196618949,1
685,261,47,0.0686316378338018,1
686,259,47,0.0691112990942404,1
692,264,47,0.0677515660389094,1
692,265,47,0.0689303839005555,1
693,265,47,0.0685683738199063,1
693,266,47,0.0694123152860904,1
693,267,47,0.0682244888013711,1
694,266,47,0.0699663336255386,1
694,267,47,0.0711086737514695,1
694,268,47,0.0684804858369591,1
695,266,47,0.0703902061125041,1
695,267,47,0.0728177604908051,1
695,268,47,0.0715359903596233,1
696,267,47,0.0750888559307455,1
696,268,47,0.0758244962574442,1
696,269,47,0.0730687440838983,1
696,270,47,0.069086291779526,1
697,267,47,0.0760482862675904,1
697,268,47,0.0799373340053383,1
697,269,47,0.0793585419524389,1
697,270,47,0.0752656741176605,1
697,271,47,0.0721566988648272,1
697,272,47,0.0703542075588673,1
698,268,47,0.0827376740712756,1
698,269,47,0.0833492841067667,1
698,270,47,0.0788321245007043,1
698,271,47,0.0761304480247013,1
698,272,47,0.0763998082504995,1
698,273,47,0.0740754097941175,1
699,269,47,0.0851772678992955,1
699,270,47,0.0808724039232745,1
699,271,47,0.0799453902540307,1
699,272,47,0.0833186464026316,1
699,273,47,0.0831841639523398,1
699,274,47,0.0678794178071919,1
700,270,47,0.0808493492755294,1
700,271,47,0.0807244804156847,1
700,272,47,0.0828540733878853,1
700,273,47,0.0819506774053287,1
700,274,47,0.0707992958323522,1
701,271,47,0.0829534377816093,1
701,272,47,0.086659012691329,1
701,273,47,0.08356752159458,1
701,274,47,0.0726128682238742,1
701,275,47,0.0679966616822147,1
702,272,47,0.093363362955411,1
702,273,47,0.0907359117833461,1
702,274,47,0.0774530444689594,1
702,275,47,0.0710206899321066,1
703,273,47,0.0900697828068895,1
703,274,47,0.081787527887199,1
703,275,47,0.0772695057533955,1
703,276,47,0.0710019898514986,1
704,274,47,0.0830369831769714,1
704,275,47,0.0823390484900637,1
704,276,47,0.0776424052467754,1
705,275,47,0.0850989515783635,1
662,258,48,0.0721067561127101,1
663,257,48,0.0777732698723756,1
663,258,48,0.0727372638914166,1
664,257,48,0.0809942000280417,1
664,258,48,0.0749701385708318,1
664,259,48,0.0692872068352065,1
665,256,48,0.0785160679813698,1
665,257,48,0.0832983290825091,1
665,258,48,0.0779326697907421,1
665,259,48,0.0722729065086056,1
666,256,48,0.0754658763899994,1
666,257,48,0.0826131226695579,1
666,258,48,0.0782166330903784,1
666,259,48,0.0720738482834788,1
667,257,48,0.0778603252764617,1
667,258,48,0.0737037621639173,1
667,259,48,0.0683447455337116,1
668,256,48,0.0701873803182862,1
668,257,48,0.0717704062323571,1
669,255,48,0.0755754054335606,1
669,256,48,0.0720943872253125,1
669,257,48,0.0702498836306323,1
670,256,48,0.0770439128206794,1
670,257,48,0.0717654946160539,1
671,257,48,0.0762902492580584,1
672,257,48,0.077421592155291,1
673,257,48,0.0722002445361982,1
674,256,48,0.0768081073199183,1
675,255,48,0.0803215661548715,1
675,256,48,0.0771890271233348,1
675,257,48,0.0696419093891607,1
676,255,48,0.0803441416205382,1
676,256,48,0.0779293574446255,1
676,257,48,0.0706248675660531,1
677,256,48,0.0773190471905219,1
677,257,48,0.070697074315486,1
678,256,48,0.0774303012895652,1
678,257,48,0.0723658678318075,1
679,256,48,0.0777396971780105,1
679,257,48,0.0750817400768819,1
679,258,48,0.0709892256388863,1
680,256,48,0.0785829977381648,1
680,257,48,0.0767632618671598,1
680,258,48,0.0754753641951509,1
680,259,48,0.0699832487529047,1
681,257,48,0.0765978901421417,1
681,258,48,0.0763111475864509,1
681,259,48,0.0730708944134749,1
682,257,48,0.0744287107404925,1
682,258,48,0.0733632254301546,1
682,259,48,0.0721865459185331,1
682,260,48,0.0697273475537324,1
683,258,48,0.0716553785744467,1
683,259,48,0.0709153357624031,1
683,260,48,0.0714806388397967,1
684,258,48,0.0706240829053998,1
684,259,48,0.069980523404834,1
684,260,48,0.0705728942798789,1
684,261,48,0.0677642883230899,1
685,258,48,0.0698467956663156,1
685,259,48,0.0706148646401673,1
685,260,48,0.0716940186192905,1
685,261,48,0.06871283523698,1
686,258,48,0.0701781321041738,1
686,259,48,0.072250876112553,1
686,260,48,0.0724244897693189,1
686,261,48,0.0679544038126793,1
687,259,48,0.0707151514593921,1
687,260,48,0.0685688110735528,1
693,265,48,0.0680605246737082,1
694,265,48,0.0689726777087468,1
694,266,48,0.0691048181566306,1
694,267,48,0.0688315106684619,1
695,266,48,0.0701385217156213,1
695,267,48,0.0707307188871629,1
696,266,48,0.0706787635703167,1
696,267,48,0.0736058592755323,1
696,268,48,0.072292666779562,1
697,267,48,0.0752221643849454,1
697,268,48,0.077941187252185,1
697,269,48,0.0757772908329497,1
697,270,48,0.0721586155931407,1
698,268,48,0.081752469728391,1
698,269,48,0.0815903744108337,1
698,270,48,0.0771788445041697,1
698,271,48,0.0720268225522637,1
698,272,48,0.0681428241956665,1
699,269,48,0.0851288345707252,1
699,270,48,0.0806936390591662,1
699,271,48,0.0770851104998665,1
699,272,48,0.076391470482336,1
699,273,48,0.0743146953547227,1
700,270,48,0.081582090550654,1
700,271,48,0.0794394937748019,1
700,272,48,0.0795168517315771,1
700,273,48,0.0787707772151222,1
700,274,48,0.0683004032221353,1
701,271,48,0.0803367502369795,1
701,272,48,0.0819321630077761,1
701,273,48,0.0823715130758726,1
701,274,48,0.0722492349139346,1
702,272,48,0.0872853156472978,1
702,273,48,0.0886145847019972,1
702,274,48,0.0775468862892303,1
702,275,48,0.0681230279860543,1
703,273,48,0.0887583453152812,1
703,274,48,0.082082668108813,1
703,275,48,0.0754161313004896,1
703,276,48,0.067996571835575,1
704,274,48,0.084680032636133,1
704,275,48,0.0801101570116749,1
704,276,48,0.0735196544196353,1
705,275,48,0.0805043082302301,1
651,277,49,0.0687038326036828,1
661,259,49,0.0690351211233331,1
662,258,49,0.0715131812926933,1
662,259,49,0.0681863878363655,1
663,257,49,0.0764713621143507,1
663,258,49,0.0724289940808555,1
663,259,49,0.0686654501192061,1
664,257,49,0.0794342706901477,1
664,258,49,0.0740866166649752,1
664,259,49,0.0690613144136915,1
665,257,49,0.0803726888928565,1
665,258,49,0.0750911919433775,1
665,259,49,0.069052413606586,1
666,256,49,0.0721553871038877,1
666,257,49,0.0776010698027409,1
666,258,49,0.0735377375533174,1
667,257,49,0.0722641794050034,1
667,258,49,0.0686028689397723,1
669,256,49,0.0680691200022387,1
671,257,49,0.0723196986385575,1
672,257,49,0.0804120177619379,1
673,257,49,0.0731233468817274,1
674,256,49,0.0789481045329954,1
675,255,49,0.0801930195725753,1
675,256,49,0.0778180374580464,1
676,255,49,0.0790045821307061,1
676,256,49,0.0759806497172299,1
677,256,49,0.0740836457360893,1
678,256,49,0.0742738450825425,1
678,257,49,0.069670163162456,1
679,256,49,0.0756391007113266,1
679,257,49,0.0729364778507189,1
679,258,49,0.0688757331845185,1
680,256,49,0.0779722382508627,1
680,257,49,0.0761091244222142,1
680,258,49,0.0745668409643559,1
680,259,49,0.0685838274419334,1
681,257,49,0.0787512205965491,1
681,258,49,0.0768517847663609,1
681,259,49,0.0708466689705741,1
682,257,49,0.077416932109579,1
682,258,49,0.0744450328800367,1
682,259,49,0.068793475590992,1
683,257,49,0.076133448902467,1
683,258,49,0.0729858695434459,1
683,259,49,0.0684240801165601,1
684,258,49,0.0713888874513427,1
684,259,49,0.0685528363410155,1
685,258,49,0.0703109434069673,1
685,259,49,0.070082529289765,1
685,260,49,0.0698742228505258,1
686,258,49,0.0707094671619876,1
686,259,49,0.0737665110570785,1
686,260,49,0.0749679523025993,1
686,261,49,0.068285279037787,1
687,258,49,0.0695339077384743,1
687,259,49,0.071663183252548,1
687,260,49,0.0707309464986501,1
688,259,49,0.0695813168153521,1
694,263,49,0.0678024671551832,1
694,264,49,0.0680667660202788,1
694,265,49,0.0689512462902921,1
695,265,49,0.0684293990376299,1
695,266,49,0.0690300417933025,1
695,267,49,0.0677863786169023,1
696,265,49,0.0679808247145249,1
696,266,49,0.070479938946453,1
696,267,49,0.0717182173142477,1
696,268,49,0.0680125705272163,1
697,266,49,0.0700828287785639,1
697,267,49,0.0738087150186301,1
697,268,49,0.0740100014404213,1
697,269,49,0.0704135901979281,1
698,267,49,0.0746517580184173,1
698,268,49,0.0781347229038587,1
698,269,49,0.0775939539488772,1
698,270,49,0.0731599623822901,1
699,268,49,0.0802115160008,1
699,269,49,0.0824961004162463,1
699,270,49,0.0787326642705646,1
699,271,49,0.073311958937546,1
699,272,49,0.0681767982050223,1
700,269,49,0.0836135410434305,1
700,270,49,0.0812420210194177,1
700,271,49,0.0774928405405672,1
700,272,49,0.0743707656476668,1
700,273,49,0.071274830137141,1
701,270,49,0.0785664779360133,1
701,271,49,0.0779184141239109,1
701,272,49,0.0771716627627703,1
701,273,49,0.0769150188313765,1
701,274,49,0.0694581670212135,1
702,271,49,0.0798605390875051,1
702,272,49,0.081443576981128,1
702,273,49,0.0829279452950406,1
702,274,49,0.0770900460752736,1
703,272,49,0.0833838511039445,1
703,273,49,0.0857899860433428,1
703,274,49,0.082760351363134,1
703,275,49,0.0739365787664646,1
704,273,49,0.0885495656837396,1
704,274,49,0.0879571888189187,1
704,275,49,0.0796988750338183,1
704,276,49,0.0705053236170542,1
705,274,49,0.0872183978700548,1
705,275,49,0.0797298002472004,1
705,276,49,0.0731691027804348,1
651,278,50,0.0738007006983695,1
661,259,50,0.0690973429162082,1
662,259,50,0.0689957263667159,1
663,258,50,0.07133120590866,1
663,259,50,0.0695445395908379,1
664,257,50,0.0775060180477221,1
664,258,50,0.0729427731052733,1
664,259,50,0.0690926469318403,1
665,257,50,0.0762088901309288,1
665,258,50,0.0720589996288256,1
666,257,50,0.0718798873577105,1
666,258,50,0.069068190676516,1
671,257,50,0.0695663244060754,1
672,257,50,0.0811932402838406,1
673,256,50,0.0932082696859738,1
673,257,50,0.0734251597137826,1
674,255,50,0.0795980611143073,1
674,256,50,0.0793980924432315,1
675,255,50,0.0791360816725601,1
675,256,50,0.0772009467775341,1
676,255,50,0.0774781655894174,1
676,256,50,0.0745008156637338,1
677,256,50,0.0719933037658824,1
678,256,50,0.0714036103207003,1
679,256,50,0.073107683617541,1
679,257,50,0.0707401647638825,1
680,256,50,0.0763384549751415,1
680,257,50,0.0754536812061051,1
680,258,50,0.0728574487464453,1
681,256,50,0.0776901796999879,1
681,257,50,0.0798595088460366,1
681,258,50,0.0758876464655961,1
682,257,50,0.0794140551962169,1
682,258,50,0.0745727948016795,1
683,257,50,0.077565083228656,1
683,258,50,0.0728943817051349,1
684,257,50,0.0762069314741835,1
684,258,50,0.0712688583304894,1
685,258,50,0.0701130052699487,1
685,259,50,0.0686550638476577,1
686,258,50,0.0697154518586371,1
686,259,50,0.0726289447826032,1
686,260,50,0.0717845061650129,1
687,258,50,0.0685563882781713,1
687,259,50,0.0707045854945643,1
687,260,50,0.0686997176275849,1
688,259,50,0.0683437751900029,1
696,264,50,0.0678885402360087,1
696,265,50,0.0677673910270472,1
696,266,50,0.0677473192877399,1
697,265,50,0.0685507878376305,1
697,266,50,0.0682371451980158,1
697,267,50,0.0699524014066102,1
697,268,50,0.0678245634387716,1
698,266,50,0.0688029693859195,1
698,267,50,0.0717722570731348,1
698,268,50,0.0726428770015316,1
698,269,50,0.0717539822666213,1
699,267,50,0.0732090605759941,1
699,268,50,0.0755076850263363,1
699,269,50,0.078040527686805,1
699,270,50,0.0749773203122312,1
700,268,50,0.0775666585397386,1
700,269,50,0.0809464615134851,1
700,270,50,0.0794686520042701,1
700,271,50,0.0739608134000777,1
700,272,50,0.0682409906341946,1
701,269,50,0.0765037548228478,1
701,270,50,0.0768889812751936,1
701,271,50,0.0753162338167035,1
701,272,50,0.0730022216318699,1
701,273,50,0.0719468830020412,1
702,270,50,0.0748552965959768,1
702,271,50,0.0770400434253967,1
702,272,50,0.0772506858772679,1
702,273,50,0.0781428570196389,1
702,274,50,0.075208543634368,1
703,271,50,0.0799418383168749,1
703,272,50,0.0822258117751712,1
703,273,50,0.0830075613973601,1
703,274,50,0.0812605593760743,1
703,275,50,0.0717476870120669,1
704,273,50,0.0892595458101421,1
704,274,50,0.0875201088759184,1
704,275,50,0.077750646488501,1
705,274,50,0.0888082880673983,1
705,275,50,0.0794752826862794,1
705,276,50,0.0697097016736968,1
706,276,50,0.0752869078735078,1
661,259,51,0.0689482214534225,1
662,258,51,0.0690043157054705,1
662,259,51,0.0689429085221287,1
663,258,51,0.0712758184501776,1
663,259,51,0.0698928750129259,1
664,257,51,0.0750110307714439,1
664,258,51,0.0730561176361335,1
664,259,51,0.0700581389219764,1
665,258,51,0.0704882587452886,1
670,256,51,0.0732965232848468,1
671,257,51,0.0698313899624963,1
672,257,51,0.080987988630351,1
673,256,51,0.0896817711087133,1
673,257,51,0.0749617409049085,1
674,255,51,0.0789554420085703,1
674,256,51,0.0786186848234506,1
674,257,51,0.0679069228584898,1
675,255,51,0.0768631114327381,1
675,256,51,0.0755813173424524,1
676,255,51,0.0755842403531304,1
676,256,51,0.0740644245449711,1
677,255,51,0.0733770737922192,1
677,256,51,0.0721850484745382,1
678,256,51,0.0705115529840729,1
679,256,51,0.0712871630858827,1
679,257,51,0.0700050994556779,1
680,256,51,0.074618508771955,1
680,257,51,0.0756498942876417,1
680,258,51,0.0727949154852193,1
681,256,51,0.0757487794992873,1
681,257,51,0.0795941078621608,1
681,258,51,0.0756128355436565,1
682,256,51,0.0753382282741002,1
682,257,51,0.0796778269610263,1
682,258,51,0.0748240838733476,1
683,257,51,0.0776537618620326,1
683,258,51,0.0721599213643042,1
684,256,51,0.0819161643161348,1
684,257,51,0.0781203474415079,1
684,258,51,0.071706728923919,1
685,257,51,0.0738199518383677,1
685,258,51,0.0700078008446447,1
686,258,51,0.0688041254126836,1
686,259,51,0.0703687267758416,1
687,259,51,0.0683944187459096,1
696,264,51,0.0703549502910887,1
696,265,51,0.0687109903859783,1
697,265,51,0.0717053632549957,1
697,266,51,0.06823240129544,1
698,265,51,0.0715992723428467,1
698,266,51,0.0694771126826366,1
698,267,51,0.0699286579346275,1
698,268,51,0.068485181821327,1
699,266,51,0.0704453479901714,1
699,267,51,0.0718990905795008,1
699,268,51,0.0719526152176536,1
699,269,51,0.0731715525988105,1
699,270,51,0.0699701251537336,1
700,267,51,0.0734263876178584,1
700,268,51,0.0745021933122091,1
700,269,51,0.0768872023117277,1
700,270,51,0.0761931789485346,1
700,271,51,0.0691275852951287,1
701,268,51,0.0727646311778669,1
701,269,51,0.0738631620822838,1
701,270,51,0.074185136500286,1
701,271,51,0.0722402322806374,1
701,272,51,0.0685855405178636,1
702,269,51,0.0710543884117673,1
702,270,51,0.0724436510626773,1
702,271,51,0.0748018797737916,1
702,272,51,0.074296767955216,1
702,273,51,0.0730201011131687,1
702,274,51,0.0691741078851615,1
703,271,51,0.0783580936296864,1
703,272,51,0.0805466020384214,1
703,273,51,0.0794773611385443,1
703,274,51,0.0760161271603565,1
704,272,51,0.086452125828997,1
704,273,51,0.0880358824957374,1
704,274,51,0.0844832445361024,1
704,275,51,0.0745841993351444,1
705,273,51,0.0907809908373678,1
705,274,51,0.0905264612968948,1
705,275,51,0.0808499542429033,1
662,259,52,0.0688349607794261,1
663,258,52,0.0718687463743886,1
663,259,52,0.0709208104176484,1
663,260,52,0.0683885128267938,1
664,258,52,0.0737524290937507,1
664,259,52,0.0715377333844333,1
665,258,52,0.0691876447788752,1
670,256,52,0.0699902987192326,1
672,257,52,0.0770140298283177,1
673,256,52,0.0843559677863139,1
673,257,52,0.07320090250111,1
674,255,52,0.0765706606205389,1
674,256,52,0.0752430806826658,1
675,255,52,0.0736905247590026,1
675,256,52,0.071845530002692,1
676,255,52,0.0730315355955136,1
676,256,52,0.0726088191353121,1
677,255,52,0.0718040807529139,1
677,256,52,0.0724051008644732,1
677,257,52,0.0696489893043685,1
678,255,52,0.0700873330901005,1
678,256,52,0.0697983323888655,1
678,257,52,0.069027861514846,1
679,256,52,0.0694909969833571,1
679,257,52,0.069140936505787,1
680,256,52,0.0723936783616803,1
680,257,52,0.0738784779394634,1
680,258,52,0.0719656010519772,1
681,256,52,0.0741026632748242,1
681,257,52,0.0775749783385741,1
681,258,52,0.0754152687727486,1
682,256,52,0.0758197942833003,1
682,257,52,0.0781299250932991,1
682,258,52,0.0742046212415473,1
683,256,52,0.0792625917310232,1
683,257,52,0.0769863570632924,1
683,258,52,0.070510043560526,1
684,257,52,0.077804422697245,1
684,258,52,0.0700142218844947,1
685,257,52,0.0720951539166378,1
696,264,52,0.0682348451240396,1
697,264,52,0.0749441669021847,1
697,265,52,0.0712080980429533,1
698,265,52,0.0720055528577605,1
699,266,52,0.0688628312070587,1
699,267,52,0.0689915874315141,1
699,268,52,0.0681682148560436,1
700,267,52,0.0708962703054604,1
700,268,52,0.0713127034906594,1
700,269,52,0.0721731168407871,1
700,270,52,0.0700186902573754,1
701,268,52,0.0705916003502629,1
701,269,52,0.0707781099947127,1
701,270,52,0.0706287369613359,1
701,271,52,0.0677524465359784,1
702,269,52,0.0690611287306361,1
702,270,52,0.069693271718185,1
702,271,52,0.0716343424812067,1
702,272,52,0.0701776349527675,1
703,270,52,0.0708618350833542,1
703,271,52,0.0761161743885421,1
703,272,52,0.0778719993498458,1
703,273,52,0.074448728571816,1
703,274,52,0.0693223787997582,1
704,271,52,0.080873152645272,1
704,272,52,0.0853561465691474,1
704,273,52,0.0846800745645648,1
704,274,52,0.081240457687887,1
704,275,52,0.0712786336448879,1
705,273,52,0.0897241727328722,1
705,274,52,0.093218440325587,1
705,275,52,0.0838676033813771,1
706,274,52,0.0971281288313602,1
706,275,52,0.0914643464095414,1
706,276,52,0.076152160962627,1
662,259,53,0.0689252087341092,1
662,260,53,0.067815087613172,1
663,258,53,0.0701035294443491,1
663,259,53,0.0707944441138088,1
663,260,53,0.068874127924556,1
664,258,53,0.0715282276099538,1
664,259,53,0.0709746345446002,1
671,256,53,0.0715423574914895,1
672,256,53,0.0779741609689522,1
672,257,53,0.0684964605694964,1
673,256,53,0.0783709956071462,1
673,257,53,0.0690724973254452,1
674,255,53,0.074221374644962,1
674,256,53,0.0735484053443369,1
675,255,53,0.0717025241011814,1
675,256,53,0.0711976339043171,1
676,255,53,0.0710189469072966,1
676,256,53,0.0727167548984628,1
676,257,53,0.0704764648763849,1
677,255,53,0.0707764029085585,1
677,256,53,0.0734320180072792,1
677,257,53,0.0739846227595962,1
678,255,53,0.0695823290874926,1
678,256,53,0.0698761036401833,1
678,257,53,0.071027021125317,1
679,256,53,0.0686931767922152,1
679,257,53,0.0687967400189009,1
680,256,53,0.071131632562799,1
680,257,53,0.0715363796950619,1
680,258,53,0.0707851839201445,1
681,256,53,0.0739321223731358,1
681,257,53,0.0752456682658889,1
681,258,53,0.0752066808140383,1
681,259,53,0.0678064204073297,1
682,256,53,0.0770687104932346,1
682,257,53,0.0765140931761884,1
682,258,53,0.073562385481473,1
683,257,53,0.0765029102644347,1
683,258,53,0.0699591279250352,1
684,257,53,0.0759829977094138,1
684,258,53,0.0686542432483485,1
685,257,53,0.0691031829477882,1
697,264,53,0.0745208454746092,1
697,265,53,0.0700484534542175,1
698,264,53,0.0764500924198475,1
698,265,53,0.0733344086179172,1
699,265,53,0.0718012655582035,1
699,266,53,0.0694334232566422,1
700,266,53,0.0707151574491681,1
700,267,53,0.0697977693499234,1
700,268,53,0.0686884568487434,1
701,267,53,0.0695386995592579,1
701,268,53,0.0682921852494914,1
701,269,53,0.0677852225901382,1
702,268,53,0.0686742191512401,1
702,269,53,0.0677904756236722,1
702,271,53,0.0679311934307587,1
703,269,53,0.0694940337997788,1
703,270,53,0.0693913570599381,1
703,271,53,0.0729493259201949,1
703,272,53,0.0743611460674437,1
703,273,53,0.0693172994697275,1
704,270,53,0.0734055791361056,1
704,271,53,0.0782583099516438,1
704,272,53,0.0817156925038768,1
704,273,53,0.0802900180047874,1
704,274,53,0.0770629962469501,1
705,272,53,0.0843262525076796,1
705,273,53,0.0875282849201304,1
705,274,53,0.0928445285600665,1
705,275,53,0.0848122808999845,1
706,273,53,0.0906290302207678,1
706,274,53,0.100074847042685,1
706,275,53,0.0958777630956389,1
706,276,53,0.0770633496437329,1
707,277,53,0.0683511905326655,1
662,259,54,0.07094488332731,1
662,260,54,0.0706062693116367,1
663,259,54,0.0705526188881883,1
663,260,54,0.0701838643197862,1
664,259,54,0.0686683611503322,1
674,256,54,0.076207380707382,1
674,257,54,0.0702493984587779,1
675,256,54,0.0780533098687453,1
675,257,54,0.0741729293368398,1
676,256,54,0.0786616494865516,1
676,257,54,0.0786977019481722,1
677,256,54,0.0768242377866312,1
677,257,54,0.0798366997791067,1
677,258,54,0.0692949875542039,1
678,256,54,0.0712701101936691,1
678,257,54,0.0736590185373504,1
678,258,54,0.0678692172186988,1
679,256,54,0.0698681132790267,1
679,257,54,0.070367145474983,1
680,256,54,0.0716294069057996,1
680,257,54,0.0715953729986841,1
680,258,54,0.0703916196996353,1
681,256,54,0.0745112199046102,1
681,257,54,0.074437036529104,1
681,258,54,0.0745008336330617,1
681,259,54,0.0702287397214246,1
682,257,54,0.0752233503605893,1
682,258,54,0.0721709365623305,1
682,259,54,0.0678162196808322,1
683,257,54,0.0750561277947935,1
683,258,54,0.0682901487256584,1
684,257,54,0.0733941626230887,1
697,263,54,0.0697414295170602,1
697,264,54,0.0716023391081482,1
697,265,54,0.0681616261024662,1
698,264,54,0.075665587500708,1
698,265,54,0.0735765632812165,1
699,265,54,0.0726495855506286,1
699,266,54,0.0701595697884133,1
700,266,54,0.0720456544079432,1
700,267,54,0.068109377286597,1
701,266,54,0.072488748086027,1
701,267,54,0.0686250311108964,1
702,267,54,0.0704690734928262,1
703,269,54,0.0688535230951866,1
703,271,54,0.0690791459767825,1
703,272,54,0.0693040560750368,1
704,270,54,0.072655311776465,1
704,271,54,0.0752000381524771,1
704,272,54,0.0776511862583614,1
704,273,54,0.0763306802459201,1
704,274,54,0.0714388601523396,1
705,271,54,0.079810883844635,1
705,272,54,0.0824730817071571,1
705,273,54,0.0860065404041057,1
705,274,54,0.0893707280318737,1
705,275,54,0.082013713807737,1
706,272,54,0.0844445266241709,1
706,273,54,0.0916148035923705,1
706,274,54,0.101066735975562,1
706,275,54,0.0972049656776253,1
706,276,54,0.0764912661399306,1
707,274,54,0.0930230298740317,1
707,275,54,0.092477055803724,1
661,261,55,0.0680116960199232,1
662,260,55,0.0786102392393195,1
662,261,55,0.0714943614165657,1
663,259,55,0.0707165650465233,1
663,260,55,0.0733679154247465,1
663,261,55,0.0688535829929463,1
673,257,55,0.0755369151331163,1
674,257,55,0.0907482267627599,1
675,257,55,0.0976692931115564,1
675,258,55,0.0714189261778799,1
676,256,55,0.0925759589846975,1
676,257,55,0.0929328418171083,1
676,258,55,0.0720522251921927,1
677,256,55,0.0817131348695336,1
677,257,55,0.0850313869053147,1
677,258,55,0.072309611855808,1
678,256,55,0.0737326328841385,1
678,257,55,0.0765090857234696,1
678,258,55,0.0695321347647844,1
679,257,55,0.0740649995634651,1
679,258,55,0.0691383968407717,1
680,257,55,0.0736585752939279,1
680,258,55,0.0696769855172967,1
681,257,55,0.0746642706604384,1
681,258,55,0.0719160895637306,1
681,259,55,0.0682576961194014,1
682,257,55,0.0754748131357608,1
682,258,55,0.071359860996946,1
682,259,55,0.0679949845449404,1
683,257,55,0.073434695437142,1
684,257,55,0.0702453373906638,1
693,260,55,0.0704408496684108,1
694,261,55,0.0687082650379076,1
698,264,55,0.0721426169014994,1
698,265,55,0.0706665384375425,1
699,264,55,0.0712243602847377,1
699,265,55,0.0725578880701584,1
699,266,55,0.0698702216801715,1
700,265,55,0.0742274123391494,1
700,266,55,0.07263806721142,1
701,266,55,0.0731836100178572,1
703,268,55,0.0699722395446544,1
703,269,55,0.0686959440687178,1
704,269,55,0.0735308912393728,1
704,270,55,0.0731271144508185,1
704,271,55,0.0731147874918527,1
704,272,55,0.0731600222800499,1
704,273,55,0.0706833098102851,1
705,271,55,0.0789685656077414,1
705,272,55,0.0793395843114637,1
705,273,55,0.0814657092033722,1
705,274,55,0.0813811814847495,1
705,275,55,0.0739929725073116,1
706,272,55,0.0822210738623714,1
706,273,55,0.0880232620377486,1
706,274,55,0.0944241103529492,1
706,275,55,0.0899128147375707,1
706,276,55,0.0727601927538661,1
707,274,55,0.0906798894086098,1
707,275,55,0.0890660580766762,1
707,276,55,0.0768903409543409,1
661,261,56,0.0817556323301081,1
662,260,56,0.0923203393049962,1
662,261,56,0.0866386654223266,1
663,259,56,0.0730476361133465,1
663,260,56,0.0798288951010054,1
663,261,56,0.0766031371858997,1
664,260,56,0.068582485732114,1
673,257,56,0.0975879878924106,1
673,258,56,0.0736651760270573,1
674,257,56,0.131888038724045,1
674,258,56,0.0942509099907259,1
675,257,56,0.135960355637438,1
675,258,56,0.0962847324347903,1
676,257,56,0.110629688856535,1
676,258,56,0.0830923047479181,1
677,257,56,0.0879013940556696,1
677,258,56,0.0745806174491087,1
678,256,56,0.0755903858632853,1
678,257,56,0.0803427759516149,1
678,258,56,0.073999585219993,1
679,257,56,0.0806144182820613,1
679,258,56,0.0756023055174845,1
680,257,56,0.0769350726013559,1
680,258,56,0.0724175655882866,1
681,257,56,0.0755171668417119,1
681,258,56,0.0718305256138634,1
682,257,56,0.0768790622061715,1
682,258,56,0.0728836659959076,1
682,259,56,0.0681332165949954,1
683,257,56,0.0733294430936302,1
683,258,56,0.0692706211455193,1
692,260,56,0.0698169366330578,1
693,259,56,0.0707832252633992,1
693,260,56,0.0758605606986168,1
693,261,56,0.0695449768444844,1
694,260,56,0.0761034041861538,1
694,261,56,0.0703295177022798,1
695,261,56,0.0772162806040416,1
697,263,56,0.0700478424970676,1
698,263,56,0.0724668674343739,1
698,264,56,0.0696935232887761,1
699,264,56,0.0718518791652303,1
699,265,56,0.0722344281877133,1
699,266,56,0.0683937958092077,1
700,265,56,0.0752557430690865,1
700,266,56,0.0713279834091831,1
701,266,56,0.0717588220056128,1
703,268,56,0.0696806692295241,1
703,269,56,0.0686125244586512,1
704,269,56,0.0731257667512231,1
704,270,56,0.0719152749541974,1
704,271,56,0.0695735301065787,1
705,270,56,0.0767219503822292,1
705,271,56,0.0762598152063066,1
705,272,56,0.0743834460034154,1
705,273,56,0.0735780307763315,1
705,274,56,0.0703565016430674,1
706,271,56,0.0798570949663168,1
706,272,56,0.078103683884733,1
706,273,56,0.0799127639442704,1
706,274,56,0.0819477304355468,1
706,275,56,0.0773025812963543,1
707,273,56,0.0805581682958378,1
707,274,56,0.0839896031385276,1
707,275,56,0.0814168985189153,1
707,276,56,0.0706845616734648,1
708,275,56,0.0777598108457497,1
657,290,57,0.0747996276180233,1
661,262,57,0.0769141802627394,1
662,261,57,0.105461746080075,1
662,262,57,0.0818534513616294,1
663,260,57,0.0853037360293267,1
663,261,57,0.0872297844341919,1
663,262,57,0.07278418779644,1
664,260,57,0.0708514248527018,1
664,261,57,0.0732629625700337,1
673,257,57,0.129893455302423,1
673,258,57,0.0956134702203193,1
674,257,57,0.181204284232792,1
674,258,57,0.129496860255268,1
675,256,57,0.163808884649086,1
675,257,57,0.173110695276904,1
675,258,57,0.124399465060295,1
676,257,57,0.124995735279503,1
676,258,57,0.0956466955076776,1
677,257,57,0.0919266313298635,1
677,258,57,0.081001717196896,1
678,256,57,0.0796890997194197,1
678,257,57,0.0873048902351989,1
678,258,57,0.0837940609119007,1
679,256,57,0.0796525560961688,1
679,257,57,0.0870123855150158,1
679,258,57,0.0841882360895599,1
680,257,57,0.0777203621811487,1
680,258,57,0.0747853479920881,1
681,257,57,0.0736520943563181,1
681,258,57,0.0708199845185854,1
682,257,57,0.0736160119458175,1
682,258,57,0.0707560436600042,1
692,260,57,0.0716362891584001,1
693,259,57,0.0677442824713183,1
693,260,57,0.0765243356931134,1
693,261,57,0.0711736867799511,1
694,260,57,0.0742608532584429,1
694,261,57,0.0699529165273445,1
695,261,57,0.0726948742468096,1
696,262,57,0.0690735455362416,1
699,264,57,0.0718249072039946,1
699,265,57,0.0703732430669301,1
700,265,57,0.0746652050654912,1
700,266,57,0.0699258367501411,1
701,266,57,0.0700483995462337,1
703,267,57,0.0717553299662167,1
703,268,57,0.0685901945737996,1
703,269,57,0.0679195672755825,1
704,268,57,0.0721730509532513,1
704,269,57,0.0717769650370547,1
704,270,57,0.0697688926399262,1
705,270,57,0.0739194120685073,1
705,271,57,0.0726089269512797,1
705,272,57,0.0692298307710988,1
706,271,57,0.0757691986456014,1
706,272,57,0.0740865447876634,1
706,273,57,0.0718469615591511,1
706,274,57,0.0684982694818422,1
707,272,57,0.0773177893375662,1
707,273,57,0.0762595157175076,1
707,274,57,0.0742279693883155,1
707,275,57,0.0698877058362556,1
656,289,58,0.0726137547107192,1
657,289,58,0.079107186993235,1
657,290,58,0.0893709676229128,1
661,262,58,0.0968813500610047,1
662,261,58,0.121971449469244,1
662,262,58,0.102202109992029,1
663,260,58,0.0885840967422615,1
663,261,58,0.0995091366605245,1
663,262,58,0.0890504786693535,1
664,260,58,0.0733040164945972,1
664,261,58,0.0843966024265589,1
664,262,58,0.0841009830228665,1
664,263,58,0.0683836910571303,1
665,261,58,0.0828282993818455,1
665,262,58,0.0871901680558634,1
665,263,58,0.0709317118099311,1
666,261,58,0.0787939696277148,1
666,262,58,0.0808810890984448,1
673,258,58,0.110214884890402,1
674,258,58,0.151270258979704,1
674,259,58,0.0773682412206416,1
675,257,58,0.187470895678516,1
675,258,58,0.139770164628753,1
675,259,58,0.0752994804132888,1
676,257,58,0.128492135232466,1
676,258,58,0.102752330813506,1
677,257,58,0.096664430323907,1
677,258,58,0.0878387350091481,1
678,257,58,0.0945274279988197,1
678,258,58,0.0921134704119921,1
678,259,58,0.0687121943309502,1
679,257,58,0.0889148881105055,1
679,258,58,0.087783796783864,1
679,259,58,0.0686484211860964,1
680,257,58,0.075385331872403,1
680,258,58,0.0743189540854441,1
681,257,58,0.0716432133394324,1
681,258,58,0.0700239193318055,1
682,257,58,0.0709629844303201,1
682,258,58,0.0690428299650187,1
691,260,58,0.067955362176836,1
691,261,58,0.0693193719322164,1
692,260,58,0.087681521359014,1
692,261,58,0.0893836899070933,1
693,260,58,0.0864368099718174,1
693,261,58,0.0855288976981722,1
694,260,58,0.0720336209480004,1
694,261,58,0.0694040434054627,1
699,264,58,0.0727077762242695,1
699,265,58,0.0695619099411785,1
700,265,58,0.0747969681574884,1
700,266,58,0.06887295991824,1
701,265,58,0.0740100074301973,1
701,266,58,0.0688627174013151,1
702,266,58,0.0710641816954938,1
704,268,58,0.0707355166977225,1
704,269,58,0.070365378491069,1
704,270,58,0.0683824691428305,1
705,269,58,0.0711390898338934,1
705,270,58,0.0708095682981571,1
705,271,58,0.068769222988051,1
706,270,58,0.0704316014542984,1
706,271,58,0.0709497949436132,1
706,272,58,0.070275400076305,1
707,272,58,0.0753014929780179,1
707,273,58,0.073017681243673,1
656,289,59,0.0846913293536303,1
656,290,59,0.0898338395412809,1
657,288,59,0.0785292814271806,1
657,289,59,0.0941063167985807,1
657,290,59,0.088195282414104,1
658,289,59,0.0708059864121213,1
661,262,59,0.107895272265028,1
662,261,59,0.125320153526104,1
662,262,59,0.111297105634827,1
662,263,59,0.0720184368658924,1
663,260,59,0.0881040281770562,1
663,261,59,0.104426868524992,1
663,262,59,0.0991311817962179,1
663,263,59,0.0745736273805406,1
664,260,59,0.0759149358849587,1
664,261,59,0.0975070121109437,1
664,262,59,0.107150982701814,1
664,263,59,0.0903375317829493,1
665,260,59,0.0771994852721951,1
665,261,59,0.113799238713848,1
665,262,59,0.133371370806714,1
665,263,59,0.111034022694255,1
666,260,59,0.0775053771416923,1
666,261,59,0.116918414555175,1
666,262,59,0.131400842325425,1
666,263,59,0.102948639731459,1
667,261,59,0.0871435735885189,1
667,262,59,0.0919376105892339,1
667,263,59,0.0704370820993197,1
672,258,59,0.0703817126101652,1
673,258,59,0.10853383030265,1
674,258,59,0.142557866267374,1
674,259,59,0.0793353854785021,1
675,258,59,0.12986677684021,1
675,259,59,0.0767049274388954,1
676,258,59,0.100112259183453,1
676,259,59,0.0685342979843589,1
677,258,59,0.0887743919251303,1
678,257,59,0.0964315598133758,1
678,258,59,0.091367437823969,1
678,259,59,0.0699564924236042,1
679,258,59,0.0821165163328732,1
680,258,59,0.0702527048151186,1
691,260,59,0.0762342328730981,1
691,261,59,0.0850183172141274,1
692,260,59,0.109583598440818,1
692,261,59,0.124630538638032,1
692,262,59,0.0840834209996946,1
693,260,59,0.100266292262542,1
693,261,59,0.110228110315765,1
693,262,59,0.0744952631414008,1
694,260,59,0.0728720997384912,1
694,261,59,0.0737862054404991,1
700,265,59,0.0725366902529669,1
701,265,59,0.0719583114946101,1
701,266,59,0.0678226646797861,1
702,266,59,0.0701746101158979,1
704,268,59,0.0692083334651084,1
704,269,59,0.0679098159202879,1
705,269,59,0.0682946290780911,1
707,272,59,0.0710342807338041,1
707,273,59,0.0688193993414313,1
655,289,60,0.0815884876314001,1
656,288,60,0.0773070017510272,1
656,289,60,0.0931336310874932,1
656,290,60,0.0875939927626256,1
657,287,60,0.0700233862417433,1
657,288,60,0.100388363897004,1
657,289,60,0.110273440940378,1
657,290,60,0.0835993273050311,1
658,288,60,0.0763987480601512,1
658,289,60,0.0819720489260236,1
661,262,60,0.0975130198562511,1
662,261,60,0.113143933262587,1
662,262,60,0.103184457211772,1
662,263,60,0.0695129135736662,1
663,261,60,0.100448016075984,1
663,262,60,0.0975861789800648,1
663,263,60,0.0753958738781269,1
664,260,60,0.0772894636869592,1
664,261,60,0.10909152636455,1
664,262,60,0.124470875169523,1
664,263,60,0.107308334116796,1
665,260,60,0.0876370712314701,1
665,261,60,0.147178175805579,1
665,262,60,0.177814334578536,1
665,263,60,0.149549611972728,1
665,264,60,0.0819496232047563,1
666,260,60,0.0911895055387219,1
666,261,60,0.157864762742098,1
666,262,60,0.183334248571103,1
666,263,60,0.143524412458082,1
666,264,60,0.0748390762826243,1
667,260,60,0.0715913897976577,1
667,261,60,0.115725454832441,1
667,262,60,0.128490961236374,1
667,263,60,0.097026488322764,1
668,262,60,0.0682400861780217,1
672,258,60,0.0690845727138199,1
673,258,60,0.0946113447602925,1
674,258,60,0.116279389315026,1
674,259,60,0.0745685899789419,1
675,258,60,0.109204421662212,1
675,259,60,0.0735867878288135,1
676,258,60,0.0914350504152256,1
676,259,60,0.0687475459887812,1
677,258,60,0.0854215788819475,1
678,258,60,0.0874506274745561,1
678,259,60,0.069139469010672,1
679,258,60,0.0776644056939481,1
691,260,60,0.0783102413093861,1
691,261,60,0.094098338416976,1
692,260,60,0.121182524095431,1
692,261,60,0.150883978326786,1
692,262,60,0.098166492436063,1
693,260,60,0.108029503144728,1
693,261,60,0.13165880999731,1
693,262,60,0.0852158660157074,1
694,260,60,0.0727932024092892,1
694,261,60,0.0795801636636805,1
655,289,61,0.0799392028154439,1
656,288,61,0.0851396640856962,1
656,289,61,0.091759899925698,1
656,290,61,0.0790025096682172,1
657,287,61,0.0742980916957075,1
657,288,61,0.110073789727429,1
657,289,61,0.113029588439138,1
657,290,61,0.0781300568683707,1
658,288,61,0.0829881425436346,1
658,289,61,0.0873587503008065,1
662,262,61,0.0836901382986564,1
663,261,61,0.0898295149230237,1
663,262,61,0.0868066966078797,1
663,263,61,0.0693599945929094,1
664,260,61,0.0780730761294777,1
664,261,61,0.112778053786655,1
664,262,61,0.12862302381717,1
664,263,61,0.11059364238469,1
665,260,61,0.0951138749854209,1
665,261,61,0.163924643059666,1
665,262,61,0.198132169821745,1
665,263,61,0.16553196350511,1
665,264,61,0.0899385408254026,1
666,260,61,0.0989724287736571,1
666,261,61,0.177146630290997,1
666,262,61,0.209433044223618,1
666,263,61,0.164536894001187,1
666,264,61,0.0851327998024237,1
667,260,61,0.0776941988396702,1
667,261,61,0.131594719394329,1
667,262,61,0.150937095660172,1
667,263,61,0.114615381629712,1
668,261,61,0.070786489691308,1
668,262,61,0.076287745531699,1
673,258,61,0.075706485691096,1
674,258,61,0.0857080339283912,1
675,257,61,0.0983442390382547,1
675,258,61,0.0856722629862416,1
676,257,61,0.087362110565131,1
676,258,61,0.0791982555472274,1
677,257,61,0.086886959606005,1
677,258,61,0.0779667276569616,1
678,257,61,0.0924579663876773,1
678,258,61,0.0810352060343974,1
679,257,61,0.0823486740600628,1
679,258,61,0.0743227575931911,1
691,260,61,0.0748031855449551,1
691,261,61,0.0921017723795042,1
692,260,61,0.111908781557854,1
692,261,61,0.14725174223416,1
692,262,61,0.101615567169012,1
693,260,61,0.101803801868944,1
693,261,61,0.133531285845814,1
693,262,61,0.0931730857418702,1
694,260,61,0.0695526437577382,1
694,261,61,0.0820655313597357,1
655,289,62,0.0697152002880459,1
656,288,62,0.0779526816322897,1
656,289,62,0.0797208335525591,1
656,290,62,0.0685793950077086,1
657,288,62,0.0964423953181228,1
657,289,62,0.0989323332132503,1
657,290,62,0.0707366787142625,1
658,288,62,0.0759962650632084,1
658,289,62,0.0820372895659923,1
663,261,62,0.0747279120302207,1
663,262,62,0.0718754010155018,1
664,261,62,0.10594945759943,1
664,262,62,0.119735885380414,1
664,263,62,0.101697579181724,1
665,260,62,0.0905887789261856,1
665,261,62,0.159602193101369,1
665,262,62,0.193672050852336,1
665,263,62,0.160334563010383,1
665,264,62,0.0892463563234352,1
666,260,62,0.093550393710371,1
666,261,62,0.174280857912259,1
666,262,62,0.211720946974957,1
666,263,62,0.16783565530593,1
666,264,62,0.0886020660702,1
667,260,62,0.0736304113672723,1
667,261,62,0.128643748442059,1
667,262,62,0.152069570625065,1
667,263,62,0.118052279148095,1
668,261,62,0.0691996542797141,1
668,262,62,0.0758930971617375,1
674,257,62,0.0697132056926448,1
674,258,62,0.0691140783502949,1
675,257,62,0.0739938110759487,1
675,258,62,0.073067935464141,1
675,259,62,0.0679548111174459,1
676,257,62,0.0735832239121057,1
676,258,62,0.0698602546929416,1
677,257,62,0.0774316370096087,1
677,258,62,0.0698947917412394,1
678,257,62,0.0843192564493356,1
678,258,62,0.0746457502731098,1
679,257,62,0.07660598232949,1
679,258,62,0.0704129073634664,1
691,260,62,0.0686957464061105,1
691,261,62,0.0808913675540256,1
692,260,62,0.0894214494548681,1
692,261,62,0.116476129496848,1
692,262,62,0.088434915381716,1
693,260,62,0.0844551345174306,1
693,261,62,0.111975304009882,1
693,262,62,0.0881274482011361,1
694,261,62,0.0738293557866555,1
657,288,63,0.0717418529702628,1
657,289,63,0.076809676641225,1
658,289,63,0.0695935659072302,1
664,261,63,0.0927490695002811,1
664,262,63,0.102914725619863,1
664,263,63,0.0862571406515362,1
665,261,63,0.135310788391565,1
665,262,63,0.163372337796148,1
665,263,63,0.132845360659746,1
665,264,63,0.0793456759136349,1
666,260,63,0.0815348431977277,1
666,261,63,0.147997277670776,1
666,262,63,0.182906902014069,1
666,263,63,0.144966510922908,1
666,264,63,0.0827662692618018,1
667,261,63,0.107011420921492,1
667,262,63,0.128244577791233,1
667,263,63,0.102158420566035,1
668,262,63,0.0694232166783731,1
674,258,63,0.0693280151789549,1
674,259,63,0.0802151278357157,1
674,260,63,0.0687524156766525,1
675,258,63,0.0710318848234123,1
675,259,63,0.0783953859749348,1
677,257,63,0.0690157022696076,1
678,257,63,0.0726318558137293,1
679,257,63,0.0679249401046361,1
691,261,63,0.0713338294305391,1
692,260,63,0.0683094298145364,1
692,261,63,0.0834812568409231,1
692,262,63,0.0729784781598871,1
693,261,63,0.084981324357678,1
693,262,63,0.0784748822817347,1
664,262,64,0.0865954132499787,1
664,263,64,0.0729894334601537,1
665,261,64,0.107281619715927,1
665,262,64,0.130545526274655,1
665,263,64,0.106201711025031,1
665,264,64,0.0699775404963962,1
666,260,64,0.0682776480631892,1
666,261,64,0.116901295775425,1
666,262,64,0.147719579676815,1
666,263,64,0.118476103716852,1
666,264,64,0.0752962758831398,1
667,261,64,0.0847395111116095,1
667,262,64,0.103178623169968,1
667,263,64,0.0854283772776842,1
673,259,64,0.0742773670708184,1
674,258,64,0.0761352877636927,1
674,259,64,0.104605531562909,1
674,260,64,0.0852348955339943,1
675,258,64,0.0710815999640422,1
675,259,64,0.0929749199933643,1
675,260,64,0.0751253097073568,1
693,262,64,0.0679502049797177,1
665,262,65,0.094126700006239,1
665,263,65,0.0813111729831011,1
666,261,65,0.083766801441418,1
666,262,65,0.105117298022598,1
666,263,65,0.089711660090851,1
667,262,65,0.0791000771291473,1
667,263,65,0.0709046320327277,1
673,259,65,0.08138687177193,1
674,258,65,0.0820135760428895,1
674,259,65,0.12152178500691,1
674,260,65,0.0984553913111064,1
675,258,65,0.0703541656304354,1
675,259,65,0.101148268806195,1
675,260,65,0.0828503058187942,1
666,262,66,0.0705334575948299,1
673,259,66,0.0753338138092033,1
674,258,66,0.0745351490596483,1
674,259,66,0.111598031980037,1
674,260,66,0.0955883251407573,1
675,259,66,0.0931481503044675,1
675,260,66,0.0836428010990903,1
674,259,67,0.0818209688064926,1
674,260,67,0.0777596311524703,1
675,259,67,0.0728185810901143,1
675,260,67,0.0739867790789488,1
