x,y,z,signal,cytoplasm.p
420,533,1,0.180932132771387,1
420,535,1,0.0833082361719792,1
421,533,1,0.157395895057975,1
421,534,1,0.123386354351122,1
421,535,1,0.0752552519074561,1
422,533,1,0.10255887302892,1
422,534,1,0.083437172089714,1
423,533,1,0.0771969036787479,1
424,532,1,0.0783587644845961,1
424,533,1,0.0692675364108898,1
425,530,1,0.132278548158805,1
425,531,1,0.124942653884772,1
425,532,1,0.0909416006904822,1
425,533,1,0.0683163060773609,1
426,529,1,0.123854658996303,1
426,530,1,0.169901816550508,1
426,531,1,0.15806308422478,1
426,532,1,0.103113921609837,1
426,533,1,0.0680648433021894,1
427,529,1,0.117815766853768,1
427,530,1,0.154358575495184,1
427,531,1,0.143987589855025,1
427,532,1,0.0973820534044593,1
428,529,1,0.10539530748491,1
428,530,1,0.117238687876799,1
428,531,1,0.108946609724502,1
428,532,1,0.0839210441626662,1
429,528,1,0.10064153375833,1
429,529,1,0.108046214619711,1
429,530,1,0.105639678365322,1
429,531,1,0.0954499852747347,1
429,532,1,0.0801412679081124,1
429,557,1,0.0688806867292536,1
430,528,1,0.103258862208989,1
430,529,1,0.111860947206881,1
430,530,1,0.107499539745614,1
430,531,1,0.0955741353614619,1
430,532,1,0.0821533115267153,1
430,533,1,0.0716322879880457,1
430,558,1,0.068268932939139,1
431,529,1,0.105420452564472,1
431,530,1,0.106922951930275,1
431,531,1,0.0980789638396745,1
431,532,1,0.0855311857925964,1
431,533,1,0.0759757979986865,1
432,531,1,0.105517570792204,1
432,532,1,0.089494255181899,1
432,533,1,0.0783408071362095,1
432,534,1,0.0715017348307965,1
432,561,1,0.0953792699795207,1
432,562,1,0.136911484144775,1
433,531,1,0.119565356458277,1
433,532,1,0.0971494704031752,1
433,533,1,0.0840133585900623,1
433,534,1,0.080108653577904,1
433,535,1,0.0738163699523319,1
433,561,1,0.0890253515591195,1
433,562,1,0.134241277951769,1
434,530,1,0.138082353573697,1
434,531,1,0.123732707157361,1
434,532,1,0.102517256065415,1
434,533,1,0.0926559704122317,1
434,534,1,0.0890977499813838,1
434,535,1,0.0799008383002952,1
434,562,1,0.0918056378550775,1
434,563,1,0.0976956660951941,1
435,529,1,0.116129932424785,1
435,530,1,0.124471546024432,1
435,531,1,0.115131125300651,1
435,532,1,0.103338813738764,1
435,533,1,0.10017969208143,1
435,534,1,0.0964168429337942,1
435,535,1,0.0848656498039618,1
436,529,1,0.10220119954608,1
436,530,1,0.111797407663291,1
436,531,1,0.107001969054996,1
436,532,1,0.100679221428793,1
436,533,1,0.100648362102946,1
436,534,1,0.0984501203082444,1
436,535,1,0.0888293061913104,1
436,536,1,0.070965643890855,1
437,529,1,0.0950899218712788,1
437,530,1,0.106378840680297,1
437,531,1,0.104053729440573,1
437,532,1,0.0985427881324233,1
437,533,1,0.0969983603347643,1
437,534,1,0.0957945291686277,1
437,535,1,0.0902369095362696,1
437,536,1,0.0747743088349579,1
438,529,1,0.0871077966565933,1
438,530,1,0.0988047449951109,1
438,531,1,0.101835439865668,1
438,532,1,0.0997766939637529,1
438,533,1,0.0947399452505725,1
438,534,1,0.0910195456453035,1
438,535,1,0.0871921866103685,1
438,536,1,0.0732088569236108,1
439,530,1,0.0913591599535653,1
439,531,1,0.0991091154615094,1
439,532,1,0.100864389363423,1
439,533,1,0.0955260194910185,1
439,534,1,0.0897471255544256,1
439,536,1,0.0716927847254387,1
440,533,1,0.0943546049924831,1
440,534,1,0.0899702566892141,1
441,533,1,0.0936410310004929,1
441,534,1,0.0895645691621223,1
441,536,1,0.0703562620520282,1
442,533,1,0.0953903989832906,1
442,534,1,0.0905648198222675,1
442,535,1,0.0823029840488911,1
442,536,1,0.0715874365455112,1
443,534,1,0.0942794991914761,1
443,535,1,0.0853877186783353,1
443,536,1,0.0753130352763304,1
444,535,1,0.084957065764961,1
444,536,1,0.0765251023844388,1
444,537,1,0.0687435508082029,1
445,536,1,0.0782849404956487,1
445,537,1,0.0713076960379405,1
446,536,1,0.0809530622466145,1
446,537,1,0.0744188156305744,1
447,535,1,0.0894300986913825,1
447,536,1,0.0814827620955859,1
447,537,1,0.0765577885919589,1
447,538,1,0.0689253165500769,1
448,536,1,0.0837420876257266,1
448,537,1,0.0807579033656503,1
448,538,1,0.0763842947307126,1
448,539,1,0.0690077478471068,1
449,536,1,0.0897153318235264,1
449,537,1,0.0869430957864849,1
449,538,1,0.0841035646163136,1
449,539,1,0.0790486129739314,1
449,540,1,0.0688173628175983,1
449,565,1,0.0687416700185453,1
450,538,1,0.0925724849146294,1
450,539,1,0.089258701251729,1
450,540,1,0.0807412817373072,1
450,541,1,0.0684440140910199,1
451,540,1,0.0904349974176878,1
451,541,1,0.0797749871171898,1
452,541,1,0.0930882046264646,1
452,542,1,0.0780968375707884,1
453,542,1,0.0924954264466531,1
453,543,1,0.0740072521332467,1
454,543,1,0.0887797647541839,1
454,544,1,0.06850299541509,1
454,561,1,0.0683192350778149,1
454,562,1,0.0704288521471239,1
454,563,1,0.0692224513670921,1
455,543,1,0.101085400117515,1
455,544,1,0.0797697340836558,1
455,561,1,0.0799399814863212,1
455,562,1,0.0783151768847932,1
455,563,1,0.0737451035977278,1
455,566,1,0.0694393651144138,1
456,544,1,0.0898476459749137,1
456,545,1,0.0748133202459124,1
456,557,1,0.0690593737262741,1
456,558,1,0.0733600268897815,1
456,561,1,0.0913346917186891,1
456,562,1,0.0836890002412203,1
456,563,1,0.0741694912054276,1
456,566,1,0.0760058546945516,1
456,567,1,0.0870748289296021,1
456,568,1,0.080187269387635,1
457,544,1,0.0999045577115874,1
457,545,1,0.0860216286497981,1
457,546,1,0.075590206170006,1
457,547,1,0.0776132530070832,1
457,548,1,0.0909355749758468,1
457,549,1,0.0945833006291565,1
457,550,1,0.0825320690210032,1
457,551,1,0.0719798387494804,1
457,554,1,0.0684645230839737,1
457,555,1,0.0728327648796338,1
457,560,1,0.102571583333549,1
457,561,1,0.105207216539602,1
457,562,1,0.0890124615612116,1
457,563,1,0.0725972768369996,1
457,567,1,0.0872985830010924,1
457,568,1,0.0813065488760449,1
458,547,1,0.0915256517666916,1
458,548,1,0.107532651227228,1
458,549,1,0.111252996924514,1
458,550,1,0.0957072461530544,1
458,551,1,0.0837871786593003,1
458,552,1,0.0805137900456057,1
458,553,1,0.0806137833658075,1
458,559,1,0.108954336535515,1
458,560,1,0.119856136122978,1
458,561,1,0.119565428335589,1
458,562,1,0.0956709481106186,1
459,548,1,0.109063158785511,1
459,549,1,0.107767713995768,1
459,550,1,0.0939899654001788,1
459,551,1,0.0888389257715335,1
459,552,1,0.09098784775082,1
459,559,1,0.120875008996644,1
459,560,1,0.12349555994678,1
459,561,1,0.116010735882793,1
459,562,1,0.0919503748018462,1
460,555,1,0.118040527207623,1
460,556,1,0.121975822005709,1
460,557,1,0.12816383561103,1
460,558,1,0.133927186078956,1
460,559,1,0.129355405705736,1
460,560,1,0.118558499075227,1
460,561,1,0.101330837178051,1
461,555,1,0.108252155097438,1
461,556,1,0.124147019961863,1
461,557,1,0.14119429376564,1
461,558,1,0.144969984992976,1
461,559,1,0.134051006728004,1
462,556,1,0.124362903467716,1
462,557,1,0.143345186381224,1
463,556,1,0.10442979153567,1
419,533,2,0.178828140101723,1
420,532,2,0.19136900594732,1
420,533,2,0.269576600465746,1
420,534,2,0.191751788571067,1
420,535,2,0.0852145782138718,1
421,532,2,0.155032796658989,1
421,533,2,0.214700477179097,1
421,534,2,0.15448604990758,1
421,535,2,0.0741143373482083,1
422,533,2,0.11299003195857,1
422,534,2,0.0879946129392387,1
423,532,2,0.0762545382136686,1
423,533,2,0.0764287867866884,1
424,530,2,0.0850240673990677,1
424,531,2,0.0851933923762323,1
424,532,2,0.0769740900020864,1
424,533,2,0.071145055650769,1
425,529,2,0.105267880990722,1
425,530,2,0.152882922305322,1
425,531,2,0.145082197456176,1
425,532,2,0.0955199638275033,1
425,533,2,0.0690835784110073,1
426,528,2,0.0822424154341864,1
426,529,2,0.145229258436024,1
426,530,2,0.230778090108656,1
426,531,2,0.214644029530266,1
426,532,2,0.121537897504295,1
426,533,2,0.0688930136882194,1
427,528,2,0.0843119489226406,1
427,529,2,0.136607491034264,1
427,530,2,0.206197127648451,1
427,531,2,0.191576947010225,1
427,532,2,0.112144287569816,1
427,533,2,0.0677951955671441,1
427,556,2,0.0719841573779617,1
428,528,2,0.0894491881074292,1
428,529,2,0.115348733861986,1
428,530,2,0.14051288487066,1
428,531,2,0.127763982125742,1
428,532,2,0.0885273016864238,1
428,557,2,0.0728665591957101,1
429,528,2,0.0989563462251521,1
429,529,2,0.119287311057309,1
429,530,2,0.122100601018914,1
429,531,2,0.104838234359713,1
429,532,2,0.0809833824926228,1
429,533,2,0.069426738666649,1
429,557,2,0.0696287977695416,1
429,558,2,0.0732600275798037,1
430,528,2,0.102706640802335,1
430,529,2,0.122715283809482,1
430,530,2,0.121856325974917,1
430,531,2,0.101535459905063,1
430,532,2,0.0802624530557297,1
430,533,2,0.0710968139950301,1
431,529,2,0.107809031470475,1
431,530,2,0.110916647044161,1
431,531,2,0.0982850420822493,1
431,532,2,0.0816076908531904,1
431,533,2,0.0734376663660278,1
431,560,2,0.0677944767940266,1
431,562,2,0.108198307011383,1
432,530,2,0.108377089844819,1
432,531,2,0.10403585594905,1
432,532,2,0.0855463638849285,1
432,533,2,0.0737470203260412,1
432,561,2,0.100091576486995,1
432,562,2,0.158315768914251,1
432,563,2,0.163226366955527,1
433,530,2,0.129119049145585,1
433,531,2,0.122577411145986,1
433,532,2,0.0944461766876577,1
433,533,2,0.0781906075137475,1
433,534,2,0.0746368614455562,1
433,535,2,0.072925031388822,1
433,561,2,0.0949725342416325,1
433,562,2,0.161699800669839,1
433,563,2,0.173631398482354,1
434,529,2,0.123202516146759,1
434,530,2,0.139877896739521,1
434,531,2,0.126812757781989,1
434,532,2,0.097914280938894,1
434,533,2,0.0853081744533275,1
434,534,2,0.0837673525008081,1
434,535,2,0.0803002185932805,1
434,562,2,0.0984943428243011,1
434,563,2,0.107578724584063,1
435,529,2,0.117694893174502,1
435,530,2,0.13390715626808,1
435,531,2,0.124086187797015,1
435,532,2,0.103229081042819,1
435,533,2,0.0955765013229738,1
435,534,2,0.0926622357179063,1
435,535,2,0.086852170987116,1
435,536,2,0.0716539110793318,1
436,528,2,0.0769982527583877,1
436,529,2,0.110390888467784,1
436,530,2,0.130727256077874,1
436,531,2,0.126470298330137,1
436,532,2,0.110975239032792,1
436,533,2,0.102245883274887,1
436,534,2,0.0972936802496577,1
436,535,2,0.0922387345970515,1
436,536,2,0.0772016176324438,1
437,528,2,0.0722431493015394,1
437,529,2,0.104333739488063,1
437,530,2,0.126126569045777,1
437,531,2,0.125875765145963,1
437,532,2,0.113164717785236,1
437,533,2,0.101669451193724,1
437,534,2,0.0954630968943539,1
437,535,2,0.0925028897075236,1
437,536,2,0.0784854482465626,1
438,529,2,0.0909022838009527,1
438,530,2,0.108081590236646,1
438,531,2,0.11237724193721,1
438,532,2,0.107158134494334,1
438,533,2,0.0966380094220614,1
438,534,2,0.0904867970003585,1
438,536,2,0.0739513136153742,1
439,530,2,0.0917676686651434,1
439,531,2,0.098318141584312,1
439,532,2,0.0990306314268499,1
439,533,2,0.093479408875238,1
440,533,2,0.0914819743202491,1
441,533,2,0.0916629074832619,1
442,534,2,0.0876576521017357,1
442,536,2,0.072882096674601,1
443,535,2,0.0838444708665442,1
443,536,2,0.0776545644920138,1
443,537,2,0.0704465758942472,1
444,536,2,0.0788968859585946,1
444,537,2,0.0736568741975497,1
445,536,2,0.0800587827030987,1
445,537,2,0.0748350092247342,1
446,536,2,0.0820999785613938,1
446,537,2,0.0771476377713165,1
446,538,2,0.0683406185780617,1
447,536,2,0.0822678779718753,1
447,537,2,0.0789007134254456,1
447,538,2,0.0735140419995425,1
448,537,2,0.0830819663945775,1
448,538,2,0.0801044547449424,1
448,539,2,0.0739097325905244,1
448,565,2,0.069102955336301,1
449,537,2,0.0885283918256521,1
449,538,2,0.0863022316851099,1
449,539,2,0.0828449689283965,1
449,540,2,0.0736577067764109,1
449,565,2,0.0715069219767947,1
449,566,2,0.068725683306456,1
450,539,2,0.0909619779083645,1
450,540,2,0.0847157376907468,1
450,541,2,0.0720934707895876,1
451,541,2,0.0817985730341052,1
452,542,2,0.0778701185601882,1
453,543,2,0.0720019110739649,1
454,543,2,0.0839371087418432,1
454,561,2,0.0682222007069469,1
454,562,2,0.0732189856347921,1
454,563,2,0.0726485433296082,1
455,543,2,0.0935418822387042,1
455,544,2,0.0744504057090903,1
455,560,2,0.0690762529149844,1
455,561,2,0.0785654476945448,1
455,562,2,0.0811819974743271,1
455,563,2,0.0773585916915386,1
455,564,2,0.0687243415966366,1
455,566,2,0.0718535323434007,1
455,567,2,0.0796111248157186,1
455,568,2,0.0752495436509477,1
456,544,2,0.0825314940025092,1
456,545,2,0.0691970367476111,1
456,558,2,0.0688116725304178,1
456,560,2,0.0782627124369887,1
456,561,2,0.0866294351775422,1
456,562,2,0.0840136161504294,1
456,563,2,0.07630557709479,1
456,566,2,0.0790389574550525,1
456,567,2,0.0981245400451025,1
456,568,2,0.0919183774185637,1
456,569,2,0.0700373244504476,1
457,545,2,0.0781575259810127,1
457,546,2,0.0694452830130816,1
457,547,2,0.0723851129820296,1
457,548,2,0.0889899040648728,1
457,549,2,0.097103648616932,1
457,550,2,0.0831207142553889,1
457,551,2,0.0699443511476938,1
457,559,2,0.0813462790601169,1
457,560,2,0.090794659506153,1
457,561,2,0.0950325098685153,1
457,562,2,0.0824870498647413,1
457,563,2,0.070506240052779,1
457,566,2,0.0756260010712595,1
457,567,2,0.0966887607939357,1
457,568,2,0.0936356761407672,1
457,569,2,0.0724119232193139,1
458,548,2,0.105927714712624,1
458,549,2,0.115784478084943,1
458,550,2,0.0985315153740299,1
458,551,2,0.0834971177677169,1
458,552,2,0.0757986324047647,1
458,553,2,0.0729605447706045,1
458,558,2,0.0925849855770986,1
458,559,2,0.0997145560277416,1
458,560,2,0.114804550734696,1
458,561,2,0.113563648845023,1
458,562,2,0.0879913185624499,1
458,563,2,0.069302540661714,1
458,567,2,0.0759741268511882,1
458,568,2,0.0753944243523399,1
459,549,2,0.104023517010533,1
459,550,2,0.0921600768588886,1
459,551,2,0.0872188051748214,1
459,552,2,0.0867923990126166,1
459,555,2,0.108294383018094,1
459,556,2,0.1073352641496,1
459,557,2,0.105251121597532,1
459,558,2,0.107158733471932,1
459,559,2,0.113118057430355,1
459,560,2,0.124660703149865,1
459,561,2,0.115585881072567,1
459,562,2,0.0865270459469486,1
460,550,2,0.0861466951722501,1
460,551,2,0.0871505217286551,1
460,554,2,0.101084345916942,1
460,555,2,0.116341419435069,1
460,556,2,0.118151937040842,1
460,557,2,0.11797660431837,1
460,558,2,0.1180624018695,1
460,559,2,0.116703345658855,1
460,560,2,0.114321307588222,1
460,561,2,0.0986780492535925,1
460,562,2,0.0778056745604247,1
461,554,2,0.0912523921967307,1
461,555,2,0.104752628481414,1
461,556,2,0.116399316609687,1
461,557,2,0.126756801294788,1
461,558,2,0.126332245973361,1
461,559,2,0.118186929312114,1
461,560,2,0.106958303588106,1
461,561,2,0.0874235956155607,1
462,555,2,0.0981861568706037,1
462,556,2,0.116873467276225,1
462,557,2,0.128706413478357,1
462,558,2,0.1181244679282,1
462,559,2,0.106448501774938,1
463,555,2,0.0858341486616397,1
463,556,2,0.0979734659153475,1
463,557,2,0.103189560500906,1
464,556,2,0.0795419848315871,1
419,532,3,0.149290661977583,1
419,533,3,0.216309115375257,1
419,534,3,0.145589459604328,1
420,531,3,0.0976763251085563,1
420,532,3,0.236325341438794,1
420,533,3,0.351272856146569,2
420,534,3,0.236493222879948,1
420,535,3,0.0916330065215722,1
421,531,3,0.0855834885164494,1
421,532,3,0.179885251705241,1
421,533,3,0.268271452238916,1
421,534,3,0.183351618921444,1
421,535,3,0.0783983029958368,1
422,532,3,0.0973588190634348,1
422,533,3,0.126694627420121,1
422,534,3,0.0966073896872541,1
423,533,3,0.0780890089335832,1
423,534,3,0.0681044237418619,1
424,530,3,0.0875214445959618,1
424,531,3,0.0893602039954777,1
424,532,3,0.0804061717405819,1
424,533,3,0.0758645379098672,1
425,529,3,0.110013017460341,1
425,530,3,0.175258868534193,1
425,531,3,0.174455747391309,1
425,532,3,0.111373714869604,1
425,533,3,0.0772151425466055,1
426,528,3,0.0848832118271337,1
426,529,3,0.165463799854463,1
426,530,3,0.29207554075458,1
426,531,3,0.286139936309035,3
426,532,3,0.159824042424098,1
426,533,3,0.0827103067848253,1
427,528,3,0.087225346010191,1
427,529,3,0.1551921606387,1
427,530,3,0.259301331445739,1
427,531,3,0.252408800389709,1
427,532,3,0.145825624491648,1
427,533,3,0.0816220124075574,1
427,556,3,0.0776253403750098,1
428,528,3,0.0896985963894397,1
428,529,3,0.124307426162594,1
428,530,3,0.163188068327914,1
428,531,3,0.150241526934777,1
428,532,3,0.102793636308661,1
428,533,3,0.0775086236002732,1
428,556,3,0.0711182214543809,1
428,557,3,0.081537975850565,1
429,528,3,0.0999653060195715,1
429,529,3,0.131066217500554,1
429,530,3,0.140661143805704,1
429,531,3,0.114361343250869,1
429,532,3,0.0860974112954908,1
429,533,3,0.0759841896748338,1
429,557,3,0.0727753768359742,1
429,558,3,0.0741408840353494,1
430,528,3,0.103078725686182,1
430,529,3,0.13278105442483,1
430,530,3,0.1380065469689,1
430,531,3,0.107651943605636,1
430,532,3,0.0806195515200758,1
430,533,3,0.0726323829140155,1
431,529,3,0.111537403467572,1
431,530,3,0.115832492129195,1
431,531,3,0.0980050799529673,1
431,532,3,0.0783144880605556,1
431,533,3,0.0715844236881935,1
431,562,3,0.129771168036025,1
431,563,3,0.1191307143541,1
432,530,3,0.104778791822892,1
432,531,3,0.0992758348861229,1
432,532,3,0.0809541643653947,1
432,533,3,0.0711893919725693,1
432,534,3,0.0678739671110505,1
432,561,3,0.120564810478217,1
432,562,3,0.195021092157543,1
432,563,3,0.19046372318533,1
432,564,3,0.104491594044227,1
433,532,3,0.0907548035367854,1
433,533,3,0.0763757832590457,1
433,534,3,0.0755365557465575,1
433,535,3,0.0767635553661828,1
433,536,3,0.0729376817956908,1
433,561,3,0.113103849681732,1
433,562,3,0.194875336948858,1
433,563,3,0.201700051761248,1
433,564,3,0.11431670744027,1
434,530,3,0.143022085885337,1
434,531,3,0.129727574446446,1
434,532,3,0.0975871613033254,1
434,533,3,0.0841035107083298,1
434,534,3,0.0854081378246495,1
434,535,3,0.0856477827718134,1
434,536,3,0.0770527357606972,1
434,561,3,0.071623728598171,1
434,562,3,0.108693913055479,1
434,563,3,0.116538339310171,1
435,529,3,0.126170342328635,1
435,530,3,0.159898423462211,1
435,531,3,0.150787806483659,1
435,532,3,0.11869244244568,1
435,533,3,0.0993795179083281,1
435,534,3,0.0946051752910336,1
435,535,3,0.0919353284845857,1
435,536,3,0.0812737428730052,1
436,528,3,0.0773033180387998,1
436,529,3,0.125276056795343,1
436,530,3,0.171261783207102,1
436,531,3,0.173936984873276,1
436,532,3,0.144770621289274,1
436,533,3,0.113825018709664,1
436,534,3,0.10050517051838,1
436,535,3,0.0980979454397535,1
436,536,3,0.0884893324964898,1
436,537,3,0.0723478685549891,1
437,528,3,0.0715680296713376,1
437,529,3,0.113034284423506,1
437,530,3,0.15669122187309,1
437,531,3,0.169022888802828,1
437,532,3,0.149526551335207,1
437,533,3,0.116635205967312,1
437,534,3,0.099772009958937,1
437,535,3,0.0971429175882536,1
437,536,3,0.0871626749841175,1
437,537,3,0.0702481346160463,1
438,529,3,0.0920898706946329,1
438,530,3,0.118123821032394,1
438,531,3,0.129992334524292,1
438,532,3,0.123638032758229,1
438,533,3,0.103969369435678,1
438,534,3,0.0940666045838366,1
439,530,3,0.0938296789949673,1
439,531,3,0.100088228202223,1
439,532,3,0.0999637965960247,1
439,533,3,0.0944473806326296,1
440,533,3,0.0918214448738874,1
442,537,3,0.0689663525053125,1
443,536,3,0.0842892237125743,1
443,537,3,0.0781314704555019,1
444,536,3,0.0855080233288836,1
444,537,3,0.0819517915036609,1
444,538,3,0.0677490982512058,1
445,536,3,0.0858177905834396,1
445,537,3,0.0822295434056065,1
445,538,3,0.0718487105737372,1
446,536,3,0.0854873106835465,1
446,537,3,0.0827508156397747,1
446,538,3,0.0770334007638354,1
447,536,3,0.0853018133112373,1
447,537,3,0.0840578386664861,1
447,538,3,0.0819060116458496,1
447,539,3,0.0745466614090809,1
447,565,3,0.0704918406313243,1
448,537,3,0.0861914747374729,1
448,538,3,0.0857637029063447,1
448,539,3,0.0818502468314804,1
448,540,3,0.0698280955857076,1
448,564,3,0.0679111935687632,1
448,565,3,0.074531135909742,1
448,566,3,0.0683750298410639,1
449,537,3,0.09120643264564,1
449,538,3,0.0913546017340449,1
449,539,3,0.0905795127427453,1
449,540,3,0.0825379988992229,1
449,564,3,0.0699087778681515,1
449,565,3,0.075033480451815,1
449,566,3,0.0693579101508686,1
450,539,3,0.0949610877797357,1
450,540,3,0.0905904860123397,1
450,541,3,0.0775301029369357,1
450,564,3,0.0680766251915411,1
450,565,3,0.0699832128142488,1
451,540,3,0.0934261358076763,1
451,541,3,0.0853125949080004,1
451,542,3,0.0693401324957614,1
451,563,3,0.068365673810984,1
451,564,3,0.0678593520576606,1
452,541,3,0.0925250039604399,1
452,542,3,0.0819702939216616,1
452,563,3,0.0718205765959614,1
452,564,3,0.0687748174388159,1
453,542,3,0.0920653785006527,1
453,543,3,0.0747809455067432,1
453,562,3,0.0704465219862634,1
453,563,3,0.0727300342318093,1
453,564,3,0.0702241755121282,1
453,565,3,0.0691599181058661,1
454,542,3,0.0982521941507777,1
454,543,3,0.0828288264821317,1
454,561,3,0.0684196956005431,1
454,562,3,0.0764217727590164,1
454,563,3,0.0760651654563007,1
454,564,3,0.0727000673825839,1
454,565,3,0.070606179464997,1
454,566,3,0.068465906722225,1
455,543,3,0.0902428873326972,1
455,544,3,0.0722937030108064,1
455,561,3,0.0778177858874553,1
455,562,3,0.0842173044723884,1
455,563,3,0.0796022659370449,1
455,564,3,0.0715268559512545,1
455,566,3,0.0686587056314532,1
455,567,3,0.0734712869786008,1
455,568,3,0.072129313609049,1
456,543,3,0.0974948109372734,1
456,544,3,0.0799372741075785,1
456,558,3,0.0682351805514945,1
456,560,3,0.0745065179304663,1
456,561,3,0.0840625885588379,1
456,562,3,0.0862816448250684,1
456,563,3,0.0776602607689703,1
456,566,3,0.0732837051642507,1
456,567,3,0.0910976882627321,1
456,568,3,0.0911197246485607,1
456,569,3,0.0695069237976866,1
457,546,3,0.0683484352357149,1
457,547,3,0.0700662430888767,1
457,548,3,0.083117168308009,1
457,549,3,0.0925665730057376,1
457,550,3,0.083159851451639,1
457,551,3,0.0701278958530337,1
457,560,3,0.0865688545832855,1
457,561,3,0.0886495949425973,1
457,562,3,0.0810365776930967,1
457,563,3,0.070151759120536,1
457,566,3,0.0714091209146014,1
457,567,3,0.0934884174983111,1
457,568,3,0.0974804055260427,1
457,569,3,0.0755733748995035,1
458,548,3,0.098287461951745,1
458,549,3,0.110487719186268,1
458,550,3,0.101808258262273,1
458,551,3,0.0895181184494013,1
458,552,3,0.0772570350398061,1
458,559,3,0.0971270985898917,1
458,560,3,0.113606847109387,1
458,561,3,0.106327963523127,1
458,562,3,0.0825881393139473,1
458,567,3,0.0746650493313158,1
458,568,3,0.0788033316475708,1
459,549,3,0.0995845838787623,1
459,550,3,0.0982500018927692,1
459,551,3,0.097645741312405,1
459,552,3,0.0914432264594377,1
459,555,3,0.105001048450387,1
459,556,3,0.105072925762141,1
459,557,3,0.102655847502029,1
459,558,3,0.100865419604891,1
459,559,3,0.113195960456745,1
459,560,3,0.132238931780477,1
459,561,3,0.116993897712069,1
459,562,3,0.0839021703785548,1
460,550,3,0.0919590539872405,1
460,551,3,0.0963092306185464,1
460,554,3,0.103738894835538,1
460,555,3,0.118853220012522,1
460,556,3,0.121615249471294,1
460,557,3,0.118376505721865,1
460,558,3,0.111095921039227,1
460,559,3,0.112884012923732,1
460,560,3,0.118439230655923,1
460,561,3,0.100934541619695,1
460,562,3,0.0756064324731344,1
461,554,3,0.0948005438141571,1
461,555,3,0.108421378248411,1
461,556,3,0.117041696124385,1
461,557,3,0.120112342800725,1
461,558,3,0.113983208693283,1
461,559,3,0.107655645287192,1
461,560,3,0.10150517559771,1
461,561,3,0.0853712348148397,1
462,555,3,0.101104687196169,1
462,556,3,0.114810145185461,1
462,557,3,0.116870065083468,1
463,556,3,0.0999288342736323,1
418,532,4,0.0832773049688211,1
418,533,4,0.0955543631109536,1
419,531,4,0.0809898873893365,1
419,532,4,0.160099931505714,1
419,533,4,0.236436272089934,2
419,534,4,0.153911881961737,1
420,531,4,0.102412722495021,1
420,532,4,0.256284377121279,2
420,533,4,0.386847429480451,2
420,534,4,0.254912598626453,2
420,535,4,0.0928500092050877,1
421,531,4,0.0878317030121481,1
421,532,4,0.190759737914237,1
421,533,4,0.291087443349897,2
421,534,4,0.194857092091224,1
421,535,4,0.0797106209845141,1
422,532,4,0.0979088422223046,1
422,533,4,0.131684997297892,1
422,534,4,0.0991915467585393,1
423,533,4,0.07799701795409,1
423,534,4,0.0697813693432915,1
424,530,4,0.0913782314002841,1
424,531,4,0.0956801064780913,1
424,532,4,0.0846897480527717,1
424,533,4,0.0797930283224401,1
424,534,4,0.0708023805669817,1
425,529,4,0.112426226325171,1
425,530,4,0.190094669128129,1
425,531,4,0.20572815214836,3
425,532,4,0.134713823358344,1
425,533,4,0.0889662204906499,1
425,534,4,0.0711931475621085,1
425,558,4,0.119689812023579,1
426,528,4,0.082322301076425,1
426,529,4,0.171596575745701,1
426,530,4,0.325546672478187,3
426,531,4,0.350916296762061,3
426,532,4,0.209072867014419,3
426,533,4,0.103966733934247,1
426,534,4,0.0700301367192722,1
426,556,4,0.0861396871343541,1
427,528,4,0.0868871213299564,1
427,529,4,0.164671148839991,1
427,530,4,0.295509742873772,1
427,531,4,0.316308664944103,3
427,532,4,0.19502321253824,1
427,533,4,0.103718505638104,1
427,534,4,0.0692291599161891,1
427,556,4,0.0815001564050304,1
427,557,4,0.101924268243444,1
428,528,4,0.0873999839186494,1
428,529,4,0.128485905865447,1
428,530,4,0.180953252721491,1
428,531,4,0.17783472377597,1
428,532,4,0.125060856123952,1
428,533,4,0.0904856289940425,1
428,534,4,0.0692297049858033,1
428,556,4,0.0763265712595981,1
428,557,4,0.0946175082397754,1
429,528,4,0.0987038711778401,1
429,529,4,0.137802930524253,1
429,530,4,0.15495532489647,1
429,531,4,0.123155688078151,1
429,532,4,0.0910642054150067,1
429,533,4,0.0818900488928642,1
429,534,4,0.0704046414726147,1
429,557,4,0.0769649376243897,1
429,558,4,0.0750876220368938,1
430,528,4,0.100458030981421,1
430,529,4,0.137155519597732,1
430,530,4,0.148754373375034,1
430,531,4,0.111587693626696,1
430,532,4,0.0804913523447865,1
430,533,4,0.0746354897868569,1
430,534,4,0.069428499660787,1
430,562,4,0.0841396410370382,1
431,529,4,0.113726738465393,1
431,530,4,0.120167832085399,1
431,531,4,0.0982844970126352,1
431,532,4,0.0765578125510628,1
431,533,4,0.0716291433556565,1
431,534,4,0.0686739256522171,1
431,561,4,0.107953037664574,1
431,562,4,0.148595069293083,1
431,563,4,0.12314785345117,1
432,530,4,0.100879255987404,1
432,532,4,0.0776960317111199,1
432,533,4,0.0706818243458422,1
432,534,4,0.069015582474088,1
432,561,4,0.135798667624647,1
432,562,4,0.219101836446148,1
432,563,4,0.194680537454453,1
432,564,4,0.0965803578282586,1
433,533,4,0.0748820589150532,1
433,534,4,0.0744728314303575,1
433,535,4,0.0775833939738254,1
433,536,4,0.0777270048427099,1
433,537,4,0.068318330621642,1
433,561,4,0.119818400534307,1
433,562,4,0.203753131335087,1
433,563,4,0.196328456601485,1
433,564,4,0.10433408689507,1
434,530,4,0.136411014402584,1
434,531,4,0.125818131521488,1
434,532,4,0.0984719650212417,1
434,533,4,0.0836179974367592,1
434,534,4,0.083509342900491,1
434,535,4,0.0864460102677219,1
434,536,4,0.0814060270755125,1
434,537,4,0.0681339653169928,1
434,561,4,0.0720228573205652,1
434,562,4,0.106871284122676,1
434,563,4,0.109341180227376,1
435,529,4,0.127943435814088,1
435,530,4,0.180208579812615,1
435,531,4,0.175724777268982,1
435,532,4,0.136431211927187,1
435,533,4,0.102520598360411,1
435,534,4,0.0923154216989171,1
435,535,4,0.0923889881274973,1
435,536,4,0.084642027507543,1
435,537,4,0.0697477906591504,1
436,528,4,0.0755103145379913,1
436,529,4,0.134520533287485,1
436,530,4,0.209648628240672,1
436,531,4,0.222532037394986,1
436,532,4,0.179503032120437,1
436,533,4,0.121928155368464,1
436,534,4,0.0984566252049582,1
436,535,4,0.0987983119757089,1
436,536,4,0.0934601936738957,1
436,537,4,0.0781555373753875,1
437,528,4,0.0689295573114704,1
437,529,4,0.115803741204493,1
437,530,4,0.182980516360857,1
437,531,4,0.209446988422098,1
437,532,4,0.181926842888751,1
437,533,4,0.125340458866675,1
437,534,4,0.0982400888135231,1
437,535,4,0.0966018611240251,1
437,536,4,0.0898096408463237,1
437,537,4,0.0734338029605211,1
438,529,4,0.0885461515114313,1
438,530,4,0.123394332732727,1
438,531,4,0.142337095104321,1
438,532,4,0.134260337418936,1
438,533,4,0.10519656671791,1
438,534,4,0.0925613020028757,1
439,530,4,0.0926136466551605,1
439,531,4,0.0990074569835852,1
439,532,4,0.0981252887671,1
439,533,4,0.092250258926036,1
440,533,4,0.0901148319120314,1
443,537,4,0.0801725884467093,1
444,536,4,0.0857522025364641,1
444,537,4,0.0848255302844511,1
444,538,4,0.0706922046276147,1
445,536,4,0.0855696940623686,1
445,537,4,0.0845518095017398,1
445,538,4,0.075355245227658,1
446,536,4,0.0847169056970628,1
446,537,4,0.084861217369737,1
446,538,4,0.0822953770333972,1
446,539,4,0.0716884660969575,1
447,536,4,0.0855846924614213,1
447,537,4,0.0867452834347618,1
447,538,4,0.0879838493118035,1
447,539,4,0.0811259810893668,1
447,565,4,0.0728890388249612,1
448,537,4,0.0896481984143482,1
448,538,4,0.0916801999665148,1
448,539,4,0.0891775218178788,1
448,540,4,0.077404072060551,1
448,564,4,0.0711723510599076,1
448,565,4,0.0760452254920649,1
449,538,4,0.0980267389829092,1
449,539,4,0.0981581965963314,1
449,540,4,0.0906739176019582,1
449,541,4,0.0730078759803946,1
449,564,4,0.0714772246674884,1
449,565,4,0.0741072334738966,1
450,538,4,0.101210370803551,1
450,539,4,0.0992134333999684,1
450,540,4,0.0947650364221506,1
450,541,4,0.0821054412370871,1
450,564,4,0.0702433068566068,1
450,565,4,0.0702389163508138,1
451,539,4,0.097875994290833,1
451,540,4,0.0930247669090657,1
451,541,4,0.0869944760848371,1
451,542,4,0.0733848844600964,1
451,563,4,0.0732330735878959,1
451,564,4,0.0713801723272925,1
451,565,4,0.0682163846344708,1
452,540,4,0.0945924350375252,1
452,541,4,0.0913651437397689,1
452,542,4,0.0841296321213764,1
452,562,4,0.0702156460711334,1
452,563,4,0.0763168558429594,1
452,564,4,0.0725186310783887,1
452,565,4,0.0694297814728466,1
453,541,4,0.0966301508359763,1
453,542,4,0.0913574648469631,1
453,543,4,0.0778442067893009,1
453,562,4,0.0739114336869026,1
453,563,4,0.0771958315088476,1
453,564,4,0.0749641907232841,1
453,565,4,0.0739011192926659,1
453,566,4,0.0712851864598095,1
454,542,4,0.0937909970216917,1
454,543,4,0.0827005793886346,1
454,561,4,0.0714653110030651,1
454,562,4,0.0803530364378678,1
454,563,4,0.0798267387816527,1
454,564,4,0.0767434536779956,1
454,565,4,0.0752204812578951,1
454,566,4,0.0724786253646216,1
455,542,4,0.0998646658035639,1
455,543,4,0.0863857591111441,1
455,544,4,0.0714668503754919,1
455,561,4,0.0802387874508347,1
455,562,4,0.0876374246282529,1
455,563,4,0.0814240982296426,1
455,564,4,0.072477044063763,1
455,565,4,0.0681014528129761,1
455,567,4,0.0705277792872013,1
455,568,4,0.0721627125999107,1
456,544,4,0.078293332171796,1
456,545,4,0.0686247016732176,1
456,558,4,0.0681723058730376,1
456,560,4,0.0719531483077158,1
456,561,4,0.0827560087755489,1
456,562,4,0.0870085640379409,1
456,563,4,0.077258238984778,1
456,567,4,0.0768324258103951,1
456,568,4,0.0824719077110651,1
457,547,4,0.073091918527163,1
457,548,4,0.0810067725678227,1
457,549,4,0.0879648737015004,1
457,550,4,0.081996750762163,1
457,551,4,0.0697439152740917,1
457,557,4,0.0694179097368552,1
457,560,4,0.081571584483586,1
457,561,4,0.0824749624968146,1
457,562,4,0.0780030616380533,1
457,567,4,0.077597811364608,1
457,568,4,0.0865075851647912,1
457,569,4,0.069636578488539,1
458,548,4,0.0925671839628875,1
458,549,4,0.102795600955182,1
458,550,4,0.100320733336419,1
458,551,4,0.0919605334619075,1
458,559,4,0.0911204314421263,1
458,560,4,0.106136650078341,1
458,561,4,0.0958685568099584,1
458,562,4,0.0757542960829644,1
458,568,4,0.0721443359672055,1
459,549,4,0.0973215985954982,1
459,550,4,0.101831534531729,1
459,551,4,0.104567628260511,1
459,552,4,0.0924033156716403,1
459,556,4,0.09634034750476,1
459,558,4,0.0908686272497239,1
459,559,4,0.108022555004592,1
459,560,4,0.131300297945833,1
459,561,4,0.112882671213913,1
459,562,4,0.0791623947584381,1
460,550,4,0.0943011282725381,1
460,551,4,0.101228675558944,1
460,555,4,0.113563121744736,1
460,556,4,0.116820924961332,1
460,557,4,0.111206863669919,1
460,558,4,0.0992098934423645,1
460,559,4,0.103926782128464,1
460,560,4,0.116761805872415,1
460,561,4,0.0995450633368496,1
460,562,4,0.0726263512096041,1
461,555,4,0.107433364700592,1
461,556,4,0.113346100181447,1
461,557,4,0.1093621204842,1
461,559,4,0.0923439989201153,1
461,560,4,0.091725428764936,1
461,561,4,0.0808012693437419,1
462,556,4,0.108664395439452,1
418,532,5,0.0891525803907001,1
418,533,5,0.10123861858707,1
419,531,5,0.0851689840391158,1
419,532,5,0.157894867356171,1
419,533,5,0.226957523479682,1
419,534,5,0.154366326265302,1
420,531,5,0.104085702864752,1
420,532,5,0.239139410071276,1
420,533,5,0.355559235673917,2
420,534,5,0.24233023561287,1
420,535,5,0.0961576293885052,1
421,531,5,0.0925008112552587,1
421,532,5,0.183148385822459,1
421,533,5,0.271677813879356,1
421,534,5,0.189002062112156,1
421,535,5,0.0844619029642874,1
422,532,5,0.100159452628395,1
422,533,5,0.129904021267251,1
422,534,5,0.101527661216737,1
423,531,5,0.0761988153277313,1
423,534,5,0.0752696872675667,1
424,530,5,0.0986640511471284,1
424,531,5,0.103742824128581,1
424,532,5,0.0922318164057952,1
424,533,5,0.0863649626089432,1
424,534,5,0.0783338589960733,1
424,558,5,0.12917827605047,1
425,529,5,0.114515340391302,1
425,530,5,0.185948426399597,1
425,531,5,0.214472985487396,3
425,532,5,0.153110929117758,1
425,533,5,0.101829989169527,1
425,534,5,0.0799800171489682,1
425,557,5,0.117344071995382,1
425,558,5,0.128707635392657,1
425,559,5,0.0960277231270617,1
426,528,5,0.0829210091344563,1
426,529,5,0.159954907049698,1
426,530,5,0.30159207287171,3
426,531,5,0.355077777480685,3
426,532,5,0.23748187134402,3
426,533,5,0.124060443739855,1
426,534,5,0.0799267141325266,1
426,557,5,0.129132765732578,1
426,558,5,0.12298763892327,1
427,528,5,0.0873898492176921,1
427,529,5,0.155591283371318,1
427,530,5,0.278381307605473,1
427,531,5,0.326084793952185,3
427,532,5,0.226278666229269,1
427,533,5,0.125125964988849,1
427,534,5,0.0798967472833012,1
427,556,5,0.095757045150548,1
427,557,5,0.13073873248865,1
428,528,5,0.0886492175867106,1
428,529,5,0.126766301079492,1
428,530,5,0.177565219795548,1
428,531,5,0.186883682000589,1
428,532,5,0.144223682865033,1
428,533,5,0.105669735061187,1
428,534,5,0.0810628189016629,1
428,556,5,0.0882696814215454,1
429,528,5,0.09812235377687,1
429,529,5,0.136014047989318,1
429,530,5,0.156076838571321,1
429,531,5,0.127540743174986,1
429,532,5,0.100190198148498,1
429,533,5,0.0920726141500359,1
429,534,5,0.0822573599252553,1
429,557,5,0.0822003731965863,1
430,528,5,0.0986917718303615,1
430,529,5,0.134419330032536,1
430,530,5,0.150133255744171,1
430,531,5,0.114825347236897,1
430,532,5,0.0865827029453501,1
430,533,5,0.0818270783779917,1
430,534,5,0.079120035062711,1
430,561,5,0.0740490487900317,1
430,562,5,0.0816249354182354,1
431,529,5,0.112398829089841,1
431,530,5,0.120728558973945,1
431,531,5,0.0993603985434015,1
431,532,5,0.0803473701097911,1
431,533,5,0.076287739541923,1
431,534,5,0.0757863114355749,1
431,535,5,0.0688070903517934,1
431,560,5,0.0690743960844307,1
431,561,5,0.107292281517171,1
431,562,5,0.145634730331181,1
431,563,5,0.114074972061289,1
432,530,5,0.100619323668998,1
432,532,5,0.0793284493179179,1
432,533,5,0.0743622841248798,1
432,534,5,0.073527614831912,1
432,535,5,0.0722634067239021,1
432,536,5,0.071220161451776,1
432,560,5,0.0714923129131807,1
432,561,5,0.135199833781321,1
432,562,5,0.207693589320067,1
432,563,5,0.171096980510802,1
433,533,5,0.0764211378427625,1
433,534,5,0.0757355241250447,1
433,535,5,0.0808441022317714,1
433,536,5,0.0862769188918205,1
433,537,5,0.0790149863715825,1
433,561,5,0.11314768286235,1
433,562,5,0.178769368419812,1
433,563,5,0.159813835845829,1
434,530,5,0.125835849278836,1
434,531,5,0.119992535301583,1
434,532,5,0.100123813461317,1
434,533,5,0.0857819537537543,1
434,534,5,0.0835276296865565,1
434,535,5,0.0904067077057366,1
434,536,5,0.0918617800253334,1
434,537,5,0.07935995553957,1
434,561,5,0.0723855622152281,1
434,562,5,0.0972730873998402,1
435,529,5,0.121379995029923,1
435,530,5,0.177930033091356,1
435,531,5,0.180132329964396,1
435,532,5,0.142561783580864,1
435,533,5,0.104562560910032,1
435,534,5,0.0925622663568084,1
435,535,5,0.0980120041339996,1
435,536,5,0.0960602296413025,1
435,537,5,0.0799293196850777,1
436,529,5,0.131533240333676,1
436,530,5,0.21334788992651,1
436,531,5,0.23317462343716,1
436,532,5,0.187186561012769,1
436,533,5,0.123281341598649,1
436,534,5,0.0980697994824258,1
436,535,5,0.101965717493222,1
436,536,5,0.101557478321563,1
436,537,5,0.0858367003062069,1
437,529,5,0.111817880717589,1
437,530,5,0.18164083108573,1
437,531,5,0.213544138946702,1
437,532,5,0.184132973218418,1
437,533,5,0.12494147988868,1
437,534,5,0.0969245842640247,1
437,535,5,0.0961986413846369,1
437,537,5,0.0767597278993319,1
438,529,5,0.0862447537948106,1
438,530,5,0.119667817566182,1
438,531,5,0.139898249998299,1
438,532,5,0.131588705659246,1
438,533,5,0.103979671850363,1
438,534,5,0.0915234175802513,1
439,530,5,0.0919311296516241,1
439,531,5,0.0975345051826896,1
439,532,5,0.0959001768373542,1
439,533,5,0.0913360034796286,1
440,533,5,0.0891006849716137,1
443,537,5,0.0828052147852205,1
443,538,5,0.0691729638379494,1
444,536,5,0.0878935055207046,1
444,537,5,0.0891451111400537,1
444,538,5,0.0776333487054944,1
445,536,5,0.0882588219576945,1
445,537,5,0.0898643574498965,1
445,538,5,0.0832258288340532,1
446,536,5,0.088216019018545,1
446,537,5,0.0909320889262268,1
446,538,5,0.0911913443999476,1
446,539,5,0.0789387485029154,1
446,565,5,0.069032521560558,1
447,537,5,0.0912992382346664,1
447,538,5,0.0944499202976449,1
447,539,5,0.087165460229948,1
447,540,5,0.0694965195568102,1
447,564,5,0.0714020290198417,1
447,565,5,0.075399647436994,1
448,537,5,0.0937002219667223,1
448,538,5,0.0965506305700724,1
448,539,5,0.0946107038542627,1
448,540,5,0.083392739931498,1
448,564,5,0.0773325601251317,1
448,565,5,0.0784127982537072,1
449,538,5,0.100952666681809,1
449,539,5,0.101068796458499,1
449,540,5,0.0940413277292031,1
449,541,5,0.0781202995233001,1
449,564,5,0.076097492277262,1
449,565,5,0.0750843755783129,1
450,538,5,0.103238341236483,1
450,539,5,0.100442367717235,1
450,540,5,0.0948363506949626,1
450,541,5,0.0838665132421488,1
450,542,5,0.0679620108281733,1
450,563,5,0.0712922963238972,1
450,564,5,0.0758267484132125,1
450,565,5,0.072905169291674,1
451,539,5,0.0978721308853263,1
451,540,5,0.0913458925997707,1
451,541,5,0.0860009519431169,1
451,542,5,0.0743851470997936,1
451,562,5,0.0719997068364045,1
451,563,5,0.0806781914269151,1
451,564,5,0.0777566242849286,1
451,565,5,0.0726191155602209,1
452,540,5,0.0924614883759532,1
452,541,5,0.088532794310997,1
452,542,5,0.0824538665058148,1
452,562,5,0.0766034606338026,1
452,563,5,0.0829943060231175,1
452,564,5,0.0786055432549516,1
452,565,5,0.0747025153800676,1
452,566,5,0.0714099175548067,1
453,541,5,0.0923541635699525,1
453,542,5,0.0881020036327752,1
453,543,5,0.078147211586776,1
453,562,5,0.0794083229806045,1
453,563,5,0.0829165227922476,1
453,564,5,0.0802346425258569,1
453,565,5,0.0787353656595314,1
453,566,5,0.0758484972897941,1
454,542,5,0.0898472925781309,1
454,543,5,0.081401474845768,1
454,561,5,0.0764258158578025,1
454,562,5,0.0842881934711058,1
454,563,5,0.08300117030639,1
454,564,5,0.0793538938862788,1
454,565,5,0.0780272663227864,1
454,566,5,0.0755236298099938,1
454,567,5,0.0712434257416804,1
455,543,5,0.0834901756173566,1
455,544,5,0.0713714272543624,1
455,560,5,0.0692471232543517,1
455,561,5,0.0834750154943525,1
455,562,5,0.0888133254689971,1
455,563,5,0.0816398858990802,1
455,564,5,0.0730190768614762,1
455,565,5,0.0697782606495581,1
455,566,5,0.0680047778286669,1
455,567,5,0.0705370035422098,1
455,568,5,0.072034603271261,1
456,558,5,0.0706121572614246,1
456,559,5,0.0708691426100492,1
456,560,5,0.0736819533895759,1
456,561,5,0.0828280058828225,1
456,562,5,0.085766554039711,1
456,563,5,0.0762391265200734,1
456,568,5,0.0733766125794688,1
457,547,5,0.0757909954403908,1
457,548,5,0.0780962146340865,1
457,549,5,0.0808517152370413,1
457,550,5,0.0771997548121141,1
457,557,5,0.0686915655424768,1
457,560,5,0.080006665662301,1
457,561,5,0.0807450912348302,1
457,562,5,0.0773371243344281,1
457,568,5,0.073311940968218,1
458,548,5,0.0872941505668676,1
458,549,5,0.0924150616223361,1
458,550,5,0.0928026300770899,1
458,551,5,0.0874701062260415,1
458,556,5,0.0691589837008133,1
458,560,5,0.0970356646595646,1
458,561,5,0.0881602841530557,1
458,562,5,0.0733138756658594,1
459,550,5,0.100120135738866,1
459,551,5,0.101875331773691,1
459,559,5,0.101519814610204,1
459,560,5,0.120978033143491,1
459,561,5,0.104309540793106,1
459,562,5,0.0758860232363057,1
460,556,5,0.106400475751135,1
460,559,5,0.0988435048354743,1
460,560,5,0.113095991095647,1
460,561,5,0.0975737861335632,1
460,562,5,0.0725656987380357,1
461,555,5,0.100465626017363,1
461,556,5,0.106409053110337,1
461,557,5,0.100218733441264,1
461,560,5,0.0874580188581149,1
461,561,5,0.0794224408825882,1
462,556,5,0.100662462035602,1
418,532,6,0.0884232532878839,1
418,533,6,0.100919627077506,1
419,531,6,0.0808118952063296,1
419,532,6,0.134609733031372,1
419,533,6,0.189974681935708,1
419,534,6,0.140976589367889,1
420,531,6,0.0943530656200563,1
420,532,6,0.187670738564296,1
420,533,6,0.276776095561173,1
420,534,6,0.203352726790409,1
420,535,6,0.0935335504603167,1
421,532,6,0.150291278014062,1
421,533,6,0.215979581859968,1
421,534,6,0.162271896153193,1
422,533,6,0.11741548210461,1
423,530,6,0.0860682590557986,1
423,531,6,0.08297310221615,1
423,532,6,0.0815865768928627,1
424,529,6,0.0921345124950081,1
424,530,6,0.103936713177038,1
424,531,6,0.108802244143844,1
424,532,6,0.0972425095934648,1
424,533,6,0.0894616109028107,1
424,558,6,0.136348541039118,1
425,529,6,0.110369504967537,1
425,530,6,0.167330956781897,1
425,531,6,0.200185201477376,1
425,532,6,0.155652822329732,1
425,533,6,0.10688164643512,1
425,534,6,0.0855331085106858,1
425,557,6,0.121371908832351,1
425,558,6,0.133699227184728,1
425,559,6,0.0986175704855274,1
426,529,6,0.138354241484958,1
426,530,6,0.247883764228234,1
426,531,6,0.312640142788592,3
426,532,6,0.233669019546508,1
426,533,6,0.131569885783118,1
426,534,6,0.0866071711802264,1
426,556,6,0.100228472817007,1
426,557,6,0.151877562366266,1
426,558,6,0.138462141309453,1
427,529,6,0.132802569700148,1
427,530,6,0.229357099614383,1
427,531,6,0.289433714120164,1
427,532,6,0.223968026288312,1
427,533,6,0.132581499048296,1
427,534,6,0.0869968839747808,1
427,556,6,0.117722206552968,1
427,557,6,0.181199827839463,1
427,558,6,0.149436764593275,1
428,529,6,0.115463402133338,1
428,530,6,0.157996214365745,1
428,531,6,0.175319952269632,1
428,532,6,0.14573965922679,1
428,533,6,0.11007764714316,1
428,534,6,0.0877366033389216,1
428,557,6,0.149883134678819,1
429,529,6,0.121743562452327,1
429,530,6,0.141569541251204,1
429,531,6,0.122840625861629,1
429,532,6,0.101923405715703,1
429,533,6,0.0952267343444267,1
429,534,6,0.0883023257006337,1
429,535,6,0.0707302277255326,1
429,557,6,0.0851864023076642,1
430,529,6,0.12281653498264,1
430,530,6,0.139315923977572,1
430,531,6,0.112927402860928,1
430,532,6,0.0894360525287061,1
430,533,6,0.0851389333330267,1
430,534,6,0.0839912623064739,1
430,535,6,0.0719518185774483,1
430,560,6,0.0680677064151076,1
430,561,6,0.0712046479319891,1
430,562,6,0.0737476133138632,1
431,530,6,0.115165159207766,1
431,533,6,0.0790042886316831,1
431,534,6,0.0790613891660957,1
431,535,6,0.0719417617435787,1
431,560,6,0.0702432709179509,1
431,561,6,0.0950619675867825,1
431,562,6,0.119518001289383,1
431,563,6,0.0952091543519268,1
432,533,6,0.0770314181479862,1
432,534,6,0.0757636041948366,1
432,535,6,0.0738326381838923,1
432,536,6,0.0753603425270165,1
432,537,6,0.0703128840943847,1
432,560,6,0.0724593263064157,1
432,561,6,0.117228265666594,1
432,562,6,0.166288016988346,1
432,563,6,0.135588007203448,1
433,533,6,0.0769914783217549,1
433,534,6,0.0754638817945982,1
433,535,6,0.0812902926240365,1
433,536,6,0.0954646602258845,1
433,537,6,0.0917410141620347,1
433,561,6,0.0969400498656038,1
433,562,6,0.138313882374409,1
433,563,6,0.120373257442392,1
434,531,6,0.11051127098542,1
434,532,6,0.0982928826990065,1
434,533,6,0.0845135168639028,1
434,534,6,0.0825958661249609,1
434,535,6,0.0956934996171814,1
434,536,6,0.112255625525723,1
434,537,6,0.101235983085639,1
434,561,6,0.0699762107661288,1
434,562,6,0.0850410783628495,1
435,530,6,0.151774681974042,1
435,531,6,0.160172719263417,1
435,532,6,0.132667596088226,1
435,533,6,0.0995610799978188,1
435,534,6,0.0929771242309247,1
435,535,6,0.10974681983626,1
435,536,6,0.123768226528919,1
435,537,6,0.10417858033109,1
436,529,6,0.11513845678645,1
436,530,6,0.181140636873233,1
436,531,6,0.201920547394606,1
436,532,6,0.165590160168526,1
436,533,6,0.113515694698531,1
436,534,6,0.0970029245440606,1
436,535,6,0.109844980285012,1
436,536,6,0.119630141875271,1
436,537,6,0.100106305346129,1
437,529,6,0.101729768237838,1
437,530,6,0.156542531674175,1
437,531,6,0.183258130497955,1
437,532,6,0.159092774633864,1
437,533,6,0.113598940605094,1
437,534,6,0.0937400000690022,1
437,535,6,0.0969063334166152,1
437,537,6,0.0817186095247788,1
438,530,6,0.109867178394792,1
438,531,6,0.125613257223885,1
438,532,6,0.118370396150366,1
438,533,6,0.0987999471845513,1
438,534,6,0.0892493152727691,1
439,531,6,0.0941837945508756,1
439,532,6,0.0921779204015316,1
439,533,6,0.0894275710059192,1
440,533,6,0.0864969832613075,1
443,537,6,0.0860312302606933,1
443,538,6,0.075924214047951,1
444,536,6,0.089205506051255,1
444,537,6,0.0940529598741553,1
444,538,6,0.0883245717286216,1
445,536,6,0.0899265732529956,1
445,537,6,0.0970523401958916,1
445,538,6,0.09656302940635,1
445,539,6,0.0762759217139155,1
446,536,6,0.0915135883578689,1
446,537,6,0.0980209828081929,1
446,538,6,0.102656230847691,1
446,539,6,0.0872886759116223,1
446,565,6,0.0679816393240581,1
447,536,6,0.0936385931616692,1
447,537,6,0.0949720311004503,1
447,538,6,0.0996618999071058,1
447,539,6,0.0917490165027433,1
447,540,6,0.0744098129972772,1
447,564,6,0.0725904844310388,1
447,565,6,0.0729466065619002,1
448,537,6,0.0964263127696178,1
448,538,6,0.0994834764602283,1
448,539,6,0.097943816524249,1
448,540,6,0.0881443693182782,1
448,541,6,0.0715143253399054,1
448,563,6,0.0678824486338375,1
448,564,6,0.0778994984113677,1
448,565,6,0.0753747659075752,1
449,538,6,0.101961105365718,1
449,539,6,0.101315084067225,1
449,540,6,0.0953150296321405,1
449,541,6,0.082158672376217,1
449,563,6,0.0700196486215321,1
449,564,6,0.0766701028813506,1
449,565,6,0.0727706928311582,1
450,539,6,0.0999824367788729,1
450,540,6,0.0939859342809446,1
450,541,6,0.0851013774376352,1
450,542,6,0.0710942863095668,1
450,563,6,0.0767717733388267,1
450,564,6,0.0789861396104652,1
450,565,6,0.0742306827568342,1
451,540,6,0.0899405474003558,1
451,541,6,0.084683261125386,1
451,542,6,0.0755261155670253,1
451,562,6,0.076179612105941,1
451,563,6,0.0848897107340715,1
451,564,6,0.0832561071516296,1
451,565,6,0.0779183602159271,1
451,566,6,0.0707658968414905,1
452,541,6,0.0859926980318171,1
452,542,6,0.0811060890433389,1
452,543,6,0.0686252766917116,1
452,562,6,0.078778432148824,1
452,563,6,0.086102903920064,1
452,564,6,0.0845923303362411,1
452,565,6,0.0813332153587056,1
452,566,6,0.0769946109745921,1
453,541,6,0.0899153004946022,1
453,542,6,0.0865557848920983,1
453,543,6,0.078553701743849,1
453,561,6,0.0696584711197441,1
453,562,6,0.0807099192702785,1
453,563,6,0.085139130995634,1
453,564,6,0.0839049376550573,1
453,565,6,0.0822246138199753,1
453,566,6,0.0806978738307838,1
453,567,6,0.0737949085849974,1
454,542,6,0.0886558901971518,1
454,543,6,0.0821848956154552,1
454,544,6,0.0694405810389377,1
454,561,6,0.0775745171258237,1
454,562,6,0.0842277865803526,1
454,563,6,0.0830630686513622,1
454,564,6,0.0793995180099147,1
454,565,6,0.0774214064722357,1
454,566,6,0.077131417457964,1
454,567,6,0.075843250246036,1
454,568,6,0.0690314374111057,1
455,543,6,0.0844648619136213,1
455,544,6,0.075073222615439,1
455,559,6,0.0686971839523455,1
455,560,6,0.0728979156729628,1
455,561,6,0.0827317441930559,1
455,562,6,0.0859140223243263,1
455,563,6,0.0788659068372286,1
455,564,6,0.0715607580832985,1
455,565,6,0.0687573093236278,1
455,567,6,0.069571415715658,1
455,568,6,0.0696470066885193,1
456,546,6,0.0697951757769243,1
456,558,6,0.0751648961368053,1
456,559,6,0.075649235412284,1
456,560,6,0.0758583864099362,1
456,561,6,0.0809621906652073,1
456,562,6,0.0816243064917575,1
456,563,6,0.072749105678528,1
457,548,6,0.078193075301451,1
457,549,6,0.0775060120579461,1
457,550,6,0.0754865291375767,1
457,551,6,0.0683741792928748,1
457,557,6,0.071289127732404,1
457,561,6,0.0789483021956027,1
457,562,6,0.0751060286184788,1
458,549,6,0.0880233698537163,1
458,550,6,0.0886582501688877,1
458,551,6,0.0832880446371523,1
458,552,6,0.075424211508286,1
458,560,6,0.0894534049097187,1
458,561,6,0.0829846265451346,1
458,562,6,0.0718806540490358,1
459,559,6,0.094317216810819,1
459,560,6,0.10621705683109,1
459,561,6,0.0944627743568969,1
459,562,6,0.0744398277647105,1
460,559,6,0.095524144691137,1
460,560,6,0.105582440066062,1
460,561,6,0.0939014664600817,1
460,562,6,0.0746867742487934,1
461,556,6,0.0970937774661177,1
461,560,6,0.0847780313609336,1
461,561,6,0.0777036626857178,1
461,562,6,0.0687466714814882,1
418,533,7,0.0989167717752556,1
419,532,7,0.111583333069783,1
419,533,7,0.150698439026045,1
419,534,7,0.127350627685396,1
420,532,7,0.139264447842804,1
420,533,7,0.199004856222855,1
420,534,7,0.166644169068088,1
421,533,7,0.161805771786468,1
423,530,7,0.0981919609635278,1
423,531,7,0.0962033553383327,1
423,532,7,0.0895969678603955,1
424,529,7,0.096859032155705,1
424,530,7,0.114377216157215,1
424,531,7,0.11866272117727,1
424,532,7,0.10473040641253,1
424,533,7,0.0937796344166586,1
424,558,7,0.135145626308706,1
425,529,7,0.106496779369333,1
425,530,7,0.150155453853951,1
425,531,7,0.179880160395659,1
425,532,7,0.151332492752131,1
425,533,7,0.111065133590692,1
425,534,7,0.0921708524658758,1
425,557,7,0.12304505691581,1
425,558,7,0.134675740362666,1
425,559,7,0.0996993360069777,1
426,529,7,0.11914245431502,1
426,530,7,0.193170431073156,1
426,531,7,0.250727661945094,1
426,532,7,0.209077562998787,1
426,533,7,0.133525427844906,1
426,534,7,0.0950012372481263,1
426,535,7,0.0765750091979,1
426,556,7,0.102903979961756,1
426,557,7,0.169892628234156,1
426,558,7,0.154547648763753,1
426,559,7,0.0912647011863686,1
427,529,7,0.112246880452793,1
427,530,7,0.177391264721552,1
427,531,7,0.229949200949509,1
427,532,7,0.198073805444601,1
427,533,7,0.13307488887528,1
427,534,7,0.0959041300895007,1
427,535,7,0.0762188151897269,1
427,556,7,0.136994394623884,1
427,557,7,0.234427684572072,1
427,558,7,0.19942945946249,1
427,559,7,0.102092820539507,1
428,529,7,0.104328959646831,1
428,530,7,0.137563399382833,1
428,531,7,0.154927951620244,1
428,532,7,0.137654216366234,1
428,533,7,0.111664518493409,1
428,534,7,0.0948814237592083,1
428,535,7,0.078004301521681,1
428,556,7,0.106843251971092,1
428,557,7,0.178178345244362,1
428,558,7,0.151918592331726,1
429,529,7,0.105776999969428,1
429,530,7,0.125669621015853,1
429,531,7,0.117740679022089,1
429,532,7,0.10182260976552,1
429,533,7,0.0964795019803158,1
429,534,7,0.0942537191956603,1
429,535,7,0.0818675812431651,1
429,536,7,0.0694656782002918,1
429,557,7,0.088213401486442,1
430,530,7,0.124618762738457,1
430,531,7,0.110410930258211,1
430,532,7,0.0908190378943896,1
430,533,7,0.0868512845002711,1
430,534,7,0.0895273427044097,1
430,535,7,0.0821616373153268,1
430,536,7,0.0695178192001934,1
430,560,7,0.07233182194514,1
430,561,7,0.0714210705176805,1
431,533,7,0.0803848481380949,1
431,534,7,0.0828842259201662,1
431,535,7,0.0785999667735147,1
431,536,7,0.0698870769097778,1
431,559,7,0.0685127827090405,1
431,560,7,0.0733205482763006,1
431,561,7,0.0840997850676706,1
431,562,7,0.09259569529655,1
432,533,7,0.0795863091738355,1
432,534,7,0.0786854588460701,1
432,535,7,0.0768294009735255,1
432,536,7,0.0781688766064939,1
432,537,7,0.0757066234559436,1
432,558,7,0.0684583655942668,1
432,559,7,0.0681056636254897,1
432,560,7,0.0744130354967542,1
432,561,7,0.0975682276214542,1
432,562,7,0.12082997786083,1
432,563,7,0.103516171005517,1
433,533,7,0.0783661977965866,1
433,534,7,0.0754901050338365,1
433,535,7,0.0815407551066195,1
433,536,7,0.106430939751766,1
433,537,7,0.112069858613494,1
433,538,7,0.0759797093224011,1
433,560,7,0.0683476026568538,1
433,561,7,0.0848231343740593,1
433,562,7,0.105118555875553,1
434,532,7,0.0934742516781196,1
434,533,7,0.0826804537413435,1
434,534,7,0.0806449302009009,1
434,535,7,0.10446892873192,1
434,536,7,0.158590807447678,1
434,537,7,0.163840438788946,1
434,538,7,0.101299247099535,1
434,561,7,0.0711500990421438,1
435,531,7,0.12975749936724,1
435,532,7,0.114720885543815,1
435,533,7,0.0927576768083637,1
435,534,7,0.0919823841646807,1
435,535,7,0.129099342782612,1
435,536,7,0.190081886946189,1
435,537,7,0.183175100223328,1
435,538,7,0.10825565312661,1
435,559,7,0.0716026445867232,1
435,560,7,0.072753208675074,1
435,561,7,0.0683027152756634,1
436,530,7,0.137005475709446,1
436,531,7,0.153894990793475,1
436,532,7,0.133943634003795,1
436,533,7,0.102260474369174,1
436,534,7,0.0961529813223451,1
436,535,7,0.12454516037122,1
436,536,7,0.161617872513991,1
436,537,7,0.146554592207905,1
436,538,7,0.0880031783188893,1
436,559,7,0.0850364243069134,1
436,560,7,0.0836982604348846,1
436,561,7,0.0702949986233099,1
437,530,7,0.126210569664113,1
437,531,7,0.143672563577159,1
437,532,7,0.129710539523561,1
437,533,7,0.102707599166492,1
437,534,7,0.0914713544474374,1
437,535,7,0.0997827735863721,1
437,537,7,0.0919956575082513,1
437,559,7,0.0846068315838875,1
437,560,7,0.0833521532094609,1
437,561,7,0.0701877876230528,1
438,531,7,0.112011254645311,1
438,532,7,0.106928031260305,1
438,533,7,0.0950589307703609,1
438,534,7,0.0879682938635847,1
438,560,7,0.0681323540672544,1
439,533,7,0.0889445794300359,1
440,533,7,0.0855437463528254,1
443,538,7,0.0888591652245682,1
443,539,7,0.0737728602196168,1
444,537,7,0.100415755142558,1
444,538,7,0.11289977801411,1
444,539,7,0.0974214960792843,1
445,537,7,0.10835636521993,1
445,538,7,0.131320818918338,1
445,539,7,0.115383103196557,1
445,540,7,0.0757056710815628,1
446,536,7,0.0944701238120238,1
446,537,7,0.106611507538445,1
446,538,7,0.125613604630892,1
446,539,7,0.113473933980402,1
446,540,7,0.0808002990000333,1
447,537,7,0.0992959186049821,1
447,538,7,0.106233947999353,1
447,539,7,0.10089635080805,1
447,540,7,0.0841837257882473,1
447,563,7,0.0723723847080732,1
447,564,7,0.0762564130135502,1
447,565,7,0.0715550019085822,1
448,538,7,0.100334234291477,1
448,539,7,0.100883532687453,1
448,540,7,0.0934400440675007,1
448,541,7,0.0798680263074795,1
448,563,7,0.0772614195558231,1
448,564,7,0.0801616031975628,1
448,565,7,0.0736882905725622,1
449,539,7,0.0997899613175475,1
449,540,7,0.0952695732222321,1
449,541,7,0.0862184167498287,1
449,542,7,0.070627826515387,1
449,562,7,0.0690586729224845,1
449,563,7,0.0795321735785327,1
449,564,7,0.0802610095197187,1
449,565,7,0.0735985637283892,1
450,540,7,0.0921028445494045,1
450,541,7,0.0858725670847722,1
450,542,7,0.074210269600296,1
450,562,7,0.076579405693469,1
450,563,7,0.0853708275100731,1
450,564,7,0.0854167032043001,1
450,565,7,0.0796874645105773,1
450,566,7,0.0684953584507162,1
451,541,7,0.0831994738197434,1
451,542,7,0.0758233042920243,1
451,562,7,0.081897104848968,1
451,563,7,0.0906034418977834,1
451,564,7,0.0927705248778397,1
451,565,7,0.089493087175583,1
451,566,7,0.0772368375152032,1
452,541,7,0.0843023592912974,1
452,542,7,0.0798193114594381,1
452,543,7,0.0697068086118987,1
452,561,7,0.0691370191922964,1
452,562,7,0.0817078039689118,1
452,563,7,0.0893968554346962,1
452,564,7,0.0939170758162843,1
452,565,7,0.0937977355196686,1
452,566,7,0.0857325201325954,1
452,567,7,0.0752983723047326,1
453,542,7,0.0852737452209973,1
453,543,7,0.0782091818090599,1
453,561,7,0.0749793388667363,1
453,562,7,0.0833804549009641,1
453,563,7,0.0876051876539313,1
453,564,7,0.0891381809692454,1
453,565,7,0.088699956979033,1
453,566,7,0.0887325952683453,1
453,567,7,0.0878277138213458,1
453,568,7,0.0739859644694156,1
454,543,7,0.0830246142895738,1
454,544,7,0.0719815158867547,1
454,560,7,0.0718070576715757,1
454,561,7,0.0814328672616766,1
454,562,7,0.0856763360339077,1
454,563,7,0.0840758858615124,1
454,564,7,0.0803071906925207,1
454,565,7,0.0777922394929027,1
454,566,7,0.0808467017945465,1
454,567,7,0.0858153108161841,1
454,568,7,0.0768060288676535,1
455,544,7,0.0779941847900516,1
455,558,7,0.0717849973266432,1
455,559,7,0.0762975867336333,1
455,560,7,0.0790166874679607,1
455,561,7,0.0842843180860471,1
455,562,7,0.0846971633954344,1
455,563,7,0.0780327469678077,1
455,564,7,0.0716370977781573,1
455,565,7,0.0685901466555918,1
455,566,7,0.0684033255427911,1
455,567,7,0.0716540069157474,1
455,568,7,0.0700902201621226,1
456,557,7,0.0710629178527621,1
456,558,7,0.0791428620989689,1
456,559,7,0.0817460846271968,1
456,560,7,0.0804437096666455,1
456,561,7,0.0813450511560411,1
456,562,7,0.0792839512721661,1
456,563,7,0.0712534586164461,1
457,549,7,0.077445569228537,1
457,550,7,0.075201799146615,1
457,551,7,0.0698134865220936,1
457,559,7,0.0832220672547381,1
457,560,7,0.0821965996377192,1
457,561,7,0.0794167026771999,1
457,562,7,0.0743901845013924,1
458,551,7,0.0809783989990078,1
458,552,7,0.0765771535377007,1
458,560,7,0.0863927731388161,1
458,561,7,0.0816915776657833,1
458,562,7,0.0732704198411281,1
459,559,7,0.0873512331319523,1
459,560,7,0.0946931651001725,1
459,561,7,0.0898762950734236,1
459,562,7,0.0780567120615017,1
460,559,7,0.0897994642169345,1
460,560,7,0.097972735162678,1
460,561,7,0.0934151924869617,1
460,562,7,0.0812194695128549,1
461,560,7,0.0854332709246595,1
461,561,7,0.0799245039051902,1
461,562,7,0.0726240870742839,1
419,533,8,0.124703937352885,1
420,533,8,0.147058452163301,1
423,530,8,0.105498655079661,1
423,531,8,0.103990884710996,1
424,529,8,0.0960420027529969,1
424,530,8,0.119407681595393,1
424,531,8,0.123044949099842,1
424,532,8,0.108404690732532,1
424,533,8,0.0950163254938187,1
424,558,8,0.1281538686238,1
425,529,8,0.101536585982947,1
425,530,8,0.137859569845915,1
425,531,8,0.161858110448977,1
425,532,8,0.146886317981202,1
425,533,8,0.113854392571068,1
425,534,8,0.0947657611850441,1
425,557,8,0.120955331892529,1
425,558,8,0.132563062517832,1
425,559,8,0.0971829472611246,1
426,529,8,0.106817088629613,1
426,530,8,0.158197674491039,1
426,531,8,0.202639560103185,1
426,532,8,0.188277299218636,1
426,533,8,0.134677920641123,1
426,534,8,0.100356276667082,1
426,535,8,0.0834405982415743,1
426,536,8,0.0710195458848945,1
426,556,8,0.0975232024754163,1
426,557,8,0.170280238617341,1
426,558,8,0.160818716602806,1
426,559,8,0.0898329051362281,1
427,529,8,0.102915516270292,1
427,530,8,0.149930885172928,1
427,531,8,0.188841607993217,1
427,532,8,0.178351473729274,1
427,533,8,0.133251299757428,1
427,534,8,0.102127345608253,1
427,535,8,0.0839141319611859,1
427,536,8,0.0728144062162566,1
427,556,8,0.139827786273676,1
427,557,8,0.259026017382617,1
427,558,8,0.234072993997669,1
427,559,8,0.114107855931416,1
428,529,8,0.0992337327507629,1
428,530,8,0.129778032319298,1
428,531,8,0.1434700971695,1
428,532,8,0.13215370924784,1
428,533,8,0.111632461212367,1
428,534,8,0.0985832850078207,1
428,535,8,0.0853934568837237,1
428,536,8,0.0764162202366834,1
428,537,8,0.0722050543263098,1
428,556,8,0.10514305405931,1
428,557,8,0.190528364847701,1
428,558,8,0.173849629980391,1
428,559,8,0.0950935337061945,1
429,530,8,0.118359243187492,1
429,531,8,0.117138083599447,1
429,532,8,0.102400131985912,1
429,533,8,0.095228986500195,1
429,534,8,0.0948928941802091,1
429,535,8,0.0871466463435964,1
429,536,8,0.0770689081558419,1
429,537,8,0.0721188854090686,1
429,557,8,0.0921928589028245,1
429,558,8,0.0893377243662266,1
430,531,8,0.109565820785711,1
430,532,8,0.0918758859477651,1
430,534,8,0.0900746345254329,1
430,535,8,0.0869025270337757,1
430,536,8,0.0755214195826573,1
430,537,8,0.0682991693282835,1
430,559,8,0.0705753620675825,1
430,560,8,0.0731787822584177,1
430,561,8,0.0691725924718387,1
431,534,8,0.084011405923093,1
431,535,8,0.0827135592331822,1
431,536,8,0.0742516170238825,1
431,558,8,0.0694208087884293,1
431,559,8,0.0718318313850269,1
431,560,8,0.0747769922545967,1
431,561,8,0.0753800129513332,1
431,562,8,0.0734539585566921,1
432,534,8,0.0799516435801533,1
432,535,8,0.0779703874100851,1
432,536,8,0.07672464578142,1
432,537,8,0.0738836770650136,1
432,558,8,0.0715849388089278,1
432,559,8,0.0725841712071564,1
432,560,8,0.0752653207208777,1
432,561,8,0.0818497556698501,1
432,562,8,0.0880682093166988,1
433,534,8,0.0728845944111844,1
433,535,8,0.079762660158224,1
433,536,8,0.114224357074218,1
433,537,8,0.131770483380672,1
433,538,8,0.0844049641538263,1
433,559,8,0.0681655434159568,1
433,560,8,0.0700298911384571,1
433,561,8,0.0759459868836365,1
433,562,8,0.0840937054450514,1
434,533,8,0.0783893243216435,1
434,534,8,0.0736277938351692,1
434,535,8,0.112040700384026,1
434,536,8,0.21816556258324,1
434,537,8,0.257156081199128,1
434,538,8,0.146441409400997,1
434,559,8,0.0699168820350518,1
434,560,8,0.070769556594614,1
434,561,8,0.0702273021751895,1
435,533,8,0.0833404072587651,1
435,534,8,0.0840264222914736,1
435,535,8,0.147543647976745,1
435,536,8,0.278652261111681,1
435,537,8,0.309563506336273,4
435,538,8,0.170569556776703,1
435,558,8,0.0782199035080633,1
435,559,8,0.10151508268718,1
435,560,8,0.0950070533206024,1
435,561,8,0.0744680455993499,1
436,531,8,0.112238339032246,1
436,532,8,0.105447598229211,1
436,534,8,0.0895056177869321,1
436,535,8,0.133449573321902,1
436,536,8,0.206454759892882,1
436,537,8,0.211290425836654,1
436,538,8,0.117199035559815,1
436,558,8,0.106768128200757,1
436,559,8,0.151294277981382,1
436,560,8,0.134790708122817,1
436,561,8,0.0875288659284004,1
437,531,8,0.10962562270909,1
437,532,8,0.104543321749586,1
437,534,8,0.0869997830263549,1
437,535,8,0.0988327232387112,1
437,537,8,0.0988391083399053,1
437,558,8,0.105294679248455,1
437,559,8,0.152484530325373,1
437,560,8,0.137489737117837,1
437,561,8,0.0900135927184258,1
438,534,8,0.0861500554365746,1
438,558,8,0.0739290615976103,1
438,559,8,0.103985733503654,1
438,560,8,0.101411723112878,1
438,561,8,0.0780899912568438,1
439,560,8,0.0677456541300176,1
443,538,8,0.1014051343593,1
443,539,8,0.0955977230992692,1
444,537,8,0.10287238988324,1
444,538,8,0.155099546722505,1
444,539,8,0.161542233622922,1
444,540,8,0.100066054051547,1
445,537,8,0.116102355496175,1
445,538,8,0.189495380061828,1
445,539,8,0.199285656920774,1
445,540,8,0.122543137647831,1
446,537,8,0.108672170168673,1
446,538,8,0.153338959889297,1
446,539,8,0.158923275953196,1
446,540,8,0.107964669809526,1
447,538,8,0.10789149870616,1
447,539,8,0.110150339064447,1
447,540,8,0.0947693909892877,1
447,541,8,0.0759067837998506,1
447,563,8,0.0789014741269949,1
447,564,8,0.076854384329136,1
447,565,8,0.0684929266016685,1
448,539,8,0.103166619658905,1
448,540,8,0.0990173940219352,1
448,541,8,0.0879659219122968,1
448,542,8,0.0724767206158601,1
448,562,8,0.0703115304050133,1
448,563,8,0.0829376127934715,1
448,564,8,0.0798135612744978,1
448,565,8,0.0704517570504695,1
449,540,8,0.0961326340533427,1
449,541,8,0.0903818201865418,1
449,542,8,0.0783956974432857,1
449,562,8,0.0778136469522534,1
449,563,8,0.0868906792568883,1
449,564,8,0.0825383403164538,1
449,565,8,0.0730553150061522,1
450,541,8,0.0879777696891843,1
450,542,8,0.0798754895683499,1
450,562,8,0.0839698728164511,1
450,563,8,0.0926932747370321,1
450,564,8,0.0926123708328769,1
450,565,8,0.0855915627344698,1
450,566,8,0.0696595372998684,1
451,542,8,0.0798858578705704,1
451,543,8,0.0687269231900838,1
451,561,8,0.0709937598993028,1
451,562,8,0.0854192428693154,1
451,563,8,0.0962913870759035,1
451,564,8,0.105370713464738,1
451,565,8,0.103890052822157,1
451,566,8,0.0820459927104906,1
452,542,8,0.0818839812497969,1
452,543,8,0.0730495528416599,1
452,561,8,0.0737865109190741,1
452,562,8,0.0829291851786683,1
452,563,8,0.0931264134074379,1
452,564,8,0.106314151099718,1
452,565,8,0.109332195563406,1
452,566,8,0.0924803621600646,1
452,567,8,0.081697813022578,1
453,543,8,0.0795436499893094,1
453,560,8,0.0681174994228252,1
453,561,8,0.0786919936916638,1
453,562,8,0.0845826029400504,1
453,563,8,0.0892437328015562,1
453,564,8,0.0936435706655082,1
453,565,8,0.0944314538183001,1
453,566,8,0.092690669184481,1
453,567,8,0.0983843944964213,1
453,568,8,0.082508451334316,1
454,544,8,0.0759372178516025,1
454,559,8,0.0704728889801252,1
454,560,8,0.0771383116901164,1
454,561,8,0.0833592331246687,1
454,562,8,0.0859233364259745,1
454,563,8,0.0843459708502041,1
454,564,8,0.0798898111227169,1
454,565,8,0.0767077426336058,1
454,566,8,0.0817083909669578,1
454,567,8,0.0939039462273372,1
454,568,8,0.0827814892825657,1
455,557,8,0.070714612379554,1
455,558,8,0.0767980984042566,1
455,559,8,0.0819041488255199,1
455,560,8,0.0836736304760569,1
455,561,8,0.0841012585525615,1
455,562,8,0.0824474694250687,1
455,563,8,0.0770637150200677,1
455,564,8,0.0709922864144118,1
455,567,8,0.0718371922345286,1
455,568,8,0.0683698127461858,1
456,549,8,0.0699709457530428,1
456,550,8,0.067952439166158,1
456,557,8,0.0763160592027541,1
456,558,8,0.0828459332823292,1
456,559,8,0.0865935863683049,1
456,560,8,0.0844098158723697,1
456,561,8,0.080746019650107,1
456,562,8,0.0760419131459482,1
456,563,8,0.069326505755408,1
457,551,8,0.0752479324012092,1
457,552,8,0.073189228427726,1
457,557,8,0.0793940733035493,1
457,558,8,0.0844650955148845,1
457,559,8,0.0874307713671841,1
457,560,8,0.0845414531790712,1
457,561,8,0.0787175460759923,1
457,562,8,0.072237117597128,1
458,561,8,0.0799682532289445,1
458,562,8,0.0733191047402895,1
459,560,8,0.0861628735571708,1
459,561,8,0.0870180937715243,1
459,562,8,0.0807485533253463,1
460,560,8,0.0888283717862576,1
460,561,8,0.0921374414954621,1
460,562,8,0.0861618253463744,1
460,563,8,0.0681575290956962,1
461,560,8,0.0815506202676577,1
461,561,8,0.0792332478184996,1
461,562,8,0.0741033520990619,1
423,538,9,0.0688004057618003,1
424,530,9,0.113408585524465,1
424,531,9,0.115609337035302,1
424,532,9,0.104169176382802,1
424,533,9,0.0917108855888577,1
424,537,9,0.0697572844540779,1
424,538,9,0.0677871992162115,1
424,557,9,0.107284985970028,1
425,530,9,0.120495448872374,1
425,531,9,0.136940726231107,1
425,532,9,0.132842892872042,1
425,533,9,0.109553913111064,1
425,534,9,0.0922811961189702,1
425,535,9,0.082383684300663,1
425,536,9,0.0742433331637029,1
425,537,9,0.0701045057778337,1
425,538,9,0.0688918696410073,1
425,556,9,0.0823726391537568,1
425,557,9,0.115398628695895,1
425,558,9,0.124502237636551,1
426,530,9,0.127886676696906,1
426,531,9,0.160797836243742,1
426,532,9,0.164876011158042,1
426,533,9,0.130534457168645,1
426,534,9,0.100536449128545,1
426,535,9,0.0860739253838752,1
426,536,9,0.0772423960273122,1
426,537,9,0.0727953347695379,1
426,538,9,0.071712293425804,1
426,556,9,0.0935788151973938,1
426,557,9,0.157666680850456,1
426,558,9,0.157169781014749,1
426,559,9,0.09216727057984,1
427,529,9,0.0951940062084747,1
427,530,9,0.130730766086598,1
427,531,9,0.162820763285299,1
427,532,9,0.165138830548471,1
427,533,9,0.132906947536367,1
427,534,9,0.104412828490096,1
427,535,9,0.09175055587517,1
427,536,9,0.0843234193436413,1
427,537,9,0.0776736299489566,1
427,538,9,0.070434955728847,1
427,556,9,0.131952237142994,1
427,557,9,0.245223201574554,1
427,558,9,0.239822412246667,1
427,559,9,0.125392426163073,1
428,529,9,0.0947870488488753,1
428,530,9,0.124792550098726,1
428,531,9,0.141492297100172,1
428,532,9,0.134255964882471,1
428,533,9,0.113814297010661,1
428,534,9,0.100350406686622,1
428,535,9,0.095835373451032,1
428,536,9,0.0915069516860836,1
428,537,9,0.0839944788161749,1
428,538,9,0.0700736644213153,1
428,556,9,0.105086702246894,1
428,557,9,0.188872275646232,1
428,558,9,0.188144853292177,1
428,559,9,0.106978213603462,1
429,530,9,0.112672621749864,1
429,531,9,0.119062215275999,1
429,532,9,0.107471926878348,1
429,533,9,0.0966613036608457,1
429,534,9,0.0944226728067141,1
429,535,9,0.0937188381904666,1
429,536,9,0.0884686557898085,1
429,537,9,0.081176780379449,1
429,538,9,0.0680772481282429,1
429,557,9,0.100292066268581,1
429,558,9,0.101836541984448,1
429,559,9,0.0803390742700595,1
430,531,9,0.104679792805503,1
430,532,9,0.0932066404669074,1
430,534,9,0.0890231353420071,1
430,535,9,0.0904375430724791,1
430,536,9,0.0833841326234155,1
430,537,9,0.0750835789381076,1
430,558,9,0.0686778789043636,1
430,559,9,0.0706616208314633,1
430,560,9,0.0710961970481042,1
431,535,9,0.0892845950532884,1
431,536,9,0.0828492276591179,1
431,537,9,0.0723021665642655,1
431,558,9,0.069180996127538,1
431,559,9,0.073101544097162,1
431,560,9,0.0752960722307565,1
431,561,9,0.0709845296545183,1
432,535,9,0.0840182222881577,1
432,536,9,0.0792764400930878,1
432,537,9,0.0717290288598907,1
432,558,9,0.0709748441867595,1
432,559,9,0.075595141745413,1
432,560,9,0.0782405682351925,1
432,561,9,0.0754179102639555,1
432,562,9,0.0711407729609437,1
433,535,9,0.0809823282920504,1
433,536,9,0.113750374121408,1
433,537,9,0.138975105724338,1
433,559,9,0.0705147814733258,1
433,560,9,0.0731132002012181,1
433,561,9,0.0726071839264697,1
433,562,9,0.0716736294218563,1
434,534,9,0.0706485870789319,1
434,535,9,0.113110642087693,1
434,536,9,0.247398352782855,1
434,537,9,0.319073449699826,4
434,538,9,0.175421550849796,1
434,559,9,0.0738967467562009,1
434,560,9,0.0730912596518052,1
434,561,9,0.0681103356507537,1
435,534,9,0.0780120762509024,1
435,535,9,0.153187969616406,1
435,536,9,0.329991206050498,4
435,537,9,0.403643096754433,4
435,538,9,0.218006042869354,4
435,558,9,0.0978396183813095,1
435,559,9,0.136553523152688,1
435,560,9,0.11900571970896,1
436,535,9,0.129758278038117,1
436,536,9,0.220103087398882,1
436,537,9,0.249002630422101,4
436,538,9,0.133306789042103,1
436,558,9,0.152358385643245,1
436,559,9,0.22974887888165,1
436,560,9,0.192575502563768,1
436,561,9,0.102488553058921,1
437,535,9,0.0949278385332735,1
437,536,9,0.107348381758995,1
437,537,9,0.0996367368582159,1
437,558,9,0.1500606596593,1
437,559,9,0.228934796448724,1
437,560,9,0.195765824964179,1
437,561,9,0.106699161920129,1
438,535,9,0.0868944887544112,1
438,537,9,0.0779145746775081,1
438,558,9,0.0922310796633497,1
438,559,9,0.138220729378375,1
438,560,9,0.132695520423842,1
438,561,9,0.0912413710089284,1
439,559,9,0.0736936873607197,1
439,560,9,0.0872081853020098,1
439,561,9,0.0792690187606492,1
440,560,9,0.0678382979950926,1
443,539,9,0.11839854809747,1
443,540,9,0.0761728736079641,1
444,537,9,0.1061183573025,1
444,538,9,0.192540126946833,1
444,539,9,0.231417678387748,1
444,540,9,0.133219362271906,1
445,537,9,0.121101362630909,1
445,538,9,0.235447767380485,1
445,539,9,0.283866600692878,1
445,540,9,0.164829614353305,1
446,538,9,0.161948256577469,1
446,539,9,0.190589496501348,1
446,540,9,0.123037114472861,1
447,539,9,0.108650499159179,1
447,540,9,0.0971418933365611,1
447,541,9,0.0817466476661389,1
447,542,9,0.0698791823850368,1
447,562,9,0.0712983100589806,1
447,563,9,0.0811390927089859,1
447,564,9,0.0754797966293758,1
448,540,9,0.0978431763082414,1
448,541,9,0.0898201169645119,1
448,562,9,0.0769361387814802,1
448,563,9,0.0869375552437039,1
448,564,9,0.0797599647590332,1
449,541,9,0.0891890581264153,1
449,542,9,0.0812884537628108,1
449,562,9,0.087526955189863,1
449,563,9,0.0943586720503732,1
449,564,9,0.0862844540300027,1
449,565,9,0.0718474107923496,1
450,561,9,0.0739819393399574,1
450,562,9,0.0919181737661804,1
450,563,9,0.099299770030937,1
450,564,9,0.0992176621818099,1
450,565,9,0.0885624976100794,1
450,566,9,0.0689813269452612,1
451,561,9,0.077586987839413,1
451,562,9,0.0892737176201096,1
451,563,9,0.100823598989002,1
451,564,9,0.115721178132392,1
451,565,9,0.113457797523913,1
451,566,9,0.0843869409179039,1
452,561,9,0.079094626433006,1
452,562,9,0.08509938883201,1
452,563,9,0.0968923412999271,1
452,564,9,0.116925326756655,1
452,565,9,0.120558257663295,1
452,566,9,0.0957255868471036,1
452,567,9,0.0835231912625557,1
452,568,9,0.069218108779507,1
453,560,9,0.0744882970319366,1
453,561,9,0.0830253630115712,1
453,562,9,0.0860324162363372,1
453,563,9,0.0902455408034561,1
453,564,9,0.0976068796458499,1
453,565,9,0.0987332270699156,1
453,566,9,0.0920566094686187,1
453,567,9,0.0986374984702112,1
453,568,9,0.0836573143262887,1
454,557,9,0.0700869617239898,1
454,558,9,0.0721928351833116,1
454,559,9,0.0784469399767903,1
454,560,9,0.0839670696012927,1
454,561,9,0.0862960202874192,1
454,562,9,0.0862938879271705,1
454,563,9,0.0845789012584951,1
454,564,9,0.0809594892762405,1
454,565,9,0.077108620370586,1
454,566,9,0.0788012711646338,1
454,567,9,0.0918651882078657,1
454,568,9,0.0811669990752744,1
455,556,9,0.0744574137469863,1
455,557,9,0.0792221547533856,1
455,558,9,0.0815502968197548,1
455,559,9,0.0870650596049795,1
455,560,9,0.0885755732910426,1
455,561,9,0.0848619840610624,1
455,562,9,0.08102510128232,1
455,563,9,0.0770070697086295,1
455,564,9,0.0725865311788924,1
455,567,9,0.0685365920685591,1
456,551,9,0.071146834614235,1
456,552,9,0.0716029320959702,1
456,556,9,0.074853481693855,1
456,557,9,0.0809877789881917,1
456,558,9,0.084553211109319,1
456,559,9,0.0882629608928964,1
456,560,9,0.0864948748601627,1
456,561,9,0.0801841906427816,1
456,562,9,0.0732949419839882,1
457,556,9,0.076719380768334,1
457,557,9,0.0824555136942092,1
457,558,9,0.0857906449187005,1
457,559,9,0.0870564163582411,1
457,560,9,0.0838744736544256,1
457,561,9,0.076984122876852,1
457,562,9,0.0698892452086824,1
458,561,9,0.0772121236995118,1
458,562,9,0.0715161761806831,1
459,560,9,0.081388039778246,1
459,561,9,0.083740230795173,1
459,562,9,0.0798256726015284,1
460,560,9,0.0828247055162578,1
460,561,9,0.089674541449106,1
460,562,9,0.085655785112522,1
460,563,9,0.0680630882978274,1
461,560,9,0.0775712886365708,1
461,561,9,0.0790683912142158,1
461,562,9,0.0741835432198755,1
462,561,9,0.0690124378416987,1
424,538,10,0.0726349824767906,1
424,557,10,0.0943390255851604,1
425,531,10,0.119906725770901,1
425,532,10,0.119189318322284,1
425,533,10,0.105515043106741,1
425,534,10,0.0914237836466082,1
425,535,10,0.0825982260966968,1
425,536,10,0.0767217407400699,1
425,537,10,0.0744238530321732,1
425,538,10,0.0749346191992733,1
425,539,10,0.071859264559013,1
425,556,10,0.0801603573241591,1
425,557,10,0.102318611134831,1
425,558,10,0.105822929571639,1
426,531,10,0.133920525448066,1
426,532,10,0.143787195909855,1
426,533,10,0.125451653067958,1
426,534,10,0.100887186450801,1
426,535,10,0.0887576025830597,1
426,536,10,0.0822674766568846,1
426,537,10,0.0785766066471946,1
426,538,10,0.0786341324557018,1
426,539,10,0.0762626663396728,1
426,540,10,0.0696338172018124,1
426,541,10,0.070217221382216,1
426,556,10,0.0873283342183826,1
426,557,10,0.128322971979253,1
426,558,10,0.134567984292795,1
426,559,10,0.0921983095989658,1
427,530,10,0.119215002481684,1
427,531,10,0.148858882986324,1
427,532,10,0.15481987210247,1
427,533,10,0.130501237871063,1
427,534,10,0.104872100553101,1
427,535,10,0.0998633540426244,1
427,536,10,0.0972330038189853,1
427,537,10,0.0857405644017359,1
427,538,10,0.0762196357890361,1
427,539,10,0.0709554492921379,1
427,555,10,0.0685452712539534,1
427,556,10,0.109897881986463,1
427,557,10,0.185294786106058,1
427,558,10,0.199789037694092,1
427,559,10,0.126692183591521,1
427,560,10,0.0703894573905067,1
428,529,10,0.0917384505379154,1
428,530,10,0.12041831253731,1
428,531,10,0.144086325322272,1
428,532,10,0.138671112613826,1
428,533,10,0.114954918070886,1
428,534,10,0.100606637323473,1
428,535,10,0.107294102409069,1
428,536,10,0.109661920751526,1
428,537,10,0.0932141815948655,1
428,538,10,0.0744248772838656,1
428,555,10,0.0721266301894101,1
428,556,10,0.0960521614130581,1
428,557,10,0.15404184812094,1
428,558,10,0.170181299497712,1
428,559,10,0.114210257141562,1
428,560,10,0.0706940075501845,1
429,530,10,0.108141260384954,1
429,531,10,0.123613822083719,1
429,532,10,0.115132287317191,1
429,533,10,0.0980684697521584,1
429,534,10,0.0920668939139755,1
429,535,10,0.100541300847088,1
429,536,10,0.103544838073355,1
429,537,10,0.0888071080815303,1
429,538,10,0.0710534360373865,1
429,557,10,0.0936528847671563,1
429,558,10,0.100334575708708,1
429,559,10,0.0819799614200925,1
430,531,10,0.0998762021121004,1
430,532,10,0.0944267638237081,1
430,534,10,0.0860782979203402,1
430,535,10,0.0955362979465994,1
430,536,10,0.0981312965124074,1
430,537,10,0.0853347630689005,1
430,538,10,0.0693158259848366,1
430,558,10,0.0683465125176255,1
430,559,10,0.0686896248550594,1
431,535,10,0.0953380004230219,1
431,536,10,0.0964887382148762,1
431,537,10,0.0820681488918387,1
431,559,10,0.0721524940420896,1
431,560,10,0.0752093582439012,1
431,561,10,0.0689592486310008,1
432,536,10,0.0841335853735229,1
432,537,10,0.0736374613336001,1
432,559,10,0.0780324055505768,1
432,560,10,0.0848394984420353,1
432,561,10,0.0765469770463159,1
433,536,10,0.110269475708679,1
433,537,10,0.137259166681282,1
433,538,10,0.0881348635437987,1
433,559,10,0.0721629581807258,1
433,560,10,0.0796602409787505,1
433,561,10,0.0746356934392402,1
434,535,10,0.10930145603308,1
434,536,10,0.244372006489659,1
434,537,10,0.329742247001686,4
434,538,10,0.186393694366362,1
434,559,10,0.0737217075327519,1
434,560,10,0.0740576021901304,1
435,535,10,0.149223444711541,1
435,536,10,0.335061958721914,4
435,537,10,0.431740273346542,4
435,538,10,0.241727879781267,4
435,539,10,0.0751828714545198,1
435,558,10,0.107732422235697,1
435,559,10,0.160917056744838,1
435,560,10,0.135438526354104,1
435,561,10,0.0804133055637735,1
436,535,10,0.12189890130258,1
436,536,10,0.212189275579242,1
436,537,10,0.255453954579481,4
436,538,10,0.142510618914447,1
436,557,10,0.073803210414505,1
436,558,10,0.182136940271008,1
436,559,10,0.289324652279129,1
436,560,10,0.235955916015482,1
436,561,10,0.113284836752729,1
437,536,10,0.105321273853804,1
437,537,10,0.102938301378118,1
437,557,10,0.0719270089253412,1
437,558,10,0.178739659130953,1
437,559,10,0.284384261092131,1
437,560,10,0.237584224635958,1
437,561,10,0.118126492472481,1
438,558,10,0.101435071259646,1
438,559,10,0.157725644205198,1
438,560,10,0.150682637997011,1
438,561,10,0.0983014600582091,1
439,559,10,0.0808697804013955,1
439,560,10,0.10145668237138,1
439,561,10,0.0902421805391316,1
440,560,10,0.0758995481504674,1
440,561,10,0.072426777863743,1
443,539,10,0.129239826988436,1
444,537,10,0.107308310157692,1
444,538,10,0.207239061159638,1
444,539,10,0.26759122931958,1
444,540,10,0.150835712711943,1
445,537,10,0.121321415020844,1
445,538,10,0.24984455333378,1
445,539,10,0.324362733358078,1
445,540,10,0.186700035469057,1
446,538,10,0.154592308533457,1
446,539,10,0.196966990680004,1
446,540,10,0.126839328428234,1
447,539,10,0.103705519803781,1
447,562,10,0.0717988995966916,1
447,563,10,0.0772756392839985,1
447,564,10,0.0712130635672403,1
448,562,10,0.0782973033932704,1
448,563,10,0.0858272244806074,1
448,564,10,0.0775749903181261,1
449,561,10,0.0712937877781161,1
449,562,10,0.0895008559150284,1
449,563,10,0.0959392840847244,1
449,564,10,0.0863395000712544,1
449,565,10,0.0693179164166534,1
450,561,10,0.0788108428266491,1
450,562,10,0.0931030592708938,1
450,563,10,0.0995244105892722,1
450,564,10,0.0990336442841676,1
450,565,10,0.0860041744425938,1
451,560,10,0.0679481684558846,1
451,561,10,0.0801137029590547,1
451,562,10,0.0877022579634551,1
451,563,10,0.097872502251437,1
451,564,10,0.114817488650812,1
451,565,10,0.111086636886459,1
451,566,10,0.08316481098615,1
452,560,10,0.0704942365417161,1
452,561,10,0.080313216407156,1
452,562,10,0.0832560232947659,1
452,563,10,0.0934080586637701,1
452,564,10,0.11532295386617,1
452,565,10,0.117887416554035,1
452,566,10,0.0932398358053858,1
452,567,10,0.0781978192040268,1
453,559,10,0.0696344640976182,1
453,560,10,0.0760461059891339,1
453,561,10,0.0817512358345392,1
453,562,10,0.0827300730455577,1
453,563,10,0.0860720146453377,1
453,564,10,0.0951273280222708,1
453,565,10,0.0948823162358293,1
453,566,10,0.08530977971329,1
453,567,10,0.086174799201146,1
453,568,10,0.0750620157445814,1
454,555,10,0.0677735125780983,1
454,556,10,0.0775136729814239,1
454,557,10,0.078200400797474,1
454,558,10,0.0766651673059435,1
454,559,10,0.0817953265755243,1
454,560,10,0.0843666116182295,1
454,561,10,0.083900648975456,1
454,562,10,0.082847454685428,1
454,563,10,0.083411440012106,1
454,564,10,0.0823315852291933,1
454,565,10,0.0762454517235077,1
454,566,10,0.0727730348335662,1
454,567,10,0.0800457249914634,1
454,568,10,0.0724955105431078,1
455,555,10,0.0726253329476876,1
455,556,10,0.0833707993820851,1
455,557,10,0.0844072642278024,1
455,558,10,0.0828321508078004,1
455,559,10,0.0873873395015567,1
455,560,10,0.087587739436503,1
455,561,10,0.0819385720680741,1
455,562,10,0.0776354271577593,1
455,563,10,0.0772283679719682,1
455,564,10,0.075886220898913,1
455,565,10,0.0686999392492961,1
456,555,10,0.0731079291983562,1
456,556,10,0.0798711230216609,1
456,557,10,0.0827556014707823,1
456,558,10,0.0834128236503573,1
456,559,10,0.0860572498475482,1
456,560,10,0.0844113851936763,1
456,561,10,0.0774395554934536,1
456,562,10,0.0700050275783662,1
457,555,10,0.0761549282391295,1
457,556,10,0.0789115189813126,1
457,557,10,0.0822201514368706,1
457,558,10,0.0840211752477156,1
457,559,10,0.0836960202586682,1
457,560,10,0.0805328674821004,1
457,561,10,0.0736634150329193,1
459,561,10,0.0746772804538659,1
459,562,10,0.0723719115157708,1
460,560,10,0.0737884935349233,1
460,561,10,0.0804038477075019,1
460,562,10,0.0775966014298601,1
461,561,10,0.0753163296531191,1
461,562,10,0.0704817358792469,1
425,533,11,0.0979828578840834,1
425,534,11,0.0888848194350884,1
425,535,11,0.0806122679524847,1
425,538,11,0.0761381628561629,1
425,539,11,0.075162350482014,1
425,540,11,0.0733593620246478,1
425,557,11,0.082812684035867,1
425,558,11,0.0811388171792909,1
426,531,11,0.11562106501667,1
426,532,11,0.119070025943876,1
426,533,11,0.112502835559949,1
426,534,11,0.096856109145027,1
426,535,11,0.0870402858915283,1
426,536,11,0.0830402835435361,1
426,537,11,0.0793673529129047,1
426,538,11,0.0799307931699687,1
426,539,11,0.0790891038595529,1
426,540,11,0.0770475605942509,1
426,541,11,0.0856418169549378,1
426,556,11,0.0776259393526078,1
426,557,11,0.0953723398087124,1
426,558,11,0.101748216747854,1
426,559,11,0.084600260799638,1
427,530,11,0.112785277456486,1
427,531,11,0.132774849016915,1
427,532,11,0.134858524366457,1
427,533,11,0.118502758219961,1
427,534,11,0.100336312743742,1
427,535,11,0.0999669472181899,1
427,536,11,0.101794577613936,1
427,537,11,0.0868976932845603,1
427,538,11,0.0781983762531929,1
427,539,11,0.0748560033895423,1
427,540,11,0.070944889317086,1
427,556,11,0.0851447973237106,1
427,557,11,0.120059812465385,1
427,558,11,0.140479342125174,1
427,559,11,0.114328291667014,1
427,560,11,0.0773150819588235,1
428,530,11,0.112480014513467,1
428,531,11,0.137051860534631,1
428,532,11,0.133394718953482,1
428,533,11,0.111171727644024,1
428,534,11,0.098703026619427,1
428,535,11,0.109794606269024,1
428,536,11,0.116822266671152,1
428,537,11,0.09405393620764,1
428,538,11,0.0758667900656355,1
428,539,11,0.068813954635066,1
428,554,11,0.0727776170121905,1
428,555,11,0.0759212131701853,1
428,556,11,0.082165674424337,1
428,557,11,0.109546557666161,1
428,558,11,0.129920481171642,1
428,559,11,0.107893415434474,1
428,560,11,0.0755562201810982,1
429,531,11,0.119336391281685,1
429,532,11,0.115049197144803,1
429,533,11,0.0976815841318663,1
429,534,11,0.0902006833711456,1
429,535,11,0.102530792959129,1
429,536,11,0.112690231691243,1
429,537,11,0.0918091538535775,1
429,538,11,0.072614695105548,1
429,555,11,0.0772188562077128,1
429,556,11,0.0749233644102078,1
429,557,11,0.0810681198534048,1
429,558,11,0.0890084723704093,1
429,559,11,0.0798863550219767,1
430,532,11,0.0928099555731128,1
430,534,11,0.0858795871022202,1
430,535,11,0.100765965364528,1
430,536,11,0.113325627127149,1
430,537,11,0.095341785961441,1
430,538,11,0.073425339407062,1
431,535,11,0.0953829297326442,1
431,536,11,0.105298620521049,1
431,537,11,0.0895919184792448,1
431,538,11,0.0712097092926918,1
431,559,11,0.0690195237466825,1
431,560,11,0.0725668248159198,1
432,536,11,0.0878735715462449,1
432,537,11,0.0784423278492861,1
432,559,11,0.0760245607649356,1
432,560,11,0.0862900185318877,1
432,561,11,0.0764348544297556,1
433,536,11,0.105690172176829,1
433,537,11,0.127192773129232,1
433,538,11,0.0901919622573194,1
433,559,11,0.0710946456961255,1
433,560,11,0.0819994821000097,1
433,561,11,0.0745246849210121,1
434,535,11,0.105950595656866,1
434,536,11,0.211235894916137,1
434,537,11,0.283899137155999,4
434,538,11,0.175503107639533,1
434,539,11,0.0742440459470444,1
434,559,11,0.0745408393468288,1
434,560,11,0.0756219639622493,1
435,535,11,0.138004546383723,1
435,536,11,0.287578752376623,4
435,537,11,0.375211043766862,4
435,538,11,0.228299904154001,4
435,539,11,0.0878224607878118,1
435,558,11,0.111127271526704,1
435,559,11,0.163921468478397,1
435,560,11,0.136749304970354,1
435,561,11,0.0806404917769001,1
436,535,11,0.114185687080494,1
436,536,11,0.186558497062662,1
436,537,11,0.228395189510283,4
436,538,11,0.141914552347623,1
436,557,11,0.0803887474822576,1
436,558,11,0.18462109204254,1
436,559,11,0.293798487835532,1
436,560,11,0.238609961792896,1
436,561,11,0.115720363522858,1
437,536,11,0.104758977643952,1
437,537,11,0.105899407031345,1
437,557,11,0.0772110096011796,1
437,558,11,0.177259693302386,1
437,559,11,0.281508186298708,1
437,560,11,0.234420233290753,1
437,561,11,0.119035788384377,1
438,558,11,0.102046843019089,1
438,559,11,0.154839985770209,1
438,560,11,0.148074569740016,1
438,561,11,0.0998702602543288,1
439,559,11,0.0852897259433106,1
439,560,11,0.10684660624564,1
439,561,11,0.0951029855726901,1
440,560,11,0.0786576902446292,1
440,561,11,0.0742147978709365,1
443,539,11,0.129866513290067,1
444,538,11,0.19684490706599,1
444,539,11,0.253633733536622,1
444,540,11,0.155738559983102,1
445,538,11,0.231292420192464,1
445,539,11,0.301577889082191,1
445,540,11,0.188547054769649,1
446,539,11,0.18464188854474,1
447,562,11,0.0701485006824032,1
447,563,11,0.0717426915389,1
448,562,11,0.075602473231212,1
448,563,11,0.0810469400055413,1
448,564,11,0.0725462439456542,1
449,561,11,0.0704399512020139,1
449,562,11,0.0841140167753979,1
449,563,11,0.0911202577386229,1
449,564,11,0.0819773678470934,1
450,561,11,0.077419250152883,1
450,562,11,0.0867109859775032,1
450,563,11,0.0931403875547981,1
450,564,11,0.0918669432122277,1
450,565,11,0.080092864528422,1
451,553,11,0.0692181926363707,1
451,554,11,0.068215156730395,1
451,560,11,0.0692049672110079,1
451,561,11,0.0780227739908018,1
451,562,11,0.0823575389285125,1
451,563,11,0.090674846017235,1
451,564,11,0.103978773383966,1
451,565,11,0.100169862859048,1
451,566,11,0.0788962630218928,1
452,553,11,0.0700137067637605,1
452,554,11,0.068442217158226,1
452,556,11,0.0679024245367292,1
452,557,11,0.0679563684592006,1
452,560,11,0.071674881285036,1
452,561,11,0.0786781213704952,1
452,562,11,0.0802196561063562,1
452,563,11,0.0877110928830249,1
452,564,11,0.10547773878194,1
452,565,11,0.106581510740339,1
452,566,11,0.0868114824388873,1
452,567,11,0.06981805073139,1
453,555,11,0.0688557812407308,1
453,556,11,0.073207629019535,1
453,557,11,0.0717711070361467,1
453,558,11,0.0682553541169935,1
453,559,11,0.0703630903966449,1
453,560,11,0.0754600483379713,1
453,561,11,0.0787224756616235,1
453,562,11,0.0790072176321371,1
453,563,11,0.0823144664494438,1
453,564,11,0.0919521657448641,1
453,565,11,0.0891506996010426,1
453,566,11,0.0765152192540726,1
453,567,11,0.0698974272426704,1
454,554,11,0.0688777098105918,1
454,555,11,0.0765012750555923,1
454,556,11,0.0844745294120522,1
454,557,11,0.0819438071322802,1
454,558,11,0.07716123456279,1
454,559,11,0.0800456591039276,1
454,560,11,0.0816695233106268,1
454,561,11,0.0800042158439254,1
454,562,11,0.0787496632547944,1
454,563,11,0.0826361473684231,1
454,564,11,0.0864609607485667,1
454,565,11,0.0777822784954488,1
455,554,11,0.073865144698133,1
455,555,11,0.0802725697873591,1
455,556,11,0.0882366118683626,1
455,557,11,0.0864846503125657,1
455,558,11,0.0820960073399194,1
455,559,11,0.0843332845046795,1
455,560,11,0.0838514070271285,1
455,561,11,0.0782005205929936,1
455,562,11,0.0741801170680152,1
455,563,11,0.0767795600476,1
455,564,11,0.0795053393821445,1
455,565,11,0.0703529736650155,1
456,554,11,0.0773235155634026,1
456,555,11,0.0783540026126924,1
456,556,11,0.0831876919303917,1
456,557,11,0.0837070893646784,1
456,558,11,0.0816362141664048,1
456,559,11,0.0821819785945532,1
456,560,11,0.0803296403728918,1
456,561,11,0.0741628126052104,1
457,554,11,0.0804420145600433,1
457,555,11,0.0786674955079076,1
457,556,11,0.0803067115104423,1
457,557,11,0.081332245014997,1
457,558,11,0.0809866888489634,1
457,559,11,0.0798029414016862,1
457,560,11,0.0768641656333105,1
458,555,11,0.0786914306527217,1
460,561,11,0.0708510474968151,1
460,562,11,0.0681895803869625,1
426,533,12,0.0993100724456217,1
426,534,12,0.0924338755086877,1
426,535,12,0.0845313184781139,1
426,536,12,0.0813344013343496,1
426,537,12,0.0769820204654832,1
426,538,12,0.077493780935396,1
426,539,12,0.0782927691328539,1
426,540,12,0.0778972881840312,1
426,557,12,0.074273964878062,1
426,558,12,0.0762939030214059,1
427,531,12,0.115935636071562,1
427,532,12,0.111909081046652,1
427,533,12,0.104364407141078,1
427,534,12,0.0964432458663118,1
427,535,12,0.0984592487268372,1
427,536,12,0.0999611131763859,1
427,537,12,0.0847356656754306,1
427,538,12,0.0779521725013314,1
427,539,12,0.0773001494473066,1
427,540,12,0.0756765368111985,1
427,556,12,0.0713374712143346,1
427,557,12,0.0816729255033832,1
427,558,12,0.0941159902867876,1
427,559,12,0.0934827871088904,1
428,531,12,0.120100423146526,1
428,532,12,0.118297632351767,1
428,533,12,0.104194465216988,1
428,534,12,0.0971634265812074,1
428,535,12,0.109685688182613,1
428,536,12,0.116153651937664,1
428,537,12,0.0927396415928894,1
428,538,12,0.0766528403469777,1
428,539,12,0.0734756535252898,1
428,540,12,0.0701196060030781,1
428,555,12,0.073867474720989,1
428,556,12,0.07386194615776,1
428,557,12,0.082951479124864,1
428,558,12,0.0948823701438131,1
428,559,12,0.0905872096048789,1
429,532,12,0.107117008692459,1
429,533,12,0.0952574319463216,1
429,534,12,0.0896843467123845,1
429,535,12,0.104221658799934,1
429,536,12,0.116823632340075,1
429,537,12,0.094820435860185,1
429,538,12,0.074932373033281,1
429,539,12,0.069157025044068,1
429,556,12,0.0727066381668334,1
429,557,12,0.0776474725972541,1
429,558,12,0.0817141351621222,1
429,559,12,0.0745950587989953,1
430,534,12,0.0866720284745325,1
430,535,12,0.103685921256776,1
430,536,12,0.120940740798243,1
430,537,12,0.102207333076683,1
430,538,12,0.0771414802816096,1
430,557,12,0.068688289135016,1
430,558,12,0.0694116863596125,1
431,535,12,0.0902811380421023,1
431,536,12,0.103364114552501,1
431,537,12,0.0916107065856006,1
431,538,12,0.0743836915842306,1
431,560,12,0.067901585968092,1
432,536,12,0.0874330534718323,1
432,537,12,0.0825698585176579,1
432,559,12,0.0706158170145481,1
432,560,12,0.0817472765926167,1
432,561,12,0.0727054881298453,1
433,537,12,0.112981322824295,1
433,560,12,0.0785947137399807,1
433,561,12,0.0706377815230649,1
434,536,12,0.166310071343503,1
434,537,12,0.214013953015431,1
434,538,12,0.148388781408349,1
434,559,12,0.0721260192322602,1
434,560,12,0.0735706573621007,1
435,536,12,0.216346922841239,1
435,537,12,0.2792510470368,4
435,538,12,0.188986033471635,1
435,539,12,0.0900948440295878,1
435,558,12,0.101874277573119,1
435,559,12,0.143919330367963,1
435,560,12,0.122421209767992,1
436,536,12,0.152370712602211,1
436,537,12,0.185683450689816,1
436,538,12,0.130486119676491,1
436,557,12,0.0773085710723338,1
436,558,12,0.158747943230724,1
436,559,12,0.245929707630888,1
436,560,12,0.203467035675202,1
436,561,12,0.104500458912676,1
437,537,12,0.10284823910649,1
437,558,12,0.147742712191648,1
437,559,12,0.22795635456292,1
437,560,12,0.193227765208832,1
437,561,12,0.10460296793879,1
438,558,12,0.0921741049142326,1
438,559,12,0.132494180094067,1
438,560,12,0.126636754204607,1
438,561,12,0.0887951944171071,1
439,559,12,0.0823964245541714,1
439,560,12,0.0967954506836826,1
439,561,12,0.0846504371530183,1
440,560,12,0.07331195294777,1
440,561,12,0.0680865262912352,1
443,543,12,0.0687313795834125,1
444,539,12,0.197818377437731,1
445,539,12,0.230154961733957,1
448,555,12,0.0736702613468639,1
448,562,12,0.0708043751623828,1
448,563,12,0.0729886847381562,1
449,555,12,0.07462758927234,1
449,556,12,0.075854948278524,1
449,557,12,0.0723355056573674,1
449,558,12,0.0691172289724602,1
449,561,12,0.0681549894306809,1
449,562,12,0.0766108819662412,1
449,563,12,0.0813071837922987,1
449,564,12,0.0735636133855488,1
450,553,12,0.0697848494031356,1
450,554,12,0.0730703673131887,1
450,555,12,0.0746981727924824,1
450,556,12,0.0734879864740316,1
450,557,12,0.0720060200602868,1
450,558,12,0.0698350616951718,1
450,561,12,0.0730874980724901,1
450,562,12,0.0782112662511008,1
450,563,12,0.0827910250059251,1
450,564,12,0.0812205596520831,1
450,565,12,0.0723817407381532,1
451,552,12,0.0767275747818739,1
451,553,12,0.0816326203008171,1
451,554,12,0.0791583935880838,1
451,555,12,0.0751719820417891,1
451,556,12,0.0744663025745399,1
451,557,12,0.0735854281496662,1
451,558,12,0.0697597881804373,1
451,560,12,0.0683564854946314,1
451,561,12,0.0736228462802102,1
451,562,12,0.075743598343065,1
451,563,12,0.0806088058619685,1
451,564,12,0.0887690370654046,1
451,565,12,0.0869872104865739,1
451,566,12,0.0738504098492234,1
452,551,12,0.0677926379328009,1
452,552,12,0.0782785913331104,1
452,553,12,0.0825714697673964,1
452,554,12,0.0784403691925408,1
452,555,12,0.0734935150372607,1
452,556,12,0.0740111155387535,1
452,557,12,0.0728551007542613,1
452,558,12,0.0683222359555806,1
452,560,12,0.0705314689892047,1
452,561,12,0.0748519303418763,1
452,562,12,0.075783058987218,1
452,563,12,0.0798105663865081,1
452,564,12,0.0918971077240605,1
452,565,12,0.0936592638785745,1
452,566,12,0.0800127033564884,1
453,552,12,0.0730717629309919,1
453,553,12,0.0747449050246745,1
453,554,12,0.0746564120743533,1
453,555,12,0.0754091052932657,1
453,556,12,0.077485323371713,1
453,557,12,0.0745386710479242,1
453,558,12,0.0695814066619918,1
453,559,12,0.069792049113863,1
453,560,12,0.0729914819635386,1
453,561,12,0.0745286920811424,1
453,562,12,0.0748330385884369,1
453,563,12,0.0780061164238028,1
453,564,12,0.0870460660253485,1
453,565,12,0.0833992687873157,1
453,566,12,0.0696440896676173,1
454,553,12,0.0720402695993377,1
454,554,12,0.0754371973426095,1
454,555,12,0.0821035544576536,1
454,556,12,0.0857088485379244,1
454,557,12,0.0815243131715557,1
454,558,12,0.0755728358196654,1
454,559,12,0.0763219771014219,1
454,560,12,0.0771244932769317,1
454,561,12,0.0751044712767241,1
454,562,12,0.0742782655372153,1
454,563,12,0.0806976581988485,1
454,564,12,0.0897583563843872,1
454,565,12,0.0807245882316523,1
455,553,12,0.0765693967778072,1
455,554,12,0.0787418286278132,1
455,555,12,0.0844789318973971,1
455,556,12,0.087816536899368,1
455,557,12,0.0849169043170184,1
455,558,12,0.0797308963762047,1
455,559,12,0.0797467033950146,1
455,560,12,0.0782427365340971,1
455,561,12,0.0732587397779681,1
455,562,12,0.0700185405129759,1
455,563,12,0.0749044127590087,1
455,564,12,0.0830313887262066,1
455,565,12,0.0747296251061508,1
456,553,12,0.0803958094281374,1
456,554,12,0.0794224708314681,1
456,555,12,0.0811338396754519,1
456,556,12,0.0836439331667505,1
456,557,12,0.0831034637005679,1
456,558,12,0.0797364548883137,1
456,559,12,0.0786028957739687,1
456,560,12,0.0756171002641539,1
456,561,12,0.070031083103877,1
456,564,12,0.0679347753167945,1
457,554,12,0.079980364555975,1
457,555,12,0.0790613831763197,1
457,556,12,0.080152486758522,1
457,557,12,0.0798588679400068,1
457,558,12,0.0777337553202388,1
457,559,12,0.0762474822575648,1
457,560,12,0.0729086194026382,1
458,555,12,0.0768909878501467,1
458,556,12,0.0756653598892208,1
426,535,13,0.082843938686928,1
426,536,13,0.0801436937673841,1
427,534,13,0.0929986994040029,1
427,535,13,0.0938117635750127,1
427,536,13,0.0933319465803986,1
427,537,13,0.0823471047387562,1
427,538,13,0.0770137423190707,1
427,539,13,0.0771132265083142,1
427,557,13,0.0686580826947513,1
427,558,13,0.0709527479031711,1
428,532,13,0.0992633222441017,1
428,534,13,0.0935475545565568,1
428,535,13,0.102779883783012,1
428,536,13,0.107979236944708,1
428,537,13,0.0908483818069132,1
428,538,13,0.0779265182908112,1
428,539,13,0.0759826143637511,1
428,557,13,0.0729781726813122,1
428,558,13,0.0758052930356539,1
429,534,13,0.0869343267544509,1
429,535,13,0.100592142065603,1
429,536,13,0.113487015651141,1
429,537,13,0.0966684913920211,1
429,538,13,0.0780748131645117,1
429,539,13,0.0729110572414619,1
429,557,13,0.0767648910862262,1
429,558,13,0.0783025923654603,1
429,559,13,0.0688289650136706,1
430,534,13,0.0829046869949121,1
430,535,13,0.0973752130802907,1
430,536,13,0.113920795227577,1
430,537,13,0.101160152521739,1
430,538,13,0.0800074083945225,1
430,539,13,0.071133956595879,1
430,557,13,0.0688975719077398,1
430,558,13,0.0702531600380931,1
431,535,13,0.0818453172458493,1
431,536,13,0.092988726426997,1
431,537,13,0.0882937243823271,1
431,538,13,0.0767520430167502,1
432,560,13,0.0730963749204917,1
433,560,13,0.0713533381309043,1
434,537,13,0.146142423743204,1
435,537,13,0.186353239419396,1
435,538,13,0.142941020257231,1
435,559,13,0.113185083023566,1
436,537,13,0.142345840177251,1
436,558,13,0.119630177813927,1
436,559,13,0.171289515869887,1
436,560,13,0.147136115598651,1
437,559,13,0.154749564112022,1
437,560,13,0.136350924969958,1
438,559,13,0.103946740062027,1
438,560,13,0.0998535547691219,1
439,559,13,0.0767926536978912,1
439,560,13,0.0825616165859101,1
439,561,13,0.07169123337346,1
449,554,13,0.0802418422365843,1
449,555,13,0.0850499192721953,1
449,562,13,0.069187417167388,1
449,563,13,0.0707466037730605,1
450,553,13,0.0784556850497204,1
450,554,13,0.0834548658879575,1
450,555,13,0.0839331914283526,1
450,556,13,0.0802542171137579,1
450,557,13,0.0770912200713655,1
450,558,13,0.0732927796748596,1
450,561,13,0.0683023439095527,1
450,562,13,0.0701463563426025,1
450,563,13,0.0727110166930744,1
450,564,13,0.071564992854916,1
451,552,13,0.0834302179598018,1
451,553,13,0.0887501872403971,1
451,554,13,0.0876316205353288,1
451,555,13,0.0834771538443772,1
451,556,13,0.0809582793414926,1
451,557,13,0.0786496938936965,1
451,558,13,0.0732240589750468,1
451,561,13,0.0700990011737086,1
451,562,13,0.0702626298739167,1
451,563,13,0.0725138033189492,1
451,564,13,0.0763579157572989,1
451,565,13,0.0764141537639704,1
451,566,13,0.0692226130910435,1
452,552,13,0.0858994012811604,1
452,553,13,0.0906913478500586,1
452,554,13,0.0862082940284234,1
452,555,13,0.0810981046719582,1
452,556,13,0.0796148384768258,1
452,557,13,0.076418676044835,1
452,558,13,0.0701607917027131,1
452,560,13,0.0686348603332788,1
452,561,13,0.0722008554933481,1
452,562,13,0.0720141961044989,1
452,563,13,0.0742836503458209,1
452,564,13,0.0808051507185766,1
452,565,13,0.0829459625411869,1
452,566,13,0.0737661696398477,1
453,553,13,0.0829020215446013,1
453,554,13,0.0810488747031826,1
453,555,13,0.0806847622111646,1
453,556,13,0.0801941456504595,1
453,557,13,0.07563401539152,1
453,558,13,0.0697340740721573,1
453,559,13,0.0681956839686856,1
453,560,13,0.0704127995474988,1
453,561,13,0.0719602941104593,1
453,562,13,0.0710964007004875,1
453,563,13,0.0743693640400876,1
453,564,13,0.081759465786735,1
453,565,13,0.080114799088059,1
454,555,13,0.0839303882131942,1
454,556,13,0.0835243053608878,1
454,557,13,0.078537050166626,1
454,558,13,0.0730078400417387,1
454,559,13,0.0721166632021802,1
454,560,13,0.0724868253679376,1
454,561,13,0.0712903616262558,1
454,562,13,0.0691948265202746,1
454,563,13,0.0756385556417125,1
454,564,13,0.0886758241716116,1
454,565,13,0.0861448563110244,1
454,566,13,0.0678277499995927,1
455,554,13,0.0807256843606566,1
455,555,13,0.085232643378226,1
455,556,13,0.0847495020579433,1
455,557,13,0.0810986557313483,1
455,558,13,0.0767034120255726,1
455,559,13,0.0751320781542136,1
455,560,13,0.072819844932846,1
455,561,13,0.0692456078410289,1
455,563,13,0.0709382167066448,1
455,564,13,0.0851734883506524,1
455,565,13,0.0851001495335594,1
456,554,13,0.0795260759865856,1
456,555,13,0.0818143441142592,1
456,556,13,0.0819773738368694,1
456,557,13,0.0805768384275659,1
456,558,13,0.0775103366762033,1
456,559,13,0.0758012499368678,1
456,560,13,0.0717386244810099,1
456,564,13,0.0694546749818174,1
457,554,13,0.0785519886679189,1
457,555,13,0.0782440602745886,1
457,556,13,0.0783797945880601,1
458,555,13,0.074759657842912,1
