x,y,z,signal,cytoplasm.p
689,361,3,0.0749294799714829,1
689,362,3,0.0693607433149069,1
690,361,3,0.0752696633084628,1
690,362,3,0.0703585321771245,1
694,357,3,0.0680656758810505,1
695,350,3,0.0682702087614226,1
695,351,3,0.0709476506038125,1
695,356,3,0.0712879956647439,1
695,357,3,0.0810033104773066,1
695,358,3,0.0771454035848761,1
696,356,3,0.0704977166015602,1
696,357,3,0.0792450476771793,1
696,358,3,0.0772787180288519,1
682,364,4,0.0779948376756334,1
683,363,4,0.0769076274478178,1
683,364,4,0.0957273478412416,1
683,365,4,0.0785988646547345,1
684,363,4,0.0692639425453021,1
684,364,4,0.0875619714202391,1
684,365,4,0.0741954508945227,1
686,371,4,0.073068246932492,1
686,372,4,0.0750953728070112,1
687,371,4,0.0738187598729478,1
687,372,4,0.0738869414929224,1
688,361,4,0.0813496932324253,1
688,362,4,0.080256547136614,1
689,362,4,0.0989817848037371,1
689,363,4,0.0720540460840905,1
690,362,4,0.0875325915690597,1
690,363,4,0.0694602095348225,1
690,365,4,0.0686779687510033,1
691,364,4,0.0833068764928319,1
691,365,4,0.0904862159920885,1
692,364,4,0.0838504187140919,1
692,365,4,0.0923101626756071,1
693,365,4,0.070421209192974,1
694,350,4,0.067846653732584,1
694,351,4,0.0693045472366672,1
694,357,4,0.0768329648902333,1
694,358,4,0.0693934534815309,1
695,350,4,0.0749653168011683,1
695,351,4,0.0759802364226873,1
695,356,4,0.0840309266030102,1
695,357,4,0.102570457255665,1
695,358,4,0.0879089411734038,1
696,351,4,0.0679485637810993,1
696,356,4,0.0804870576754091,1
696,357,4,0.097970387170494,1
696,358,4,0.0881470347685891,1
697,357,4,0.0697491982565056,1
697,358,4,0.0687230897334569,1
699,360,4,0.0682021529267435,1
700,359,4,0.0689838905693804,1
700,360,4,0.0745106149372362,1
700,361,4,0.0699804155888664,1
701,360,4,0.0747326020248126,1
701,361,4,0.0701082733469248,1
682,363,5,0.0696142965218952,1
682,364,5,0.0894573821209691,1
682,365,5,0.0701845651235758,1
683,363,5,0.0832902129360569,1
683,364,5,0.114942351520881,1
683,365,5,0.0873371930970563,1
684,363,5,0.0688257125653137,1
684,364,5,0.0942196733089928,1
684,365,5,0.0748498339202835,1
684,370,5,0.071214039900725,1
684,371,5,0.0748344102471362,1
685,371,5,0.0757167102386931,1
685,372,5,0.0787579351354221,1
685,373,5,0.0756341950847994,1
686,371,5,0.0813555572231092,1
686,372,5,0.089507396750398,1
686,373,5,0.084619541888516,1
687,371,5,0.078640200098769,1
687,372,5,0.0848046379458346,1
687,373,5,0.0777436923585888,1
688,362,5,0.0855625362800731,1
688,372,5,0.0714804890953972,1
688,373,5,0.0699336234589145,1
689,361,5,0.110745507164874,1
689,362,5,0.11395897405967,1
689,363,5,0.078056316736287,1
690,362,5,0.0907431953509371,1
690,363,5,0.0700910407614318,1
690,365,5,0.0716271008420475,1
691,364,5,0.0860334404880297,1
691,365,5,0.100305375550808,1
692,364,5,0.0860205624696738,1
692,365,5,0.102415070487205,1
692,366,5,0.0686581246231832,1
693,365,5,0.0737011266624863,1
694,350,5,0.0690942881304587,1
694,351,5,0.0700748563867352,1
694,357,5,0.0788432774635781,1
694,358,5,0.0688917917739196,1
695,350,5,0.0738771541989719,1
695,351,5,0.0727563233585834,1
695,356,5,0.0871789911338857,1
695,357,5,0.110737995985796,1
695,358,5,0.0901779940997352,1
696,356,5,0.0797418217275913,1
696,357,5,0.101577352398263,1
696,358,5,0.0872570798433305,1
696,359,5,0.0692360481585656,1
697,357,5,0.0714874372355334,1
697,358,5,0.0689149722069603,1
699,359,5,0.0692016608546672,1
699,360,5,0.0725961268000115,1
699,361,5,0.0684286443258565,1
700,359,5,0.0721584418896373,1
700,360,5,0.0816716077526677,1
700,361,5,0.0753131371025221,1
700,362,5,0.0679036045225971,1
701,359,5,0.0694356514533065,1
701,360,5,0.0792637956759951,1
701,361,5,0.0738904155629905,1
701,362,5,0.0693339809958304,1
701,363,5,0.0687052102521581,1
701,364,5,0.0695590048998284,1
702,360,5,0.0684137956712033,1
682,364,6,0.0927408754867412,1
682,365,6,0.0725723413995969,1
683,363,6,0.0825801669221186,1
683,364,6,0.119901227156552,1
683,365,6,0.0923998056629163,1
683,371,6,0.0700072198363747,1
684,364,6,0.0890721017606395,1
684,365,6,0.0723597882091883,1
684,370,6,0.0748399328205893,1
684,371,6,0.0828915034979813,1
684,372,6,0.0788980479751347,1
684,373,6,0.0734830089701927,1
685,370,6,0.0719923274323977,1
685,371,6,0.0867419710886451,1
685,372,6,0.0973889356570597,1
685,373,6,0.0994741144403724,1
685,374,6,0.0795545573713681,1
686,370,6,0.0690154686683444,1
686,371,6,0.0903263608507475,1
686,372,6,0.110461196458231,1
686,373,6,0.115954108540683,1
686,374,6,0.0926177137130506,1
686,375,6,0.0686731050529079,1
687,371,6,0.0829023629618321,1
687,372,6,0.101521228197335,1
687,373,6,0.104062845879614,1
687,374,6,0.086730620463164,1
687,375,6,0.0691145395630454,1
688,362,6,0.088969107562672,1
688,363,6,0.0686509249124558,1
688,371,6,0.0688523970173024,1
688,372,6,0.0838459743003151,1
688,373,6,0.0874473390875434,1
688,374,6,0.080653088275785,1
688,375,6,0.073119675149052,1
689,361,6,0.109669072544046,1
689,362,6,0.122426049506984,1
689,363,6,0.0850115906957024,1
689,372,6,0.0725600743383909,1
689,373,6,0.0786684898107202,1
689,374,6,0.0785687899895414,1
689,375,6,0.0754612702522712,1
689,376,6,0.068616974862204,1
690,361,6,0.0839352818601695,1
690,362,6,0.0917940296692292,1
690,363,6,0.0711615634733685,1
690,365,6,0.0697077070782956,1
690,373,6,0.0751606433958599,1
690,374,6,0.0766689887830184,1
690,375,6,0.073637221742561,1
691,364,6,0.0807434979544196,1
691,365,6,0.0966662272567008,1
692,351,6,0.0696270966731634,1
692,364,6,0.081075643012035,1
692,365,6,0.0988031756738043,1
692,366,6,0.069062913683878,1
693,350,6,0.0689769663883481,1
693,351,6,0.0732375120118968,1
693,365,6,0.0706017769796521,1
694,351,6,0.0689885566048685,1
694,357,6,0.0763925127033565,1
694,358,6,0.0684342267970694,1
695,356,6,0.0809855627710793,1
695,357,6,0.0996251825803514,1
695,358,6,0.0834308828249355,1
695,359,6,0.0683924241505084,1
696,356,6,0.0719534298271868,1
696,357,6,0.0890590260796763,1
696,358,6,0.0786956714141152,1
696,359,6,0.0684997729156131,1
698,359,6,0.0709475487776209,1
698,360,6,0.0774307744818676,1
698,361,6,0.0737204377002442,1
699,359,6,0.0757268748885303,1
699,360,6,0.089089226530165,1
699,361,6,0.0822555510129094,1
699,362,6,0.0690836083598872,1
700,359,6,0.076744501888792,1
700,360,6,0.0923026514965288,1
700,361,6,0.0856469022747444,1
700,362,6,0.0748720559891674,1
700,363,6,0.071105624955496,1
700,364,6,0.0717818706635819,1
700,365,6,0.070694738302854,1
701,359,6,0.0700202296298021,1
701,360,6,0.0804203734994293,1
701,361,6,0.0778543714391381,1
701,362,6,0.0770264226748193,1
701,363,6,0.0774414542524391,1
701,364,6,0.075531446467647,1
701,365,6,0.0704564290757335,1
702,360,6,0.0683588274970394,1
702,361,6,0.0694865645491323,1
702,362,6,0.0738920747309369,1
702,363,6,0.076371608385188,1
702,364,6,0.0725015302679672,1
703,363,6,0.0677483195803285,1
682,364,7,0.0936347597050423,1
682,365,7,0.0773983697938185,1
683,364,7,0.116844129353477,1
683,365,7,0.0965657727237486,1
683,371,7,0.0709448473886541,1
684,364,7,0.0839588216797689,1
684,365,7,0.0733302696827153,1
684,370,7,0.0767564155532152,1
684,371,7,0.0876882179285591,1
684,372,7,0.0899114969868552,1
684,373,7,0.0852754523071515,1
684,374,7,0.0715202671976771,1
685,370,7,0.0749955292312089,1
685,371,7,0.0930920380830915,1
685,372,7,0.112565560494006,1
685,373,7,0.121481988935302,1
685,374,7,0.10179288849711,1
685,375,7,0.0714647180152432,1
686,370,7,0.0705807049477562,1
686,371,7,0.0933743062761256,1
686,372,7,0.126809667057583,1
686,373,7,0.14748246840489,1
686,374,7,0.124477835289211,1
686,375,7,0.0838525570641166,1
687,371,7,0.0830193792253677,1
687,372,7,0.11541430992941,1
687,373,7,0.132750973769861,1
687,374,7,0.113516509308064,1
687,375,7,0.0829022132174326,1
688,361,7,0.0824350825683431,1
688,362,7,0.0992424179259332,1
688,363,7,0.0791694087861101,1
688,371,7,0.0721050130879001,1
688,372,7,0.0955361601817518,1
688,373,7,0.106423572327312,1
688,374,7,0.0969443145861012,1
688,375,7,0.0854308091267319,1
688,376,7,0.0756136621327417,1
689,361,7,0.111931422911056,1
689,362,7,0.135479041198829,1
689,363,7,0.0997252058494331,1
689,372,7,0.0798534052643135,1
689,373,7,0.0896792434232499,1
689,374,7,0.0879074616987369,1
689,375,7,0.0842038813844184,1
689,376,7,0.0767081798872523,1
690,361,7,0.08663535307621,1
690,362,7,0.101811552639062,1
690,363,7,0.0810682396489244,1
690,365,7,0.0705190461938232,1
690,372,7,0.0710788985750754,1
690,373,7,0.0859198383968024,1
690,374,7,0.0871077547281614,1
690,375,7,0.0792784646373689,1
690,376,7,0.0689630281796438,1
691,358,7,0.0686720448625596,1
691,362,7,0.0678722001271366,1
691,364,7,0.0778076092580661,1
691,365,7,0.09107431615686,1
691,366,7,0.0731674196533846,1
691,373,7,0.0696005979042301,1
691,374,7,0.0733198894009429,1
692,350,7,0.0690035190652653,1
692,351,7,0.0744129276807865,1
692,352,7,0.0683193069551266,1
692,357,7,0.0678757221154125,1
692,363,7,0.0677676425976384,1
692,364,7,0.0793436393898019,1
692,365,7,0.0933843391508913,1
692,366,7,0.0763390839016193,1
693,350,7,0.0716496822974902,1
693,351,7,0.0787426791760023,1
693,352,7,0.0708519100245562,1
693,357,7,0.0678404782735491,1
693,359,7,0.0686234917384697,1
693,360,7,0.0685451873970897,1
693,365,7,0.0706357390094559,1
694,350,7,0.0678760036348836,1
694,351,7,0.0729692539048787,1
694,352,7,0.0680955828325162,1
694,356,7,0.0688159132918112,1
694,357,7,0.0730768183019186,1
694,358,7,0.0694787958096869,1
694,359,7,0.0689819019637552,1
694,360,7,0.069747035947377,1
694,361,7,0.0688553140382044,1
694,362,7,0.068171018071202,1
695,351,7,0.0680425673253216,1
695,356,7,0.0724952469929648,1
695,357,7,0.0823214864668918,1
695,358,7,0.0759549595680538,1
695,359,7,0.0707729527975944,1
695,360,7,0.0703932608982536,1
695,361,7,0.0692471891418874,1
696,357,7,0.0747710204479452,1
696,358,7,0.0726194449978997,1
696,359,7,0.0698666038554798,1
696,360,7,0.0690133602671996,1
697,359,7,0.0687150274949885,1
697,360,7,0.0723920910710457,1
697,361,7,0.0703756809057538,1
698,359,7,0.0750482871780364,1
698,360,7,0.095983518580333,1
698,361,7,0.091250553335505,1
698,362,7,0.072759336215901,1
699,359,7,0.0831310466189536,1
699,360,7,0.115374274266763,1
699,361,7,0.107861010746425,1
699,362,7,0.0802046397379756,1
699,364,7,0.0688348889021143,1
699,365,7,0.0725761748562238,1
700,359,7,0.0777761449648458,1
700,360,7,0.101892127105538,1
700,361,7,0.097616199737274,1
700,362,7,0.0823474940741948,1
700,363,7,0.0776066402944018,1
700,364,7,0.0807336268036054,1
700,365,7,0.081114235138671,1
701,359,7,0.0691229492085206,1
701,360,7,0.0779209358195983,1
701,361,7,0.0795762403604139,1
701,362,7,0.083398322402711,1
701,363,7,0.0890055194108514,1
701,364,7,0.0858466792729888,1
701,365,7,0.0775149727628115,1
702,360,7,0.0678274025925859,1
702,361,7,0.0715092879383066,1
702,362,7,0.079200717345155,1
702,363,7,0.0867081647930168,1
702,364,7,0.0815301352338078,1
702,365,7,0.0712860789364305,1
703,362,7,0.0691446321975664,1
703,363,7,0.0720970766347273,1
703,364,7,0.0701682789226875,1
682,365,8,0.0791266417856164,1
683,365,8,0.0965665933230578,1
683,371,8,0.0734721195574619,1
683,372,8,0.0744816543703753,1
684,364,8,0.0793218126461326,1
684,365,8,0.0726583965110945,1
684,370,8,0.0785036811246442,1
684,371,8,0.0946473612832573,1
684,372,8,0.102962188604724,1
684,373,8,0.0981109133047492,1
684,374,8,0.0812262199903838,1
685,370,8,0.0770402590573319,1
685,371,8,0.0985879091148769,1
685,372,8,0.124032687117966,1
685,373,8,0.137171835747501,1
685,374,8,0.116774671911219,1
685,375,8,0.077079983251628,1
686,370,8,0.0706082818763658,1
686,371,8,0.092968864329849,1
686,372,8,0.135639363542697,1
686,373,8,0.169022277845678,1
686,374,8,0.145651142317365,1
686,375,8,0.0910214803429449,1
687,371,8,0.0804293941020545,1
687,372,8,0.122553667674003,1
687,373,8,0.153012241568719,1
687,374,8,0.131123503718022,1
687,375,8,0.0895172499318843,1
687,376,8,0.0694926920899593,1
688,361,8,0.0836013458595362,1
688,362,8,0.104998113460157,1
688,363,8,0.0844280667197792,1
688,371,8,0.0732568649780865,1
688,372,8,0.0996762334410247,1
688,373,8,0.114381612652784,1
688,374,8,0.100965053538534,1
688,375,8,0.0885557052041186,1
688,376,8,0.080625607183591,1
688,377,8,0.0686295234428811,1
689,360,8,0.0698302758641642,1
689,361,8,0.110513547100292,1
689,362,8,0.142391805718118,1
689,363,8,0.108173653093451,1
689,364,8,0.0708150309738504,1
689,372,8,0.0791847186535137,1
689,373,8,0.0884222470055193,1
689,374,8,0.0851103022038446,1
689,375,8,0.0852742962803874,1
689,376,8,0.0815901408095705,1
689,377,8,0.0692828402885174,1
690,357,8,0.0688759128777979,1
690,358,8,0.0713293850167623,1
690,361,8,0.0847936646762402,1
690,362,8,0.105461746080075,1
690,363,8,0.0846290296936675,1
690,364,8,0.0686370585810633,1
690,365,8,0.0702415338829168,1
690,372,8,0.0693203482657011,1
690,373,8,0.0852198971349416,1
690,374,8,0.0876278349969098,1
690,375,8,0.0802151338254917,1
690,376,8,0.0704097507515252,1
691,357,8,0.0735453445688114,1
691,358,8,0.0743304125268929,1
691,359,8,0.0677821019168529,1
691,362,8,0.0686248154789612,1
691,364,8,0.0744181088370088,1
691,365,8,0.0869382620372694,1
691,366,8,0.0797021454515031,1
691,373,8,0.0696665692968683,1
691,374,8,0.0755193710792723,1
692,351,8,0.0701760596416849,1
692,356,8,0.068558221149621,1
692,357,8,0.0727603904164734,1
692,358,8,0.073488741185805,1
692,359,8,0.0700778752338289,1
692,360,8,0.0680573021742312,1
692,363,8,0.0691619666092511,1
692,364,8,0.0775147990593081,1
692,365,8,0.0898994096189285,1
692,366,8,0.0837147023699483,1
693,351,8,0.0736830555083561,1
693,352,8,0.0680675147422762,1
693,356,8,0.0709640745695483,1
693,357,8,0.0729178256883187,1
693,358,8,0.073255852705946,1
693,359,8,0.0712759442354731,1
693,360,8,0.0704171840635158,1
693,361,8,0.0679885694948664,1
693,362,8,0.0702895299578406,1
693,363,8,0.0717018951747036,1
693,364,8,0.0693296683571252,1
693,365,8,0.0702983109694266,1
694,351,8,0.070839403372311,1
694,352,8,0.0696941102868221,1
694,356,8,0.0710396236139778,1
694,357,8,0.0733795355901467,1
694,358,8,0.072426795833071,1
694,359,8,0.0712605565009818,1
694,360,8,0.0721106973853047,1
694,361,8,0.0705047306292322,1
694,362,8,0.073256140215193,1
694,363,8,0.0745344302865308,1
695,352,8,0.0715239988281123,1
695,357,8,0.0697681918361366,1
695,358,8,0.0701460808129075,1
695,359,8,0.070865710468413,1
695,360,8,0.0738116260497562,1
695,361,8,0.072667309297752,1
695,362,8,0.0721456956463529,1
695,363,8,0.0705741341635067,1
696,359,8,0.0681608474315889,1
696,360,8,0.0696454733058685,1
696,361,8,0.0688822919892161,1
697,360,8,0.0713699178308156,1
697,361,8,0.0709898186267083,1
698,359,8,0.0709538380423994,1
698,360,8,0.103119288449115,1
698,361,8,0.102026202251063,1
698,362,8,0.0754865111682488,1
699,359,8,0.0811788588317138,1
699,360,8,0.13089662298347,1
699,361,8,0.128951047908912,1
699,362,8,0.0875651100628524,1
699,364,8,0.0684444992628742,1
699,365,8,0.0769527903587032,1
699,366,8,0.0681522640826102,1
700,359,8,0.0692541552513516,1
700,360,8,0.0999976268507569,1
700,361,8,0.10070152735454,1
700,362,8,0.0817996272346776,1
700,363,8,0.0769623859798224,1
700,364,8,0.08290063790635,1
700,365,8,0.0857682431565372,1
700,366,8,0.0706003873516249,1
701,360,8,0.0686569386475392,1
701,361,8,0.0724709824104718,1
701,362,8,0.0804253989214761,1
701,363,8,0.0938494572352517,1
701,364,8,0.0917983542874864,1
701,365,8,0.080184657845308,1
702,362,8,0.0762274644262413,1
702,363,8,0.0902669243037029,1
702,364,8,0.0861911812384499,1
702,365,8,0.0726217630412038,1
703,363,8,0.0710702193896811,1
703,364,8,0.0697816508627625,1
683,371,9,0.0731450238809972,1
683,372,9,0.0810050654816686,1
683,373,9,0.0766803214391716,1
684,365,9,0.0710569041176787,1
684,370,9,0.075785406979402,1
684,371,9,0.0984859751072577,1
684,372,9,0.113050648491482,1
684,373,9,0.111929050959768,1
684,374,9,0.0930560934374385,1
684,375,9,0.0694150825625929,1
685,370,9,0.0759649744734915,1
685,371,9,0.101535100518504,1
685,372,9,0.128996186860693,1
685,373,9,0.14621291142693,1
685,374,9,0.126705588710164,1
685,375,9,0.084670670616277,1
686,370,9,0.0691323591465844,1
686,371,9,0.0901829536342463,1
686,372,9,0.133558179939962,1
686,373,9,0.174634626061161,1
686,374,9,0.153046479128218,1
686,375,9,0.0953602763998897,1
687,371,9,0.0771682186415821,1
687,372,9,0.121318791498965,1
687,373,9,0.161308296932267,1
687,374,9,0.140538604968716,1
687,375,9,0.0935234756571192,1
687,376,9,0.0710525854891975,1
688,361,9,0.0825406763290858,1
688,362,9,0.104004709113957,1
688,363,9,0.0858395394600212,1
688,364,9,0.068737944377886,1
688,371,9,0.0739063004488882,1
688,372,9,0.0996929509057835,1
688,373,9,0.117532845775152,1
688,374,9,0.103434638174884,1
688,375,9,0.0880725698736119,1
688,376,9,0.0811471848963342,1
688,377,9,0.0698910062028203,1
689,358,9,0.0701426666405992,1
689,359,9,0.0693476496646157,1
689,360,9,0.0771293030670432,1
689,361,9,0.107181255029615,1
689,362,9,0.13885244709183,1
689,363,9,0.109937150957784,1
689,364,9,0.073973865121937,1
689,372,9,0.0771277876537204,1
689,373,9,0.0848166474466735,1
689,374,9,0.0820332284978782,1
689,375,9,0.0825888700666168,1
689,376,9,0.0816421320650725,1
689,377,9,0.070670785188712,1
690,357,9,0.072287695265499,1
690,358,9,0.0769290289173926,1
690,359,9,0.0709407204330043,1
690,360,9,0.0701750533593203,1
690,361,9,0.0832620609889532,1
690,362,9,0.103409037872347,1
690,363,9,0.0853093843880754,1
690,364,9,0.0694502605169205,1
690,365,9,0.0695216406772683,1
690,366,9,0.0679516485157287,1
690,373,9,0.0784789134009689,1
690,374,9,0.0823897938721621,1
690,375,9,0.0765207478173017,1
690,376,9,0.0688836636479154,1
691,356,9,0.0693123399352165,1
691,357,9,0.0790454324028863,1
691,358,9,0.0789322256368737,1
691,359,9,0.0696480788584196,1
691,362,9,0.0701263924192629,1
691,364,9,0.0711159633088366,1
691,365,9,0.0820605598456727,1
691,366,9,0.0833730934662853,1
691,374,9,0.0703908829571898,1
692,356,9,0.0805235713497802,1
692,357,9,0.0954076315687837,1
692,358,9,0.0889271431921596,1
692,359,9,0.073024407762098,1
692,360,9,0.0688102888921665,1
692,361,9,0.0677436775039444,1
692,362,9,0.0680425673253216,1
692,363,9,0.0698451125392654,1
692,364,9,0.0747568965561855,1
692,365,9,0.0857068299834193,1
692,366,9,0.0872163853053257,1
692,367,9,0.0698220099733124,1
693,351,9,0.0705442930995768,1
693,352,9,0.0712949378151041,1
693,356,9,0.0894124647908988,1
693,357,9,0.106730811896404,1
693,358,9,0.096364887616948,1
693,359,9,0.0753480754658105,1
693,360,9,0.07112665505896,1
693,361,9,0.0711682840020176,1
693,362,9,0.0725128988627763,1
693,363,9,0.0750284729990962,1
693,364,9,0.0703153458923123,1
693,365,9,0.0699170677181072,1
693,366,9,0.0695065105031441,1
694,351,9,0.0719603360388912,1
694,352,9,0.0771867030902548,1
694,356,9,0.0818621185674718,1
694,357,9,0.09450220505217,1
694,358,9,0.0878782495612848,1
694,359,9,0.0758921567669087,1
694,360,9,0.0741470055864005,1
694,361,9,0.0748166266022531,1
694,362,9,0.0775288870124119,1
694,363,9,0.0810428130498914,1
694,364,9,0.0704267916641869,1
694,368,9,0.0678059052865954,1
695,351,9,0.0714921931176611,1
695,352,9,0.081331071018905,1
695,353,9,0.0704309365891647,1
695,357,9,0.0686792505630629,1
695,358,9,0.0717860395476636,1
695,359,9,0.0738968485823925,1
695,360,9,0.076575015187676,1
695,361,9,0.0771140351280715,1
695,362,9,0.0770455240704179,1
695,363,9,0.0776137082300576,1
695,367,9,0.0688758170413823,1
695,368,9,0.0775613875368766,1
695,369,9,0.0750116896468016,1
696,352,9,0.0708931376526231,1
696,359,9,0.0697679642246494,1
696,360,9,0.0706976373544281,1
696,361,9,0.0712945844183214,1
696,362,9,0.0699268250631778,1
696,363,9,0.06881043264679,1
696,367,9,0.0743904061231036,1
696,368,9,0.0808009099571832,1
696,369,9,0.0762600847462257,1
696,370,9,0.0683741673133229,1
697,360,9,0.069740590948423,1
697,361,9,0.0718774495188868,1
697,367,9,0.0719848701613032,1
698,359,9,0.0683580787750419,1
698,360,9,0.0995626972373332,1
698,361,9,0.106122106902263,1
698,362,9,0.0760766837955092,1
699,359,9,0.0789320219844904,1
699,360,9,0.130581225339493,1
699,361,9,0.140105807715541,1
699,362,9,0.093238901400333,1
699,364,9,0.0688558890566985,1
699,365,9,0.0792533974248947,1
699,366,9,0.0731424902057579,1
700,360,9,0.0931230351737854,1
700,361,9,0.102148249926422,1
700,362,9,0.0818774943224111,1
700,363,9,0.0775654246458868,1
700,364,9,0.0834490558052573,1
700,365,9,0.0855910775626154,1
700,366,9,0.0735379172465968,1
701,361,9,0.0699119284903167,1
701,362,9,0.079671495767816,1
701,363,9,0.0978250931745592,1
701,364,9,0.0979874580320356,1
701,365,9,0.0819312825107071,1
702,362,9,0.0758046461398481,1
702,363,9,0.0945292069622856,1
702,364,9,0.0932632079112578,1
702,365,9,0.0757688272794907,1
703,363,9,0.0734562945693241,1
703,364,9,0.0737109019768848,1
683,371,10,0.0718618581320122,1
683,372,10,0.0868059359063302,1
683,373,10,0.0865942632129906,1
683,374,10,0.0711876489477593,1
684,370,10,0.0713226525085613,1
684,371,10,0.10036207477023,1
684,372,10,0.122863375030799,1
684,373,10,0.127604162923057,1
684,374,10,0.107506847272309,1
684,375,10,0.0781077030244152,1
685,370,10,0.0742159658772525,1
685,371,10,0.103961726481528,1
685,372,10,0.132892056953282,1
685,373,10,0.151106582361289,1
685,374,10,0.132635838295983,1
685,375,10,0.0923949659239249,1
686,370,10,0.0679257367448414,1
686,371,10,0.0881559715143505,1
686,372,10,0.125521877201542,1
686,373,10,0.163188990753415,1
686,374,10,0.144946696743967,1
686,375,10,0.0962904406912987,1
687,371,10,0.0743954914429102,1
687,372,10,0.111387299681526,1
687,373,10,0.150177292577173,1
687,374,10,0.134447865325302,1
687,375,10,0.0940684494348383,1
687,376,10,0.0729170170685615,1
688,360,10,0.0686703677252853,1
688,361,10,0.0761057222294579,1
688,362,10,0.0897009803202796,1
688,363,10,0.0790370347369631,1
688,371,10,0.0726019907906955,1
688,372,10,0.0924062566516462,1
688,373,10,0.109855630106703,1
688,374,10,0.0996230801689826,1
688,375,10,0.0862440709603489,1
688,376,10,0.0799518831711925,1
688,377,10,0.069945153777675,1
689,357,10,0.0683859851413304,1
689,358,10,0.0745785090479639,1
689,359,10,0.0754409349628207,1
689,360,10,0.07899057204469,1
689,361,10,0.093495742994334,1
689,362,10,0.113907581781766,1
689,363,10,0.0970019661799039,1
689,364,10,0.0729517937078985,1
689,372,10,0.0724915393216334,1
689,373,10,0.0786195892796235,1
689,374,10,0.0783965479914748,1
689,375,10,0.0801951219839441,1
689,376,10,0.079793926788837,1
689,377,10,0.070407768135676,1
690,357,10,0.0709532929727852,1
690,358,10,0.074931199037189,1
690,359,10,0.0719744359715469,1
690,360,10,0.0708323414264311,1
690,361,10,0.0766755595672679,1
690,362,10,0.0895728889609579,1
690,363,10,0.0794438124032831,1
690,364,10,0.0683906212279386,1
690,365,10,0.0677933327468145,1
690,373,10,0.0700668300869227,1
690,374,10,0.0748428019232835,1
690,375,10,0.073303764924006,1
690,376,10,0.0679196211835663,1
691,356,10,0.0688941098172237,1
691,357,10,0.0780207674158487,1
691,358,10,0.0746745491160193,1
691,362,10,0.0688351824011373,1
691,364,10,0.0684027505242971,1
691,365,10,0.0761876983035134,1
691,366,10,0.0789759989197319,1
691,367,10,0.0685853668143602,1
692,352,10,0.0719234809472893,1
692,356,10,0.0903584600602217,1
692,357,10,0.123046410605181,1
692,358,10,0.102935701815343,1
692,359,10,0.0733022075822514,1
692,361,10,0.069877355503363,1
692,362,10,0.0691207389811841,1
692,363,10,0.0695707388709723,1
692,364,10,0.0718412712719706,1
692,365,10,0.0794114436538899,1
692,366,10,0.0815926565154819,1
692,367,10,0.0709291901142437,1
693,351,10,0.0756294092537918,1
693,352,10,0.0896604774551061,1
693,353,10,0.0789475235247254,1
693,356,10,0.109628497801561,1
693,357,10,0.156246852372723,1
693,358,10,0.127016781531403,1
693,359,10,0.0812144021623762,1
693,360,10,0.0699188466815731,1
693,361,10,0.076167063525264,1
693,362,10,0.0760513889715478,1
693,363,10,0.076476231802222,1
693,364,10,0.0700872132945809,1
694,351,10,0.0824765617670012,1
694,352,10,0.101988957824023,1
694,353,10,0.0845848610855947,1
694,356,10,0.0882535210059527,1
694,357,10,0.120938177174123,1
694,358,10,0.103181198773639,1
694,359,10,0.0802891974054782,1
694,360,10,0.074080525062804,1
694,361,10,0.0803143484748162,1
694,362,10,0.0827401119100993,1
694,363,10,0.0847493762726477,1
694,364,10,0.0711300392823884,1
694,368,10,0.086042988190941,1
694,369,10,0.0913564106463907,1
694,370,10,0.0708628713145987,1
695,351,10,0.0762060330077866,1
695,352,10,0.0949962477647354,1
695,353,10,0.0787667101572321,1
695,357,10,0.0686590829873399,1
695,358,10,0.0717340902205934,1
695,359,10,0.0771000849398152,1
695,360,10,0.0782292595381432,1
695,361,10,0.0820196077473008,1
695,362,10,0.0837817459324869,1
695,363,10,0.0842927516906262,1
695,364,10,0.0695435752369052,1
695,367,10,0.080467237506693,1
695,368,10,0.115350051612702,1
695,369,10,0.124127972474248,1
695,370,10,0.0918737475977404,1
696,352,10,0.0698958279724838,1
696,359,10,0.0719309561877117,1
696,360,10,0.0713506187726096,1
696,361,10,0.0738356750003139,1
696,362,10,0.0749202018084907,1
696,363,10,0.0753590846740608,1
696,367,10,0.0940879341760996,1
696,368,10,0.124083073113506,1
696,369,10,0.125321327522196,1
696,370,10,0.0933472624375782,1
697,361,10,0.0709246618436032,1
697,366,10,0.0684595695392386,1
697,367,10,0.0889554149347828,1
697,368,10,0.0998920929877741,1
697,369,10,0.0917871653859567,1
698,360,10,0.0879884195108759,1
698,361,10,0.099279302966415,1
698,362,10,0.0733383918189435,1
698,367,10,0.0712668697248642,1
699,359,10,0.0738668697536151,1
699,360,10,0.115249016071479,1
699,361,10,0.132564547982274,1
699,362,10,0.0926105020227713,1
699,365,10,0.0760064177334937,1
699,366,10,0.0731905761273214,1
700,360,10,0.0838005178904067,1
700,361,10,0.0981125844522475,1
700,362,10,0.0800119186958351,1
700,363,10,0.0744809895052416,1
700,364,10,0.0786662556242799,1
700,365,10,0.0798774721841991,1
700,366,10,0.0724027289131853,1
701,362,10,0.0759952408115159,1
701,363,10,0.0929383643905614,1
701,364,10,0.0958952173028432,1
701,365,10,0.0793099588794691,1
702,362,10,0.071394350127036,1
702,363,10,0.0911789216045661,1
702,364,10,0.0935065126115452,1
702,365,10,0.074557460975172,1
703,363,10,0.0727425528636065,1
703,364,10,0.0751394395888925,1
683,371,11,0.0687287380922056,1
683,372,11,0.0877989628966442,1
683,373,11,0.0878567103268626,1
683,374,11,0.0728660620443038,1
684,371,11,0.0983207471368631,1
684,372,11,0.12893990692559,1
684,373,11,0.135316562535609,1
684,374,11,0.115653805132174,1
684,375,11,0.0807583645784008,1
685,370,11,0.0721939612611957,1
685,371,11,0.104790615640676,1
685,372,11,0.137403424445972,1
685,373,11,0.151496912102769,1
685,374,11,0.13437312490063,1
685,375,11,0.094812271795525,1
686,348,11,0.0711130462879346,1
686,371,11,0.0883043202960349,1
686,372,11,0.119935201165908,1
686,373,11,0.146463439797049,1
686,374,11,0.133272970766922,1
686,375,11,0.0954356697101437,1
687,347,11,0.0860867255351434,1
687,348,11,0.0708271542804329,1
687,371,11,0.0729962198763384,1
687,372,11,0.0998907572677306,1
687,373,11,0.130065721259593,1
687,374,11,0.122393513043863,1
687,375,11,0.093098021869295,1
687,376,11,0.0725496760872905,1
688,347,11,0.0800504928531431,1
688,359,11,0.0699956296198543,1
688,360,11,0.0697222502543738,1
688,361,11,0.0698562535225873,1
688,362,11,0.0736240142865262,1
688,371,11,0.0700685192037489,1
688,372,11,0.0827871735799703,1
688,373,11,0.0987754729598991,1
688,374,11,0.0961252127209041,1
688,375,11,0.0859446240898056,1
688,376,11,0.0764550339850305,1
689,356,11,0.069695907219616,1
689,357,11,0.0721577231165197,1
689,358,11,0.0724872626215841,1
689,359,11,0.0747611612766829,1
689,360,11,0.0749557930573609,1
689,361,11,0.0782837904586606,1
689,362,11,0.0852214424971443,1
689,363,11,0.0788616780553871,1
689,364,11,0.0678411431386829,1
689,373,11,0.0745215522681748,1
689,374,11,0.0788308426886446,1
689,375,11,0.0807261695325109,1
689,376,11,0.0763743816514665,1
690,356,11,0.0689867536822986,1
690,357,11,0.0693252718615563,1
690,359,11,0.0681315035190653,1
690,361,11,0.0700165758664546,1
690,362,11,0.0745345920104822,1
690,363,11,0.0708456027904497,1
690,374,11,0.0707301977766527,1
690,375,11,0.0730123263839473,1
690,376,11,0.0683205468387544,1
691,357,11,0.0727638704763175,1
691,365,11,0.0694846418310429,1
691,366,11,0.0722236166420702,1
692,352,11,0.0718406603148207,1
692,356,11,0.0845610277669722,1
692,357,11,0.127951857439115,1
692,358,11,0.101932570072952,1
692,359,11,0.0708934012027662,1
692,361,11,0.0698448969073301,1
692,362,11,0.0701381144108547,1
692,363,11,0.0686262170865404,1
692,364,11,0.0686622994970409,1
692,365,11,0.072006271630878,1
692,366,11,0.072888529694003,1
693,351,11,0.075144842366826,1
693,352,11,0.10005176244606,1
693,353,11,0.0826919541112241,1
693,356,11,0.1113901987331,1
693,357,11,0.178364579359117,1
693,358,11,0.142270045552007,1
693,359,11,0.0859473434481003,1
693,360,11,0.0704962910348771,1
693,361,11,0.0799384121650146,1
693,362,11,0.0819572721486821,1
693,363,11,0.078275500608705,1
693,364,11,0.0708355219974762,1
694,351,11,0.0861910434736024,1
694,352,11,0.118154452746753,1
694,353,11,0.0926075790120933,1
694,356,11,0.0800816037495806,1
694,357,11,0.125154548199823,1
694,358,11,0.105322040545129,1
694,359,11,0.081430728911652,1
694,360,11,0.0748115113335666,1
694,361,11,0.0835451378017446,1
694,362,11,0.0883151558007818,1
694,363,11,0.0859012461321621,1
694,364,11,0.0722016940619853,1
694,368,11,0.102664928002414,1
694,369,11,0.119115644077736,1
694,370,11,0.0865197743589095,1
695,352,11,0.0963245165268461,1
695,358,11,0.0718108012815629,1
695,359,11,0.0791211850996991,1
695,360,11,0.0788271410070893,1
695,361,11,0.082541778447866,1
695,362,11,0.0870514328646262,1
695,363,11,0.0859983763394457,1
695,364,11,0.0709558146684726,1
695,367,11,0.0953494349053668,1
695,368,11,0.164320615170119,1
695,369,11,0.190230157860786,1
695,370,11,0.125677072297171,1
696,359,11,0.0720432824566553,1
696,360,11,0.0704037010777859,1
696,361,11,0.0718241524922212,1
696,362,11,0.0749712766282679,1
696,363,11,0.0760681303954105,1
696,367,11,0.112869685379589,1
696,368,11,0.176487754933251,1
696,369,11,0.188164320064111,1
696,370,11,0.12099288778792,1
697,366,11,0.0693336275990477,1
697,367,11,0.104218436300458,1
697,368,11,0.132946120671273,1
697,369,11,0.1252745713309,1
698,360,11,0.0726595285787546,1
698,361,11,0.0818212024077558,1
698,367,11,0.0757161831384069,1
698,368,11,0.0813237994308659,1
699,360,11,0.0907196195926818,1
699,361,11,0.106117938018182,1
699,362,11,0.0835814837623882,1
700,360,11,0.072766350243573,1
700,361,11,0.0852351650739134,1
700,362,11,0.0747065345197498,1
700,363,11,0.0688119720192167,1
700,364,11,0.0692768984307458,1
700,365,11,0.0696203282263066,1
701,362,11,0.0710782277201657,1
701,363,11,0.0812578160586757,1
701,364,11,0.0834833113340841,1
701,365,11,0.0714883596610343,1
702,363,11,0.0827130501022239,1
702,364,11,0.0860904391962506,1
702,365,11,0.0701947058143091,1
703,363,11,0.0714649096880745,1
703,364,11,0.0752814152489346,1
683,372,12,0.0867528844604798,1
683,373,12,0.0848925199390059,1
683,374,12,0.0708960546735251,1
684,371,12,0.0950294730520937,1
684,372,12,0.130149003104812,1
684,373,12,0.133341697456511,1
684,374,12,0.112695191225754,1
684,375,12,0.0775041492376165,1
685,370,12,0.0687492291158314,1
685,371,12,0.10171094836171,1
685,372,12,0.136615373579453,1
685,373,12,0.144760330854141,1
685,374,12,0.128507804486428,1
685,375,12,0.0922454371563725,1
686,347,12,0.0836433940869123,1
686,348,12,0.0748079893452906,1
686,371,12,0.0859785980991614,1
686,372,12,0.112341674647444,1
686,373,12,0.12792124968386,1
686,374,12,0.120049845478155,1
686,375,12,0.0933669508312228,1
686,376,12,0.0684969098026949,1
687,346,12,0.0986258184070512,1
687,347,12,0.101085975136009,1
687,348,12,0.0818839333315891,1
687,371,12,0.0705104209164127,1
687,372,12,0.0880613630027542,1
687,373,12,0.107780124811598,1
687,374,12,0.107232216043649,1
687,375,12,0.0906868974465058,1
687,376,12,0.0719772511662573,1
688,346,12,0.096886513247899,1
688,347,12,0.0971518183953591,1
688,348,12,0.0753223134393227,1
688,359,12,0.0679206873636907,1
688,372,12,0.0730124940976748,1
688,373,12,0.0860373098833125,1
688,374,12,0.0896989917146544,1
688,375,12,0.0840777666511699,1
688,376,12,0.0724176734042542,1
689,347,12,0.0693987364639449,1
689,356,12,0.0733144327150255,1
689,357,12,0.0710878413106128,1
689,373,12,0.0702329744930421,1
689,374,12,0.0780065057592415,1
689,375,12,0.0799743148822357,1
689,376,12,0.0725053098166103,1
690,356,12,0.0690787326822399,1
690,374,12,0.0682526347586988,1
690,375,12,0.071916856255056,1
692,357,12,0.106856992517188,1
692,358,12,0.0870372910035386,1
693,352,12,0.0953806176791161,1
693,356,12,0.0956695704621433,1
693,357,12,0.157425017348787,1
693,358,12,0.13081657561728,1
693,359,12,0.0806761968315139,1
693,360,12,0.0683821936131354,1
693,361,12,0.0766033048996272,1
693,362,12,0.0816845516585594,1
693,363,12,0.0749278567421925,1
694,351,12,0.0790800533080478,1
694,352,12,0.11377203315135,1
694,353,12,0.0892638344897434,1
694,357,12,0.104457320546072,1
694,358,12,0.0926426132117974,1
694,359,12,0.0739073366801326,1
694,360,12,0.0720703562440827,1
694,361,12,0.0796356529483546,1
694,362,12,0.0873868243808225,1
694,363,12,0.08130914843882,1
694,364,12,0.0698985054023467,1
694,368,12,0.0955890678729788,1
694,369,12,0.115122188554889,1
694,370,12,0.0814427683613708,1
695,352,12,0.0835881443932774,1
695,359,12,0.0721449589039074,1
695,360,12,0.0729572743529197,1
695,361,12,0.0752221524053934,1
695,362,12,0.0825820776606561,1
695,363,12,0.0801435560025366,1
695,364,12,0.0688787160929563,1
695,367,12,0.0948444249129829,1
695,368,12,0.173186489902148,1
695,369,12,0.204350000531892,1
695,370,12,0.128844010612158,1
695,371,12,0.0704509124920564,1
696,362,12,0.0702600003622617,1
696,363,12,0.0709356231336457,1
696,367,12,0.109741656649365,1
696,368,12,0.186262626088378,1
696,369,12,0.200493351492417,1
696,370,12,0.122083889543931,1
696,371,12,0.0728588263949206,1
696,372,12,0.068540114056835,1
697,367,12,0.0983525348779863,1
697,368,12,0.136220491608228,1
697,369,12,0.128855475043383,1
698,367,12,0.06820552517062,1
698,368,12,0.0765804179656095,1
699,360,12,0.0701806178612053,1
699,361,12,0.0784831062441546,1
699,362,12,0.0723181772354587,1
700,361,12,0.070358951461443,1
700,362,12,0.0682062080050816,1
701,373,12,0.070942547314678,1
702,363,12,0.0703606525578212,1
702,364,12,0.072147414712059,1
703,364,12,0.0694527402841761,1
683,372,13,0.0816456420737965,1
683,373,13,0.0795181994311725,1
684,371,13,0.0871911503791241,1
684,372,13,0.120813613792854,1
684,373,13,0.121219253401738,1
684,374,13,0.100974589261894,1
684,375,13,0.0713130209487863,1
685,371,13,0.09116784650878,1
685,372,13,0.125304364476622,1
685,373,13,0.131245838902627,1
685,374,13,0.116678907372858,1
685,375,13,0.086533646680078,1
686,347,13,0.0908579414893765,1
686,348,13,0.0786561029539946,1
686,371,13,0.0786200025741661,1
686,372,13,0.101023154365536,1
686,373,13,0.111643925643592,1
686,374,13,0.108307440729729,1
686,375,13,0.089944261061463,1
686,376,13,0.0691200501569465,1
687,346,13,0.108401288539776,1
687,347,13,0.120590231087474,1
687,348,13,0.0927188091520327,1
687,372,13,0.0777219674411112,1
687,373,13,0.0914008607739346,1
687,374,13,0.0964272112360147,1
687,375,13,0.0880633216594995,1
687,376,13,0.0711808805009024,1
688,346,13,0.101301067991433,1
688,347,13,0.109276490646797,1
688,348,13,0.0825431980247731,1
688,356,13,0.0706098392181205,1
688,373,13,0.0769833202468708,1
688,374,13,0.0853865386924674,1
688,375,13,0.0825239349052231,1
688,376,13,0.0697019748626832,1
689,346,13,0.0709961318505906,1
689,347,13,0.0731473658834052,1
689,356,13,0.0742659685271294,1
689,374,13,0.076998743920018,1
689,375,13,0.0781455344495017,1
689,376,13,0.0694612996740508,1
690,375,13,0.0694508894433984,1
692,357,13,0.0798034325633165,1
692,358,13,0.0707476040656491,1
693,352,13,0.0812039919317238,1
693,353,13,0.069025507532886,1
693,356,13,0.0755118898490739,1
693,357,13,0.115144374685117,1
693,358,13,0.103948764606308,1
693,359,13,0.0737807966727897,1
693,361,13,0.069953934789261,1
693,362,13,0.0760797086323789,1
693,363,13,0.0696749370139117,1
694,351,13,0.0686626469040477,1
694,352,13,0.093456599808308,1
694,353,13,0.0785276701774421,1
694,357,13,0.0815017017672331,1
694,358,13,0.0794136958096581,1
694,359,13,0.0692327597715528,1
694,360,13,0.0685337469249688,1
694,361,13,0.0727306092503033,1
694,362,13,0.0803358877092385,1
694,363,13,0.0740511512014005,1
694,368,13,0.0838639136793737,1
694,369,13,0.0989921471161816,1
694,370,13,0.0756429401577295,1
695,362,13,0.0723128762837168,1
695,363,13,0.0697477068022867,1
695,367,13,0.0859588737668609,1
695,368,13,0.153178805259157,1
695,369,13,0.177259980811633,1
695,370,13,0.115955941412132,1
695,371,13,0.0720088292652212,1
695,373,13,0.068004166871517,1
696,367,13,0.0960813735505101,1
696,368,13,0.165831212713046,1
696,369,13,0.177334349870194,1
696,370,13,0.110873305025173,1
696,371,13,0.0725296342968631,1
696,372,13,0.0712378133215876,1
697,367,13,0.0823043676871424,1
697,368,13,0.118428353222744,1
697,369,13,0.114758333623238,1
697,370,13,0.0814592222759865,1
697,371,13,0.0689499584884565,1
700,372,13,0.0677535127161027,1
701,373,13,0.0718875902096201,1
701,374,13,0.0774311997559621,1
683,372,14,0.0749647118337944,1
683,373,14,0.0753604623225361,1
684,371,14,0.0776015909132511,1
684,372,14,0.105383855033238,1
684,373,14,0.106253893953364,1
684,374,14,0.0874321070872275,1
685,371,14,0.0785866874401681,1
685,372,14,0.107849941640415,1
685,373,14,0.114219133989564,1
685,374,14,0.100179302745991,1
685,375,14,0.07829623122337,1
686,348,14,0.0730628261852305,1
686,349,14,0.068706096739003,1
686,371,14,0.0693272724467334,1
686,372,14,0.0870234546210259,1
686,373,14,0.095474160010588,1
686,374,14,0.0928072002761622,1
686,375,14,0.0815288654013001,1
687,347,14,0.12026341693048,1
687,348,14,0.0895762971434902,1
687,372,14,0.0682051118760774,1
687,373,14,0.0775195968698677,1
687,374,14,0.0832437801926638,1
687,375,14,0.0801696594462553,1
687,376,14,0.0681826322468263,1
688,346,14,0.0877638867685082,1
688,347,14,0.102431997594123,1
688,348,14,0.0776628842908493,1
688,356,14,0.068599742276711,1
688,373,14,0.0680928395151176,1
688,374,14,0.0767819319988879,1
688,375,14,0.0764197542045113,1
689,347,14,0.0721313681022099,1
689,374,14,0.0705583750629046,1
689,375,14,0.0722228379711929,1
692,346,14,0.0711718479187254,1
693,357,14,0.0780339029945717,1
693,358,14,0.0777486459033239,1
694,352,14,0.0689595301504718,1
694,358,14,0.0683462190186025,1
694,368,14,0.0687964584994298,1
694,369,14,0.0773864321702913,1
695,367,14,0.0708380496829396,1
695,368,14,0.111499236615031,1
695,369,14,0.124850459252896,1
695,370,14,0.0912448151301166,1
695,371,14,0.069143290487747,1
695,373,14,0.0694627971180456,1
696,367,14,0.0780735014035722,1
696,368,14,0.123406599793933,1
696,369,14,0.131496714679753,1
696,370,14,0.0909607859429446,1
696,371,14,0.069243804918459,1
696,372,14,0.0698418900397884,1
697,368,14,0.0877775674168454,1
697,369,14,0.0890367860414644,1
697,370,14,0.0695530151238489,1
700,373,14,0.0690617995855458,1
700,376,14,0.0793174940176513,1
701,373,14,0.0705528345201236,1
701,374,14,0.0745661281810143,1
683,372,15,0.070815144779594,1
684,353,15,0.0682738026270103,1
684,371,15,0.0690695503556633,1
684,372,15,0.0895082113599312,1
684,373,15,0.0935497947327731,1
685,371,15,0.0689431960313757,1
685,372,15,0.0907383616017217,1
685,373,15,0.0980177722882679,1
685,374,15,0.086027199141459,1
686,349,15,0.068315695120211,1
686,350,15,0.0683752454729992,1
686,372,15,0.0754704585686237,1
686,373,15,0.0833224439206026,1
686,374,15,0.081021309754125,1
686,375,15,0.0734934731088289,1
687,347,15,0.106221261653828,1
687,348,15,0.0829358817482134,1
687,373,15,0.0700070101942154,1
687,374,15,0.0756236051608676,1
687,375,15,0.0733828179873835,1
688,347,15,0.088106148557753,1
688,348,15,0.0718565212416144,1
688,374,15,0.072540188282139,1
688,375,15,0.0723257183634169,1
689,347,15,0.0687711936243483,1
689,375,15,0.068803700138589,1
692,345,15,0.0679522175444468,1
692,346,15,0.0705230653335055,1
695,368,15,0.0736771675585683,1
695,369,15,0.0816743331007383,1
695,370,15,0.0686998913310883,1
696,368,15,0.0824096200306542,1
696,369,15,0.0895475581983406,1
696,370,15,0.071339705400775,1
696,373,15,0.0693950707210454,1
699,373,15,0.0689045559865319,1
699,377,15,0.0806346517453201,1
700,374,15,0.0740722232332964,1
700,375,15,0.0815443130335513,1
700,376,15,0.0831760837445434,1
700,377,15,0.081047886390146,1
701,372,15,0.0695408379092826,1
701,373,15,0.0692816123844417,1
701,374,15,0.0738371664545328,1
701,375,15,0.0810035860070016,1
702,373,15,0.0761852604646897,1
684,372,16,0.0739563090885411,1
684,373,16,0.0809893483094983,1
685,372,16,0.0729906374051255,1
685,373,16,0.0805855176129602,1
685,374,16,0.0735085613545212,1
686,347,16,0.0680451489187688,1
686,350,16,0.0678519786434298,1
686,373,16,0.0700846376909097,1
686,374,16,0.0696776324131025,1
687,346,16,0.0712402571501873,1
687,347,16,0.0829337074595328,1
687,348,16,0.0718510585659211,1
688,347,16,0.0723910548398013,1
691,344,16,0.0726644042564019,1
692,344,16,0.0719457389548291,1
696,374,16,0.0739152911026334,1
698,378,16,0.0898140313521167,1
699,374,16,0.0699959650473092,1
699,375,16,0.0796420200802208,1
699,376,16,0.0843877375581092,1
699,377,16,0.0785068257570334,1
699,378,16,0.0805742089159109,1
700,375,16,0.0756458451990795,1
700,376,16,0.0803581397270023,1
700,377,16,0.078511336058346,1
700,378,16,0.0781619164868057,1
701,375,16,0.0747616883769691,1
701,376,16,0.0811101680807809,1
701,377,16,0.0852532362280435,1
701,378,16,0.0817428681174958,1
702,372,16,0.0689661129142733,1
702,373,16,0.068198499163396,1
702,374,16,0.0724394941581475,1
703,372,16,0.0685011625436403,1
703,373,16,0.0709812532470576,1
709,371,16,0.0681061847359999,1
709,372,16,0.0702878947489982,1
710,371,16,0.0693161853713953,1
711,368,16,0.0678254559153925,1
711,369,16,0.0690326353663016,1
679,363,17,0.0688576919792683,1
682,352,17,0.0688424659687284,1
683,373,17,0.0720381791675208,1
684,373,17,0.0703711406555613,1
684,374,17,0.0685949504559274,1
690,344,17,0.0742280652247311,1
691,343,17,0.0922477851485565,1
691,344,17,0.0728891526307048,1
693,344,17,0.0690125576372183,1
693,345,17,0.0793433339112269,1
693,346,17,0.0757679587619737,1
694,344,17,0.0705339487564602,1
694,345,17,0.0837274066848008,1
694,346,17,0.0800794114915721,1
695,345,17,0.0692396120752734,1
697,375,17,0.0794270050918846,1
698,375,17,0.0733028664576091,1
698,376,17,0.0861490431644341,1
698,377,17,0.0894725721928532,1
698,378,17,0.0891939338040626,1
699,376,17,0.0769339525132477,1
699,377,17,0.0753221097869394,1
699,378,17,0.0823381979418746,1
700,376,17,0.0733605060718599,1
700,377,17,0.0749915819688384,1
700,378,17,0.0764645816879419,1
701,376,17,0.0732275510144428,1
701,377,17,0.0805190730280196,1
701,378,17,0.0792916121956439,1
702,375,17,0.0694030011844423,1
710,373,17,0.0780313932784363,1
712,368,17,0.0731267430847078,1
712,369,17,0.0772117044151932,1
676,350,18,0.0924549175917037,1
676,351,18,0.104654456053109,1
678,364,18,0.0703912064050927,1
679,363,18,0.0691481422062904,1
679,364,18,0.0801389079363765,1
679,365,18,0.0765622569648396,1
680,364,18,0.0684461764001485,1
680,365,18,0.067992181329782,1
683,374,18,0.0730857250988002,1
690,343,18,0.101747629749808,1
690,344,18,0.0755127943052468,1
691,344,18,0.0710564908231361,1
693,344,18,0.0732616268499902,1
693,345,18,0.087032493192979,1
693,346,18,0.0788978922409592,1
694,344,18,0.0772423780579843,1
694,345,18,0.0940894376098705,1
694,346,18,0.0863002131306048,1
695,345,18,0.072790339296371,1
695,375,18,0.070831203368995,1
696,375,18,0.0703559745427812,1
696,379,18,0.122933922612286,1
697,376,18,0.089612900664501,1
697,378,18,0.117444760129598,1
697,379,18,0.103295902983646,1
698,376,18,0.0707439682716295,1
698,377,18,0.0805641161433855,1
698,378,18,0.0829751866581909,1
699,377,18,0.0701518669365037,1
699,378,18,0.0785105993159005,1
699,379,18,0.140518766830672,1
700,377,18,0.0703529976241194,1
700,378,18,0.0710803960190703,1
700,379,18,0.0902183472205091,1
701,377,18,0.0731232869839676,1
701,378,18,0.0741410697184048,1
709,373,18,0.0711720216222288,1
710,373,18,0.0694313567839292,1
711,373,18,0.0752429668769222,1
712,368,18,0.068167819530829,1
712,369,18,0.0747830778669919,1
713,368,18,0.0752705438055318,1
675,350,19,0.100908318380457,1
675,351,19,0.132694825609829,1
676,350,19,0.125269767530565,1
676,351,19,0.16092465178078,1
676,352,19,0.106055344859196,1
677,350,19,0.0896767037582346,1
677,351,19,0.104825176648077,1
678,364,19,0.0838060764025156,1
678,365,19,0.0855273882746254,1
679,364,19,0.0995030390685774,1
679,365,19,0.106594113229,1
679,366,19,0.0749933130140965,1
680,364,19,0.0760397268777157,1
680,365,19,0.0833898468696999,1
681,340,19,0.0678080556161721,1
682,374,19,0.0896381655395825,1
683,375,19,0.0709590731066055,1
690,343,19,0.101316557552116,1
690,344,19,0.0754263378787587,1
691,343,19,0.0896302710148415,1
691,344,19,0.070678074746079,1
691,377,19,0.0690189008099806,1
691,379,19,0.0688063655888999,1
692,379,19,0.0768726890845293,1
693,344,19,0.0736028643875425,1
693,345,19,0.087329100909708,1
693,346,19,0.0754904224919634,1
693,376,19,0.0714122176287828,1
693,379,19,0.0836252570452464,1
694,344,19,0.0774329667398761,1
694,345,19,0.0927395697155776,1
694,346,19,0.0807482238876674,1
694,376,19,0.0855599966150578,1
694,378,19,0.117801523166489,1
694,379,19,0.0948319721687215,1
695,345,19,0.0708280587366058,1
695,376,19,0.113990767790569,1
695,378,19,0.159479139143646,1
695,379,19,0.118871297156428,1
696,376,19,0.105306179618335,1
696,378,19,0.159122927166145,1
696,379,19,0.122495518928794,1
697,376,19,0.071563836828152,1
697,377,19,0.107668223816749,1
697,378,19,0.108544432206134,1
698,377,19,0.0719409950522534,1
698,378,19,0.079658611759684,1
699,378,19,0.0757446585334134,1
700,378,19,0.06903076056642,1
701,378,19,0.069988699449046,1
702,379,19,0.0678601846365217,1
711,374,19,0.076484120337187,1
712,369,19,0.0686296971463845,1
712,370,19,0.0677884091509593,1
713,368,19,0.0703558787063656,1
713,369,19,0.0841602997743915,1
714,369,19,0.0926395644158239,1
674,351,20,0.0705262219454467,1
675,350,20,0.108745365231143,1
675,351,20,0.154475196433505,1
675,352,20,0.0985212848366569,1
676,349,20,0.0692360062301337,1
676,350,20,0.137767039786584,1
676,351,20,0.191284442290042,1
676,352,20,0.121005394440165,1
677,350,20,0.0886311404428045,1
677,351,20,0.111444286410195,1
677,352,20,0.0717348209732629,1
678,345,20,0.0709233740417676,1
678,364,20,0.0883307591672084,1
678,365,20,0.0936471585413199,1
679,364,20,0.108695829783792,1
679,365,20,0.125333462808331,1
679,366,20,0.080674699387519,1
680,364,20,0.0764177536193341,1
680,365,20,0.0915276823007487,1
681,340,20,0.0685157117094945,1
682,374,20,0.0743401039844277,1
686,338,20,0.0687938709162067,1
690,344,20,0.0724811171114291,1
691,343,20,0.0850787660333125,1
691,344,20,0.0704491574876944,1
691,378,20,0.0733856930798537,1
692,377,20,0.0743380494912668,1
692,378,20,0.0820810628488505,1
692,379,20,0.0729861450731409,1
693,344,20,0.0720520814375692,1
693,345,20,0.0824278768678398,1
693,346,20,0.0685836058202222,1
693,377,20,0.0867291769271529,1
693,378,20,0.0918815582656177,1
693,379,20,0.0790308652677042,1
694,344,20,0.0737817131085145,1
694,345,20,0.0836219986071135,1
694,346,20,0.0689637529425373,1
694,377,20,0.10420609736194,1
694,378,20,0.102991897893583,1
694,379,20,0.0880920426353213,1
695,376,20,0.0830829606973901,1
695,377,20,0.134150341172848,1
695,378,20,0.129132789691682,1
695,379,20,0.104308714204021,1
696,376,20,0.0742737492461268,1
696,377,20,0.122125566405196,1
696,378,20,0.123377860848783,1
696,379,20,0.104779342882282,1
697,377,20,0.080021568224938,1
697,378,20,0.088469674051725,1
697,379,20,0.0880037653169353,1
698,378,20,0.0715180929089965,1
698,379,20,0.0873404036169813,1
699,378,20,0.0681567743839228,1
699,379,20,0.09218772566481,1
711,375,20,0.0751197452054718,1
713,369,20,0.0745102016426937,1
714,369,20,0.083916150515691,1
674,351,21,0.069587468315283,1
675,350,21,0.102691941892081,1
675,351,21,0.145965521699425,1
675,352,21,0.100441109864279,1
676,349,21,0.0702916263794334,1
676,350,21,0.129615170310415,1
676,351,21,0.181078966139748,1
676,352,21,0.123845866005165,1
677,345,21,0.0796347664615096,1
677,346,21,0.0747608557981079,1
677,349,21,0.0683996957385475,1
677,350,21,0.0835450898835367,1
677,351,21,0.103862847259658,1
677,352,21,0.0726628888430791,1
678,345,21,0.0719078296626549,1
678,346,21,0.0692474287329266,1
678,364,21,0.0811782718336679,1
678,365,21,0.087442481379224,1
679,364,21,0.100382751476911,1
679,365,21,0.120099368945954,1
679,366,21,0.0782057077389918,1
680,364,21,0.069894330528489,1
680,365,21,0.088266890185939,1
681,340,21,0.0713219756638756,1
681,341,21,0.0697287731204155,1
682,340,21,0.0702013245167664,1
686,338,21,0.0691735987542033,1
690,343,21,0.0808978784405153,1
690,344,21,0.0681518987062755,1
691,343,21,0.0779028347165882,1
691,344,21,0.0687626102753696,1
691,378,21,0.0678746679148401,1
692,378,21,0.0730669231920005,1
693,345,21,0.0704988965874282,1
693,378,21,0.0763831746426044,1
693,379,21,0.0690408653184975,1
694,342,21,0.0697922946946781,1
694,345,21,0.0685732554873296,1
694,377,21,0.0730560577383737,1
694,378,21,0.0809121580664505,1
694,379,21,0.0738121291909384,1
695,342,21,0.084792538598356,1
695,377,21,0.0835340806752864,1
695,378,21,0.0902217913416974,1
695,379,21,0.0808858629499005,1
696,377,21,0.0738526380458878,1
696,378,21,0.0829258009552399,1
696,379,21,0.0792212742563166,1
697,379,21,0.0685707757200741,1
711,376,21,0.0714937804082957,1
712,374,21,0.0680933785949557,1
712,375,21,0.0795423681772498,1
714,369,21,0.0710877454741971,1
714,370,21,0.074831840633241,1
675,350,22,0.0851795799528236,1
675,351,22,0.115894618085654,1
675,352,22,0.0947675700973899,1
675,353,22,0.0682338208723471,1
676,350,22,0.104714844974535,1
676,351,22,0.140371849605446,1
676,352,22,0.111343813907915,1
676,353,22,0.0718339397861717,1
677,345,22,0.0729224378158229,1
677,346,22,0.0711474276020569,1
677,350,22,0.0745857387075712,1
677,351,22,0.0860382263190373,1
677,352,22,0.0693795092830506,1
678,345,22,0.0709015053696665,1
678,346,22,0.0702211686445865,1
678,348,22,0.0694989813547378,1
678,364,22,0.0678030900918851,1
678,365,22,0.0707575470937751,1
679,345,22,0.068932594127892,1
679,346,22,0.0691752758914775,1
679,364,22,0.076937959673378,1
679,365,22,0.0913455811314198,1
680,365,22,0.0709953232308334,1
681,340,22,0.0708999480279118,1
681,341,22,0.0699422726954289,1
682,340,22,0.0711794848830992,1
686,338,22,0.0683020863491855,1
690,343,22,0.0728606293174904,1
691,343,22,0.0749439512702494,1
691,344,22,0.0688014959010286,1
694,342,22,0.0701535021453461,1
695,342,22,0.0831353772269867,1
695,343,22,0.0690350552357974,1
712,375,22,0.0684185335840031,1
713,374,22,0.0711682780122416,1
715,371,22,0.0751927006769022,1
671,355,23,0.0730518888542919,1
675,351,23,0.0863356905737314,1
675,352,23,0.0848049613937375,1
675,353,23,0.0691182352548247,1
676,350,23,0.0790725960369534,1
676,351,23,0.0999749016406907,1
676,352,23,0.0928465770634515,1
676,353,23,0.0706934804498983,1
677,345,23,0.0682916341901013,1
677,346,23,0.0694911706868605,1
677,351,23,0.0707559478235885,1
678,345,23,0.069457717788015,1
678,346,23,0.0709961677892465,1
678,347,23,0.0691842905043267,1
678,348,23,0.0702094586325466,1
678,349,23,0.0681951508786235,1
679,345,23,0.0707806736188319,1
679,346,23,0.0722834545041055,1
680,345,23,0.0700509751499049,1
680,346,23,0.0703816527124054,1
681,340,23,0.0688223702703172,1
681,341,23,0.0692918848502465,1
682,340,23,0.0707473824439379,1
685,342,23,0.0678059232559234,1
690,343,23,0.0724233636914347,1
690,344,23,0.0680682934131536,1
691,342,23,0.0731469286297587,1
691,343,23,0.0794983792624564,1
691,344,23,0.0744440026385682,1
692,342,23,0.0683966589221259,1
692,343,23,0.0722818252850391,1
692,344,23,0.0687803639713729,1
694,342,23,0.0711043131945565,1
695,342,23,0.0806005938791006,1
695,343,23,0.0689859810011973,1
712,376,23,0.0682713468188587,1
713,375,23,0.0681468972433326,1
714,373,23,0.0690304011798613,1
715,372,23,0.0721358304853146,1
671,355,24,0.0741315879030293,1
675,352,24,0.0713741226535532,1
676,351,24,0.0744179890414892,1
676,352,24,0.0755945487575911,1
677,346,24,0.0685260620423871,1
677,347,24,0.0682900588790187,1
678,346,24,0.07073449244603,1
678,347,24,0.0697216991949837,1
678,348,24,0.0686918530517238,1
679,345,24,0.0706240888951758,1
679,346,24,0.072394924235084,1
680,345,24,0.0712367112028074,1
680,346,24,0.0714879164176118,1
690,343,24,0.0726627331089036,1
690,344,24,0.0693339750060545,1
691,342,24,0.0767098390551986,1
691,343,24,0.0861196693030306,1
691,344,24,0.0798459120545631,1
692,342,24,0.0788554007701606,1
692,343,24,0.0884506145845582,1
692,344,24,0.0799728533768967,1
693,342,24,0.0786583431302109,1
693,343,24,0.0855473941263969,1
693,344,24,0.0771640257983964,1
694,342,24,0.0745980117585532,1
694,343,24,0.0757684139849481,1
694,344,24,0.0685387483879117,1
695,341,24,0.0821268966146457,1
695,342,24,0.0792657004247566,1
695,343,24,0.0701350296762253,1
696,341,24,0.0961271893469774,1
696,343,24,0.0728716505052927,1
671,355,25,0.0678061328980827,1
677,346,25,0.0696585549766078,1
677,347,25,0.0680741214651816,1
678,346,25,0.0735329816711897,1
678,347,25,0.0704329910823257,1
679,345,25,0.068938709689167,1
679,346,25,0.0724491975952343,1
680,345,25,0.0681757499942259,1
680,346,25,0.06939197999664,1
690,343,25,0.0692503277845007,1
690,344,25,0.0680630823080514,1
691,342,25,0.0757565422489568,1
691,343,25,0.0857543169273848,1
691,344,25,0.08055169933778,1
692,342,25,0.0901901054267658,1
692,343,25,0.103452056443432,1
692,344,25,0.0893137832316365,1
693,342,25,0.0975343015303063,1
693,343,25,0.110268661099146,1
693,344,25,0.0921233475525823,1
694,341,25,0.070464461365322,1
694,342,25,0.0848921365933432,1
694,343,25,0.0906590929064089,1
694,344,25,0.0766049880266774,1
695,341,25,0.0786385349410467,1
695,342,25,0.0796061832505355,1
695,343,25,0.0734430990928412,1
696,341,25,0.095233658525459,1
696,342,25,0.0902468106359638,1
696,343,25,0.0709132752794662,1
697,343,25,0.0725872020338021,1
675,364,26,0.0695912358843741,1
676,364,26,0.0690704428322843,1
677,346,26,0.0745681706946233,1
677,347,26,0.0707374993135717,1
678,345,26,0.0700172646906923,1
678,346,26,0.0822464525431966,1
678,347,26,0.075578214638495,1
679,345,26,0.0681135222115748,1
679,346,26,0.0756655395825001,1
679,347,26,0.0701827023032462,1
691,342,26,0.0703466065331493,1
691,343,26,0.0795588220918655,1
691,344,26,0.0780062002806665,1
692,342,26,0.0948922772332832,1
692,343,26,0.1078039880791,1
692,344,26,0.0921870607996763,1
693,342,26,0.118132518187116,1
693,343,26,0.129502406787825,1
693,344,26,0.100990066843025,1
694,341,26,0.08069194994234,1
694,342,26,0.107436191874855,1
694,343,26,0.111125558450774,1
694,344,26,0.084320891658178,1
695,341,26,0.0814470989694039,1
695,342,26,0.0897413094819495,1
695,343,26,0.0831512920617643,1
696,341,26,0.0942531381873903,1
696,342,26,0.0890843568422936,1
696,343,26,0.0701762093860844,1
711,377,26,0.067955062688037,1
711,378,26,0.0678009277827565,1
675,364,27,0.0696073064533271,1
677,346,27,0.0779333286660999,1
677,347,27,0.0719905963871396,1
678,345,27,0.0711008870426962,1
678,346,27,0.0879919594684797,1
678,347,27,0.0791336019053046,1
679,346,27,0.0768756480338632,1
679,347,27,0.0728383533406226,1
691,343,27,0.0717950661400647,1
691,344,27,0.0747300144415895,1
692,342,27,0.0920558307977414,1
692,343,27,0.102875408730333,1
692,344,27,0.0899521316271001,1
693,341,27,0.0889048971641717,1
693,342,27,0.132139525458321,1
693,343,27,0.13984254508169,1
693,344,27,0.104719001879065,1
694,341,27,0.0968474119903048,1
694,342,27,0.137065601080728,1
694,343,27,0.135538076430883,1
694,344,27,0.0942969054804725,1
695,341,27,0.0888940436900968,1
695,342,27,0.108686773242511,1
695,343,27,0.0995028234366421,1
695,344,27,0.0687225326842908,1
696,341,27,0.0863561336791495,1
696,342,27,0.0867668945464958,1
696,343,27,0.0702091831028515,1
697,342,27,0.0772341481057884,1
710,378,27,0.0683481477264679,1
711,377,27,0.0721995497221846,1
711,378,27,0.0761158449508632,1
712,378,27,0.0729857138092704,1
677,346,28,0.0807074874212309,1
677,347,28,0.072942287933419,1
678,345,28,0.0685200063788718,1
678,346,28,0.0869836525596421,1
678,347,28,0.078384221032509,1
679,343,28,0.0681335100940184,1
679,346,28,0.0729611437482025,1
679,347,28,0.0716673341673018,1
679,348,28,0.0680483414693658,1
680,342,28,0.0707320785663102,1
680,343,28,0.0704349796879509,1
681,342,28,0.0696779977894372,1
691,344,28,0.0693357719388483,1
692,342,28,0.0874585818970569,1
692,343,28,0.098424813504731,1
692,344,28,0.0859027016477251,1
693,341,28,0.0940069763639606,1
693,342,28,0.138342669237766,1
693,343,28,0.147205033961071,1
693,344,28,0.107087035853457,1
694,341,28,0.111279184225096,1
694,342,28,0.159345267650504,1
694,343,28,0.155534943538455,1
694,344,28,0.102256269546436,1
695,341,28,0.0980072422620959,1
695,342,28,0.126705121507637,1
695,343,28,0.113848977813582,1
695,344,28,0.0727347781343851,1
696,341,28,0.0785161937666654,1
696,342,28,0.0863221836288976,1
696,343,28,0.0708383132330827,1
697,341,28,0.0715640344907593,1
697,342,28,0.0696394475912332,1
710,378,28,0.0697126486434787,1
711,377,28,0.0738760101517598,1
711,378,28,0.0821528503139649,1
711,379,28,0.0685022886215245,1
712,377,28,0.0725826018858498,1
712,378,28,0.0773467199555472,1
677,346,29,0.0788140174079182,1
677,347,29,0.0720417730331085,1
678,346,29,0.0786692804611495,1
678,347,29,0.0729123210841935,1
678,350,29,0.0694536686994529,1
678,351,29,0.0691320716373374,1
679,342,29,0.0727276263418656,1
679,343,29,0.0802137202383605,1
679,344,29,0.0684584973693383,1
679,349,29,0.0693197013698953,1
679,350,29,0.073262585214147,1
679,351,29,0.0727108789282269,1
680,342,29,0.0734438358352867,1
680,343,29,0.0781902780760686,1
692,342,29,0.082810054524212,1
692,343,29,0.0924002608858907,1
692,344,29,0.078412852161691,1
693,341,29,0.0907302933734773,1
693,342,29,0.130964918409188,1
693,343,29,0.142362551652234,1
693,344,29,0.103399094844221,1
694,341,29,0.109259611458087,1
694,342,29,0.156708304714184,1
694,343,29,0.155204499577218,1
694,344,29,0.102049550397831,1
695,341,29,0.0968156182594056,1
695,342,29,0.127472902972242,1
695,343,29,0.114946304773027,1
695,344,29,0.0725075320234987,1
696,341,29,0.0711849176099126,1
696,342,29,0.0822572640888396,1
696,343,29,0.0693582575578754,1
711,377,29,0.0698617581267124,1
711,378,29,0.0797157781816324,1
712,377,29,0.0708422245567973,1
677,346,30,0.0698185299134683,1
678,343,30,0.07090455416564,1
678,350,30,0.0708885135455669,1
678,351,30,0.0725211527740761,1
678,352,30,0.0684161796020431,1
679,342,30,0.0734698314630378,1
679,343,30,0.0862016932952939,1
679,344,30,0.0710885900326103,1
679,350,30,0.0786669444485175,1
679,351,30,0.081995025706681,1
679,352,30,0.0728614139781437,1
680,342,30,0.070576086830476,1
680,343,30,0.0797075003112288,1
680,350,30,0.069432884176804,1
680,351,30,0.069632463512441,1
692,342,30,0.0748313255125068,1
692,343,30,0.0818251736292302,1
693,341,30,0.0797224687614015,1
693,342,30,0.113103538213381,1
693,343,30,0.126736735545257,1
693,344,30,0.0936551908309084,1
694,341,30,0.0927974010026597,1
694,342,30,0.135554799885418,1
694,343,30,0.140778890821909,1
694,344,30,0.0956369800910388,1
695,341,30,0.0828584818630062,1
695,342,30,0.111245869091098,1
695,343,30,0.104557158132098,1
695,344,30,0.0678510142894971,1
696,342,30,0.0730774532181725,1
712,378,30,0.0697128223469821,1
677,343,31,0.0685647859440946,1
678,343,31,0.0720225638215422,1
678,351,31,0.0701267877444775,1
678,352,31,0.0682521615663964,1
679,342,31,0.0691359290530682,1
679,343,31,0.0817885341695636,1
679,344,31,0.0693964184206408,1
679,350,31,0.0757150331014188,1
679,351,31,0.0812455370179177,1
679,352,31,0.0738906491642538,1
680,343,31,0.073549555381325,1
680,350,31,0.0715517913886572,1
680,351,31,0.0731047845659669,1
685,377,31,0.0942767858229574,1
693,342,31,0.0863885862854064,1
693,343,31,0.0968480588861106,1
693,344,31,0.0721660369255793,1
694,341,31,0.0722533319207046,1
694,342,31,0.101662742644627,1
694,343,31,0.109856492634444,1
694,344,31,0.0769573006600158,1
695,342,31,0.0843041442445393,1
695,343,31,0.0825450249064469,1
701,340,31,0.0689059156656793,1
702,339,31,0.071377087592663,1
702,340,31,0.0723969008611573,1
678,352,32,0.0677772621778615,1
679,343,32,0.0698839083182846,1
679,350,32,0.070375896537689,1
679,351,32,0.07567202052011,1
679,352,32,0.072572323430269,1
680,350,32,0.0720192275163217,1
680,351,32,0.0710112021269551,1
681,350,32,0.0694560166916368,1
684,377,32,0.0913278813434004,1
685,376,32,0.0718646853062745,1
685,377,32,0.113241291081358,1
685,378,32,0.0790607422702899,1
686,377,32,0.068102932287643,1
694,342,32,0.0728211387244576,1
694,343,32,0.0791664917652081,1
701,339,32,0.0730294930819046,1
701,340,32,0.0856837992947782,1
702,339,32,0.093201477280013,1
702,340,32,0.10926935083383,1
702,341,32,0.0815567837471406,1
703,339,32,0.0885174784538174,1
703,340,32,0.100841771969324,1
703,341,32,0.0782615084920169,1
704,340,32,0.0717821881217088,1
678,352,33,0.0687957157672084,1
678,353,33,0.0691234942781347,1
679,351,33,0.0691288191889805,1
679,352,33,0.0706190335242491,1
679,353,33,0.0741804225465902,1
680,350,33,0.0712443900956131,1
681,349,33,0.0693486439674283,1
681,350,33,0.0725558934747572,1
685,377,33,0.104245881453996,1
686,377,33,0.0678742126918657,1
701,339,33,0.078742199993924,1
701,340,33,0.0956715171393367,1
701,341,33,0.0714640471603335,1
702,339,33,0.116001679341512,1
702,340,33,0.137165402728099,1
702,341,33,0.0956800765292114,1
703,339,33,0.113695220264188,1
703,340,33,0.127214983218564,1
703,341,33,0.0872054060459553,1
704,339,33,0.0826987764660648,1
704,340,33,0.0871775176489947,1
678,351,34,0.069217815280484,1
678,352,34,0.0744359164409959,1
678,353,34,0.0751098860342096,1
679,351,34,0.0710741546724997,1
679,352,34,0.076128471398628,1
679,353,34,0.0826740806197013,1
679,354,34,0.0729053070565215,1
680,349,34,0.0709071297693112,1
680,350,34,0.0729874029260966,1
680,351,34,0.0693361013765272,1
680,352,34,0.071087481924054,1
680,353,34,0.0746161008820113,1
681,349,34,0.0749435379757068,1
681,350,34,0.074243578744518,1
701,339,34,0.0808206342894837,1
701,340,34,0.0959793856349072,1
701,341,34,0.0696925888837233,1
702,339,34,0.133513663924883,1
702,340,34,0.150976125040455,1
702,341,34,0.0973485705567339,1
703,339,34,0.138822138825373,1
703,340,34,0.147300882356295,1
703,341,34,0.0898070592528765,1
704,339,34,0.099954650208104,1
704,340,34,0.101648259366309,1
705,339,34,0.0699656507910769,1
705,340,34,0.0692986712664313,1
674,362,35,0.0807127943627487,1
674,363,35,0.0766913366371979,1
675,362,35,0.0829249683763787,1
675,363,35,0.0760869622510901,1
678,351,35,0.0685749685632597,1
678,352,35,0.074392903859687,1
678,353,35,0.0712442223818857,1
679,350,35,0.0681729108404116,1
679,351,35,0.0744532808015605,1
679,352,35,0.0795752819962572,1
679,353,35,0.0790258877638652,1
680,349,35,0.0688800098845679,1
680,350,35,0.0724725577215544,1
680,351,35,0.0774247188183523,1
680,352,35,0.0810677245281901,1
680,353,35,0.0769279926861481,1
681,349,35,0.0711929139608453,1
681,350,35,0.0712314641590494,1
681,351,35,0.070592175368757,1
681,352,35,0.0692424991472955,1
701,339,35,0.0794340430786605,1
701,340,35,0.0898508505050627,1
702,339,35,0.136388768374596,1
702,340,35,0.145295421501494,1
702,341,35,0.0923826808933909,1
703,339,35,0.151846810856388,1
703,340,35,0.151674976163088,1
703,341,35,0.0905047962771769,1
704,339,35,0.108413639457846,1
704,340,35,0.105807871274827,1
705,339,35,0.076534105017736,1
705,340,35,0.0745037566437397,1
673,362,36,0.06918214017475,1
673,363,36,0.0796849488046659,1
674,362,36,0.101800854899162,1
674,363,36,0.103500154344547,1
674,364,36,0.0808142611678415,1
675,361,36,0.0701172520211181,1
675,362,36,0.105833914820785,1
675,363,36,0.0994464237060191,1
676,362,36,0.071012681601622,1
678,351,36,0.0682463335143683,1
678,352,36,0.075045460003774,1
678,353,36,0.0684193422037603,1
679,350,36,0.069562928203095,1
679,351,36,0.0809642331788163,1
679,352,36,0.0871725700940356,1
679,353,36,0.0770413611761122,1
680,350,36,0.0731492526628388,1
680,351,36,0.0883465781655702,1
680,352,36,0.0932699703683386,1
680,353,36,0.07837104951513,1
681,350,36,0.068677477589373,1
681,351,36,0.0765491453452205,1
681,352,36,0.0759754865303355,1
688,377,36,0.0846730365777889,1
701,339,36,0.0679202620895961,1
701,340,36,0.0733212311107623,1
702,339,36,0.114744197751927,1
702,340,36,0.115329782210787,1
702,341,36,0.0752066628447104,1
703,339,36,0.138951997168609,1
703,340,36,0.130930716788345,1
703,341,36,0.0799067741682909,1
704,339,36,0.105814747537651,1
704,340,36,0.0971214382515911,1
705,339,36,0.0778578335296542,1
705,340,36,0.0722652276157999,1
673,362,37,0.0683588993743511,1
673,363,37,0.0972240790527759,1
673,364,37,0.109470763040916,1
674,362,37,0.102461227700903,1
674,363,37,0.127080153361266,1
674,364,37,0.122018097844572,1
674,365,37,0.0891048059374876,1
675,361,37,0.0680310130474571,1
675,362,37,0.106617557212184,1
675,363,37,0.115183140515257,1
675,364,37,0.0967317793650205,1
676,362,37,0.0713816757610633,1
676,363,37,0.0713133204375852,1
678,351,37,0.0687612386166703,1
678,352,37,0.0773636111238094,1
678,353,37,0.0696282047817196,1
679,351,37,0.0841182275879115,1
679,352,37,0.0935842838628631,1
679,353,37,0.0800539609334352,1
680,350,37,0.0713792379222397,1
680,351,37,0.0911828988158165,1
680,352,37,0.0963592033195434,1
680,353,37,0.0790176218730135,1
681,350,37,0.0693290514101993,1
681,351,37,0.0795477170471995,1
681,352,37,0.0760239438180097,1
688,343,37,0.0712965790137225,1
694,341,37,0.0703699906185733,1
702,339,37,0.0795104067326232,1
702,340,37,0.0768316112008619,1
703,339,37,0.103587880603543,1
703,340,37,0.0925998821499597,1
704,338,37,0.0695458513517774,1
704,339,37,0.0919035527230145,1
704,340,37,0.0793499885523401,1
705,339,37,0.07380232392766,1
672,364,38,0.0729156633791901,1
673,363,38,0.103098539865122,1
673,364,38,0.133644540530035,1
673,365,38,0.100927581500007,1
674,362,38,0.0909749337938081,1
674,363,38,0.142641735110639,1
674,364,38,0.169248643459495,1
674,365,38,0.123422316966103,1
675,362,38,0.095808467377332,1
675,363,38,0.130872544084032,1
675,364,38,0.140273820931766,1
676,362,38,0.0682426737612448,1
676,363,38,0.0827170153339223,1
678,351,38,0.0703606944862531,1
678,352,38,0.0796717293690792,1
678,353,38,0.0712876362781851,1
679,351,38,0.0848281358370022,1
679,352,38,0.0944737416367154,1
679,353,38,0.0829752106172948,1
680,350,38,0.0716932219790852,1
680,351,38,0.0914874549652703,1
680,352,38,0.0924131329144707,1
680,353,38,0.0793660231826373,1
681,350,38,0.073996656219539,1
681,351,38,0.0844738765264705,1
681,352,38,0.0743172709583939,1
682,351,38,0.0691415534527129,1
688,343,38,0.0716776126228826,1
689,343,38,0.0693392280395885,1
694,341,38,0.0750956064082744,1
694,342,38,0.0702814677193722,1
703,339,38,0.0685538366336041,1
704,339,38,0.0739199930767773,1
710,340,38,0.0789774963637268,1
710,341,38,0.0731058327767633,1
711,340,38,0.0828644896083137,1
711,341,38,0.0829614880405258,1
712,375,38,0.069605000389575,1
673,363,39,0.0994064539309079,1
673,364,39,0.137050351111084,1
673,365,39,0.104317111869944,1
674,362,39,0.083304780071239,1
674,363,39,0.145102287164811,1
674,364,39,0.195303354360801,1
674,365,39,0.144139358798794,1
674,366,39,0.0680459096203182,1
675,362,39,0.0884095127417869,1
675,363,39,0.138437810839424,1
675,364,39,0.174357527044797,1
675,365,39,0.129691767565641,1
676,362,39,0.068687103159372,1
676,363,39,0.0906050950759537,1
676,364,39,0.10557319185195,1
678,351,39,0.0683450270531826,1
678,352,39,0.0747484270129505,1
679,351,39,0.0785141093246245,1
679,352,39,0.0834703554486405,1
679,353,39,0.0768460345814206,1
679,354,39,0.0689204348826536,1
679,370,39,0.0721087267490074,1
680,350,39,0.0729816886798122,1
680,351,39,0.0885985920001319,1
680,352,39,0.0829759234006364,1
680,353,39,0.0759673104861235,1
680,354,39,0.0738929851768858,1
680,370,39,0.0965659584068039,1
680,371,39,0.100778723587364,1
681,350,39,0.080675585874364,1
681,351,39,0.0900219604354692,1
681,352,39,0.0737540762821451,1
681,370,39,0.0772101350938866,1
681,371,39,0.0788750412455974,1
682,350,39,0.0731621546402986,1
682,351,39,0.0742491911646108,1
688,343,39,0.0720902123514548,1
689,342,39,0.0726713164578822,1
689,343,39,0.0737418571391469,1
690,342,39,0.0738095176486114,1
690,343,39,0.07411440922552,1
694,341,39,0.0684542446283929,1
710,339,39,0.06849950936547,1
710,340,39,0.101815505891208,1
710,341,39,0.101578083150933,1
711,339,39,0.070945476315132,1
711,340,39,0.119157548550489,1
711,341,39,0.125098795365006,1
712,340,39,0.0799859050987561,1
712,341,39,0.0838677770848805,1
673,363,40,0.0895253600885605,1
673,364,40,0.117567778148665,1
674,362,40,0.0820417519490971,1
674,363,40,0.136955832446128,1
674,364,40,0.185542942524889,1
674,365,40,0.139149012880127,1
675,362,40,0.0891264949163094,1
675,363,40,0.13558703685974,1
675,364,40,0.176650245576023,1
675,365,40,0.131870764210121,1
676,361,40,0.0796760060691285,1
676,362,40,0.0733725155726988,1
676,363,40,0.0899008950833715,1
676,364,40,0.107674537040631,1
678,352,40,0.0679812559783954,1
679,351,40,0.0718849127797573,1
679,352,40,0.0724703055657861,1
679,370,40,0.0962823065755186,1
680,350,40,0.0712146448680989,1
680,351,40,0.0838478850388526,1
680,352,40,0.0749845020536306,1
680,353,40,0.0701142691126803,1
680,354,40,0.0730982497203733,1
680,369,40,0.0692363057189327,1
680,370,40,0.137388833351686,1
680,371,40,0.144846631546454,1
681,350,40,0.081465182103086,1
681,351,40,0.0904814541201848,1
681,352,40,0.072872435165946,1
681,370,40,0.100296283070871,1
681,371,40,0.103095173611021,1
682,350,40,0.0728903386063488,1
682,351,40,0.0735695552433205,1
687,344,40,0.0778574561737675,1
687,345,40,0.0771170659547171,1
688,342,40,0.0701246374149009,1
688,343,40,0.0711869181950898,1
688,344,40,0.074195660536682,1
688,345,40,0.0704154709875856,1
689,342,40,0.0737391557501802,1
689,343,40,0.0719448404884322,1
690,342,40,0.0702054454826403,1
690,343,40,0.0698975650075179,1
710,339,40,0.07231485290979,1
710,340,40,0.111993836376762,1
710,341,40,0.115531242336082,1
711,339,40,0.0788767123930957,1
711,340,40,0.137857449465218,1
711,341,40,0.14824110947135,1
711,342,40,0.076175251549028,1
712,340,40,0.0888117920863463,1
712,341,40,0.0958882152547231,1
673,364,41,0.0956201727796404,1
674,363,41,0.120362344070558,1
674,364,41,0.152954919412596,1
674,365,41,0.116805950521384,1
675,363,41,0.120854967206216,1
675,364,41,0.150325156187003,1
677,360,41,0.0761809058975526,1
677,361,41,0.0703295476511597,1
679,351,41,0.0677845397556766,1
680,351,41,0.0766086777286808,1
680,352,41,0.0695965008974601,1
680,369,41,0.082025693359696,1
680,370,41,0.157767836187198,1
681,350,41,0.0739515172677575,1
681,351,41,0.0820340071687556,1
681,352,41,0.0687964285505499,1
681,370,41,0.115180169586371,1
681,371,41,0.121114360444784,1
682,351,41,0.0678859346834576,1
687,345,41,0.0857155990154533,1
688,342,41,0.0713376029894061,1
688,343,41,0.0694672714807023,1
688,344,41,0.0772010306343978,1
688,345,41,0.0813326702890915,1
689,342,41,0.0724460290037412,1
710,339,41,0.0699113774309266,1
710,340,41,0.10217331114912,1
710,341,41,0.106585763481285,1
711,339,41,0.0773349500457475,1
711,340,41,0.126783467777449,1
711,341,41,0.137315494534593,1
711,342,41,0.075186034056237,1
712,340,41,0.084487455348616,1
712,341,41,0.0925510834450546,1
674,364,42,0.108117996095049,1
677,360,42,0.0802330552352223,1
677,361,42,0.0742048189041547,1
680,351,42,0.0705752782107188,1
680,352,42,0.0682987919723968,1
680,369,42,0.0815821863870697,1
681,351,42,0.0703950698105995,1
681,370,42,0.111085343094847,1
687,345,42,0.0766277911038314,1
688,344,42,0.0724384579269031,1
688,345,42,0.0778862310575731,1
710,340,42,0.0797412886375291,1
710,341,42,0.0812482743455403,1
711,339,42,0.0681520903791068,1
711,340,42,0.0955194007885612,1
711,341,42,0.102060679401601,1
712,340,42,0.0705202441490191,1
712,341,42,0.0773509726964927,1
680,352,43,0.0688667365409973,1
720,344,43,0.0703240789856904,1
720,345,43,0.0706187879434339,1
680,352,44,0.070222486395302,1
720,344,44,0.0694302846140289,1
720,345,44,0.0755991728646473,1
720,346,44,0.0680044364114361,1
721,345,44,0.069289986091261,1
720,345,45,0.0726038356416972,1
685,351,46,0.0721745004790383,1
685,352,46,0.0714576560693633,1
686,351,46,0.0791896901675767,1
686,352,46,0.0767818241829203,1
687,351,46,0.0711370712793884,1
685,351,47,0.0979659667158212,1
685,352,47,0.100414221759907,1
686,350,47,0.0714967393576296,1
686,351,47,0.114337947185893,1
686,352,47,0.114535154570242,1
686,353,47,0.0680793505396117,1
687,351,47,0.0893590000505058,1
687,352,47,0.0865317898495244,1
695,344,47,0.0781962139440643,1
695,345,47,0.073136608245746,1
696,344,47,0.0779447751279967,1
696,345,47,0.0736933639128168,1
700,371,47,0.0693290094817675,1
681,355,48,0.0688124452115191,1
682,356,48,0.0750736239304297,1
684,351,48,0.0745691590076599,1
684,352,48,0.0829140010965603,1
685,350,48,0.0687466834610402,1
685,351,48,0.125488609985752,1
685,352,48,0.137919216035119,1
685,353,48,0.08073463308597,1
686,350,48,0.0770136704417589,1
686,351,48,0.142736493366635,1
686,352,48,0.151651687914079,1
686,353,48,0.0842854381741553,1
687,351,48,0.0962048108538958,1
687,352,48,0.0977719159434132,1
695,344,48,0.0937683077502813,1
695,345,48,0.0871577693575903,1
695,369,48,0.0844770271486357,1
695,370,48,0.0836769308426216,1
696,344,48,0.0921878993683134,1
696,345,48,0.0889644834556158,1
696,346,48,0.0684906504867963,1
696,369,48,0.0767267002745809,1
696,370,48,0.0766769252361912,1
698,345,48,0.0685136751856615,1
699,345,48,0.086518163109171,1
699,346,48,0.0781271638065726,1
699,371,48,0.0957235742823745,1
699,372,48,0.0689532828141252,1
700,345,48,0.0738300386211172,1
700,370,48,0.0784098033657174,1
700,371,48,0.120400223413852,1
700,372,48,0.0829307604897509,1
701,371,48,0.0773910562773475,1
720,361,48,0.074201219048791,1
720,362,48,0.0787776235290668,1
721,361,48,0.0785618119005252,1
721,362,48,0.0804615951377203,1
681,355,49,0.0757033470484828,1
681,356,49,0.0770670513252883,1
682,355,49,0.0774489294928615,1
682,356,49,0.0819112047816238,1
682,357,49,0.0720883495311251,1
683,356,49,0.0681193442738269,1
683,357,49,0.0679771230329695,1
684,351,49,0.076321072645249,1
684,352,49,0.0885551960731604,1
685,350,49,0.0681911197593893,1
685,351,49,0.131073740659184,1
685,352,49,0.152812686192186,1
685,353,49,0.0921531526778563,1
686,350,49,0.0747393405227896,1
686,351,49,0.142620639119639,1
686,352,49,0.161572194482372,1
686,353,49,0.0941560079801067,1
687,351,49,0.090494248281677,1
687,352,49,0.0973770639210684,1
689,350,49,0.0683769106307215,1
694,345,49,0.0684633191390018,1
694,369,49,0.0824255348654318,1
694,370,49,0.0769045546927403,1
695,344,49,0.0944579046690256,1
695,345,49,0.0933145522709541,1
695,346,49,0.0688122116102559,1
695,368,49,0.0740926663387144,1
695,369,49,0.14936146112966,1
695,370,49,0.138277488495557,1
696,344,49,0.0888968289359273,1
696,345,49,0.0907269211296008,1
696,346,49,0.0728209111129703,1
696,369,49,0.126489836979382,1
696,370,49,0.117408641780441,1
698,345,49,0.0736494348957832,1
698,346,49,0.0703459536475675,1
699,344,49,0.068606468795136,1
699,345,49,0.0946063552769016,1
699,346,49,0.0886539674790624,1
699,370,49,0.0718177434319231,1
699,371,49,0.115505869645032,1
699,372,49,0.0792686953127463,1
700,345,49,0.0789637797767337,1
700,346,49,0.0738411017373513,1
700,370,49,0.103781997263487,1
700,371,49,0.163176208571475,1
700,372,49,0.108635776289822,1
701,371,49,0.10296454857646,1
720,361,49,0.0975109593733142,1
720,362,49,0.0996177971865687,1
720,363,49,0.068990736883325,1
721,361,49,0.101935744654221,1
721,362,49,0.103047902298991,1
721,363,49,0.0698049151526669,1
722,361,49,0.0724413749478051,1
722,362,49,0.0741393566424747,1
681,355,50,0.0740157396458097,1
681,356,50,0.0802889518246631,1
681,357,50,0.073549836900796,1
682,355,50,0.0683708909058621,1
682,356,50,0.0823800365270915,1
682,357,50,0.09024498375429,1
682,358,50,0.0861777282016,1
683,356,50,0.0699335276224988,1
683,357,50,0.0901824624726159,1
683,358,50,0.0991294447611838,1
683,359,50,0.0831068838626522,1
684,352,50,0.0742097484897858,1
684,358,50,0.0752799237947157,1
685,351,50,0.105541014775388,1
685,352,50,0.126762048338546,1
685,353,50,0.0853021966569,1
686,351,50,0.114195797822347,1
686,352,50,0.13899493188283,1
686,353,50,0.0934843264813171,1
687,351,50,0.0799931826765712,1
687,352,50,0.0950794277837628,1
687,353,50,0.0725948929061598,1
689,351,50,0.072478236029183,1
690,351,50,0.0681494428981239,1
694,345,50,0.069578693293473,1
694,369,50,0.098070045063241,1
694,370,50,0.0875037388181664,1
695,344,50,0.0846528929611699,1
695,345,50,0.0905096539854963,1
695,346,50,0.0706511147643953,1
695,368,50,0.093343500858263,1
695,369,50,0.201408709057605,1
695,370,50,0.180614267339707,1
695,371,50,0.072366592594701,1
696,344,50,0.0771436366009622,1
696,345,50,0.0833851149466761,1
696,346,50,0.0703555911971185,1
696,368,50,0.0757356019921324,1
696,369,50,0.166391843765175,1
696,370,50,0.149030298395305,1
697,369,50,0.0699546355930506,1
698,345,50,0.0703055526085858,1
698,346,50,0.0686059836232816,1
699,345,50,0.0853533733028689,1
699,346,50,0.0824524828675636,1
699,370,50,0.0701917528547512,1
699,371,50,0.113827330763192,1
699,372,50,0.0794195178719102,1
700,345,50,0.0712816465022056,1
700,346,50,0.0684530886016288,1
700,370,50,0.1088304080705,1
700,371,50,0.173084711628704,1
700,372,50,0.117384658717419,1
701,370,50,0.0707055917769289,1
701,371,50,0.113125784241369,1
701,372,50,0.0729903558856545,1
719,362,50,0.069500394941869,1
720,361,50,0.10935912559621,1
720,362,50,0.112716490869138,1
720,363,50,0.0754160773925058,1
721,360,50,0.0706541455910409,1
721,361,50,0.115789940760636,1
721,362,50,0.1205778562103,1
721,363,50,0.0804045425215155,1
722,361,50,0.0770822773358281,1
722,362,50,0.080299188351812,1
681,356,51,0.0735420681613506,1
681,357,51,0.075139559384412,1
681,358,51,0.0688904440743242,1
682,356,51,0.0743638654257384,1
682,357,51,0.0977104608418635,1
682,358,51,0.105022096523179,1
682,359,51,0.0855100059447329,1
683,357,51,0.100152258907444,1
683,358,51,0.118820899181337,1
683,359,51,0.10317619132092,1
684,357,51,0.0772404912785507,1
684,358,51,0.0904025867398627,1
684,359,51,0.0811672925742974,1
685,352,51,0.0837606499414871,1
685,353,51,0.0707920901318489,1
686,351,51,0.0798744413575535,1
686,352,51,0.102023974054399,1
686,353,51,0.0861370156942673,1
687,351,51,0.0733472806464971,1
687,352,51,0.091828285198056,1
687,353,51,0.0778475430945214,1
688,351,51,0.0739405799368189,1
688,352,51,0.0817522061782479,1
689,351,51,0.0793051311200297,1
689,352,51,0.0781298412364354,1
690,351,51,0.0754363767433003,1
690,352,51,0.0701995635226285,1
694,369,51,0.103774725675448,1
694,370,51,0.0940693059728033,1
695,345,51,0.0757665511646185,1
695,368,51,0.10252444379659,1
695,369,51,0.215477878223925,1
695,370,51,0.197514060879316,1
695,371,51,0.0849752327555068,1
696,345,51,0.0695001793099337,1
696,368,51,0.0867039599702792,1
696,369,51,0.185068121003442,1
696,370,51,0.170745596292741,1
696,371,51,0.0776537618620326,1
697,369,51,0.0845700184207175,1
697,370,51,0.0826058331121908,1
699,345,51,0.0677915298242446,1
699,346,51,0.0680525343125515,1
699,371,51,0.0941084791077093,1
699,372,51,0.0711807547156069,1
700,370,51,0.0938805501623613,1
700,371,51,0.143640194827766,1
700,372,51,0.104634546037754,1
701,370,51,0.0688490547223058,1
701,371,51,0.102290650860558,1
701,372,51,0.0714196209918935,1
708,346,51,0.0783875932763854,1
708,347,51,0.0686331173084688,1
709,345,51,0.0692301901576576,1
709,346,51,0.0847238119087672,1
710,346,51,0.0715415728308362,1
719,362,51,0.0712170707273706,1
720,361,51,0.10288150632228,1
720,362,51,0.109737871110946,1
720,363,51,0.078661535680808,1
721,360,51,0.0708305804322931,1
721,361,51,0.112512035855853,1
721,362,51,0.122100181734595,1
721,363,51,0.088395736257034,1
722,361,51,0.0773152496725509,1
722,362,51,0.082260055324446,1
681,357,52,0.0706340618721816,1
681,358,52,0.0729141839045232,1
682,357,52,0.0966774880355423,1
682,358,52,0.113715202156856,1
682,359,52,0.0925972526383047,1
683,357,52,0.0985414224635,1
683,358,52,0.121313772066694,1
683,359,52,0.105266167914792,1
684,357,52,0.0797893565897646,1
684,358,52,0.0943181811647517,1
684,359,52,0.0839600256247408,1
686,353,52,0.0686577113286406,1
687,352,52,0.0770227449523679,1
687,353,52,0.0678117453181755,1
688,351,52,0.0805051108602114,1
688,352,52,0.0854520848110111,1
689,351,52,0.0854993920616972,1
689,352,52,0.0871322169732617,1
690,351,52,0.078197777275595,1
690,352,52,0.0764081879470948,1
694,369,52,0.0924376251084509,1
694,370,52,0.0882813135664976,1
695,368,52,0.0900948619989157,1
695,369,52,0.178674706000232,1
695,370,52,0.173568865221128,1
695,371,52,0.0847045487892171,1
696,368,52,0.0817684384711523,1
696,369,52,0.163526538588964,1
696,370,52,0.161563341593474,1
696,371,52,0.0834371361510581,1
697,369,52,0.0816115123302653,1
697,370,52,0.0844721754300923,1
699,371,52,0.0679188784513449,1
700,370,52,0.0694937283212038,1
700,371,52,0.0981815986510833,1
701,371,52,0.0778302745703725,1
707,346,52,0.0750131451623646,1
707,347,52,0.0708173190682745,1
708,346,52,0.0949258499276483,1
708,347,52,0.0868323388388479,1
709,346,52,0.0885715122229285,1
709,347,52,0.0756875579990008,1
720,361,52,0.087618718557869,1
720,362,52,0.0948876830751069,1
720,363,52,0.0738121651295943,1
721,360,52,0.0678834549162021,1
721,361,52,0.0964007543955133,1
721,362,52,0.106090804332994,1
721,363,52,0.0833046063677356,1
722,361,52,0.0714557333512739,1
722,362,52,0.075830414156112,1
681,358,53,0.0693944417945676,1
682,357,53,0.0836327203061168,1
682,358,53,0.104171584272746,1
682,359,53,0.0850239416137721,1
683,357,53,0.0852091215279545,1
683,358,53,0.107183255614792,1
683,359,53,0.0906900780175509,1
684,358,53,0.0852519544159839,1
688,351,53,0.075929760580508,1
688,352,53,0.0752641826634416,1
689,350,53,0.0718151857975799,1
689,351,53,0.0852134641155396,1
689,352,53,0.0839048478084176,1
690,350,53,0.0685600719903987,1
690,351,53,0.0780599645098586,1
690,352,53,0.0754892484958714,1
694,369,53,0.0703913860983721,1
695,369,53,0.117069788173729,1
695,370,53,0.123536565953136,1
696,369,53,0.116364264440655,1
706,367,53,0.078136088572782,1
707,346,53,0.0783131703098401,1
707,347,53,0.0773674206213324,1
708,346,53,0.0990108771456695,1
708,347,53,0.0991335836963856,1
709,346,53,0.0848455181668947,1
709,347,53,0.0846308685548932,1
713,347,53,0.0710981557048495,1
720,361,53,0.0714835738300266,1
720,362,53,0.073876543241822,1
721,361,53,0.0777842131930902,1
721,362,53,0.0810429627942909,1
682,358,54,0.0841913028548614,1
683,357,54,0.0700801573384771,1
683,358,54,0.0906112525656606,1
683,359,54,0.0737051038737367,1
684,358,54,0.0723146971756146,1
690,352,54,0.0692238290155674,1
691,350,54,0.0684562032851382,1
707,347,54,0.0754246667312604,1
708,346,54,0.0871982362841078,1
708,347,54,0.0969402535179871,1
708,348,54,0.0736116154502486,1
709,347,54,0.0903686965873707,1
709,348,54,0.068070803129289,1
683,358,55,0.0715041367309643,1
708,347,55,0.0770456917841453,1
