x,y,z,signal,cytoplasm.p
120,511,1,0.0939890130257981,1
120,512,1,0.0957512350678479,1
120,514,1,0.0795832064698781,1
121,510,1,0.0869020119130415,1
121,511,1,0.0941131032147655,1
121,512,1,0.0941244238913667,1
121,513,1,0.0875934656623394,1
121,514,1,0.081190502956218,1
121,515,1,0.0755292122812067,1
121,516,1,0.0716393798828055,1
121,517,1,0.0715589192220728,1
121,518,1,0.0740710312678765,1
121,519,1,0.0770220261792503,1
121,520,1,0.0770722384712865,1
121,521,1,0.0758637712185418,1
122,507,1,0.0743880701104716,1
122,508,1,0.07824541396396,1
122,509,1,0.0825407661757255,1
122,510,1,0.0865458598333002,1
122,511,1,0.0897430644863115,1
122,512,1,0.0881107307363773,1
122,513,1,0.0830692920286049,1
122,514,1,0.0782815862211002,1
122,515,1,0.0727956761867687,1
122,516,1,0.0688064554355396,1
122,517,1,0.0682634702634457,1
122,518,1,0.0709741314034179,1
122,519,1,0.0748228260203919,1
122,520,1,0.0763706021028235,1
122,521,1,0.0765089419688461,1
122,522,1,0.0771651339069526,1
122,523,1,0.0795145037393932,1
122,524,1,0.0835076897223207,1
123,504,1,0.0734810622929993,1
123,505,1,0.0733319767688695,1
123,506,1,0.0742917365433932,1
123,507,1,0.0748840475206784,1
123,508,1,0.0767518393643669,1
123,509,1,0.0801527083802333,1
123,510,1,0.0833951238623379,1
123,511,1,0.0846891969933816,1
123,512,1,0.081040866372698,1
123,513,1,0.0752855601739124,1
123,514,1,0.070361017934156,1
123,520,1,0.0696071746782556,1
123,521,1,0.0718194505180773,1
123,522,1,0.0745414083755469,1
123,523,1,0.0783999561740071,1
123,524,1,0.0830755812933834,1
123,525,1,0.0869511280760734,1
124,502,1,0.0827541040267874,1
124,503,1,0.076633175912437,1
124,504,1,0.0731902167407626,1
124,505,1,0.073548968383279,1
124,506,1,0.0745079255278215,1
124,507,1,0.0743212062412124,1
124,508,1,0.0747595080985125,1
124,509,1,0.077212650799798,1
124,510,1,0.0792181895216872,1
124,511,1,0.0784899585478751,1
124,512,1,0.0738257199926359,1
124,522,1,0.0688396747331219,1
124,523,1,0.0740831066562512,1
124,524,1,0.0794934616563772,1
124,525,1,0.0845721687502941,1
124,526,1,0.0869526075507404,1
125,500,1,0.0788988925335478,1
125,501,1,0.0790848750777114,1
125,502,1,0.0770571082971623,1
125,503,1,0.0741577093160759,1
125,504,1,0.0719908659270587,1
125,505,1,0.0713652637748795,1
125,506,1,0.0710820791461205,1
125,507,1,0.0708707418802357,1
125,508,1,0.0712092600594933,1
125,509,1,0.0725823802641386,1
125,510,1,0.0723018910345704,1
125,511,1,0.06988583702615,1
125,524,1,0.0734779835481459,1
125,525,1,0.0800439340484455,1
125,526,1,0.0849947055172162,1
125,527,1,0.0869588788461909,1
126,499,1,0.0795189062247381,1
126,500,1,0.0763477451176857,1
126,501,1,0.0737178021988132,1
126,502,1,0.0723176920636043,1
126,503,1,0.0717621702903853,1
126,504,1,0.069961535814979,1
126,525,1,0.0734238180039632,1
126,526,1,0.0798063435944425,1
126,527,1,0.0849463201068538,1
127,499,1,0.0800348894867165,1
127,500,1,0.0751820927836425,1
127,501,1,0.0711978974544602,1
127,502,1,0.0695516913833575,1
127,503,1,0.0688376322195129,1
127,526,1,0.0726141320666059,1
127,527,1,0.0800023829724757,1
128,500,1,0.0784238733494933,1
128,501,1,0.072339704490329,1
128,527,1,0.0755467862839305,1
129,500,1,0.0833207667833283,1
129,501,1,0.072731885072587,1
129,527,1,0.0738834973717342,1
130,500,1,0.0806992993974669,1
130,527,1,0.0755170769950722,1
131,499,1,0.0856674412165781,1
131,500,1,0.0720649714354771,1
131,526,1,0.0694458161031438,1
131,527,1,0.0798459060647871,1
132,498,1,0.0847637517349985,1
132,499,1,0.0762945678865397,1
132,526,1,0.0753299504036965,1
132,527,1,0.0860393404173695,1
133,498,1,0.0781803769763745,1
133,499,1,0.0684294888842696,1
133,525,1,0.068827958731306,1
133,526,1,0.0811121387170782,1
133,527,1,0.0917497232963089,1
134,497,1,0.0810427890907875,1
134,498,1,0.0712158128744149,1
134,525,1,0.0739033954075381,1
134,526,1,0.0864721137114406,1
135,497,1,0.0772360887932058,1
135,525,1,0.0774405617758181,1
135,526,1,0.0905484377849636,1
136,497,1,0.0704100682096521,1
136,525,1,0.0807130279640119,1
136,526,1,0.0935211636035911,1
137,524,1,0.0686758723294105,1
137,525,1,0.0846179126694496,1
137,526,1,0.0970258474167342,1
138,496,1,0.0746829348023906,1
138,524,1,0.0756461866163104,1
138,525,1,0.0932088626737957,1
138,526,1,0.105642912844351,1
139,490,1,0.083764764917585,1
139,495,1,0.0802864900267355,1
139,496,1,0.0697250594593082,1
139,524,1,0.0832681645706763,1
139,525,1,0.102276215500448,1
140,490,1,0.0854072932662363,1
140,495,1,0.0754805693104771,1
140,523,1,0.0766549906765543,1
140,524,1,0.0909776471623269,1
140,525,1,0.105678731704708,1
141,490,1,0.0868416170018401,1
141,495,1,0.0718271533699869,1
141,521,1,0.0690232134486859,1
141,522,1,0.0921592742289074,1
141,523,1,0.102717063012539,1
141,524,1,0.10419833461227,1
141,525,1,0.108560436887551,1
142,490,1,0.0887903846269956,1
142,520,1,0.0705472580386867,1
142,521,1,0.120510351435011,1
142,522,1,0.159725139243124,1
142,523,1,0.156977820674157,1
142,524,1,0.131626237595533,1
142,525,1,0.119423794092778,1
143,491,1,0.0929570105631856,1
143,494,1,0.0760860757642451,1
143,520,1,0.0980421866151603,1
143,521,1,0.176601524738206,1
143,522,1,0.22861757791285,1
143,523,1,0.210589741842572,1
143,524,1,0.162219641347548,1
144,492,1,0.094369831003023,1
144,493,1,0.0854953849015669,1
144,494,1,0.0721989267854827,1
144,519,1,0.0695961894291092,1
144,520,1,0.109948184125139,1
144,521,1,0.191965647532639,1
144,522,1,0.242064481232211,1
144,523,1,0.225617634552171,1
144,524,1,0.180422474712843,1
144,525,1,0.145746128184848,1
145,492,1,0.106832733924472,1
145,493,1,0.0908002779160218,1
145,494,1,0.0732170629167027,1
145,519,1,0.0725145400613947,1
145,520,1,0.104154261840613,1
145,521,1,0.164076783369545,1
145,522,1,0.202672815339423,1
145,523,1,0.199048210221395,1
145,524,1,0.175579141855817,1
146,493,1,0.0938992023247614,1
146,494,1,0.0730464980559104,1
146,519,1,0.0720159630884128,1
146,520,1,0.0907006140334989,1
146,521,1,0.123413943259283,1
146,522,1,0.146653112043216,1
146,523,1,0.151983341810064,1
147,493,1,0.0962004263378788,1
147,494,1,0.0738860430265255,1
147,519,1,0.0687536974887121,1
147,520,1,0.0796292558676085,1
147,521,1,0.0953253739752571,1
147,522,1,0.108434543776014,1
147,523,1,0.115581772086245,1
148,493,1,0.0953312020272852,1
148,494,1,0.0716654473878683,1
148,520,1,0.0752068245686619,1
148,521,1,0.0849932080732213,1
148,522,1,0.0943956708965985,1
148,523,1,0.102528948108127,1
149,492,1,0.117412642950796,1
149,493,1,0.0920352439376998,1
149,494,1,0.0681918265529548,1
149,520,1,0.0761887525040857,1
149,521,1,0.0849736933830801,1
149,522,1,0.0941503356622541,1
150,493,1,0.0890215959695804,1
150,519,1,0.0711908534779083,1
150,520,1,0.0802350258715196,1
150,521,1,0.0887786925842836,1
150,522,1,0.0976539832441528,1
151,493,1,0.0880893352565785,1
151,494,1,0.071245606020137,1
151,518,1,0.070839115863064,1
151,519,1,0.0772669181701723,1
151,520,1,0.0870773386457375,1
151,521,1,0.0957987040424854,1
152,493,1,0.0893768975011325,1
152,494,1,0.0775791292533279,1
152,517,1,0.068126621851642,1
152,518,1,0.0730569022967868,1
152,519,1,0.0790726499449372,1
152,520,1,0.0884535435850122,1
153,492,1,0.092702936245687,1
153,493,1,0.0896373808789292,1
153,494,1,0.0836696472750305,1
153,495,1,0.0724789907409564,1
153,518,1,0.0705644367161959,1
153,519,1,0.0756352133467159,1
154,492,1,0.0859854563926579,1
154,493,1,0.087546829266563,1
154,494,1,0.0866443497197312,1
154,495,1,0.0800633948306029,1
155,493,1,0.0842945126847642,1
155,494,1,0.0880364395449035,1
155,495,1,0.0858023010227566,1
155,496,1,0.075743598343065,1
156,494,1,0.0881609729772934,1
156,495,1,0.089935228479286,1
156,496,1,0.0818005257010745,1
156,497,1,0.0706619263100383,1
157,495,1,0.0898357083513865,1
157,496,1,0.083544137509156,1
157,497,1,0.0731239039308935,1
158,496,1,0.0819763855238327,1
158,497,1,0.0742413505478537,1
158,498,1,0.0679880663536841,1
119,511,2,0.0808774173657694,1
119,512,2,0.0825877379989567,1
120,510,2,0.0872932221515908,1
120,511,2,0.0965715348882408,1
120,512,2,0.098278980428958,1
120,513,2,0.0896535652536258,1
121,510,2,0.0842107636370188,1
121,511,2,0.0939956077691515,1
121,512,2,0.0948108941470497,1
121,513,2,0.0864010929376516,1
121,514,2,0.0786717422590771,1
121,515,2,0.0732397461983371,1
121,519,2,0.074614723233536,1
122,507,2,0.0725604636738296,1
122,508,2,0.0750321926499794,1
122,509,2,0.0772504462862287,1
122,510,2,0.0808760936252779,1
122,511,2,0.0852439520752753,1
122,512,2,0.0848614569607762,1
122,513,2,0.0787651468257014,1
122,514,2,0.0733496885364409,1
122,515,2,0.0684682906530648,1
122,519,2,0.0709219065466526,1
122,520,2,0.0717456744473377,1
122,521,2,0.072634563192472,1
122,522,2,0.0733636626838011,1
122,523,2,0.0759930305841795,1
122,524,2,0.0794965404012307,1
123,504,2,0.0714559549729852,1
123,505,2,0.0700473992536452,1
123,506,2,0.0715610755414254,1
123,507,2,0.0739020357283908,1
123,508,2,0.0756663362227054,1
123,509,2,0.0778228771970378,1
123,510,2,0.0800254855384286,1
123,511,2,0.081107814098821,1
123,512,2,0.078409354132519,1
123,513,2,0.0722232812146154,1
123,521,2,0.0688084680002687,1
123,522,2,0.0714786083057396,1
123,523,2,0.0761187619717652,1
123,524,2,0.0815473678193008,1
123,525,2,0.0878205500492743,1
124,502,2,0.0760377622311944,1
124,503,2,0.0722075340935653,1
124,504,2,0.0702308780714493,1
124,505,2,0.0709536942877759,1
124,506,2,0.0727440263484974,1
124,507,2,0.0747354291990749,1
124,508,2,0.075808473606699,1
124,509,2,0.0786072922695376,1
124,510,2,0.0813803309365604,1
124,511,2,0.0825611793322636,1
124,512,2,0.0790857915134362,1
124,513,2,0.0696334039072698,1
124,523,2,0.0728679368441854,1
124,524,2,0.0806680567259578,1
124,525,2,0.0900203132470748,1
124,526,2,0.0909409358253485,1
125,501,2,0.0757014303201693,1
125,502,2,0.0740553380548102,1
125,503,2,0.0719777183687837,1
125,504,2,0.0706958224523063,1
125,505,2,0.0707348158939329,1
125,506,2,0.0710632233313371,1
125,507,2,0.072100077512493,1
125,508,2,0.0726382588842514,1
125,509,2,0.0745978859732576,1
125,510,2,0.074903741904099,1
125,511,2,0.0745031936047977,1
125,512,2,0.0703667621293203,1
125,524,2,0.0740888029332077,1
125,525,2,0.0855812902686649,1
125,526,2,0.0892810910343404,1
125,527,2,0.086176266696261,1
126,500,2,0.0735042127771601,1
126,501,2,0.0721553930936637,1
126,502,2,0.0715086230731729,1
126,503,2,0.0709620799741472,1
126,504,2,0.0695297987521524,1
126,505,2,0.0679137032848986,1
126,525,2,0.0752876985239371,1
126,526,2,0.0816976153599707,1
126,527,2,0.0839842722379058,1
127,500,2,0.0727051107739586,1
127,501,2,0.069890796560661,1
127,502,2,0.0689036215814791,1
127,503,2,0.0682848717330204,1
127,526,2,0.070192106251534,1
128,500,2,0.0748971411709696,1
128,501,2,0.0704239824592525,1
129,501,2,0.070673690230062,1
130,500,2,0.0767221959630443,1
131,500,2,0.0696509180122339,1
132,499,2,0.0747523922446489,1
132,526,2,0.0730700139164059,1
133,498,2,0.0759463342906433,1
133,526,2,0.0793822554755417,1
134,498,2,0.0679479108955175,1
134,525,2,0.0727428703217334,1
134,526,2,0.0849085785284069,1
135,525,2,0.0769940000174422,1
135,526,2,0.0888401776347132,1
136,525,2,0.0798574603426516,1
136,526,2,0.0915832015343027,1
137,525,2,0.0816779808743099,1
137,526,2,0.0936737711159969,1
138,524,2,0.0715069459358987,1
138,525,2,0.087152893679943,1
139,496,2,0.0692732865958301,1
139,524,2,0.0791987287395298,1
139,525,2,0.0951367140012307,1
140,523,2,0.0728407791998943,1
140,524,2,0.0861383933427426,1
140,525,2,0.0988164729764788,1
141,522,2,0.0838001585038479,1
141,523,2,0.0931926603297712,1
141,524,2,0.0957002021765025,1
141,525,2,0.101352220678298,1
142,521,2,0.116710820899277,1
142,522,2,0.167168442180022,1
142,523,2,0.153517994293325,1
142,524,2,0.120366153568081,1
143,520,2,0.0901306269512893,1
143,521,2,0.199109102284002,1
143,522,2,0.282154411249585,2
143,523,2,0.236079041850517,1
143,524,2,0.157247971550385,1
143,525,2,0.119353006920252,1
144,494,2,0.0717916459779804,1
144,520,2,0.104804511920948,1
144,521,2,0.226479659152037,1
144,522,2,0.312302271505141,2
144,523,2,0.261979048817824,2
144,524,2,0.178350048162591,1
144,525,2,0.130739163752521,1
145,493,2,0.088134210658217,1
145,494,2,0.0707931143835414,1
145,520,2,0.0986212122693229,1
145,521,2,0.181626934805457,1
145,522,2,0.239865251124473,1
145,523,2,0.211615646713237,1
145,524,2,0.166695729059719,1
146,493,2,0.0886284150947338,1
146,494,2,0.0684719204573084,1
146,520,2,0.0845290363734657,1
146,521,2,0.123400370426914,1
146,522,2,0.149022859093539,1
146,523,2,0.142376579707578,1
146,524,2,0.131651083186296,1
147,493,2,0.0889100004533062,1
147,494,2,0.0682021050085357,1
147,520,2,0.0754161193209377,1
147,521,2,0.0920216171973464,1
147,522,2,0.103418381922875,1
147,523,2,0.106141609612853,1
148,493,2,0.0879965895653119,1
148,520,2,0.0721407181425139,1
148,521,2,0.081318785988371,1
148,522,2,0.0892214089064806,1
148,523,2,0.0967070296106732,1
149,493,2,0.084646435982664,1
149,520,2,0.0725289514624014,1
149,521,2,0.0789190241706149,1
149,522,2,0.0861793454411144,1
150,493,2,0.0849261465413548,1
150,520,2,0.0743184449544858,1
150,521,2,0.0799034977608301,1
150,522,2,0.0868031626400518,1
151,494,2,0.0687745119602409,1
151,518,2,0.0690069811557814,1
151,519,2,0.0723028074702953,1
151,520,2,0.0804122274040972,1
151,521,2,0.0871980446112765,1
152,494,2,0.0752869557917157,1
152,517,2,0.0705458923697633,1
152,518,2,0.0725975942951265,1
152,519,2,0.0753212532489743,1
152,520,2,0.0836250294337592,1
153,493,2,0.0865877343571729,1
153,494,2,0.0817842814286181,1
153,495,2,0.0711751303159621,1
153,517,2,0.0685146455293702,1
153,518,2,0.0706043525833233,1
154,492,2,0.0807094520677521,1
154,493,2,0.0844865089640112,1
154,494,2,0.0849764486800307,1
154,495,2,0.0784706475101172,1
155,493,2,0.0820792539365047,1
155,494,2,0.0864710175824363,1
155,495,2,0.0843946138209337,1
155,496,2,0.0745163112141928,1
156,494,2,0.0843684384999032,1
156,495,2,0.0881062623634966,1
156,496,2,0.0816543392285188,1
156,497,2,0.0708288493870351,1
157,495,2,0.0883443559586819,1
157,496,2,0.0849384974594245,1
157,497,2,0.0746534770841234,1
158,496,2,0.0822999532222455,1
158,497,2,0.0753205764042886,1
158,498,2,0.0695239048125885,1
119,511,3,0.0830308736054723,1
119,512,3,0.0820743842486334,1
119,513,3,0.0805532866284145,1
120,510,3,0.0923230526735149,1
120,511,3,0.100471328284096,1
120,512,3,0.101386937419875,1
120,513,3,0.0933025128212353,1
120,514,3,0.0821756713604468,1
121,510,3,0.0854727375585884,1
121,511,3,0.0993910661964165,1
121,512,3,0.101605324652087,1
121,513,3,0.0908764019789453,1
121,514,3,0.0790432221755499,1
122,507,3,0.0704501577802829,1
122,508,3,0.0723064252949869,1
122,509,3,0.0731975661958894,1
122,510,3,0.0771836243454013,1
122,511,3,0.0844287914826727,1
122,512,3,0.0857159643917881,1
122,513,3,0.0789726805838393,1
122,514,3,0.0713418677099036,1
122,519,3,0.0681947315943049,1
122,520,3,0.0692002113288802,1
122,521,3,0.0705340985008597,1
122,522,3,0.072056813360593,1
122,524,3,0.0780198210312439,1
123,507,3,0.0732329238434964,1
123,508,3,0.0768434829368533,1
123,509,3,0.0777552705955572,1
123,510,3,0.0798544954035418,1
123,511,3,0.0822665003234,1
123,512,3,0.0803680348369204,1
123,513,3,0.0730744583301827,1
123,521,3,0.0678573634520354,1
123,522,3,0.0707328332780836,1
123,523,3,0.0747391907783901,1
123,524,3,0.0805834451504713,1
123,525,3,0.0866963589445612,1
124,506,3,0.0687311040537175,1
124,507,3,0.0756937394478117,1
124,508,3,0.0805094474580205,1
124,509,3,0.0826949430094379,1
124,510,3,0.086649962139824,1
124,511,3,0.090984038253297,1
124,512,3,0.0868338063339629,1
124,513,3,0.072545710855592,1
124,523,3,0.071221335447868,1
124,524,3,0.0814893328798354,1
124,525,3,0.0926670934262257,1
124,526,3,0.0928680743694419,1
125,501,3,0.0695669173938974,1
125,502,3,0.0684246611248301,1
125,503,3,0.0677914040389491,1
125,506,3,0.0678923916619635,1
125,507,3,0.07204016178337,1
125,508,3,0.0755607903801706,1
125,509,3,0.0777191941748327,1
125,510,3,0.0803033332767898,1
125,511,3,0.0830937602634811,1
125,512,3,0.0779004687550763,1
125,524,3,0.0757567878297719,1
125,525,3,0.0897004711893213,1
125,526,3,0.0929259475849559,1
126,500,3,0.0694246362552802,1
126,501,3,0.0686234617895898,1
126,502,3,0.0680873289212164,1
126,525,3,0.0760518382047463,1
126,526,3,0.0833912544670551,1
126,527,3,0.0819693355575049,1
127,500,3,0.0709894772094774,1
127,501,3,0.0688243528861664,1
127,526,3,0.0685940220406505,1
128,500,3,0.0735883092319123,1
128,501,3,0.0693920159352959,1
129,500,3,0.076278407470947,1
129,501,3,0.0699622965165284,1
130,500,3,0.0756086966084547,1
131,499,3,0.0799668096929334,1
131,500,3,0.0718913937173671,1
132,499,3,0.079868727111269,1
132,526,3,0.0724469993474498,1
133,498,3,0.0799274209260922,1
133,499,3,0.072296733837452,1
133,526,3,0.0791351173186274,1
134,498,3,0.0716660583450182,1
134,525,3,0.0737569693439432,1
134,526,3,0.0846229680403763,1
135,525,3,0.0783178123862242,1
135,526,3,0.0875100879807047,1
136,497,3,0.0688390338270921,1
136,525,3,0.0812592416253588,1
136,526,3,0.0902750584194831,1
137,525,3,0.0829443033732406,1
138,524,3,0.0732845736817677,1
138,525,3,0.0876831865167363,1
139,491,3,0.0715732886946476,1
139,524,3,0.0811522702161408,1
139,525,3,0.0934126947503782,1
140,523,3,0.075347638212164,1
140,524,3,0.0894777533490754,1
140,525,3,0.0979587909641977,1
141,522,3,0.0804983843417864,1
141,523,3,0.091956292700514,1
141,524,3,0.0988154008065784,1
141,525,3,0.101786994557546,1
142,521,3,0.110284006905205,1
142,522,3,0.172649422628722,2
142,523,3,0.155215736396955,1
142,524,3,0.121847664758851,1
143,520,3,0.0825662706418462,1
143,521,3,0.218549363468903,2
143,522,3,0.348485190446604,2
143,523,3,0.283818371016691,2
143,524,3,0.170131524459322,1
143,525,3,0.113955535928258,1
144,494,3,0.0714094982704881,1
144,520,3,0.101291136942859,1
144,521,3,0.270910619412797,2
144,522,3,0.422954038675936,2
144,523,3,0.343801137712425,2
144,524,3,0.199907503483414,2
145,492,3,0.094476209424419,1
145,493,3,0.083491810826199,1
145,520,3,0.0947132847576877,1
145,521,3,0.208352320923188,1
145,522,3,0.30869153870828,2
145,523,3,0.257518103259329,2
145,524,3,0.172160944418042,1
146,493,3,0.0812406254016145,1
146,520,3,0.0820117850998716,1
146,521,3,0.129454835986996,1
146,522,3,0.165298997158163,1
146,523,3,0.147876008666295,1
146,524,3,0.125785032019426,1
147,493,3,0.0794502454226851,1
147,520,3,0.0749247300791312,1
147,521,3,0.0943407566304185,1
147,522,3,0.106600678023474,1
147,523,3,0.105591508586895,1
148,493,3,0.0778528560258153,1
148,520,3,0.0704571957670589,1
148,521,3,0.0801908932021026,1
148,522,3,0.0877094037661986,1
149,493,3,0.074113558677331,1
149,520,3,0.0684952686040765,1
149,521,3,0.0736885541227053,1
149,522,3,0.0794598829722361,1
150,493,3,0.0751729703548257,1
150,520,3,0.0687885999133447,1
150,521,3,0.072797353324043,1
151,519,3,0.0677808081252413,1
151,520,3,0.0732950497999559,1
152,494,3,0.0710268594013655,1
152,517,3,0.0721017726190952,1
152,518,3,0.0715208002877393,1
152,519,3,0.0709888183341197,1
153,493,3,0.081192844958626,1
153,494,3,0.0769874951207285,1
153,495,3,0.0678731045833095,1
153,517,3,0.0687027664235584,1
154,493,3,0.0798682958473985,1
154,494,3,0.0809219573399529,1
154,495,3,0.0743268486101851,1
155,493,3,0.0786528025874299,1
155,494,3,0.082888059376793,1
155,495,3,0.0803484961876753,1
155,496,3,0.0718834692437462,1
156,494,3,0.0801311272173791,1
156,495,3,0.0847361628268369,1
156,496,3,0.081229364622773,1
156,497,3,0.0699246387949452,1
157,495,3,0.0865103704106217,1
157,496,3,0.0860613768031981,1
157,497,3,0.0751753423061136,1
119,512,4,0.081848887152333,1
120,511,4,0.0987016489709517,1
120,512,4,0.100498222378244,1
120,513,4,0.0933560374593881,1
121,510,4,0.0847920414469497,1
121,511,4,0.100638455013476,1
121,512,4,0.105546381614665,1
121,513,4,0.0933134920806057,1
121,514,4,0.0784734627048276,1
122,508,4,0.0690634767228201,1
122,509,4,0.0693990179834159,1
122,510,4,0.0739556621927353,1
122,511,4,0.0830391275167721,1
122,512,4,0.0856395288605136,1
122,513,4,0.0777990738272953,1
122,514,4,0.0689215609605377,1
122,520,4,0.0689095574494748,1
122,521,4,0.070809005259215,1
122,522,4,0.0735976892210962,1
123,507,4,0.0709343473113621,1
123,508,4,0.0771819292387991,1
123,509,4,0.0779272131048248,1
123,510,4,0.0808666776974381,1
123,511,4,0.0856700108304733,1
123,512,4,0.0837171042701161,1
123,513,4,0.0737295182006291,1
123,521,4,0.0694779572410498,1
123,522,4,0.0732168412949915,1
123,523,4,0.076950538202935,1
123,524,4,0.0824546691357961,1
124,507,4,0.0747914575635872,1
124,508,4,0.0845475627505703,1
124,509,4,0.0868216291193966,1
124,510,4,0.091730082820872,1
124,511,4,0.0990518172644894,1
124,512,4,0.0937269962653507,1
124,513,4,0.0746251214846364,1
124,523,4,0.0732647535130515,1
124,524,4,0.0848540835465454,1
124,525,4,0.0952367252907605,1
125,507,4,0.07098814747921,1
125,508,4,0.0786196371978314,1
125,509,4,0.081300379406786,1
125,510,4,0.0853764878483738,1
125,511,4,0.0903996277905288,1
125,512,4,0.0837888857454545,1
125,524,4,0.078745410513849,1
125,525,4,0.0930258750176219,1
125,526,4,0.0949458617691958,1
126,509,4,0.0678255876904641,1
126,525,4,0.0753252005113448,1
126,526,4,0.082473111656037,1
127,500,4,0.0681026148295161,1
128,500,4,0.0702659062813774,1
129,500,4,0.0725778400139461,1
129,501,4,0.0681385295262892,1
130,500,4,0.0727932263683931,1
131,500,4,0.0726235000762379,1
132,499,4,0.0819898265811307,1
132,500,4,0.0698106833069352,1
133,498,4,0.0806413183659853,1
133,499,4,0.0745300397807378,1
134,498,4,0.0730207719680784,1
134,525,4,0.0733543665514809,1
134,526,4,0.0837121926538129,1
135,525,4,0.0781528958841805,1
136,497,4,0.0687970814361317,1
136,525,4,0.0809942659155775,1
137,524,4,0.0686816105347988,1
137,525,4,0.082456142620687,1
138,524,4,0.0758193450501018,1
138,525,4,0.0870146436605601,1
139,524,4,0.083584448701498,1
139,525,4,0.0905813935324028,1
140,523,4,0.0767101385439976,1
140,524,4,0.0915865857577311,1
140,525,4,0.0946033543991359,1
141,522,4,0.0743709573204982,1
141,523,4,0.0880818001183963,1
141,524,4,0.0986231349874124,1
142,521,4,0.0970947777587063,1
142,522,4,0.163098916502235,2
142,523,4,0.147639160944514,2
142,524,4,0.118809063384001,1
143,520,4,0.0723482279415478,1
143,521,4,0.22395976039746,2
143,522,4,0.392385360719164,2
143,523,4,0.319718380859091,2
143,524,4,0.175657751675772,2
143,525,4,0.105236889889804,1
144,520,4,0.0947889895362926,1
144,521,4,0.310429028965311,2
144,522,4,0.534190216309499,2
144,523,4,0.43348655659471,2
144,524,4,0.219701772408255,2
145,492,4,0.0855312337108042,1
145,493,4,0.0760929879657254,1
145,520,4,0.0879032868248792,1
145,521,4,0.234165068834026,2
145,522,4,0.387264341847728,2
145,523,4,0.315281058977059,2
145,524,4,0.175824051816067,2
146,493,4,0.0716311080021778,1
146,520,4,0.0768343904569164,1
146,521,4,0.132179237673065,1
146,522,4,0.1833504329458,2
146,523,4,0.156386474050805,2
146,524,4,0.1178682492709,1
147,493,4,0.0681959834574846,1
147,520,4,0.072223688519382,1
147,521,4,0.0912522783909871,1
147,522,4,0.104631263640517,1
147,523,4,0.100873086518145,1
148,521,4,0.0759444535009857,1
148,522,4,0.0827006273068424,1
150,492,4,0.080876944173467,1
151,493,4,0.071750568094313,1
152,493,4,0.0762348677893519,1
152,517,4,0.0724772297468184,1
152,518,4,0.0703648334214549,1
153,493,4,0.0755528659065497,1
153,494,4,0.071593641953426,1
153,517,4,0.069331788737822,1
154,493,4,0.0742448545668017,1
154,494,4,0.0756796874333637,1
154,495,4,0.0694617489072492,1
155,494,4,0.0773276485088285,1
155,495,4,0.075222272200913,1
155,496,4,0.0688113430927389,1
156,495,4,0.0793988711141089,1
156,496,4,0.0793272873013778,1
156,497,4,0.0691884474088564,1
157,496,4,0.0848406245199195,1
157,497,4,0.0746921470778471,1
120,512,5,0.0939660721837966,1
121,511,5,0.093788295632725,1
121,512,5,0.0997057211081718,1
121,513,5,0.0887064798450747,1
122,510,5,0.0719715369199729,1
122,511,5,0.0795560368460351,1
122,512,5,0.082211268599093,1
122,513,5,0.0746193533303681,1
123,507,5,0.0688578417236678,1
123,508,5,0.0766867784176775,1
123,509,5,0.0770160963010306,1
123,510,5,0.079039688207722,1
123,511,5,0.0838638118531821,1
123,512,5,0.0823069073521577,1
123,513,5,0.0720561484954593,1
123,521,5,0.0678220836715161,1
123,522,5,0.0712917812031629,1
123,523,5,0.0738173582653685,1
124,507,5,0.0734389601576394,1
124,508,5,0.0865808521045725,1
124,509,5,0.0880726716998035,1
124,510,5,0.0905907555522588,1
124,511,5,0.0973091159023569,1
124,512,5,0.0920332613218506,1
124,513,5,0.0739660844029396,1
124,523,5,0.0709027392635182,1
124,524,5,0.0795583728586671,1
125,507,5,0.068977014306556,1
125,508,5,0.0796569466019618,1
125,509,5,0.0818163267301085,1
125,510,5,0.0841635821716283,1
125,511,5,0.0881776005954125,1
125,512,5,0.0814480034255768,1
125,524,5,0.0734025902378919,1
125,525,5,0.0846964625916448,1
126,509,5,0.0679605912512661,1
126,525,5,0.0694801135604024,1
126,526,5,0.0744033500289953,1
129,500,5,0.0698822970685461,1
130,500,5,0.070101492920516,1
131,500,5,0.0709025356111349,1
132,499,5,0.0794779241774864,1
132,500,5,0.0692440325299463,1
133,498,5,0.0786181876720443,1
133,499,5,0.0737664631388707,1
134,498,5,0.0725451058882181,1
134,525,5,0.0728023907256417,1
135,497,5,0.0708921912680183,1
135,525,5,0.0773167111778899,1
136,524,5,0.0685038220041752,1
136,525,5,0.0801828189840822,1
137,524,5,0.0695376932768934,1
137,525,5,0.0823287760242589,1
138,524,5,0.0767873467563734,1
138,525,5,0.0868574779286339,1
139,524,5,0.0847737307017804,1
139,525,5,0.0898291854853448,1
140,523,5,0.0767053826618699,1
140,524,5,0.0933849501080412,1
140,525,5,0.0950388290821737,1
141,522,5,0.0729046242220599,1
141,523,5,0.0878328410695842,1
141,524,5,0.101529362313115,1
142,521,5,0.0883341493804128,1
142,522,5,0.147144573162334,2
142,523,5,0.138265137577487,2
142,524,5,0.119331144237927,1
143,520,5,0.0707775529455466,1
143,521,5,0.208358837799454,2
143,522,5,0.37501920322179,2
143,523,5,0.30884233730834,2
143,524,5,0.169495434209403,2
143,525,5,0.105509065310313,1
144,520,5,0.0966862570675763,2
144,521,5,0.31279276228055,2
144,522,5,0.554968174163902,2
144,523,5,0.451740279096726,2
144,524,5,0.220386811107479,2
145,493,5,0.0712530932401113,1
145,520,5,0.089850760658423,1
145,521,5,0.236390582078763,2
145,522,5,0.405646461187641,2
145,523,5,0.327943804784288,2
145,524,5,0.171883641749294,2
146,520,5,0.0781234561352413,1
146,521,5,0.130437051431667,1
146,522,5,0.185683929871894,2
146,523,5,0.157206186873152,2
147,520,5,0.071317195822644,1
147,521,5,0.0873534613286167,1
147,522,5,0.0994693645480206,1
148,521,5,0.0717082503270178,1
148,522,5,0.0778460995585104,1
149,492,5,0.0786745215151316,1
150,492,5,0.0718901178950835,1
151,492,5,0.0771222950291472,1
152,493,5,0.0697083839229813,1
152,517,5,0.0686271574813692,1
154,494,5,0.0693834086272133,1
155,495,5,0.0693890929246179,1
156,496,5,0.0744442242602794,1
122,510,6,0.0696681625772789,1
122,511,6,0.0750197039670622,1
122,512,6,0.0763058466347091,1
122,513,6,0.0702481765444781,1
123,507,6,0.0684285305201129,1
123,508,6,0.0741668437244446,1
123,509,6,0.0745701772695764,1
123,510,6,0.0756687620819771,1
123,511,6,0.0799458275076772,1
123,512,6,0.0787207386265894,1
123,513,6,0.0695017845698962,1
123,522,6,0.0691252672518246,1
123,523,6,0.070844943915092,1
124,507,6,0.0719739927281245,1
124,508,6,0.0831002591704189,1
124,509,6,0.0856184448490658,1
124,510,6,0.0878645749027236,1
124,511,6,0.0934833201989526,1
124,512,6,0.0888166318253377,1
124,513,6,0.0727994856842916,1
124,523,6,0.0687112599258974,1
124,524,6,0.0733694727665012,1
125,508,6,0.0767259755116874,1
125,509,6,0.0805824208987788,1
125,510,6,0.083587090192705,1
125,511,6,0.0867090632594137,1
125,512,6,0.0801482100584727,1
125,525,6,0.0754413123187074,1
126,509,6,0.0678115536453441,1
126,510,6,0.0679506302538122,1
126,526,6,0.0693715788196538,1
129,500,6,0.0685852230597367,1
132,500,6,0.0687314215118444,1
133,499,6,0.0706187999229859,1
134,497,6,0.0697237656676966,1
134,498,6,0.0695802326658998,1
134,525,6,0.072896711727991,1
135,525,6,0.0773966327587844,1
136,524,6,0.0691744612819443,1
136,525,6,0.0801432804728415,1
137,524,6,0.0700761681476747,1
137,525,6,0.0826265996655117,1
138,524,6,0.0762960174123267,1
138,525,6,0.086331437832786,1
139,524,6,0.0841825697614833,1
139,525,6,0.0893198508747038,1
140,523,6,0.0784383805869156,1
140,524,6,0.0930888155836145,1
140,525,6,0.0962972450768114,1
141,522,6,0.0741685088821669,1
141,523,6,0.088170442813117,1
141,524,6,0.101195492200018,1
142,521,6,0.0841798204543087,1
142,522,6,0.130213608828527,2
142,523,6,0.127300002098818,1
142,524,6,0.115763681582742,1
143,520,6,0.0726361385035546,1
143,521,6,0.185655610211063,2
143,522,6,0.322496990017775,2
143,523,6,0.273784442050451,2
143,524,6,0.159127036152467,1
143,525,6,0.112926348660355,1
144,520,6,0.0999881450353814,1
144,521,6,0.288812909778544,2
144,522,6,0.502041603163062,2
144,523,6,0.416809582721538,2
144,524,6,0.210640367429151,2
145,520,6,0.0936939866099277,1
145,521,6,0.225354779223087,2
145,522,6,0.379103224157447,2
145,523,6,0.313075264074847,2
145,524,6,0.168376196649425,2
146,520,6,0.0799553033332768,1
146,521,6,0.128421707446499,1
146,522,6,0.179304662719548,2
146,523,6,0.155405085195219,2
147,520,6,0.071858701520071,1
147,521,6,0.0874663925649342,1
147,522,6,0.0973148481179693,1
148,521,6,0.0717850033164192,1
148,522,6,0.0769563902140669,1
149,492,6,0.0759965226235755,1
122,510,7,0.0678626404446733,1
122,511,7,0.0718074529967903,1
122,512,7,0.0723744032625783,1
123,508,7,0.0695788610072005,1
123,509,7,0.0701181984057229,1
123,510,7,0.0727728910789427,1
123,511,7,0.0764849828649281,1
123,512,7,0.0753075546313092,1
123,513,7,0.0680867419231704,1
123,522,7,0.0678031619691968,1
124,507,7,0.0707690235045518,1
124,508,7,0.0757145778784444,1
124,509,7,0.0797317349448418,1
124,510,7,0.0858128969364644,1
124,511,7,0.0904111461297374,1
124,512,7,0.0852716907278364,1
124,513,7,0.071959209961007,1
124,523,7,0.068660221044776,1
125,508,7,0.0710957657842337,1
125,509,7,0.0775064732706966,1
125,510,7,0.0853201599950625,1
125,511,7,0.0881415361542399,1
125,512,7,0.0807312009443337,1
126,510,7,0.0706861968823072,1
126,511,7,0.0691366598057377,1
131,501,7,0.0694357532794982,1
132,500,7,0.0708023865567576,1
133,499,7,0.0702129985901505,1
134,525,7,0.0710562931605288,1
135,525,7,0.0753595818254671,1
136,524,7,0.0686524882439865,1
136,525,7,0.0786438598518925,1
137,524,7,0.0691174386146194,1
137,525,7,0.0813846196161617,1
138,524,7,0.0742805536316395,1
138,525,7,0.0851666959446917,1
139,524,7,0.0807420364490806,1
139,525,7,0.0869848205659581,1
140,523,7,0.0794093771811769,1
140,524,7,0.0900651527100574,1
140,525,7,0.0954067870103706,1
141,522,7,0.0781532432911873,1
141,523,7,0.0893780655074485,1
141,524,7,0.0987607800394213,1
142,521,7,0.0863340194262331,1
142,522,7,0.125181298539348,1
142,523,7,0.125615796888901,1
142,524,7,0.114231245316594,1
143,520,7,0.0755067386417316,1
143,521,7,0.169200234090029,1
143,522,7,0.282481788445521,2
143,523,7,0.254833317951589,2
143,524,7,0.158040946012759,1
143,525,7,0.117380166385435,1
144,520,7,0.100608805622377,1
144,521,7,0.255959994813333,2
144,522,7,0.436290298853404,2
144,523,7,0.384208597734025,2
144,524,7,0.208095623083811,2
145,520,7,0.0971642232214127,1
145,521,7,0.209470276671107,2
145,522,7,0.343796082341498,2
145,523,7,0.302742804673789,2
145,524,7,0.173536783980981,1
146,520,7,0.0861626639150115,1
146,521,7,0.129711629662789,1
146,522,7,0.173231149671851,2
146,523,7,0.157864750762546,1
147,520,7,0.0772775859611918,1
147,521,7,0.0930416580773279,1
147,522,7,0.0993612670609185,1
148,521,7,0.0744587374874778,1
148,522,7,0.0784023760435028,1
122,512,8,0.0677728956311724,1
123,511,8,0.0707694966968542,1
123,512,8,0.0704231379008394,1
124,509,8,0.0700493878592704,1
124,510,8,0.0785376671135519,1
124,511,8,0.0823972930716884,1
124,512,8,0.0780077276735413,1
124,513,8,0.0683891657123756,1
124,523,8,0.0679974163939881,1
125,509,8,0.0706774398298252,1
125,510,8,0.0813837570884207,1
125,511,8,0.0844748468701791,1
125,512,8,0.0775689825728187,1
126,510,8,0.0687836224095058,1
126,511,8,0.0681299701364145,1
131,501,8,0.0711446183971225,1
132,501,8,0.0694145973907386,1
134,525,8,0.0682781691736994,1
135,525,8,0.0724608656788424,1
136,524,8,0.0682031412397801,1
136,525,8,0.0764726618957382,1
137,524,8,0.0686418563916229,1
137,525,8,0.0789976639394498,1
138,524,8,0.0721211794932688,1
138,525,8,0.0827485814533343,1
139,524,8,0.0770061952013365,1
139,525,8,0.0838735811778046,1
140,523,8,0.0778709271799454,1
140,524,8,0.085675653199446,1
140,525,8,0.0925101073875789,1
141,522,8,0.0777575047819976,1
141,523,8,0.0858511057174376,1
141,524,8,0.0930574591063618,1
142,521,8,0.0867466550934611,1
142,522,8,0.122843764504243,1
142,523,8,0.123714761788526,1
142,524,8,0.1099127845491,1
143,520,8,0.0753538975280626,1
143,521,8,0.157852819128795,1
143,522,8,0.263408041652806,2
143,523,8,0.251362194853259,2
143,524,8,0.158569915109061,1
144,520,8,0.0961053446339801,1
144,521,8,0.231721407948116,2
144,522,8,0.404210544171627,2
144,523,8,0.382315780606294,2
144,524,8,0.213837278583139,2
145,520,8,0.0950993737377745,1
145,521,8,0.195152088558215,2
145,522,8,0.326109519747429,2
145,523,8,0.30855437283835,2
146,520,8,0.0875595755098473,1
146,521,8,0.127822023054983,1
146,522,8,0.168883183267882,2
146,523,8,0.161333741500628,1
147,520,8,0.0807400957616633,1
147,521,8,0.0958968704810135,1
147,522,8,0.0976409435018454,1
148,521,8,0.0764293558154064,1
124,510,9,0.0701670390390598,1
124,511,9,0.0734920415523698,1
124,512,9,0.0717022246123824,1
124,523,9,0.0685536269914448,1
124,524,9,0.0685836956668619,1
125,510,9,0.0755730035333928,1
125,511,9,0.0792789617887752,1
125,512,9,0.0745805994797808,1
125,523,9,0.0704835927098005,1
125,524,9,0.0725408711166006,1
125,525,9,0.0708682501334282,1
126,523,9,0.0684306808496895,1
126,524,9,0.0728272722550606,1
126,525,9,0.0725238541630429,1
127,525,9,0.0680933666154038,1
132,501,9,0.0710522320924147,1
135,525,9,0.0713833289392337,1
136,525,9,0.0757169558195082,1
137,525,9,0.0770833075772966,1
138,524,9,0.0701960654934564,1
138,525,9,0.0807703561099117,1
139,524,9,0.0740124093303651,1
139,525,9,0.0828131632179453,1
140,523,9,0.0746804909737909,1
140,524,9,0.0821603495134912,1
141,522,9,0.0741176197454451,1
141,523,9,0.082839865639262,1
141,524,9,0.0892926513019808,1
142,521,9,0.0823884401827907,1
142,522,9,0.116310272599976,1
142,523,9,0.1222751071523,1
142,524,9,0.109356094769565,1
143,520,9,0.0712453784086497,1
143,521,9,0.139136326534602,1
143,522,9,0.235500046145234,2
143,523,9,0.240462096362174,2
143,524,9,0.158196799983746,1
144,520,9,0.0876992570856893,1
144,521,9,0.20255508030277,2
144,522,9,0.366104499835976,2
144,523,9,0.372848747997857,2
144,524,9,0.217649052220975,2
145,520,9,0.0876995685540403,1
145,521,9,0.174473728698799,1
145,522,9,0.302118406466581,2
145,523,9,0.308756180370651,2
146,520,9,0.0823720761148147,1
146,521,9,0.119376199332844,1
146,522,9,0.162802027266035,1
147,520,9,0.0778667043878799,1
147,521,9,0.0927727410949521,1
124,516,10,0.0678778664552132,1
124,519,10,0.0682735810052991,1
124,523,10,0.0684697821072837,1
124,524,10,0.0683758564301491,1
125,510,10,0.0698575533039748,1
125,511,10,0.0740338287692678,1
125,512,10,0.0702601021884533,1
125,515,10,0.068325620179009,1
125,516,10,0.0691700468170474,1
125,519,10,0.0686385440455062,1
125,523,10,0.0734609246661562,1
125,524,10,0.0764797597802739,1
125,525,10,0.0725910474699809,1
126,511,10,0.0689587814284744,1
126,515,10,0.0684274463706606,1
126,516,10,0.0693109203583094,1
126,523,10,0.074382990780441,1
126,524,10,0.081019836269234,1
126,525,10,0.0777633747624575,1
126,526,10,0.0732220823489736,1
127,524,10,0.0738260554200908,1
127,525,10,0.0725901909320159,1
132,501,10,0.0714430230466454,1
135,525,10,0.069974096375208,1
136,500,10,0.0705733495028534,1
136,524,10,0.0677600595412483,1
136,525,10,0.0742775527538738,1
137,499,10,0.0766857062477772,1
137,500,10,0.0797991199246112,1
137,525,10,0.0742367204510215,1
138,499,10,0.0677699965795983,1
138,524,10,0.0677480739995133,1
138,525,10,0.0769425538315543,1
139,524,10,0.0699324854014784,1
139,525,10,0.079170319232059,1
140,523,10,0.0704151535294587,1
140,524,10,0.0767821476308232,1
140,525,10,0.0838190742163911,1
141,522,10,0.0704701516525025,1
141,523,10,0.0795029554513047,1
141,524,10,0.0829670525424107,1
142,521,10,0.0754676673330173,1
142,522,10,0.10523765658113,1
142,523,10,0.115029718393318,1
142,524,10,0.103816019191051,1
143,521,10,0.117292727635686,1
143,522,10,0.196070129543041,1
143,523,10,0.209116161115199,1
143,524,10,0.145151762714402,1
144,520,10,0.0804338564851592,1
144,521,10,0.16947352360887,1
144,522,10,0.305447907301652,2
144,523,10,0.323476198594904,2
145,520,10,0.0814870986933951,1
145,521,10,0.151390905047484,1
145,522,10,0.262537343857322,1
146,520,10,0.0760317844347669,1
146,521,10,0.107524624927416,1
147,520,10,0.0723610221030401,1
124,517,11,0.0682513469568632,1
124,518,11,0.0688944152957986,1
124,523,11,0.0680844238798664,1
124,524,11,0.068257522415898,1
125,511,11,0.0687616938396448,1
125,515,11,0.0683806422611567,1
125,516,11,0.0699426979695234,1
125,517,11,0.0685935308790202,1
125,518,11,0.0696656768202474,1
125,519,11,0.0696369798035296,1
125,523,11,0.074750014303585,1
125,524,11,0.0778705318547308,1
125,525,11,0.0750810812015241,1
125,526,11,0.0722857126496498,1
126,511,11,0.0691079627890199,1
126,515,11,0.0719795632197854,1
126,516,11,0.0727553350455467,1
126,523,11,0.078447616821476,1
126,524,11,0.0846612067702294,1
126,525,11,0.0809696239771978,1
126,526,11,0.0754789939993945,1
127,515,11,0.0685469843298835,1
127,516,11,0.0685752800316107,1
127,523,11,0.0723879641153959,1
127,524,11,0.078109499957209,1
127,525,11,0.0747990645790812,1
135,525,11,0.068223338764383,1
136,500,11,0.0805797674280199,1
136,524,11,0.0678416582594171,1
136,525,11,0.0730633413059648,1
137,499,11,0.0721466779696135,1
137,500,11,0.0839361563674625,1
137,525,11,0.0729539440374751,1
138,525,11,0.0756114938338371,1
139,525,11,0.0779027628392765,1
140,523,11,0.0681440700690703,1
140,524,11,0.0730654616866615,1
140,525,11,0.0815689909105868,1
141,522,11,0.0696801720781178,1
141,523,11,0.0799083315100455,1
141,524,11,0.0810290545344665,1
142,521,11,0.0718273749916982,1
142,522,11,0.0975396324309281,1
142,523,11,0.110348696485784,1
142,524,11,0.101538766261403,1
143,521,11,0.101092623787346,1
143,522,11,0.158247964650163,1
143,523,11,0.174464600280207,1
144,520,11,0.078504603550145,1
144,521,11,0.13968349257033,1
144,522,11,0.233410644569856,1
144,523,11,0.251539899527019,1
145,520,11,0.080174403348831,1
145,521,11,0.131946415080742,1
145,522,11,0.212559755203127,1
146,520,11,0.0734259563539879,1
146,521,11,0.100769223802661,1
147,520,11,0.068098847260425,1
124,517,12,0.0688010406780541,1
124,518,12,0.0695725957015259,1
125,516,12,0.0691306580502062,1
125,517,12,0.0707213029593231,1
125,518,12,0.0720636896234175,1
125,519,12,0.0691531616385612,1
125,523,12,0.0732725701707048,1
125,524,12,0.0753109867729454,1
125,525,12,0.0725786067052715,1
125,526,12,0.0714986321268391,1
125,527,12,0.0736752568200308,1
125,528,12,0.0725398109262523,1
126,514,12,0.0688187165069696,1
126,515,12,0.0710580122262349,1
126,516,12,0.0730844193276366,1
126,517,12,0.0694009407015053,1
126,518,12,0.0686316677826817,1
126,522,12,0.0678434192535551,1
126,523,12,0.0789420069410482,1
126,524,12,0.082789575480138,1
126,525,12,0.077802068715285,1
126,526,12,0.0745233492009687,1
127,513,12,0.0704238566739569,1
127,514,12,0.072256997663604,1
127,515,12,0.0735291601941147,1
127,516,12,0.074619682768047,1
127,517,12,0.0686800172543883,1
127,523,12,0.0754917462324549,1
127,524,12,0.0787771383572124,1
127,525,12,0.0729714521526632,1
128,524,12,0.068702592720055,1
132,499,12,0.0692900459890208,1
132,500,12,0.0690946894454493,1
134,500,12,0.0689093238482116,1
135,500,12,0.0772571967637576,1
135,501,12,0.072709099964761,1
136,500,12,0.0781721050957468,1
136,501,12,0.0688534212689949,1
136,525,12,0.070428522709445,1
137,500,12,0.0700194329895969,1
137,525,12,0.0694069604263647,1
138,525,12,0.0724252624504202,1
139,525,12,0.0753451284960286,1
140,524,12,0.0697021605457386,1
140,525,12,0.0788668053036256,1
141,522,12,0.0678762432259228,1
141,523,12,0.0777093589626743,1
141,524,12,0.0788761972723614,1
142,522,12,0.0885721171903025,1
142,523,12,0.101717105851417,1
143,521,12,0.085818844784012,1
143,522,12,0.124399141612392,1
143,523,12,0.140948700970928,1
144,520,12,0.0741209081324578,1
144,521,12,0.111664254943266,1
144,522,12,0.167580622624275,1
145,520,12,0.0769223143785195,1
145,521,12,0.112558133171791,1
146,520,12,0.0704735897839148,1
125,517,13,0.0713892108992455,1
125,518,13,0.0713124159814123,1
125,523,13,0.0712510507265023,1
125,524,13,0.0731292827497231,1
125,525,13,0.0708280767059337,1
125,526,13,0.0701954545363065,1
125,527,13,0.0734298137697187,1
125,528,13,0.0745432232776687,1
125,529,13,0.070325929826468,1
126,516,13,0.0696931998408732,1
126,517,13,0.0700175162612834,1
126,518,13,0.0689061792158224,1
126,522,13,0.0684731483613842,1
126,523,13,0.0766634662095653,1
126,524,13,0.0778198882988241,1
126,525,13,0.0726869857118446,1
126,526,13,0.0722615319240205,1
126,527,13,0.0774766381965427,1
126,528,13,0.078641368105085,1
127,513,13,0.0699654471386936,1
127,514,13,0.0713874618846595,1
127,515,13,0.0718726157696714,1
127,516,13,0.0730056118450743,1
127,517,13,0.0694985381113153,1
127,523,13,0.0758080603121565,1
127,524,13,0.0758214055330388,1
127,525,13,0.0701057816001174,1
128,524,13,0.0681866214376287,1
130,500,13,0.0685016357359427,1
131,499,13,0.0708868603673966,1
131,500,13,0.0693475538282,1
133,500,13,0.0686516137366935,1
133,523,13,0.068136247421641,1
134,500,13,0.0778560725355163,1
134,501,13,0.0754876552154609,1
135,500,13,0.0821175286050138,1
135,501,13,0.0797090037449996,1
136,500,13,0.0691593850158039,1
140,524,13,0.0706785838770373,1
141,523,13,0.0755313446414554,1
142,522,13,0.0833717817053458,1
143,521,13,0.080221476998254,1
143,522,13,0.103735324929055,1
144,520,13,0.0736700277456007,1
144,521,13,0.0967081197499015,1
145,520,13,0.0758594825389405,1
125,524,14,0.0696838138619133,1
125,525,14,0.0704501158518511,1
125,526,14,0.0698454000485124,1
125,527,14,0.0720183290499247,1
125,528,14,0.0730648207806317,1
126,517,14,0.0690935274289093,1
126,518,14,0.0683596001781407,1
126,523,14,0.071100060453611,1
126,524,14,0.0715694911766766,1
126,525,14,0.0686024137167978,1
126,526,14,0.0701497705149109,1
126,527,14,0.0761359466390504,1
127,523,14,0.0717831764347454,1
127,524,14,0.0706292580718461,1
131,500,14,0.0677986277087804,1
133,499,14,0.0694433123767843,1
133,500,14,0.0719002166573849,1
133,501,14,0.0689688562316719,1
134,499,14,0.0722922654645713,1
134,500,14,0.0820097485760386,1
134,501,14,0.0795531617535649,1
135,499,14,0.068128951874498,1
135,500,14,0.07871297587692,1
135,501,14,0.0745613004215748,1
140,527,14,0.111818252083699,1
141,526,14,0.13800244996213,1
142,525,14,0.144547502134037,1
144,525,14,0.176760589229118,1
145,526,14,0.167408859808287,1
125,525,15,0.0718045958736481,1
125,526,15,0.0705655987327359,1
125,527,15,0.0699202602687042,1
126,526,15,0.0683543651139346,1
131,522,15,0.0678162436399361,1
131,523,15,0.0686374778653819,1
132,523,15,0.0680891318437863,1
133,498,15,0.070386432553637,1
133,499,15,0.0749503423612195,1
133,500,15,0.075409877974367,1
133,501,15,0.07228155574512,1
134,498,15,0.0736136340047537,1
134,499,15,0.0814704830548279,1
134,500,15,0.0825651026355302,1
134,501,15,0.0756917927706183,1
135,499,15,0.0733426864883208,1
135,500,15,0.0734534314564059,1
138,526,15,0.0688430469769984,1
139,525,15,0.0690763008331922,1
139,526,15,0.0764478282845272,1
139,527,15,0.0845087250431192,1
140,524,15,0.0685225101052313,1
140,525,15,0.0783516965489403,1
140,526,15,0.0894166995625163,1
140,527,15,0.1003076217168,1
140,528,15,0.102537154101219,1
141,524,15,0.0783127450357455,1
141,525,15,0.0940274733773625,1
141,526,15,0.11892151543824,1
141,527,15,0.139508794764112,1
141,528,15,0.125488310496953,1
142,522,15,0.0684078897520875,1
142,523,15,0.0760796547243951,1
142,524,15,0.0924534620761407,1
142,525,15,0.126598108169987,1
142,528,15,0.187181721273777,1
143,521,15,0.0678732064095011,1
143,522,15,0.0756590286960104,1
143,523,15,0.0835274260341732,1
143,524,15,0.108955714183991,1
144,521,15,0.075363133762623,1
144,522,15,0.0837505272200817,1
144,523,15,0.0905859577416992,1
144,524,15,0.115510637506712,1
144,525,15,0.162693133138728,1
145,521,15,0.0796358925393938,1
145,522,15,0.0892881350108923,1
145,523,15,0.0921664499805308,1
145,524,15,0.104365305607475,1
145,525,15,0.125810752117482,1
145,526,15,0.148873342305539,1
145,527,15,0.161450206704773,1
146,521,15,0.075193341582932,1
146,522,15,0.0854201353459364,1
146,523,15,0.0885167956193558,1
146,524,15,0.0916148035923705,1
146,525,15,0.0964755427383933,1
146,526,15,0.103486737246353,1
147,522,15,0.0739813343725834,1
147,523,15,0.0807179815087469,1
147,524,15,0.0837715573235458,1
147,525,15,0.0837620216001864,1
148,523,15,0.0765654195665568,1
148,524,15,0.0841642051083301,1
125,525,16,0.0695167170814131,1
125,526,16,0.068764832482258,1
130,522,16,0.0731137452708323,1
130,523,16,0.0699911492674216,1
131,522,16,0.0732576915671717,1
131,523,16,0.0707301318891169,1
133,498,16,0.0698187036169717,1
133,499,16,0.0785003028909917,1
133,500,16,0.0784397582353909,1
133,501,16,0.0730970337958495,1
134,498,16,0.0791508883987815,1
134,499,16,0.0919459064289655,1
134,500,16,0.0864512752808079,1
134,501,16,0.0714143020708237,1
135,499,16,0.0797935194840704,1
135,500,16,0.0730767943428147,1
138,527,16,0.073354324623049,1
139,526,16,0.0732053229557829,1
139,527,16,0.0822686865916325,1
139,528,16,0.090626927809399,1
140,524,16,0.067812476070845,1
140,525,16,0.0764978249446281,1
140,526,16,0.0846001170450145,1
140,527,16,0.0939459824751614,1
140,528,16,0.0975529357233785,1
140,529,16,0.0917706036553734,1
141,524,16,0.0753448589561095,1
141,525,16,0.0890917901542842,1
141,526,16,0.104752508685894,1
141,527,16,0.117983336826571,1
141,528,16,0.111845014402776,1
141,529,16,0.0964118294912994,1
142,523,16,0.0684798389411533,1
142,524,16,0.0850679425081176,1
142,525,16,0.110511414740043,1
142,526,16,0.141300049250334,1
142,527,16,0.164162880409474,1
142,528,16,0.142220150718097,1
142,529,16,0.106241051873664,1
143,523,16,0.0732423517508882,1
143,524,16,0.0985077719020471,1
143,525,16,0.141127364008845,1
143,528,16,0.18019729507467,1
144,522,16,0.0711356217536013,1
144,523,16,0.0779463684084073,1
144,524,16,0.103598710118514,1
144,525,16,0.142091071045739,1
144,526,16,0.174534692638719,1
144,527,16,0.189535283949403,1
144,528,16,0.160919045350463,1
145,521,16,0.0684338853798385,1
145,522,16,0.0756122066171787,1
145,523,16,0.0801762422100567,1
145,524,16,0.0929338301301449,1
145,525,16,0.111995992696115,1
145,526,16,0.126916309029122,1
145,527,16,0.133475868438452,1
146,522,16,0.0737638156578878,1
146,523,16,0.0787277885929173,1
146,524,16,0.0830770188396184,1
146,525,16,0.0872141391393334,1
146,526,16,0.0946044205792602,1
146,527,16,0.0997940403549896,1
147,523,16,0.0744608578681745,1
147,524,16,0.0786833923733572,1
147,525,16,0.0786411704424777,1
147,526,16,0.081085023001219,1
148,523,16,0.072023791725618,1
148,524,16,0.0814649365222709,1
148,525,16,0.0817654675422665,1
149,523,16,0.0746377000141934,1
149,524,16,0.0886626826031126,1
130,522,17,0.0729096855827626,1
130,523,17,0.0700712325722676,1
131,522,17,0.0718649009382098,1
131,523,17,0.0686624552312164,1
132,500,17,0.0684549094935266,1
133,498,17,0.0699783970343613,1
133,499,17,0.0854431540550256,1
133,500,17,0.086874405035552,1
133,501,17,0.0761546886480903,1
134,498,17,0.0824973103509942,1
134,499,17,0.101385296221256,1
134,500,17,0.09479502723048,1
134,501,17,0.0729296554958782,1
135,499,17,0.0842728296957184,1
135,500,17,0.0753301241071999,1
138,526,17,0.069684197207576,1
138,527,17,0.0751496341876096,1
139,525,17,0.0721551055844167,1
139,526,17,0.0786373669347307,1
139,527,17,0.0861657905780728,1
139,528,17,0.0921679354449737,1
140,524,17,0.0702863194379156,1
140,525,17,0.0793585599217668,1
140,526,17,0.0886283432174221,1
140,527,17,0.0955409819514153,1
140,528,17,0.0949216031764788,1
141,524,17,0.0742277657359321,1
141,525,17,0.0870813997138516,1
141,526,17,0.0991269769734802,1
141,527,17,0.106400367935167,1
141,528,17,0.10034513568376,1
141,529,17,0.0882412659242986,1
142,524,17,0.0799348242892029,1
142,525,17,0.0996775511917402,1
142,526,17,0.117162450008132,1
142,527,17,0.126570938546144,1
142,528,17,0.114762658241496,1
142,529,17,0.0942002844041471,1
143,523,17,0.0683415230342346,1
143,524,17,0.0893920276752568,1
143,525,17,0.117637750711657,1
143,526,17,0.139075063105884,1
143,527,17,0.147120098937682,1
143,528,17,0.130493774610193,1
144,523,17,0.0722037066267144,1
144,524,17,0.0929150102540173,1
144,525,17,0.118580601348591,1
144,526,17,0.133956332328872,1
144,527,17,0.135630390858279,1
145,523,17,0.0741186559766895,1
145,524,17,0.0857232180104993,1
145,525,17,0.0991227661609667,1
145,526,17,0.108309561110426,1
145,527,17,0.11047782407635,1
146,523,17,0.0730192325956517,1
146,524,17,0.0784829984281869,1
146,525,17,0.0820562711660714,1
146,526,17,0.0879147093276721,1
146,527,17,0.0925344797860395,1
147,523,17,0.070199701287476,1
147,524,17,0.0755251991313004,1
147,525,17,0.0762633192252546,1
147,526,17,0.0773071035772188,1
148,523,17,0.0692980064012975,1
148,524,17,0.0794464059762822,1
148,525,17,0.0806249483082333,1
149,523,17,0.0726459976748169,1
149,524,17,0.0854157628094714,1
150,523,17,0.0719881825074199,1
132,499,18,0.0733715512187661,1
132,500,18,0.0822422716795629,1
132,501,18,0.0803340009298049,1
132,502,18,0.0685770290461967,1
133,498,18,0.0732396443721454,1
133,499,18,0.0928958729197628,1
133,500,18,0.101062099888954,1
133,501,18,0.0896987581133912,1
133,502,18,0.0682342581259936,1
134,498,18,0.0824277450927682,1
134,499,18,0.102713109760393,1
134,500,18,0.100875710040024,1
134,501,18,0.0797391502875045,1
135,499,18,0.0833959504514231,1
135,500,18,0.0750903953031723,1
138,523,18,0.0692326160169293,1
138,524,18,0.072197956441774,1
138,525,18,0.0730673065376632,1
138,526,18,0.0744524422329233,1
138,527,18,0.0788390726408405,1
139,523,18,0.0716172416707852,1
139,524,18,0.0752553357643199,1
139,525,18,0.0790741354093801,1
139,526,18,0.0856358810869421,1
139,527,18,0.0915598593773106,1
140,523,18,0.0690877113564332,1
140,524,18,0.0744264106665164,1
140,525,18,0.0828895987492198,1
140,526,18,0.094613848486652,1
140,527,18,0.0992470839614212,1
141,524,18,0.072868338159176,1
141,525,18,0.0854898922769937,1
141,526,18,0.0988162813036474,1
141,527,18,0.101891072904966,1
141,528,18,0.091971189273375,1
142,524,18,0.0742972291679665,1
142,525,18,0.0900335446622135,1
142,526,18,0.104423873637003,1
142,527,18,0.107656471876277,1
142,528,18,0.0978598997627761,1
143,524,18,0.0789296919616344,1
143,525,18,0.0967760138606291,1
143,526,18,0.1102738841838,1
143,527,18,0.111615989328423,1
144,524,18,0.0795749645381303,1
144,525,18,0.0940682098437991,1
144,526,18,0.103629329853321,1
144,527,18,0.103525227546798,1
145,524,18,0.0759129352997816,1
145,525,18,0.0839129699446459,1
145,526,18,0.0903143333805807,1
146,524,18,0.0711001622798027,1
146,525,18,0.0746022944483785,1
146,526,18,0.0797376887821655,1
147,524,18,0.0694765855823505,1
147,525,18,0.0714669402221316,1
148,524,18,0.0731231312497922,1
149,523,18,0.0687132006133147,1
129,503,19,0.0703089607911181,1
129,504,19,0.0695862224418793,1
130,502,19,0.0678017663513936,1
130,503,19,0.0725132462697832,1
130,504,19,0.0699102513530425,1
131,500,19,0.0693353346852018,1
131,501,19,0.0753013132847385,1
131,502,19,0.0747551655109274,1
131,503,19,0.0706116301611384,1
132,499,19,0.0771045652922479,1
132,500,19,0.0892620495365015,1
132,501,19,0.0939723135303673,1
132,502,19,0.0827710251439295,1
133,498,19,0.0772387302844128,1
133,499,19,0.0915063886471415,1
133,500,19,0.101398497687515,1
133,501,19,0.0982662521550016,1
133,502,19,0.079360836036639,1
134,498,19,0.0809177585069913,1
134,499,19,0.09258866329955,1
134,500,19,0.0917698609231519,1
134,501,19,0.0794207996839698,1
135,499,19,0.0776669393691875,1
135,500,19,0.0704307329367814,1
138,526,19,0.0807402574856147,1
139,524,19,0.100466159107426,1
139,525,19,0.0925416495478869,1
139,526,19,0.0927795634497928,1
140,524,19,0.0895651082419605,1
140,525,19,0.0912618800018822,1
140,526,19,0.100612016142303,1
141,525,19,0.0875384316006397,1
141,526,19,0.102250794891191,1
141,527,19,0.102402216427953,1
142,525,19,0.0860634792145669,1
142,526,19,0.0990033719563672,1
142,527,19,0.0997557776660325,1
143,524,19,0.0743595587768092,1
143,525,19,0.0863087964795834,1
143,526,19,0.095011851131162,1
144,525,19,0.0827065332259582,1
144,526,19,0.0884960051069309,1
129,502,20,0.0684882006684207,1
129,503,20,0.0714804890953972,1
129,504,20,0.0707104794341281,1
130,501,20,0.0750143251482326,1
130,502,20,0.0783436462900238,1
130,503,20,0.0763515665947606,1
130,504,20,0.0717170193590518,1
131,500,20,0.0769857760550224,1
131,501,20,0.0907719402858628,1
131,502,20,0.0890713170999862,1
131,503,20,0.0767931328799696,1
132,499,20,0.0768105211996381,1
132,500,20,0.0922805132845085,1
132,501,20,0.105963473675222,1
132,502,20,0.0970395879628312,1
132,503,20,0.074972989704198,1
133,499,20,0.0863317972193447,1
133,500,20,0.0939224726044418,1
133,501,20,0.098420147469243,1
133,502,20,0.085756035993091,1
134,497,20,0.0717679264651016,1
134,498,20,0.0825398257808967,1
134,499,20,0.0831057997131999,1
134,500,20,0.079824624390732,1
134,501,20,0.0736887158466567,1
129,501,21,0.0716237166186191,1
129,502,21,0.0742984391027143,1
129,503,21,0.07223887260149,1
129,504,21,0.0705172193121495,1
130,500,21,0.0736006481704301,1
130,501,21,0.0903213054798208,1
130,502,21,0.090873293285212,1
130,503,21,0.0791971414488952,1
130,504,21,0.0709947661816673,1
131,500,21,0.0857217325460563,1
131,501,21,0.105396601276522,1
131,502,21,0.100718777909361,1
131,503,21,0.0806546935357475,1
132,499,21,0.0775386683165864,1
132,500,21,0.0933338153905042,1
132,501,21,0.108536489763185,1
132,502,21,0.0999241203199365,1
132,503,21,0.0781471516890162,1
133,497,21,0.0774697619337182,1
133,498,21,0.0826979618565315,1
133,499,21,0.0830921070853108,1
133,500,21,0.0864064837360332,1
133,501,21,0.0906278981531077,1
133,502,21,0.08207011353836,1
133,503,21,0.0688098097100881,1
134,496,21,0.0714307499956634,1
134,497,21,0.0804655723489707,1
134,498,21,0.0848072734472656,1
134,499,21,0.0806420610982067,1
134,500,21,0.0740097378902782,1
134,501,21,0.0681700896559252,1
135,497,21,0.0721191609387637,1
135,498,21,0.076336268706909,1
129,501,22,0.0791996930934624,1
129,502,22,0.081190808434793,1
129,503,22,0.0735427150571564,1
130,500,22,0.085304245160285,1
130,501,22,0.10763557953766,1
130,502,22,0.104023157623974,1
130,503,22,0.0827190818066353,1
130,504,22,0.0686700981853662,1
131,499,22,0.0776935759029683,1
131,500,22,0.0997981613208635,1
131,501,22,0.119923461204988,1
131,502,22,0.108964315502297,1
131,503,22,0.0834098706907994,1
132,499,22,0.084204582188208,1
132,500,22,0.0990590049956648,1
132,501,22,0.108000033446909,1
132,502,22,0.0954587123783369,1
132,503,22,0.0769484417813421,1
133,497,22,0.0808464681932833,1
133,498,22,0.0828042444415119,1
133,499,22,0.0849680390345555,1
133,500,22,0.0860749376560157,1
133,501,22,0.0840822889320344,1
133,502,22,0.0744922502840831,1
134,496,22,0.0782927092350941,1
134,497,22,0.0899829370449627,1
134,498,22,0.0895452221857086,1
134,499,22,0.0838839375004732,1
134,500,22,0.0758471675595266,1
135,496,22,0.0730711939022739,1
135,497,22,0.0828256039826548,1
135,498,22,0.083760386391344,1
135,499,22,0.0789811860657302,1
136,498,22,0.0703075951221948,1
129,500,23,0.0685508956535981,1
129,501,23,0.0791143208164266,1
129,502,23,0.0793087429549453,1
129,503,23,0.0711401500242418,1
130,499,23,0.0758185663792245,1
130,500,23,0.0932419861349624,1
130,501,23,0.108371950617028,1
130,502,23,0.10276764068091,1
130,503,23,0.0836994883389604,1
130,504,23,0.068638885462737,1
131,498,23,0.0697045564561304,1
131,499,23,0.0890986724068846,1
131,500,23,0.107891307033329,1
131,501,23,0.116170974369796,1
131,502,23,0.103768616103949,1
131,503,23,0.0847412002284357,1
131,504,23,0.068807228116641,1
132,498,23,0.074541366447115,1
132,499,23,0.0911264451772097,1
132,500,23,0.102131023330705,1
132,501,23,0.0996106034656173,1
132,502,23,0.0872591283467155,1
132,503,23,0.0765802861905379,1
133,496,23,0.0730969978571936,1
133,497,23,0.0798414616510103,1
133,498,23,0.0814007201339946,1
133,499,23,0.0856648117049231,1
133,500,23,0.0860388552455152,1
133,501,23,0.0781082840326852,1
133,502,23,0.0689040348760217,1
134,495,23,0.0731139549129916,1
134,496,23,0.0818348950356449,1
134,497,23,0.0943541797183885,1
134,498,23,0.0904713134294515,1
134,499,23,0.083295142521688,1
134,500,23,0.076076755672821,1
135,496,23,0.0792721933419184,1
135,497,23,0.0911766634590218,1
135,498,23,0.0871346128836535,1
135,499,23,0.0780757176206846,1
136,497,23,0.0728524712426063,1
136,498,23,0.072283011260683,1
129,500,24,0.0678926851609865,1
129,501,24,0.0729351061920196,1
129,502,24,0.0726114246878632,1
130,499,24,0.0810030589067154,1
130,500,24,0.0923460054950684,1
130,501,24,0.0957284858986777,1
130,502,24,0.0919550887555421,1
130,503,24,0.0813225236085822,1
131,498,24,0.0746984363426255,1
131,499,24,0.0964069957420839,1
131,500,24,0.107150263928697,1
131,501,24,0.101060818076895,1
131,502,24,0.0929932546976375,1
131,503,24,0.085353612893908,1
131,504,24,0.0724148282606639,1
132,498,24,0.077522705563601,1
132,499,24,0.0974883659383195,1
132,500,24,0.102915600127156,1
132,501,24,0.0883519809435038,1
132,502,24,0.0797659365656848,1
132,503,24,0.0776217524991981,1
132,504,24,0.0690987804624433,1
133,496,24,0.0722570875102437,1
133,497,24,0.076872209902451,1
133,498,24,0.0827695875976944,1
133,499,24,0.0916801760074108,1
133,500,24,0.0907157202485192,1
133,501,24,0.0746081943777183,1
134,495,24,0.07525704884025,1
134,496,24,0.0835085522500617,1
134,497,24,0.0946265168628486,1
134,498,24,0.0911345134054541,1
134,499,24,0.085585668794906,1
134,500,24,0.0793730072614294,1
135,495,24,0.0735891058721176,1
135,496,24,0.0834081875637492,1
135,497,24,0.0948569315652281,1
135,498,24,0.0875480631604147,1
135,499,24,0.0760355100754261,1
136,496,24,0.0710352271184089,1
136,497,24,0.0757305466212057,1
136,498,24,0.0720710091296645,1
130,499,25,0.0817754285397204,1
130,500,25,0.0845177815844002,1
130,501,25,0.0824332257377895,1
130,502,25,0.0814757959861217,1
130,503,25,0.0758750319973833,1
131,498,25,0.0779442959459184,1
131,499,25,0.0947464800961661,1
131,500,25,0.0964646892643185,1
131,501,25,0.0873782290522919,1
131,502,25,0.0848900042330945,1
131,503,25,0.0823913152752609,1
131,504,25,0.0711990594710002,1
132,498,25,0.0790871511925836,1
132,499,25,0.0964413291379984,1
132,500,25,0.0959079515665756,1
132,501,25,0.0800840535679562,1
132,502,25,0.0755538003116025,1
132,503,25,0.0758231964760567,1
132,504,25,0.0684439182546042,1
133,497,25,0.0752443505151734,1
133,498,25,0.0836272516406476,1
133,499,25,0.0961837687708798,1
133,500,25,0.0934747847681818,1
133,501,25,0.07450953677756,1
134,496,25,0.0824493741738302,1
134,497,25,0.090465317663696,1
134,498,25,0.0876182154166867,1
134,499,25,0.0869501038243809,1
134,500,25,0.0821372828861942,1
134,501,25,0.0681023872180289,1
135,495,25,0.0745062783394271,1
135,496,25,0.083539148025765,1
135,497,25,0.0913251200566738,1
135,498,25,0.0825290262148056,1
135,499,25,0.0737199944568217,1
135,500,25,0.0679355120592399,1
136,496,25,0.0717137848800229,1
136,497,25,0.0746197666249107,1
136,498,25,0.0693194318299762,1
130,503,26,0.0733305512021864,1
131,499,26,0.0865432183420933,1
131,500,26,0.0862050236107385,1
131,501,26,0.084387815425197,1
131,502,26,0.0854104378986256,1
131,503,26,0.0809467190738522,1
131,504,26,0.0693359935605596,1
132,498,26,0.0781866063433932,1
132,499,26,0.0907882863845108,1
132,500,26,0.0894181610678553,1
132,501,26,0.0802550077641872,1
132,502,26,0.0780714349308593,1
132,503,26,0.0762380483603971,1
132,504,26,0.0679335653820466,1
133,497,26,0.0741035078332374,1
133,498,26,0.0833149866495081,1
133,499,26,0.097328936071073,1
133,500,26,0.0947733502312101,1
133,501,26,0.077977125908062,1
133,502,26,0.0685697035501738,1
134,496,26,0.0796893333206829,1
134,497,26,0.0846246990856343,1
134,498,26,0.0846433931764664,1
134,499,26,0.0894985558410522,1
134,500,26,0.0862029691175776,1
134,501,26,0.0720181733157493,1
135,496,26,0.0807527581480839,1
135,497,26,0.0850322913614876,1
135,498,26,0.0790203352415322,1
135,499,26,0.0757210767853821,1
135,500,26,0.0723693958098594,1
136,497,26,0.0724534084077479,1
131,501,27,0.0824815033321843,1
131,502,27,0.0841161431458706,1
131,503,27,0.0768850280230471,1
132,499,27,0.0835815795988038,1
132,500,27,0.0847106942993721,1
132,501,27,0.0833975796704895,1
132,502,27,0.0819966669052993,1
132,503,27,0.0759502875427898,1
133,498,27,0.0832441216098946,1
133,499,27,0.092862485908453,1
133,500,27,0.0925083823320968,1
133,501,27,0.0830294300694613,1
133,502,27,0.075205321134891,1
133,503,27,0.0682887650874071,1
134,497,27,0.0810675029064789,1
134,498,27,0.0845686647313461,1
134,499,27,0.0899184750758713,1
134,500,27,0.0884958553625314,1
134,501,27,0.0773590169656332,1
135,497,27,0.0811112582200092,1
135,500,27,0.0776359482682695,1
131,502,28,0.079480368006086,1
132,501,28,0.0829000868469599,1
132,502,28,0.0816430005825896,1
132,503,28,0.0743156058006716,1
133,499,28,0.085449197738989,1
133,500,28,0.085706332832013,1
133,501,28,0.0833099492479094,1
133,502,28,0.078266426098096,1
133,503,28,0.0697711447956945,1
134,500,28,0.0849062904339827,1
134,501,28,0.078437967292373,1
134,502,28,0.0696271206322673,1
132,502,29,0.0780090933424646,1
133,501,29,0.0804607745384111,1
133,502,29,0.0775104804308269,1
