x,y,z,signal,cytoplasm.p
73,786,1,0.113358343283549,1
74,785,1,0.103854820959846,1
74,786,1,0.114536460341406,1
74,787,1,0.120426087266532,1
75,782,1,0.0961304537748862,1
75,783,1,0.0947610472313482,1
75,785,1,0.10397690457386,1
75,786,1,0.113149779283943,1
75,787,1,0.115215832712553,1
76,777,1,0.0831787731539582,1
76,778,1,0.0897160086682121,1
76,779,1,0.0915824468225293,1
76,780,1,0.0982039824439187,1
76,781,1,0.108702047171259,1
76,782,1,0.108963824340667,1
76,783,1,0.100681305870833,1
76,784,1,0.0966056286931162,1
76,785,1,0.100978458657177,1
76,786,1,0.10711145018035,1
77,777,1,0.0836552658229037,1
77,778,1,0.0904128232670117,1
77,779,1,0.094056853228542,1
77,780,1,0.101428805953971,1
77,781,1,0.110407995267981,1
77,782,1,0.110130441028643,1
77,783,1,0.103104673395725,1
77,784,1,0.0989586582786802,1
77,785,1,0.099700102698303,1
77,786,1,0.102715793180031,1
77,787,1,0.103620225393833,1
77,788,1,0.101182494386142,1
78,777,1,0.0851580646775052,1
78,778,1,0.090873874293482,1
78,779,1,0.0950022734793708,1
78,780,1,0.100526637875491,1
78,781,1,0.105410305883963,1
78,782,1,0.105596791569309,1
78,783,1,0.105612496761927,1
78,784,1,0.10617853059199,1
78,785,1,0.103398040643649,1
78,786,1,0.100531357818963,1
78,787,1,0.0995617508527285,1
78,788,1,0.0960265131923139,1
78,789,1,0.0902611920880905,1
78,790,1,0.0854725818244129,1
78,791,1,0.0859789275368402,1
78,792,1,0.0939094268723585,1
78,793,1,0.101634782370355,1
79,778,1,0.0905552960784601,1
79,779,1,0.0954226359576123,1
79,780,1,0.0997737110553152,1
79,781,1,0.101127699915482,1
79,782,1,0.101901135728611,1
79,783,1,0.108543318107802,1
79,784,1,0.115635775906476,1
79,785,1,0.110093316397122,1
79,786,1,0.09852448337703,1
79,787,1,0.0930489656040229,1
79,788,1,0.0890102872725311,1
79,789,1,0.0843253240924028,1
79,790,1,0.0809911033138603,1
79,791,1,0.0829069331609045,1
79,792,1,0.0931546492114053,1
79,793,1,0.102020895309545,1
79,794,1,0.0971066255355938,1
80,778,1,0.0884891528032104,1
80,779,1,0.0944185159021844,1
80,780,1,0.098117394242359,1
80,781,1,0.0971388145917076,1
80,782,1,0.0964463066418374,1
80,783,1,0.103100348777468,1
80,784,1,0.112128714152269,1
80,785,1,0.108530511966758,1
80,786,1,0.0943489506439584,1
80,787,1,0.0858896379463138,1
80,788,1,0.0814396357085335,1
80,789,1,0.0781267025938222,1
80,790,1,0.0756393702512457,1
80,791,1,0.0782127397359918,1
80,792,1,0.0886563633894542,1
80,793,1,0.0954876489860939,1
80,794,1,0.0866985392230178,1
80,795,1,0.0698989186968893,1
81,775,1,0.0765468632405723,1
81,776,1,0.0826511277981478,1
81,777,1,0.085120993953968,1
81,778,1,0.0893872298646972,1
81,779,1,0.0975017530876337,1
81,780,1,0.103261869076531,1
81,781,1,0.10169932819631,1
81,782,1,0.0990815145737958,1
81,783,1,0.101218241369188,1
81,784,1,0.107144298111821,1
81,785,1,0.107238876674538,1
81,786,1,0.0946225276720462,1
81,787,1,0.0826413944121811,1
81,788,1,0.0766440114171839,1
81,789,1,0.0744142334519501,1
81,790,1,0.0711937046112746,1
81,791,1,0.0712081100225053,1
81,792,1,0.0774752964867233,1
81,793,1,0.0814594019692658,1
81,794,1,0.0743461117297352,1
81,796,1,0.0734854048805845,1
81,797,1,0.11154968250833,1
81,798,1,0.141362318961417,1
82,774,1,0.0755908171271558,1
82,775,1,0.0881764924868563,1
82,776,1,0.0958632858070964,1
82,777,1,0.0955906371942854,1
82,778,1,0.09209774126027,1
82,779,1,0.0982380223408102,1
82,780,1,0.107221662058373,1
82,781,1,0.106576754858211,1
82,782,1,0.103672659892757,1
82,783,1,0.104575019644069,1
82,784,1,0.108590745154008,1
82,785,1,0.110461699599413,1
82,786,1,0.0970082554446824,1
82,787,1,0.0802946181527397,1
82,788,1,0.0712157110482233,1
82,789,1,0.0681989364170425,1
82,796,1,0.0752053930122027,1
82,797,1,0.115598196051981,1
82,798,1,0.143871519976095,1
82,799,1,0.125729422939232,1
83,773,1,0.0688092346915941,1
83,774,1,0.0805326039319573,1
83,775,1,0.0955681336059304,1
83,776,1,0.110384215857343,1
83,777,1,0.11110095245105,1
83,778,1,0.0975639569111808,1
83,779,1,0.0951654589361564,1
83,780,1,0.103090345851582,1
83,781,1,0.101493998675732,1
83,782,1,0.0960584446880606,1
83,783,1,0.0970553949816411,1
83,784,1,0.102912904727965,1
83,785,1,0.104767986267025,1
83,786,1,0.0900468898830959,1
83,787,1,0.0724598414271499,1
83,797,1,0.0827186205938849,1
83,798,1,0.0989468883688805,1
83,799,1,0.0902747050227003,1
83,800,1,0.0712704995291078,1
84,774,1,0.0799784298583337,1
84,775,1,0.0940967930547733,1
84,776,1,0.111384951689342,1
84,777,1,0.114342978597716,1
84,778,1,0.0987943467440105,1
84,779,1,0.0908236320525659,1
84,780,1,0.0955773818200428,1
84,781,1,0.0944851940883882,1
84,782,1,0.0883408579295098,1
84,783,1,0.0892042481982993,1
84,784,1,0.0945561968928492,1
84,785,1,0.0935315259160356,1
84,786,1,0.0775232745923191,1
85,775,1,0.081717980598301,1
85,776,1,0.0920169751209623,1
85,777,1,0.0960347970524935,1
85,778,1,0.0896726187310166,1
85,779,1,0.0865728377843119,1
85,780,1,0.0911408445986644,1
85,781,1,0.0918859068429788,1
85,782,1,0.0865908789895622,1
85,783,1,0.0845130736204803,1
85,784,1,0.084978395357224,1
85,785,1,0.0803463877865305,1
86,774,1,0.0730757940502261,1
86,775,1,0.0745832888891956,1
86,776,1,0.0766163506317105,1
86,777,1,0.0801038078491366,1
86,778,1,0.082115396244765,1
86,779,1,0.0850234384725899,1
86,780,1,0.0893758253312322,1
86,781,1,0.0891059080562679,1
86,782,1,0.0830480882216374,1
86,783,1,0.0780830610860355,1
86,784,1,0.0747474327101379,1
86,785,1,0.071307540303765,1
87,773,1,0.0729300807699728,1
87,774,1,0.0764391730582368,1
87,775,1,0.0779638825133713,1
87,776,1,0.0765338234982649,1
87,777,1,0.0788393002523277,1
87,778,1,0.0828167930221889,1
87,779,1,0.0865542275503436,1
87,780,1,0.0889437588307267,1
87,781,1,0.0864628115893444,1
87,782,1,0.0800038804164706,1
87,783,1,0.0728987722109279,1
88,773,1,0.0775566616036288,1
88,774,1,0.0817612447502009,1
88,775,1,0.0820117731203197,1
88,776,1,0.078560715771521,1
88,777,1,0.0797130288744578,1
88,778,1,0.0823880388678001,1
88,779,1,0.0844371472201641,1
88,780,1,0.085257195469966,1
88,781,1,0.0844091510072359,1
88,782,1,0.0805376053949002,1
88,783,1,0.0712709427725303,1
89,772,1,0.0772639292719585,1
89,773,1,0.0872153251149773,1
89,774,1,0.0841699912319263,1
89,775,1,0.077680817680132,1
89,776,1,0.0742580979614924,1
89,777,1,0.0768399968872332,1
89,778,1,0.0787723944546366,1
89,779,1,0.0798013840599315,1
89,780,1,0.0804827390469279,1
89,781,1,0.0816976932270584,1
89,782,1,0.0792749725979729,1
90,773,1,0.0958807400143007,1
90,774,1,0.084481896836507,1
90,775,1,0.0712875344519935,1
90,776,1,0.0691301848579038,1
90,777,1,0.0735133591650808,1
90,778,1,0.0740782070194999,1
90,779,1,0.0743435540953919,1
90,780,1,0.0743109517447355,1
90,781,1,0.074803497013306,1
90,782,1,0.0700334490653889,1
91,774,1,0.0799787712755645,1
91,775,1,0.0692094056350087,1
91,776,1,0.0711607788127152,1
91,777,1,0.0764520271174888,1
91,778,1,0.0738837908707572,1
91,779,1,0.0695288883062035,1
91,805,1,0.0776043641795296,1
92,773,1,0.0811174097199401,1
92,774,1,0.0741358346541987,1
92,775,1,0.0703408683277609,1
92,776,1,0.077055155630193,1
92,777,1,0.0831576292447506,1
92,778,1,0.076397322493468,1
92,805,1,0.0715177874304216,1
93,772,1,0.0740580753824328,1
93,773,1,0.0734992532426491,1
93,774,1,0.069627791487177,1
93,775,1,0.0696840294938486,1
93,776,1,0.0765693009413915,1
93,777,1,0.0805182105002785,1
93,778,1,0.0720782807177036,1
94,771,1,0.0707023872467798,1
94,806,1,0.073961885569978,1
95,770,1,0.0700314604597637,1
96,769,1,0.0694289608735374,1
96,770,1,0.0699291670655857,1
97,769,1,0.0687536076420725,1
97,770,1,0.0704357942974841,1
103,806,1,0.0702286618543369,1
103,807,1,0.084299849575162,1
104,806,1,0.0777285322355847,1
104,807,1,0.0985366426222683,1
105,806,1,0.0816192690901588,1
105,807,1,0.104905212034715,1
105,808,1,0.130512846056911,1
106,806,1,0.073883856758293,1
106,807,1,0.0926238652129816,1
106,808,1,0.118546220034469,1
107,807,1,0.0698134745425416,1
107,808,1,0.0840620674483276,1
120,773,1,0.0704501098620751,1
120,774,1,0.0709744608410968,1
120,804,1,0.0719344062986759,1
121,773,1,0.0860056658968127,1
121,774,1,0.0918728910597754,1
121,775,1,0.080610704620954,1
121,803,1,0.0852534877986347,1
121,804,1,0.0931348889404489,1
121,805,1,0.0779677159699982,1
122,773,1,0.110660596100589,1
122,774,1,0.121215407965559,1
122,775,1,0.100506931512518,1
122,776,1,0.0696854071423239,1
122,802,1,0.0727189531462472,1
122,803,1,0.0953842594629116,1
122,804,1,0.10217398200403,1
122,805,1,0.0828110608065765,1
123,772,1,0.095806143344252,1
123,773,1,0.132323878783418,1
123,774,1,0.140949000459727,1
123,775,1,0.106937674799632,1
123,776,1,0.0710760055132773,1
123,802,1,0.0757888570903662,1
123,803,1,0.0917922267466594,1
123,804,1,0.0923527979010292,1
123,805,1,0.0753617022061639,1
124,773,1,0.122479178819922,1
124,774,1,0.124728040211427,1
124,801,1,0.070667862178034,1
124,802,1,0.082658956435353,1
124,803,1,0.0926907470515687,1
124,804,1,0.0863126479055383,1
125,801,1,0.0742268073717754,1
125,802,1,0.0860025092848715,1
125,803,1,0.0940561584145283,1
125,804,1,0.0872637045355638,1
126,802,1,0.0817514095380426,1
126,803,1,0.089390793781405,1
72,786,2,0.106362021389346,1
73,785,2,0.0991532960491342,1
73,786,2,0.108837476006155,1
73,787,2,0.1116427516475,1
74,784,2,0.0870704264442572,1
74,785,2,0.100061807300377,1
74,786,2,0.111018557092676,1
74,787,2,0.111953836652771,1
74,788,2,0.121105112230672,1
75,777,2,0.0783418912856618,1
75,778,2,0.0812569954593665,1
75,779,2,0.0776402728865267,1
75,780,2,0.0773738356714064,1
75,781,2,0.0872392662495674,1
75,782,2,0.0908361446945871,1
75,783,2,0.0872106411101614,1
75,784,2,0.0889475144202659,1
75,785,2,0.099083509169197,1
75,786,2,0.108423151222101,1
75,787,2,0.108808066206096,1
75,788,2,0.106774896647613,1
76,776,2,0.0698731207317455,1
76,777,2,0.0839867040869535,1
76,778,2,0.0878658267659034,1
76,779,2,0.0863584996406614,1
76,780,2,0.0883426189236478,1
76,781,2,0.0998457381114687,1
76,782,2,0.0995893277813381,1
76,783,2,0.0923599377139967,1
76,784,2,0.0893862715005405,1
76,785,2,0.0938337340733055,1
76,786,2,0.0994870164178322,1
76,787,2,0.100952403131666,1
77,776,2,0.0708438118474319,1
77,777,2,0.0840869130390906,1
77,778,2,0.0903041627409675,1
77,779,2,0.0908625655964327,1
77,780,2,0.0913441615545127,1
77,781,2,0.0987253325451747,1
77,782,2,0.0990654200457389,1
77,783,2,0.0940579373779943,1
77,784,2,0.0909011457435166,1
77,785,2,0.0912980342896945,1
77,786,2,0.0949242925858936,1
77,787,2,0.0970898302037473,1
77,788,2,0.0963013001551496,1
78,776,2,0.0715259035768738,1
78,777,2,0.0841122977096918,1
78,778,2,0.0921588429650369,1
78,779,2,0.0953375751489274,1
78,780,2,0.0947248629946561,1
78,781,2,0.0967949116038445,1
78,782,2,0.0961415288706723,1
78,783,2,0.0948029277449969,1
78,784,2,0.0945914587040406,1
78,785,2,0.0927882905533949,1
78,786,2,0.0934970667348255,1
78,787,2,0.0953170781355255,1
78,788,2,0.0931175126003323,1
78,789,2,0.088419126332234,1
78,790,2,0.0842912901852872,1
78,791,2,0.08351725539456,1
78,792,2,0.0882665547584841,1
78,793,2,0.0932788532061162,1
79,777,2,0.0806430973294512,1
79,778,2,0.0879038438740453,1
79,779,2,0.0922442332114007,1
79,780,2,0.0937399341814664,1
79,781,2,0.0937829827014311,1
79,782,2,0.0938819936983723,1
79,783,2,0.097200089999978,1
79,784,2,0.103139521912374,1
79,785,2,0.0990296790524692,1
79,786,2,0.0920437194707108,1
79,787,2,0.0902678407394278,1
79,788,2,0.0871220822723044,1
79,789,2,0.0820991998905165,1
79,790,2,0.0792287974149469,1
79,791,2,0.0798328962713597,1
79,792,2,0.0866664280339916,1
79,793,2,0.0928968492532474,1
79,794,2,0.0904456472393793,1
80,776,2,0.072651502278942,1
80,777,2,0.0777677353193705,1
80,778,2,0.0816534767007777,1
80,779,2,0.0866061888569658,1
80,780,2,0.0903510866459909,1
80,781,2,0.0897414412570211,1
80,782,2,0.088187968897633,1
80,783,2,0.0907162653181333,1
80,784,2,0.0985933837701222,1
80,785,2,0.0975313665400763,1
80,786,2,0.0869864857236804,1
80,787,2,0.0814114598023259,1
80,788,2,0.0783924330153769,1
80,789,2,0.0746019949595796,1
80,790,2,0.0722564645735418,1
80,791,2,0.0733185836297793,1
80,792,2,0.0803235487707207,1
80,793,2,0.0851126861346845,1
80,794,2,0.0795862792249556,1
80,795,2,0.0684263262825524,1
81,775,2,0.074674626983107,1
81,776,2,0.079455222926524,1
81,777,2,0.0801981108821579,1
81,778,2,0.0815881342346173,1
81,779,2,0.0895927450683299,1
81,780,2,0.0966840767891197,1
81,781,2,0.0943162165182304,1
81,782,2,0.0894771663510294,1
81,783,2,0.0885654385900853,1
81,784,2,0.0965843949372688,1
81,785,2,0.102214784358002,1
81,786,2,0.0897634476939698,1
81,787,2,0.0760034527943838,1
81,788,2,0.0709728016731505,1
81,789,2,0.0697441548651308,1
81,792,2,0.0697794945434099,1
81,793,2,0.072074662893012,1
81,794,2,0.0677878041835854,1
81,797,2,0.092545704626225,1
81,798,2,0.11860946008926,1
82,774,2,0.0750075207627199,1
82,775,2,0.0872625724679037,1
82,776,2,0.0907982533717407,1
82,777,2,0.088315658941964,1
82,778,2,0.0827663291595616,1
82,779,2,0.0902908235098611,1
82,780,2,0.10133810876609,1
82,781,2,0.0991348355595654,1
82,782,2,0.0943497053557318,1
82,783,2,0.0946342436738622,1
82,784,2,0.102777535790828,1
82,785,2,0.111551563297988,1
82,786,2,0.0963842226138098,1
82,787,2,0.0753212652285263,1
82,797,2,0.0952475667852834,1
82,798,2,0.121794834934712,1
82,799,2,0.109564562932755,1
83,774,2,0.0782900078461274,1
83,775,2,0.0899228116736805,1
83,776,2,0.0999475702928962,1
83,777,2,0.100713902231714,1
83,778,2,0.0869878873312596,1
83,779,2,0.0864449800262534,1
83,780,2,0.0957838254389523,1
83,781,2,0.0932987093134883,1
83,782,2,0.0865418886118258,1
83,783,2,0.0864892025423101,1
83,784,2,0.0937215815078652,1
83,785,2,0.100825144351205,1
83,786,2,0.0875137657031561,1
83,787,2,0.0690961868894442,1
83,797,2,0.0690941443758352,1
83,798,2,0.0852457250489652,1
83,799,2,0.0811339235323156,1
84,773,2,0.0689506233535903,1
84,774,2,0.0758626331611057,1
84,775,2,0.0854502339702334,1
84,776,2,0.0989753577741111,1
84,777,2,0.103275585663524,1
84,778,2,0.0887040180471471,1
84,779,2,0.0824570770257398,1
84,780,2,0.0877716794670575,1
84,781,2,0.087645588692913,1
84,782,2,0.08134479958545,1
84,783,2,0.0805703275410762,1
84,784,2,0.0846984811461499,1
84,785,2,0.0864727845663503,1
84,786,2,0.0739119787565168,1
85,774,2,0.0692652183675857,1
85,775,2,0.0726930653344638,1
85,776,2,0.079648111682392,1
85,777,2,0.0845243883073056,1
85,778,2,0.0798147592296937,1
85,779,2,0.0789753280648222,1
85,780,2,0.0837779603940678,1
85,781,2,0.0862175122936558,1
85,782,2,0.0804437216461975,1
85,783,2,0.076793887591743,1
85,784,2,0.0766593033152595,1
85,785,2,0.0735770784019508,1
86,774,2,0.0680767929052685,1
86,775,2,0.0685932014413414,1
86,776,2,0.0689303898903315,1
86,777,2,0.0725333659272983,1
86,778,2,0.0744961616077977,1
86,779,2,0.0780844447242868,1
86,780,2,0.0824071222940708,1
86,781,2,0.0835394055861322,1
86,782,2,0.0767687305326291,1
86,783,2,0.0716969955379523,1
86,784,2,0.0688709952717188,1
87,773,2,0.0688918936001112,1
87,774,2,0.0715967087187275,1
87,775,2,0.0734157377961669,1
87,776,2,0.0720316622912551,1
87,777,2,0.0745751727427433,1
87,778,2,0.0768161995072666,1
87,779,2,0.080030630755995,1
87,780,2,0.0831316755454314,1
87,781,2,0.0814364790965923,1
87,782,2,0.0745935913038803,1
87,783,2,0.0681138516492537,1
88,772,2,0.068460036741765,1
88,773,2,0.0756079059580254,1
88,774,2,0.0777734136269991,1
88,775,2,0.0776893950393346,1
88,776,2,0.0747269117376321,1
88,777,2,0.0769761804339032,1
88,778,2,0.078451719818022,1
88,779,2,0.0799657914310169,1
88,780,2,0.0810465985883104,1
88,781,2,0.0798555016859063,1
88,782,2,0.0770464285265908,1
88,783,2,0.0683886685609693,1
89,772,2,0.0741120133151282,1
89,773,2,0.0837350436491747,1
89,774,2,0.0789468526698157,1
89,775,2,0.0727087765168581,1
89,776,2,0.070223953890417,1
89,777,2,0.0747882350641103,1
89,778,2,0.0771888953482633,1
89,779,2,0.077809963240026,1
89,780,2,0.0775715581764898,1
89,781,2,0.0771190964887742,1
89,782,2,0.0769105444687198,1
90,772,2,0.0808140095972503,1
90,773,2,0.0907743002575987,1
90,774,2,0.0792247543161607,1
90,777,2,0.0707182302042456,1
90,778,2,0.0721503976204968,1
90,779,2,0.0721732126772027,1
90,780,2,0.0704716431067214,1
90,781,2,0.0686488823988468,1
91,773,2,0.0825541892636955,1
91,774,2,0.072616432140582,1
91,777,2,0.071899318190988,1
91,778,2,0.0699778339954192,1
91,805,2,0.0718561139368478,1
92,773,2,0.0751946773029754,1
92,774,2,0.0692865060314169,1
92,776,2,0.0744330413485257,1
92,777,2,0.078857928455624,1
92,778,2,0.071273362642026,1
93,772,2,0.069421186144316,1
93,773,2,0.0708901367748574,1
93,774,2,0.068076044183271,1
93,775,2,0.068650595474777,1
93,776,2,0.0764819160996266,1
93,777,2,0.0786614039057364,1
93,778,2,0.0679443230197058,1
94,770,2,0.0700601694560335,1
95,769,2,0.0684809889781413,1
95,770,2,0.069504767478334,1
96,770,2,0.0708539225892853,1
97,770,2,0.0691719934942408,1
104,807,2,0.0835528466434302,1
105,806,2,0.0704837065155441,1
105,807,2,0.0892791024287152,1
106,807,2,0.0789451635529894,1
107,808,2,0.0707602365031899,1
120,773,2,0.0707916588679783,1
120,774,2,0.071464178935405,1
121,772,2,0.075866346822213,1
121,773,2,0.0870098218908966,1
121,774,2,0.0894717695628719,1
121,775,2,0.0744499325167879,1
121,803,2,0.0767459334452511,1
121,804,2,0.0848277704606674,1
121,805,2,0.0693792696920115,1
122,772,2,0.0899680943800855,1
122,773,2,0.116589755547179,1
122,774,2,0.1176334260934,1
122,775,2,0.0884265296953447,1
122,803,2,0.0863859807328553,1
122,804,2,0.0946849471275287,1
122,805,2,0.0747267020954728,1
123,771,2,0.0715874844637191,1
123,772,2,0.098598115693146,1
123,773,2,0.141038655426588,1
123,774,2,0.137569736565819,1
123,775,2,0.0925584089410776,1
123,803,2,0.0798814074670177,1
123,804,2,0.0818704383663073,1
124,772,2,0.0862834657169661,1
124,773,2,0.122536668689773,1
124,774,2,0.117169002823053,1
124,775,2,0.0783571292757537,1
124,802,2,0.0736525555690685,1
124,803,2,0.0828287186661641,1
124,804,2,0.0770720707575591,1
125,773,2,0.0748005620230761,1
125,774,2,0.0711815453660362,1
125,802,2,0.0759927670340364,1
125,803,2,0.0852724993475936,1
125,804,2,0.0796266682843854,1
126,802,2,0.0706774518093772,1
126,803,2,0.0798157774916102,1
72,786,3,0.106761611324491,1
73,785,3,0.0964634853193466,1
73,786,3,0.107731511789748,1
73,787,3,0.109581022837147,1
74,785,3,0.0971671881605225,1
74,786,3,0.110909495251641,1
74,787,3,0.110302491353878,1
75,778,3,0.0820068195755846,1
75,779,3,0.079190456858902,1
75,780,3,0.0801877485697134,1
75,781,3,0.0894456960680331,1
75,782,3,0.0894087511297915,1
75,783,3,0.0818045747896367,1
75,785,3,0.0946372984596117,1
75,786,3,0.105242723931608,1
75,787,3,0.104938239659466,1
76,777,3,0.0898063704286389,1
76,778,3,0.0923550021385896,1
76,779,3,0.0884931240246848,1
76,780,3,0.087488375042779,1
76,781,3,0.095843537515692,1
76,782,3,0.0943582407865026,1
76,783,3,0.087502672638042,1
76,784,3,0.0848630322718588,1
76,785,3,0.089178060897717,1
76,786,3,0.0946443783748195,1
77,776,3,0.0727364193330035,1
77,777,3,0.0902185149342366,1
77,778,3,0.097260568768043,1
77,779,3,0.0981231324477474,1
77,780,3,0.0947588010653559,1
77,781,3,0.0983436879788646,1
77,782,3,0.0973465819511087,1
77,783,3,0.0921690854819618,1
77,784,3,0.0873128326781477,1
77,785,3,0.0867534654687498,1
77,786,3,0.0908014459223378,1
77,787,3,0.0932904134737567,1
77,788,3,0.0935276864696327,1
78,777,3,0.0852711336786703,1
78,778,3,0.0975006270097495,1
78,779,3,0.104204492101977,1
78,780,3,0.100504871029581,1
78,781,3,0.0993508807893701,1
78,782,3,0.0966074495850139,1
78,783,3,0.0919849657581279,1
78,784,3,0.0879265451250076,1
78,785,3,0.0866810610567096,1
78,786,3,0.0906735222767436,1
78,787,3,0.0940210583272885,1
78,788,3,0.0922797166443032,1
78,789,3,0.0884607792343955,1
78,790,3,0.0845034540402572,1
78,791,3,0.083837540695736,1
79,777,3,0.0766625018556326,1
79,778,3,0.0861427838485355,1
79,779,3,0.0929928773417508,1
79,780,3,0.0933491372374597,1
79,781,3,0.0931186626373204,1
79,782,3,0.0923774338496329,1
79,783,3,0.0911078648921213,1
79,784,3,0.0922785905664191,1
79,785,3,0.0908597983199301,1
79,786,3,0.0907269331091528,1
79,787,3,0.092317781670653,1
79,788,3,0.0882176961558193,1
79,789,3,0.0814551971465282,1
79,790,3,0.0774072286724922,1
79,791,3,0.0784541696363976,1
79,792,3,0.0820671665685781,1
79,793,3,0.0851857254629785,1
79,794,3,0.0839300587755154,1
80,778,3,0.0774517626568998,1
80,779,3,0.0838483941698108,1
80,780,3,0.0887369258763785,1
80,781,3,0.0892027807031844,1
80,782,3,0.0869424129520232,1
80,783,3,0.0853759607480876,1
80,784,3,0.0898659327609791,1
80,785,3,0.0924483767563341,1
80,786,3,0.087057901822684,1
80,787,3,0.0822083096497591,1
80,788,3,0.0779111724847517,1
80,789,3,0.0727392045788339,1
80,790,3,0.0703373104008291,1
80,791,3,0.0725763665290552,1
80,792,3,0.0759314616768862,1
80,793,3,0.0774306007783642,1
80,794,3,0.0744380428114686,1
80,795,3,0.0705595550487726,1
81,775,3,0.0721492655528367,1
81,776,3,0.0741853161935654,1
81,777,3,0.0741283654035523,1
81,778,3,0.0756868452156592,1
81,779,3,0.0842745487614245,1
81,780,3,0.0937402216907135,1
81,781,3,0.0922764582061704,1
81,782,3,0.0866551552755982,1
81,783,3,0.0844492705267467,1
81,784,3,0.0954268407803499,1
81,785,3,0.108125471335472,1
81,786,3,0.0956598430659526,1
81,787,3,0.0763974842174195,1
81,788,3,0.0691340842020665,1
81,797,3,0.0788590006255243,1
82,774,3,0.0756913315578679,1
82,775,3,0.0848672730332523,1
82,776,3,0.0833552978418502,1
82,777,3,0.0799033779653105,1
82,778,3,0.078661230202233,1
82,779,3,0.0877705354198454,1
82,780,3,0.0996841698941976,1
82,781,3,0.096289488316918,1
82,782,3,0.089682723483094,1
82,783,3,0.0894610538536446,1
82,784,3,0.104323616766658,1
82,785,3,0.122015306608965,1
82,786,3,0.105707015426884,1
82,787,3,0.0774785369555282,1
82,797,3,0.0773125003653763,1
82,798,3,0.0954766277982916,1
82,799,3,0.0921212810798694,1
83,774,3,0.0784438073239531,1
83,775,3,0.0855138334115838,1
83,776,3,0.0887690250858527,1
83,777,3,0.0893418333525485,1
83,778,3,0.084147571500435,1
83,779,3,0.085931644245258,1
83,780,3,0.0933382118860731,1
83,781,3,0.0896926006236842,1
83,782,3,0.0840198574970001,1
83,783,3,0.0828561877788061,1
83,784,3,0.0902043850527009,1
83,785,3,0.100679640713111,1
83,786,3,0.0897408183203192,1
83,787,3,0.0710947055938853,1
83,798,3,0.0726557849687674,1
83,799,3,0.074002190772544,1
84,774,3,0.0754570414704296,1
84,775,3,0.0802980742534798,1
84,776,3,0.0878384115612452,1
84,777,3,0.0916991935461458,1
84,778,3,0.0857304177212266,1
84,779,3,0.0821175705334456,1
84,780,3,0.0845390991971113,1
84,781,3,0.083507312366434,1
84,782,3,0.0799161781165787,1
84,783,3,0.0774694624449192,1
84,784,3,0.0774764345441594,1
84,785,3,0.0790119435653849,1
84,786,3,0.0724745702862835,1
85,774,3,0.0704601666959447,1
85,775,3,0.0709390133468501,1
85,776,3,0.0740666826905154,1
85,777,3,0.0773735122235036,1
85,778,3,0.0766805849893147,1
85,779,3,0.0766611661355892,1
85,780,3,0.0785159721449541,1
85,781,3,0.08021328897449,1
85,782,3,0.0772502007054135,1
85,783,3,0.0733246872115024,1
85,784,3,0.070811622791318,1
86,774,3,0.0689149063194245,1
86,775,3,0.0692431280737733,1
86,776,3,0.0680553734663658,1
86,777,3,0.0695368786673601,1
86,778,3,0.0715361161449188,1
86,779,3,0.0741142295322407,1
86,780,3,0.0762748555337911,1
86,781,3,0.0775926242186098,1
86,782,3,0.0733753068083052,1
86,783,3,0.0691597144534828,1
87,773,3,0.0696754940630778,1
87,774,3,0.0722262940719331,1
87,775,3,0.0734889088995325,1
87,776,3,0.0716698378936613,1
87,777,3,0.0719144004469044,1
87,778,3,0.0719707762184235,1
87,779,3,0.073650662799859,1
87,780,3,0.0765464259869258,1
87,781,3,0.0766970568732584,1
87,782,3,0.0720003776913142,1
88,772,3,0.070254921032231,1
88,773,3,0.0752413915658396,1
88,774,3,0.0754809766152437,1
88,775,3,0.0742937491081224,1
88,776,3,0.0726611997262529,1
88,777,3,0.0742769298171719,1
88,778,3,0.074119961747853,1
88,779,3,0.0751080591525358,1
88,780,3,0.0768807513229978,1
88,781,3,0.0764593885521676,1
88,782,3,0.0746166279822975,1
88,783,3,0.0677828626184023,1
89,772,3,0.0736229361268499,1
89,773,3,0.0800596332512878,1
89,774,3,0.0754527587806043,1
89,775,3,0.0696618793022764,1
89,776,3,0.0687459766674746,1
89,777,3,0.0733363493053345,1
89,778,3,0.0754542682041511,1
89,779,3,0.0761493637372445,1
89,780,3,0.0758519953189661,1
89,781,3,0.0746862411587313,1
89,782,3,0.0750582541652663,1
89,804,3,0.0679718819789875,1
90,773,3,0.0827719954876382,1
90,774,3,0.0743760725891846,1
90,777,3,0.068595932779188,1
90,778,3,0.0704707925585323,1
90,779,3,0.0702078413930321,1
91,777,3,0.0683928614041549,1
92,776,3,0.0732240410057188,1
92,777,3,0.073043982349999,1
93,773,3,0.0680576675505659,1
93,774,3,0.0682270464357143,1
93,775,3,0.071871268070076,1
93,776,3,0.0788837563696476,1
93,777,3,0.0756270432922799,1
94,769,3,0.0706139182555626,1
94,770,3,0.0699835542314796,1
95,769,3,0.0722113196319843,1
95,770,3,0.073062113401889,1
95,771,3,0.0678924455699473,1
96,769,3,0.0700160787150483,1
96,770,3,0.0737679785521935,1
96,771,3,0.069972059851375,1
97,770,3,0.0695914515163094,1
98,767,3,0.0681017403222231,1
105,807,3,0.0823291054619378,1
120,772,3,0.0679233108855697,1
120,773,3,0.0748162073179345,1
120,774,3,0.0736565747087507,1
121,772,3,0.0796392288446144,1
121,773,3,0.0922744037130094,1
121,774,3,0.0877973696162336,1
121,775,3,0.068654968011242,1
121,803,3,0.0686711404063867,1
121,804,3,0.0757896537305714,1
122,771,3,0.0737764720545325,1
122,772,3,0.099192517102248,1
122,773,3,0.127311286836763,1
122,774,3,0.113213330807085,1
122,775,3,0.0770903874925044,1
122,803,3,0.0768921678360147,1
122,804,3,0.0836984041895081,1
122,805,3,0.0681894665812189,1
123,771,3,0.0705223046319561,1
123,772,3,0.106609650707891,1
123,773,3,0.148250357685462,1
123,774,3,0.128272178678947,1
123,775,3,0.0782598613036225,1
123,803,3,0.0702167302205857,1
123,804,3,0.0711616712893362,1
124,772,3,0.0830769170134268,1
124,773,3,0.115125351156607,1
124,774,3,0.102074252233971,1
124,802,3,0.0685264214289459,1
124,803,3,0.0729663668328566,1
125,802,3,0.0693691349910542,1
125,803,3,0.0771211210330552,1
73,786,4,0.10819486887997,1
74,786,4,0.110433463795446,1
75,778,4,0.0800686598436889,1
75,779,4,0.0802314200263799,1
75,786,4,0.101992923055721,1
76,777,4,0.0926571503980997,1
76,778,4,0.0970794678913027,1
76,779,4,0.0909230323849457,1
76,780,4,0.088213671026361,1
76,781,4,0.0893114232599006,1
76,782,4,0.0880609077797798,1
76,783,4,0.0829550370517958,1
76,784,4,0.0813649911202769,1
77,777,4,0.0931981709236723,1
77,778,4,0.104213872091161,1
77,779,4,0.104784625864696,1
77,780,4,0.0999684087235289,1
77,781,4,0.0963016056337245,1
77,782,4,0.0954464752660107,1
77,783,4,0.0908690645033704,1
77,784,4,0.0847702746010402,1
77,785,4,0.0826274741728047,1
77,786,4,0.0873388342956747,1
77,787,4,0.0907825841177784,1
77,788,4,0.0919190662428014,1
78,777,4,0.0828213871803652,1
78,778,4,0.101456382882581,1
78,779,4,0.111430186477539,1
78,780,4,0.106959477584198,1
78,781,4,0.099157722493583,1
78,782,4,0.0948602379215688,1
78,783,4,0.0882027576545264,1
78,784,4,0.08174573722019,1
78,785,4,0.0820977383851775,1
78,786,4,0.0893370475215409,1
78,787,4,0.094552758761437,1
78,788,4,0.092668752594172,1
78,789,4,0.0879060900400376,1
79,778,4,0.0834648688138432,1
79,779,4,0.0942107185939034,1
79,780,4,0.094797944251382,1
79,781,4,0.0911753876367382,1
79,782,4,0.087739969593022,1
79,783,4,0.0823440858916625,1
79,784,4,0.0807016773385307,1
79,785,4,0.0852006759438234,1
79,786,4,0.0917596483551069,1
79,787,4,0.0949860711353462,1
79,788,4,0.0893134897326135,1
79,789,4,0.0807785680927796,1
79,790,4,0.0753278120536718,1
79,791,4,0.0762028763958454,1
79,792,4,0.0770115620406141,1
79,793,4,0.0763835400189392,1
79,794,4,0.07507353408379,1
80,778,4,0.073542804903796,1
80,779,4,0.0827772125825164,1
80,780,4,0.089301066937232,1
80,781,4,0.0879540980945133,1
80,782,4,0.0824355138322136,1
80,783,4,0.0774777942233067,1
80,784,4,0.081990641190664,1
80,785,4,0.0925841050800296,1
80,786,4,0.0920305479533319,1
80,787,4,0.0846628240097439,1
80,788,4,0.0771874997304601,1
80,789,4,0.0710428700725587,1
80,790,4,0.0688524509252862,1
80,791,4,0.0717570250728189,1
80,792,4,0.0718595161296042,1
80,793,4,0.0693836122795966,1
81,778,4,0.0730155129447684,1
81,779,4,0.0835498876940963,1
81,780,4,0.0943258720371094,1
81,781,4,0.0913912831221434,1
81,782,4,0.0822464046249888,1
81,783,4,0.0783499774832341,1
81,784,4,0.093743276476463,1
81,785,4,0.115781626951577,1
81,786,4,0.10539652939921,1
81,787,4,0.0802749956466308,1
81,788,4,0.0690068972989177,1
82,774,4,0.0734522035523301,1
82,775,4,0.0797911175839026,1
82,776,4,0.0763813657302586,1
82,777,4,0.0741555769558272,1
82,778,4,0.0813254585988122,1
82,779,4,0.0922846881583662,1
82,780,4,0.101963621071629,1
82,781,4,0.0952367193009845,1
82,782,4,0.0843461625230355,1
82,783,4,0.082073905066555,1
82,784,4,0.103284678143461,1
82,785,4,0.130715611953369,1
82,786,4,0.116324001166521,1
82,787,4,0.0831732505805051,1
83,774,4,0.0756681151861713,1
83,775,4,0.0795457643802302,1
83,776,4,0.0791173456532962,1
83,777,4,0.081154552320789,1
83,778,4,0.0886742129218731,1
83,779,4,0.0940466825889288,1
83,780,4,0.096542849851075,1
83,781,4,0.0889592723505136,1
83,782,4,0.0810980387844224,1
83,783,4,0.0775872633691081,1
83,784,4,0.085391324523475,1
83,785,4,0.0998826890394862,1
83,786,4,0.0921749015544379,1
83,787,4,0.0744525560386669,1
84,775,4,0.0748477434884666,1
84,776,4,0.0788129751868978,1
84,777,4,0.0825483252730116,1
84,778,4,0.0868109373692731,1
84,779,4,0.0867140707121326,1
84,780,4,0.0845807161606169,1
84,781,4,0.0801750442548608,1
84,782,4,0.0770616245882508,1
84,783,4,0.0740226218984101,1
84,784,4,0.0717500829224587,1
84,785,4,0.0739425505731161,1
84,786,4,0.0717250336793124,1
85,774,4,0.0686804964364666,1
85,775,4,0.0696104690550443,1
85,776,4,0.0716474840497058,1
85,777,4,0.0736498362107738,1
85,778,4,0.0758573082502599,1
85,779,4,0.0757476414418512,1
85,780,4,0.0740645084018348,1
85,781,4,0.0736705668254389,1
85,782,4,0.0726726761370296,1
85,783,4,0.0704859526815365,1
86,774,4,0.0706878261013737,1
86,775,4,0.0718940052596942,1
86,776,4,0.0699509758399271,1
86,777,4,0.0703588975534592,1
86,778,4,0.0714961463698076,1
86,779,4,0.0718090342976489,1
86,780,4,0.0712907809105744,1
86,781,4,0.0721566988648272,1
86,782,4,0.0695859888406161,1
87,773,4,0.0718223555594273,1
87,774,4,0.0760581154899728,1
87,775,4,0.0767426510480143,1
87,776,4,0.0736979520812171,1
87,777,4,0.0727513039263125,1
87,778,4,0.0708278850331024,1
87,779,4,0.0702106146593107,1
87,780,4,0.0719157780953797,1
87,781,4,0.0732250173392035,1
87,782,4,0.0685072900844673,1
87,802,4,0.0706736183527503,1
87,803,4,0.077845907885679,1
88,772,4,0.0711747349907475,1
88,773,4,0.0752585343046929,1
88,774,4,0.0754029298342308,1
88,775,4,0.0745190185929355,1
88,776,4,0.074108293664245,1
88,777,4,0.0749059701007634,1
88,778,4,0.0729300807699728,1
88,779,4,0.0727663921720049,1
88,780,4,0.0744854159496905,1
88,781,4,0.0746269603458621,1
88,782,4,0.0708440274793671,1
88,803,4,0.0720499011591127,1
89,773,4,0.0746174366020547,1
89,774,4,0.0720199043610073,1
89,775,4,0.0691057944901153,1
89,776,4,0.070359825968736,1
89,777,4,0.0731993212002514,1
89,778,4,0.074188358999763,1
89,779,4,0.0745506446101073,1
89,780,4,0.0736166828007273,1
89,781,4,0.0714747329206809,1
89,782,4,0.0697769249295147,1
90,777,4,0.0677430126388107,1
90,778,4,0.0692830199817968,1
90,779,4,0.0685421266215641,1
92,775,4,0.0688762423154768,1
92,776,4,0.0710947595018692,1
93,774,4,0.069863339427571,1
93,775,4,0.0761975754441035,1
93,776,4,0.079230815969452,1
93,777,4,0.0694489966741889,1
94,769,4,0.0701987608926472,1
94,770,4,0.0690341268205205,1
94,775,4,0.0716984151148595,1
94,776,4,0.0713446289966301,1
95,769,4,0.0764953092387167,1
95,770,4,0.079436816344939,1
95,771,4,0.0730020958465743,1
96,769,4,0.0751632669177389,1
96,770,4,0.0827134633967665,1
96,771,4,0.079612149067411,1
97,769,4,0.0713052402297889,1
97,770,4,0.0755491881840983,1
97,771,4,0.0726222062846263,1
98,767,4,0.0697728039636408,1
119,773,4,0.068412412032952,1
120,772,4,0.0688667305512213,1
120,773,4,0.076807035150018,1
120,774,4,0.0720906016868934,1
121,771,4,0.0694945069920811,1
121,772,4,0.0879613457234485,1
121,773,4,0.0992085397529931,1
121,774,4,0.0818296300225589,1
122,771,4,0.0818657423819394,1
122,772,4,0.120650200724581,1
122,773,4,0.143461615646713,1
122,774,4,0.104080958962176,1
122,804,4,0.0689683471007136,1
123,771,4,0.0788649844117278,1
123,772,4,0.124914717569604,1
123,773,4,0.156876581480552,1
123,774,4,0.112442662270459,1
124,772,4,0.0826402144263132,1
124,773,4,0.104368875513959,1
76,778,5,0.099639617940462,1
76,779,5,0.0962079734556129,1
76,780,5,0.0926377255545981,1
76,781,5,0.0866513038496434,1
76,782,5,0.0845212077362605,1
76,783,5,0.0821429851529266,1
77,777,5,0.0908135392800404,1
77,778,5,0.104833933700559,1
77,779,5,0.107327153992924,1
77,780,5,0.103825590853066,1
77,781,5,0.095238318571171,1
77,782,5,0.0933591701122254,1
77,783,5,0.0902880202947027,1
77,784,5,0.083427229061588,1
77,786,5,0.0829774268344072,1
77,787,5,0.0859937821812694,1
78,777,5,0.0785357264261345,1
78,778,5,0.0972247918361174,1
78,779,5,0.107964346361623,1
78,780,5,0.106504973382873,1
78,781,5,0.0962171977106214,1
78,782,5,0.0913786267254987,1
78,783,5,0.0854115340276298,1
78,784,5,0.0784298571356968,1
78,785,5,0.0790989510512632,1
78,786,5,0.0849124239645858,1
78,787,5,0.0894208085488383,1
78,788,5,0.0884598568088946,1
79,778,5,0.0777728865267129,1
79,779,5,0.088846652582547,1
79,780,5,0.0916352886262204,1
79,781,5,0.0876933451767976,1
79,782,5,0.0834841439129453,1
79,783,5,0.0773538957071707,1
79,784,5,0.0756151775460645,1
79,785,5,0.0825039829614353,1
79,786,5,0.0892278778645385,1
79,787,5,0.089854276656923,1
79,788,5,0.0847762943258996,1
79,789,5,0.0769558810831087,1
79,790,5,0.073098351546565,1
79,791,5,0.0744277523763358,1
79,792,5,0.0744155691719935,1
79,793,5,0.0724721264576839,1
80,778,5,0.0705638856568058,1
80,779,5,0.0800616937342247,1
80,780,5,0.0861583991945141,1
80,781,5,0.0846911017421431,1
80,782,5,0.07869426381676,1
80,783,5,0.0738539198579474,1
80,784,5,0.0795790974835562,1
80,785,5,0.0928784905898703,1
80,786,5,0.0940458440202916,1
80,787,5,0.0837636208703729,1
80,788,5,0.0750587692860005,1
80,789,5,0.0681562892120685,1
80,791,5,0.0707491973460596,1
80,792,5,0.0702062600921736,1
81,778,5,0.0733158223430528,1
81,779,5,0.0838350669182564,1
81,780,5,0.0909440325395299,1
81,781,5,0.088478155574512,1
81,782,5,0.0786670582542611,1
81,783,5,0.0752150245719778,1
81,784,5,0.0900897227711253,1
81,785,5,0.112359560118519,1
81,786,5,0.106365687132246,1
81,787,5,0.0827154280432878,1
81,788,5,0.0703708830951942,1
82,775,5,0.0730087804365675,1
82,777,5,0.0732051372727275,1
82,778,5,0.0826738050900062,1
82,779,5,0.0928336810757676,1
82,780,5,0.0961819898074139,1
82,781,5,0.091105906235376,1
82,782,5,0.0796770183412691,1
82,783,5,0.0774202564352476,1
82,784,5,0.0965116071795659,1
82,785,5,0.122645958142295,1
82,786,5,0.113579761342408,1
82,787,5,0.0850023005531582,1
82,788,5,0.0690047349897891,1
83,775,5,0.0743767853725262,1
83,776,5,0.0752135750461908,1
83,777,5,0.0784874248726358,1
83,778,5,0.0901030799715596,1
83,779,5,0.0974312534243549,1
83,780,5,0.0939885158743918,1
83,781,5,0.0875637983019129,1
83,782,5,0.0785384038559973,1
83,783,5,0.0746480563368619,1
83,784,5,0.0802985714048861,1
83,785,5,0.0935127419785639,1
83,786,5,0.0889488142016534,1
83,787,5,0.0741482754189082,1
84,776,5,0.0764648871665168,1
84,777,5,0.079028858692751,1
84,778,5,0.0861884558903792,1
84,779,5,0.0888278626552993,1
84,780,5,0.0827110734761507,1
84,781,5,0.0778168215335226,1
84,782,5,0.074574675591337,1
84,783,5,0.0727859607701299,1
84,784,5,0.0702315010081512,1
84,785,5,0.0716242796575612,1
84,786,5,0.0699639856333546,1
85,774,5,0.0680813571145649,1
85,775,5,0.0714804411771894,1
85,776,5,0.0751163070740596,1
85,777,5,0.0749656642081751,1
85,778,5,0.0763516025334165,1
85,779,5,0.0761538500794532,1
85,780,5,0.0717810680336006,1
85,781,5,0.0697955830816909,1
85,782,5,0.0694862650603333,1
85,783,5,0.0692953768896425,1
86,774,5,0.0714831245968282,1
86,775,5,0.0732286950616549,1
86,776,5,0.0739553387448324,1
86,777,5,0.0728632648189214,1
86,778,5,0.0720207010012126,1
86,779,5,0.0697543075354161,1
87,773,5,0.0726298492387761,1
87,774,5,0.0773843477282505,1
87,775,5,0.0763994488639407,1
87,776,5,0.0748099539918119,1
87,777,5,0.0729768669101487,1
87,778,5,0.0702641153383596,1
87,780,5,0.0678313558447323,1
87,781,5,0.069938445228578,1
87,802,5,0.0680756788069363,1
87,803,5,0.074575873546533,1
88,772,5,0.071571443843646,1
88,773,5,0.0744725978290944,1
88,774,5,0.0748701991586138,1
88,775,5,0.0736315913531402,1
88,776,5,0.0746252173210521,1
88,777,5,0.074093972109878,1
88,778,5,0.0716464058900294,1
88,779,5,0.0706138583578028,1
88,780,5,0.0717408047594664,1
88,781,5,0.0726869377936368,1
88,782,5,0.0683511066758018,1
88,803,5,0.0716725033439721,1
89,773,5,0.0714272998846992,1
89,774,5,0.0702330523601299,1
89,775,5,0.0701002710062162,1
89,776,5,0.0718159105604734,1
89,777,5,0.071999856580804,1
89,778,5,0.0714830826683963,1
89,779,5,0.0718024395542955,1
89,780,5,0.0708611642284445,1
89,781,5,0.0693206237953961,1
90,776,5,0.067953014184652,1
90,777,5,0.0680443163399076,1
90,778,5,0.0678026827871185,1
92,774,5,0.069694140235702,1
92,775,5,0.0713607654531189,1
92,776,5,0.070918881709783,1
93,773,5,0.0680350501564673,1
93,774,5,0.0759738692908211,1
93,775,5,0.0809427598319298,1
93,776,5,0.0786006136693205,1
93,777,5,0.0681215724704912,1
94,770,5,0.0683753233400869,1
94,774,5,0.0755283557432416,1
94,775,5,0.0820211710788315,1
94,776,5,0.0756643236579763,1
95,769,5,0.0738865042392759,1
95,770,5,0.0802228786058332,1
95,771,5,0.076359059804511,1
95,775,5,0.0693400666082256,1
96,769,5,0.073877717237914,1
96,770,5,0.0841303149558381,1
96,771,5,0.0826236287366259,1
97,769,5,0.0696118167546397,1
97,770,5,0.0763012464867568,1
97,771,5,0.0754317286771403,1
98,767,5,0.0697551341245013,1
120,773,5,0.0744374618031986,1
120,774,5,0.0691323112283766,1
121,771,5,0.0718480037801716,1
121,772,5,0.0910861639337475,1
121,773,5,0.0974896357708271,1
121,774,5,0.074979734191951,1
122,770,5,0.0709639427944768,1
122,771,5,0.0937538484310668,1
122,772,5,0.132442703959299,1
122,773,5,0.141560820137378,1
122,774,5,0.0916515269089009,1
123,770,5,0.0692865120211929,1
123,771,5,0.0914138406184822,1
123,772,5,0.132605781600117,1
123,773,5,0.145643463424559,1
123,774,5,0.0927355266167915,1
124,772,5,0.080765306728761,1
124,773,5,0.0891138984174245,1
76,779,6,0.103667700358246,1
76,780,6,0.0981369269018282,1
77,778,6,0.10258938494776,1
77,779,6,0.112731836675197,1
77,780,6,0.106897746952953,1
77,781,6,0.0910402642804166,1
77,782,6,0.0864262619763175,1
77,783,6,0.0847436620263633,1
78,778,6,0.0925792653410382,1
78,779,6,0.105735394985475,1
78,780,6,0.103625987558325,1
78,781,6,0.0904107867431786,1
78,782,6,0.0840592342842893,1
78,783,6,0.0796075608990107,1
78,785,6,0.078070362760959,1
78,786,6,0.0814502136529133,1
78,787,6,0.0836287730437464,1
78,788,6,0.082853600195583,1
79,779,6,0.0859064093190564,1
79,780,6,0.0884843490028748,1
79,781,6,0.0844022867239634,1
79,782,6,0.079307652815717,1
79,783,6,0.0740116007106079,1
79,784,6,0.0756031261167937,1
79,785,6,0.0839201516860453,1
79,786,6,0.087571650898222,1
79,787,6,0.0841173890192743,1
79,788,6,0.0791664618163282,1
79,789,6,0.0731977938073767,1
79,790,6,0.0710223550898289,1
79,791,6,0.0727363833943476,1
80,779,6,0.0811325997918241,1
80,780,6,0.0848001935320578,1
80,781,6,0.0836146551417627,1
80,782,6,0.0770192948414037,1
80,783,6,0.0725645187521677,1
80,784,6,0.0799170166852158,1
80,785,6,0.0949842083150166,1
80,786,6,0.095808173878309,1
80,787,6,0.0837955403865677,1
80,788,6,0.0734835839886867,1
80,791,6,0.0686387476978895,1
80,792,6,0.0695987590430044,1
80,793,6,0.0682558332990718,1
81,778,6,0.0778993426771922,1
81,779,6,0.0866399592139382,1
81,780,6,0.0891659555604624,1
81,781,6,0.0873656804716148,1
81,782,6,0.077705645301567,1
81,783,6,0.0739680969676687,1
81,784,6,0.0853298814014772,1
81,785,6,0.105031895796682,1
81,786,6,0.103696259610116,1
81,787,6,0.0864325811899759,1
81,788,6,0.0726453387994591,1
82,777,6,0.073999591209769,1
82,778,6,0.0837230880563196,1
82,779,6,0.0913169739613417,1
82,780,6,0.090624579817215,1
82,781,6,0.0880669095353113,1
82,782,6,0.0777922454826787,1
82,783,6,0.0749413636870263,1
82,784,6,0.0864668427085786,1
82,785,6,0.10597214687084,1
82,786,6,0.103702584813551,1
82,787,6,0.0868157651287126,1
82,788,6,0.0711501110216957,1
83,777,6,0.0769208468834046,1
83,778,6,0.0874189295800726,1
83,779,6,0.0939315650843787,1
83,780,6,0.089113449184226,1
83,781,6,0.0855534438001362,1
83,782,6,0.0770584440172057,1
83,783,6,0.0735420561817986,1
83,784,6,0.0760484360119899,1
83,785,6,0.0851408500613401,1
83,786,6,0.0839013198303657,1
83,787,6,0.0747438328547742,1
84,776,6,0.0757247844567134,1
84,777,6,0.0782085289234782,1
84,778,6,0.0847350487285047,1
84,779,6,0.0878574889977399,1
84,780,6,0.0814978982594861,1
84,781,6,0.0772782927547574,1
84,782,6,0.073388220765317,1
84,783,6,0.0724605302513875,1
84,784,6,0.0703618085845853,1
84,785,6,0.070915958699105,1
84,786,6,0.0688299593164832,1
85,775,6,0.0719587966664645,1
85,776,6,0.0784092283472234,1
85,777,6,0.0783056591307618,1
85,778,6,0.0787402832656105,1
85,779,6,0.0777463158804678,1
85,780,6,0.0727383480408689,1
85,781,6,0.0699002963453645,1
85,782,6,0.0688228195035156,1
85,783,6,0.0692365692690758,1
86,774,6,0.0689125882761204,1
86,775,6,0.0717161508415348,1
86,776,6,0.0774197173554094,1
86,777,6,0.0769181694535417,1
86,778,6,0.0744326819619669,1
86,779,6,0.0693613183334009,1
87,773,6,0.0718550297873955,1
87,774,6,0.075399078408276,1
87,775,6,0.0730848685608351,1
87,776,6,0.074635483797081,1
87,777,6,0.0736978382754735,1
87,778,6,0.0709193608918613,1
87,781,6,0.0685039537792468,1
88,773,6,0.0735439429612322,1
88,774,6,0.0747113023814295,1
88,775,6,0.07256734592643,1
88,776,6,0.0739272466954885,1
88,777,6,0.0726536466187427,1
88,778,6,0.0703092483003651,1
88,779,6,0.0678465878450482,1
88,780,6,0.068333233184279,1
88,781,6,0.0697453228714469,1
89,774,6,0.0710024211153691,1
89,775,6,0.0712962076476118,1
89,776,6,0.071915095260918,1
89,777,6,0.0701481472856204,1
89,778,6,0.0684210433001385,1
90,774,6,0.0715835012626927,1
90,775,6,0.0705094026544962,1
90,776,6,0.0684929685301004,1
90,777,6,0.0677898466971944,1
91,774,6,0.0749487670501369,1
91,775,6,0.070997204020491,1
92,774,6,0.0761226732954799,1
92,775,6,0.0721835031123355,1
93,773,6,0.0719799525552241,1
93,774,6,0.0817203824984688,1
93,775,6,0.0805448051056275,1
93,776,6,0.0719914050068969,1
94,773,6,0.0707637225528099,1
94,774,6,0.0865884651098424,1
94,775,6,0.0882786361366347,1
94,776,6,0.0737328245569698,1
95,769,6,0.0683432540794927,1
95,770,6,0.0764056063536477,1
95,771,6,0.075450213125813,1
95,774,6,0.0778678604146439,1
95,775,6,0.0788798630152609,1
96,769,6,0.0686922483769384,1
96,770,6,0.0786424282954334,1
96,771,6,0.0781499009961908,1
97,770,6,0.0703790771087342,1
97,771,6,0.0702575804927659,1
121,773,6,0.0855951446205055,1
122,770,6,0.0778481360823434,1
122,771,6,0.0981320272650769,1
122,772,6,0.123316333869921,1
122,773,6,0.117036628773906,1
122,774,6,0.0751444829802672,1
123,770,6,0.0767094736788639,1
123,771,6,0.0954533575186112,1
123,772,6,0.119605523895996,1
123,773,6,0.113478881535361,1
76,779,7,0.110290140435808,1
77,778,7,0.101808989014943,1
77,779,7,0.121284470082602,1
77,780,7,0.109731282357369,1
78,778,7,0.0892110286247081,1
78,779,7,0.106497054899028,1
78,780,7,0.100579311965454,1
78,785,7,0.0789271223477392,1
78,786,7,0.080705103490391,1
79,779,7,0.0847510114814901,1
79,780,7,0.0850282782115813,1
79,781,7,0.0809700432615164,1
79,782,7,0.076601016805203,1
79,783,7,0.0731217416217649,1
79,784,7,0.0761640326986183,1
79,785,7,0.083649036455885,1
79,786,7,0.0857853020385268,1
79,787,7,0.0825985315752718,1
79,788,7,0.0779950533075687,1
80,780,7,0.0812318384002526,1
80,781,7,0.0803489334413218,1
80,782,7,0.0761743051644232,1
80,783,7,0.0719056493841983,1
80,784,7,0.0781778552806871,1
80,785,7,0.0932694193089485,1
80,786,7,0.0960239076397628,1
80,787,7,0.0863545643578428,1
80,788,7,0.075113839286356,1
80,789,7,0.0677494935764205,1
80,791,7,0.0686296971463845,1
80,792,7,0.069820075275671,1
80,793,7,0.0685852709779445,1
81,779,7,0.0837154810408256,1
81,780,7,0.0844989856673765,1
81,781,7,0.0837519288276609,1
81,782,7,0.0781059001018454,1
81,783,7,0.0727212891588792,1
81,784,7,0.0802816383081921,1
81,785,7,0.0986359830568884,1
81,786,7,0.102995156331716,1
81,787,7,0.091266905423929,1
81,788,7,0.0751993613077914,1
82,778,7,0.082224134637897,1
82,779,7,0.085101137846596,1
82,780,7,0.0852109484096282,1
82,781,7,0.0834882828481471,1
82,782,7,0.0771261943733099,1
82,783,7,0.0722501393701075,1
82,784,7,0.0786675913443233,1
82,785,7,0.0933602842105576,1
82,786,7,0.0975771224387838,1
82,787,7,0.0895480613395228,1
82,788,7,0.0736841576271363,1
83,777,7,0.0799045938898343,1
83,778,7,0.0852978840181947,1
83,779,7,0.0873567257565255,1
83,780,7,0.0848256979981785,1
83,781,7,0.0811050408325424,1
83,782,7,0.0755641027262873,1
83,783,7,0.072076699416845,1
83,784,7,0.0744968743911393,1
83,785,7,0.0802750615341666,1
83,786,7,0.0816017849340746,1
83,787,7,0.076981223825278,1
84,777,7,0.080649003248567,1
84,778,7,0.0876361368264173,1
84,779,7,0.0873630749190638,1
84,780,7,0.0810310491298676,1
84,781,7,0.0745555083082026,1
84,782,7,0.0712598257483123,1
84,783,7,0.0702724411269711,1
84,784,7,0.0703742433595187,1
84,785,7,0.0706542114785767,1
84,786,7,0.0686516975935572,1
85,776,7,0.0781619164868057,1
85,777,7,0.0816371186225777,1
85,778,7,0.0856311311945904,1
85,779,7,0.0817215445150088,1
85,780,7,0.0740458742087626,1
85,781,7,0.0686955247843992,1
86,775,7,0.0705506362723391,1
86,776,7,0.0774476776296818,1
86,777,7,0.0797230497696716,1
86,778,7,0.0785472148164632,1
86,779,7,0.071195040331318,1
87,774,7,0.0733575770714059,1
87,775,7,0.0717968570830826,1
87,776,7,0.0741403150066314,1
87,777,7,0.0743730237932111,1
87,778,7,0.0718027270635425,1
87,782,7,0.0683787794408271,1
88,774,7,0.0759048131635534,1
88,775,7,0.0737454150660787,1
88,776,7,0.0731229455667368,1
88,777,7,0.070922960747225,1
88,778,7,0.0686813949028636,1
89,774,7,0.0733256276063312,1
89,775,7,0.0729585561649793,1
89,776,7,0.0715131513438134,1
89,777,7,0.0684363471777661,1
89,803,7,0.0678435869672825,1
90,773,7,0.0728368499068518,1
90,774,7,0.0767831838620676,1
90,775,7,0.0727097229014628,1
91,773,7,0.0788148020685715,1
91,774,7,0.0842134710157615,1
91,775,7,0.0751600563978139,1
91,777,7,0.0681542287291315,1
92,773,7,0.0771367603381377,1
92,774,7,0.0812797985365204,1
92,775,7,0.0720117103474674,1
93,773,7,0.0763021569327057,1
93,774,7,0.0810232085131105,1
93,775,7,0.0743872854498183,1
94,771,7,0.0684179286166291,1
94,772,7,0.0679501271126299,1
94,773,7,0.07535406524179,1
94,774,7,0.0852664137351984,1
94,775,7,0.0811520605739815,1
95,770,7,0.0705230114255216,1
95,771,7,0.0732069821237292,1
95,773,7,0.0699275857647272,1
95,774,7,0.0802057059180999,1
95,775,7,0.0774892107363236,1
96,770,7,0.0710975986556834,1
96,771,7,0.072680456856027,1
97,766,7,0.0719201206829648,1
121,773,7,0.0706599856226209,1
123,771,7,0.0902106743174794,1
76,779,8,0.106730811896404,1
77,778,8,0.0974598965330889,1
77,779,8,0.121114204710609,1
77,780,8,0.106033002994792,1
78,779,8,0.103245792517802,1
79,782,8,0.0764034260751911,1
79,783,8,0.0746437077595008,1
79,784,8,0.0763818269430091,1
79,785,8,0.0798497754600699,1
79,786,8,0.0808555067652363,1
79,787,8,0.0790583403701222,1
80,780,8,0.0759653518293782,1
80,781,8,0.076559525626993,1
80,782,8,0.07762060246221,1
80,783,8,0.074082286056942,1
80,784,8,0.0764100867060803,1
80,785,8,0.0861428557258473,1
80,786,8,0.0904500617042762,1
80,787,8,0.0834434793238204,1
80,788,8,0.074541072948092,1
80,792,8,0.0680401354762739,1
81,779,8,0.0771629176898402,1
81,780,8,0.0780523934330205,1
81,781,8,0.0803299877798986,1
81,782,8,0.080622708132017,1
81,783,8,0.0743731016602988,1
81,784,8,0.0777444051419304,1
81,785,8,0.0923787396207964,1
81,786,8,0.100925688730797,1
81,787,8,0.0906987152745134,1
81,788,8,0.0749750681564629,1
82,778,8,0.0785080177224533,1
82,779,8,0.0782422333929148,1
82,780,8,0.0807966212775818,1
82,781,8,0.0813072017616267,1
82,782,8,0.078569484803555,1
82,783,8,0.0721670432079438,1
82,784,8,0.0752099272726192,1
82,785,8,0.0866865057630749,1
82,786,8,0.0949133193162992,1
82,787,8,0.088727420101899,1
82,788,8,0.0740051497218779,1
83,778,8,0.0821684536803915,1
83,779,8,0.0812236683458165,1
83,780,8,0.0817307268415854,1
83,781,8,0.0784735345821393,1
83,782,8,0.0748417117840553,1
83,783,8,0.0718122508073499,1
83,784,8,0.0745564007848236,1
83,785,8,0.0784968108515957,1
83,786,8,0.080602834055317,1
83,787,8,0.07666208856109,1
84,777,8,0.0822460751873099,1
84,778,8,0.0862136968063569,1
84,779,8,0.0840045236704925,1
84,780,8,0.0787189656528995,1
84,781,8,0.0710214326643281,1
84,782,8,0.0684598570484857,1
84,783,8,0.0685057926404725,1
84,784,8,0.0708623202552085,1
84,785,8,0.0712752554112355,1
84,786,8,0.0688666946125655,1
85,777,8,0.0805223494354804,1
85,778,8,0.0872381341819073,1
85,779,8,0.0818129904248879,1
85,780,8,0.0726825892162757,1
85,784,8,0.0677461572711999,1
86,776,8,0.0738761658859353,1
86,777,8,0.0794690413397088,1
86,778,8,0.0813253687521725,1
86,779,8,0.0726217570514278,1
86,783,8,0.0681095989083082,1
87,776,8,0.0716629796001647,1
87,777,8,0.0740508037943937,1
87,778,8,0.0729378495094182,1
87,782,8,0.06999220945777,1
87,783,8,0.0692127060015734,1
88,776,8,0.0703457260360803,1
90,774,8,0.07550076683508,1
91,773,8,0.0797868049451974,1
91,774,8,0.0846112879772162,1
91,775,8,0.0737770770219064,1
92,773,8,0.0785786731199076,1
92,774,8,0.0796881892734708,1
92,775,8,0.0691925983236102,1
93,773,8,0.0801274614744797,1
93,774,8,0.0753357485068447,1
94,771,8,0.0728653492609623,1
94,772,8,0.080795393373506,1
94,773,8,0.081796296919233,1
94,774,8,0.0767043763795053,1
94,775,8,0.0687813163457536,1
95,771,8,0.0740260240911665,1
95,772,8,0.0767858373328266,1
95,773,8,0.0761112987108948,1
95,774,8,0.0738573280404798,1
95,775,8,0.0679624480818198,1
96,771,8,0.0689049752708505,1
97,766,8,0.072329485932508,1
77,779,9,0.10808498044985,1
79,782,9,0.0744994559845864,1
79,783,9,0.0745829354924128,1
79,784,9,0.0755544112687524,1
79,785,9,0.0766375963671098,1
79,786,9,0.0764410478581184,1
79,787,9,0.0753250627464973,1
80,781,9,0.0722522717303562,1
80,782,9,0.0773627545858444,1
80,783,9,0.0765763209588395,1
80,784,9,0.0761913999850687,1
80,785,9,0.0808002870204813,1
80,786,9,0.0834402089061356,1
80,787,9,0.0784110492391211,1
80,788,9,0.072078442441655,1
80,791,9,0.0697671436253402,1
81,780,9,0.070283294601046,1
81,781,9,0.074967449161417,1
81,782,9,0.0807504221354519,1
81,783,9,0.0771728127997583,1
81,784,9,0.0767897306872132,1
81,785,9,0.0872122523598999,1
81,786,9,0.0954344717549478,1
81,787,9,0.0864426679727253,1
81,788,9,0.0729725063532356,1
81,791,9,0.0720175324097195,1
81,792,9,0.0720876247682316,1
82,779,9,0.0730665218770099,1
82,780,9,0.0742952465521172,1
82,781,9,0.0781695175125237,1
82,782,9,0.0799028927934561,1
82,783,9,0.0746834379435729,1
82,784,9,0.0737413180593088,1
82,785,9,0.0836927318716555,1
82,786,9,0.0930582377772392,1
82,787,9,0.0861246108682137,1
82,788,9,0.0724251067162448,1
83,779,9,0.0769095262068033,1
83,780,9,0.0765412029022717,1
83,781,9,0.0758005730921821,1
83,782,9,0.0744912919199264,1
83,783,9,0.0717398164464298,1
83,784,9,0.0723517738889277,1
83,785,9,0.0776912518698883,1
83,786,9,0.082307128973869,1
83,787,9,0.0774904027017436,1
83,788,9,0.0677468940136454,1
84,778,9,0.0816293079547004,1
84,779,9,0.0778851469081208,1
84,780,9,0.0733825783963443,1
84,781,9,0.068264829942593,1
84,784,9,0.068125441865774,1
84,785,9,0.0698041245022376,1
84,786,9,0.0693801741481844,1
85,778,9,0.0805906987691825,1
85,779,9,0.0763214679704636,1
85,780,9,0.0692159344908264,1
86,777,9,0.073159405333124,1
86,778,9,0.0761641465043619,1
86,779,9,0.0701735858642054,1
86,783,9,0.0695435872164572,1
87,782,9,0.0699210988373414,1
87,783,9,0.0725812541862544,1
90,774,9,0.0701141852558166,1
91,773,9,0.0775276471287841,1
91,774,9,0.0792866646406848,1
91,775,9,0.071219867952753,1
92,773,9,0.0767615967094375,1
92,774,9,0.0762049009401265,1
92,775,9,0.0687070790622637,1
93,772,9,0.0815234266847107,1
93,773,9,0.0786928921580607,1
93,774,9,0.0704464381293997,1
94,771,9,0.0750162239072181,1
94,772,9,0.0896841071213453,1
94,773,9,0.081600790631262,1
95,771,9,0.0759783376637018,1
95,772,9,0.0873432727196755,1
95,773,9,0.0779970778518497,1
96,772,9,0.0702704465315699,1
79,782,10,0.0708210147600539,1
79,783,10,0.0710006840803351,1
79,784,10,0.0715920965912233,1
79,785,10,0.0736441279542653,1
79,786,10,0.0732681437262559,1
80,781,10,0.0684331007191852,1
80,782,10,0.0741371583946902,1
80,783,10,0.0757071505562298,1
80,784,10,0.0741574517557088,1
80,785,10,0.0765086963880309,1
80,786,10,0.0770567429208275,1
80,787,10,0.0733034115272233,1
80,791,10,0.0695347103684556,1
81,781,10,0.0700323289772807,1
81,782,10,0.0797371916307592,1
81,783,10,0.0801152243621535,1
81,784,10,0.0760079211672645,1
81,785,10,0.0804917117313452,1
81,786,10,0.0865495135966477,1
81,787,10,0.0807052891734464,1
81,788,10,0.0699156002229922,1
81,790,10,0.0683204749614426,1
81,791,10,0.0744134787401766,1
81,792,10,0.0720601137271577,1
82,780,10,0.0692242542896619,1
82,781,10,0.0746391555297564,1
82,782,10,0.0824710990913079,1
82,783,10,0.0801293123152573,1
82,784,10,0.0745552148091796,1
82,785,10,0.0804760185182789,1
82,786,10,0.0909133828558428,1
82,787,10,0.0851532429078417,1
82,788,10,0.0714500071254375,1
83,779,10,0.0731359613499403,1
83,780,10,0.0718850265855009,1
83,781,10,0.0745950827580992,1
83,782,10,0.0771297043820339,1
83,783,10,0.073946695498094,1
83,784,10,0.071364233533411,1
83,785,10,0.0778697292247495,1
83,786,10,0.0871006867925056,1
83,787,10,0.0815952021702731,1
83,788,10,0.0698035375041916,1
84,779,10,0.0737220848886386,1
84,780,10,0.0696526131188361,1
84,781,10,0.0685004497602987,1
84,785,10,0.0703682955119711,1
84,786,10,0.0729345072144216,1
85,779,10,0.0738988132289138,1
85,780,10,0.0688244367430301,1
85,783,10,0.0692146107503349,1
85,784,10,0.0698566728069058,1
85,785,10,0.0682297238655772,1
86,779,10,0.0700299929646487,1
86,783,10,0.0729126684912003,1
86,784,10,0.07178886073215,1
87,782,10,0.069602664376943,1
87,783,10,0.0768662380957994,1
87,784,10,0.0724142891808258,1
88,783,10,0.0688223523009892,1
91,773,10,0.0738385081643522,1
91,774,10,0.0747051688508265,1
91,775,10,0.0700453447604842,1
92,773,10,0.0727598094082034,1
92,774,10,0.074648050347086,1
92,775,10,0.0706850168964393,1
93,772,10,0.081583558045769,1
93,773,10,0.0756324999781972,1
93,774,10,0.0695879474973614,1
94,771,10,0.0778550063553919,1
94,772,10,0.0968907360399646,1
94,773,10,0.081719136625065,1
95,771,10,0.0814049608953881,1
95,772,10,0.0977675134580683,1
95,773,10,0.0801002738813087,1
96,772,10,0.0735622896450574,1
79,782,11,0.0686372802027745,1
79,783,11,0.0707186135499083,1
79,784,11,0.0721259892833803,1
79,785,11,0.0734307781236514,1
80,782,11,0.0716756180274815,1
80,783,11,0.0760614577849693,1
80,784,11,0.0750105635689175,1
80,785,11,0.074538149937414,1
80,786,11,0.0723966193416862,1
80,787,11,0.0687967819473327,1
81,781,11,0.0689669874215663,1
81,782,11,0.0789690627591477,1
81,783,11,0.0833193292370933,1
81,784,11,0.0771261883835339,1
81,785,11,0.075043417490165,1
81,786,11,0.0769907775179653,1
81,787,11,0.0735148086908678,1
81,791,11,0.0712403769457069,1
82,781,11,0.0730183281394788,1
82,782,11,0.0843802802870147,1
82,783,11,0.0863005066296278,1
82,784,11,0.0770813489205513,1
82,785,11,0.07689296447622,1
82,786,11,0.0847101073013261,1
82,787,11,0.0808779684251595,1
82,788,11,0.0686133630272884,1
83,780,11,0.0685984245259955,1
83,781,11,0.0740602556608894,1
83,782,11,0.0794558758121058,1
83,783,11,0.077205648751678,1
83,784,11,0.0715789849716041,1
83,785,11,0.0769511371805329,1
83,786,11,0.0876313030772019,1
83,787,11,0.0828610275177975,1
83,788,11,0.069620489950258,1
84,780,11,0.0683798276516235,1
84,781,11,0.0700235180168149,1
84,782,11,0.0708888609525737,1
84,783,11,0.0698286466450977,1
84,784,11,0.068880554954182,1
84,785,11,0.0717402417205243,1
84,786,11,0.0759193323805277,1
84,787,11,0.0712529554752638,1
85,779,11,0.0741651306485145,1
85,780,11,0.0700092743295356,1
85,781,11,0.0685499852076492,1
85,782,11,0.0689171405058649,1
85,783,11,0.0730656593492688,1
85,784,11,0.0745915787391512,1
85,785,11,0.0710165989151126,1
86,778,11,0.0703193350831146,1
86,779,11,0.0695528414203455,1
86,780,11,0.0690409192264813,1
86,782,11,0.068604114813176,1
86,783,11,0.0765815979514775,1
86,784,11,0.0775492462609662,1
86,785,11,0.0716456212293761,1
87,782,11,0.0702750287101942,1
87,783,11,0.0802865259653914,1
87,784,11,0.0786464174862357,1
87,785,11,0.0710513815442256,1
88,783,11,0.0734726586373001,1
88,784,11,0.0697190277548968,1
91,773,11,0.073552172913428,1
91,774,11,0.0729120695136024,1
91,775,11,0.0688283540565207,1
92,773,11,0.0723168055767594,1
92,774,11,0.0746785502863736,1
92,775,11,0.0716744380416135,1
93,772,11,0.0780950286584426,1
93,773,11,0.0740465450636723,1
93,774,11,0.0707203925133742,1
94,771,11,0.0789475355042773,1
94,772,11,0.0951580495832697,1
94,773,11,0.081367303173805,1
95,771,11,0.0833268284366196,1
95,772,11,0.0986046864773955,1
95,773,11,0.0820752647457024,1
96,772,11,0.074138086809967,1
79,783,12,0.0704145725211887,1
79,784,12,0.0723061916937237,1
79,785,12,0.0717413198802006,1
80,782,12,0.0702436003556298,1
80,783,12,0.0763486435840826,1
80,784,12,0.0753798332580538,1
80,785,12,0.071815748836522,1
80,786,12,0.0683516517454159,1
81,781,12,0.0703863486967733,1
81,782,12,0.0784729475840933,1
81,783,12,0.0852899595445739,1
81,784,12,0.0789369096416897,1
81,785,12,0.0723770926719931,1
81,786,12,0.0706445559596977,1
82,781,12,0.0733241900600961,1
82,782,12,0.0839809239531333,1
82,783,12,0.0885238575652356,1
82,784,12,0.0785529470320756,1
82,785,12,0.0742529587337019,1
82,786,12,0.0775755234081883,1
82,787,12,0.07442420043918,1
83,781,12,0.0736022294712887,1
83,782,12,0.0792602018104074,1
83,783,12,0.0782504633451107,1
83,784,12,0.0715402670596726,1
83,785,12,0.0749963438407421,1
83,786,12,0.0829719162405061,1
83,787,12,0.0787399837768116,1
84,780,12,0.068427614084388,1
84,781,12,0.071451324876153,1
84,782,12,0.0731619090594835,1
84,783,12,0.0728459483765647,1
84,784,12,0.0717373666280542,1
84,785,12,0.0731678389377032,1
84,786,12,0.0756180466487587,1
84,787,12,0.0714178959364114,1
85,779,12,0.0745709918791096,1
85,780,12,0.0719958074922418,1
85,781,12,0.071824206400205,1
85,782,12,0.07274385863477,1
85,783,12,0.0785883046796826,1
85,784,12,0.0818297857567344,1
85,785,12,0.0759726054480894,1
85,786,12,0.0700472375296937,1
86,778,12,0.0691479145948032,1
86,779,12,0.0707551152447274,1
86,780,12,0.0731596868525951,1
86,781,12,0.0716333062499623,1
86,782,12,0.0721836229078551,1
86,783,12,0.0823407495864419,1
86,784,12,0.0877523983781795,1
86,785,12,0.0807944829275572,1
86,786,12,0.0725980854567568,1
87,782,12,0.0715924200391262,1
87,783,12,0.0854639505572265,1
87,784,12,0.0906533067828127,1
87,785,12,0.0833341838815224,1
87,786,12,0.0729485412595416,1
88,783,12,0.0792431908466256,1
88,784,12,0.0812565222670641,1
88,785,12,0.0736087643168823,1
89,783,12,0.0696448323998387,1
89,784,12,0.0687710917981566,1
91,773,12,0.0747647910809265,1
91,774,12,0.0724741749610689,1
91,775,12,0.0696991836270767,1
92,773,12,0.0730418679590782,1
92,774,12,0.0741835192607716,1
92,775,12,0.0729155375938945,1
93,773,12,0.072091026960988,1
93,774,12,0.0714582310878574,1
93,775,12,0.06941301608988,1
94,772,12,0.0838111856814261,1
94,773,12,0.0795395529825395,1
94,774,12,0.0678858448368179,1
95,771,12,0.0762370480678085,1
95,772,12,0.0880185301147248,1
95,773,12,0.0819323606703834,1
96,772,12,0.0705767037774019,1
96,773,12,0.0691119998980301,1
79,783,13,0.0705280488271204,1
79,784,13,0.0743538026020929,1
79,785,13,0.0742019797503404,1
80,782,13,0.0689243462063682,1
80,783,13,0.0759172239793829,1
80,784,13,0.0774007597144343,1
80,785,13,0.07350717771627,1
80,786,13,0.06897994330701,1
81,780,13,0.0683581027341459,1
81,781,13,0.0717148330908193,1
81,782,13,0.0760724729829956,1
81,783,13,0.082784903454874,1
81,784,13,0.0809600882538385,1
81,785,13,0.074581114600515,1
81,786,13,0.0699840693522139,1
82,781,13,0.0721591666525308,1
82,782,13,0.0786462437827323,1
82,783,13,0.0832737230827853,1
82,784,13,0.0791463122099331,1
82,785,13,0.0749391474699138,1
82,786,13,0.0733017104308451,1
82,787,13,0.0685673136295579,1
83,781,13,0.0711817969366273,1
83,782,13,0.0758598119766194,1
83,783,13,0.0758420762499441,1
83,784,13,0.0726070222025183,1
83,785,13,0.0739716369252726,1
83,786,13,0.0760817032277801,1
83,787,13,0.071513876106707,1
84,781,13,0.0704635628989251,1
84,782,13,0.0728504646676532,1
84,783,13,0.0727801387078779,1
84,784,13,0.072473827554062,1
84,785,13,0.072547771338529,1
84,786,13,0.0712633417468123,1
85,779,13,0.0721764651255596,1
85,780,13,0.0725663037054096,1
85,781,13,0.0728837917812032,1
85,782,13,0.0737635521077447,1
85,783,13,0.0786860578236681,1
85,784,13,0.0831305734266512,1
85,785,13,0.0781150345102141,1
85,786,13,0.0704838742292716,1
86,778,13,0.0692352994365681,1
86,779,13,0.0723067667122177,1
86,780,13,0.0747256538846764,1
86,781,13,0.0723386982079644,1
86,782,13,0.0723609023075205,1
86,783,13,0.0833166038890226,1
86,784,13,0.0941127558077587,1
86,785,13,0.0893996167214228,1
86,786,13,0.078369318469872,1
87,779,13,0.0706832978307331,1
87,780,13,0.0706367393020445,1
87,782,13,0.0709420681325997,1
87,783,13,0.0876993050038972,1
87,784,13,0.1017607234001,1
87,785,13,0.097617954741636,1
87,786,13,0.0836236637648358,1
88,783,13,0.0840815102611571,1
88,784,13,0.0936958973484651,1
88,785,13,0.0880333308511702,1
88,786,13,0.0721847070573074,1
89,783,13,0.0742582596854438,1
89,784,13,0.0777490052898826,1
89,785,13,0.0711738964221103,1
91,773,13,0.0735630802954867,1
91,774,13,0.0717181454369359,1
91,775,13,0.0720641148975121,1
91,776,13,0.0729263371599856,1
92,773,13,0.0713809150595139,1
92,774,13,0.0723783565147247,1
92,775,13,0.0741403988634951,1
92,776,13,0.0729556990418371,1
93,773,13,0.0687159918489212,1
93,774,13,0.0716250223897826,1
93,775,13,0.0713184416960477,1
94,772,13,0.069822716766878,1
94,773,13,0.0748095287177174,1
94,774,13,0.0741146847552151,1
94,775,13,0.0696500794435968,1
95,771,13,0.0684366167176852,1
95,772,13,0.0736982395904642,1
95,773,13,0.0784031247655003,1
95,774,13,0.0753376173169503,1
95,775,13,0.0696659044317346,1
95,776,13,0.068122530834648,1
95,777,13,0.0692131732040998,1
96,773,13,0.069702016791115,1
79,784,14,0.0719415221525396,1
79,785,14,0.0749470719435347,1
80,783,14,0.0709722026955525,1
80,784,14,0.0752192773129232,1
80,785,14,0.0741820936940884,1
80,786,14,0.0699625361075676,1
81,781,14,0.0702497937839926,1
81,782,14,0.0698906887446934,1
81,783,14,0.0757819568684378,1
81,784,14,0.0791103136562963,1
81,785,14,0.0759189670041929,1
81,786,14,0.0700809719480103,1
82,780,14,0.0686938596266769,1
82,781,14,0.0703235518854042,1
82,782,14,0.0711331060476899,1
82,783,14,0.0761661410997631,1
82,784,14,0.0785681191346317,1
82,785,14,0.0761993723768974,1
82,786,14,0.0709320112987301,1
83,781,14,0.0692913697295123,1
83,782,14,0.0717684954938197,1
83,783,14,0.0738659473281143,1
83,784,14,0.0744556048346405,1
83,785,14,0.07375499271787,1
83,786,14,0.0703974178027834,1
84,783,14,0.0731284082424301,1
84,784,14,0.0728797307130891,1
84,785,14,0.0719649421766194,1
85,779,14,0.071426485275166,1
85,780,14,0.0744854458985704,1
85,781,14,0.0754829712106449,1
85,783,14,0.0776640822460452,1
85,784,14,0.0826650300681962,1
85,785,14,0.0816815028625858,1
85,786,14,0.0726848653311479,1
85,788,14,0.0681830635106968,1
85,789,14,0.0697630046901384,1
86,778,14,0.0717165641360774,1
86,779,14,0.0752214815504837,1
86,780,14,0.07607179613831,1
86,781,14,0.0727967124180131,1
86,783,14,0.0833843183064709,1
86,784,14,0.100381463675075,1
86,785,14,0.103308577349619,1
86,786,14,0.0874934723421375,1
86,787,14,0.0715262330145527,1
87,778,14,0.072842342531425,1
87,779,14,0.077695139234499,1
87,780,14,0.0743189361161162,1
87,782,14,0.0704398194269423,1
87,783,14,0.0899605472623513,1
87,784,14,0.114166352083632,1
87,785,14,0.118789081491333,1
87,786,14,0.0983440174165435,1
87,787,14,0.0742078796796802,1
88,782,14,0.0683903397084675,1
88,783,14,0.0886136263378404,1
88,784,14,0.105749327204403,1
88,785,14,0.105168822075573,1
88,786,14,0.0839408044336226,1
89,776,14,0.0682533056136085,1
89,777,14,0.0678204844013296,1
89,783,14,0.0797498719865078,1
89,784,14,0.0864169358951174,1
89,785,14,0.0811256875903438,1
90,776,14,0.0725990138720337,1
90,777,14,0.0698580085269492,1
91,773,14,0.0697636875246,1
91,774,14,0.0712298648888628,1
91,775,14,0.074821047056926,1
91,776,14,0.0809092350557725,1
91,777,14,0.0724854956376701,1
92,773,14,0.0677726440605813,1
92,774,14,0.0717217632616276,1
92,775,14,0.0765552668962716,1
92,776,14,0.0801379435824438,1
92,777,14,0.0690474540720749,1
93,774,14,0.0742972651066223,1
93,775,14,0.0746458580890775,1
93,776,14,0.0705102651822373,1
94,773,14,0.0737032290738551,1
94,774,14,0.0846368882797526,1
94,775,14,0.0789337530297485,1
95,773,14,0.0766169615888604,1
95,774,14,0.0870954397487476,1
95,775,14,0.0802310606398212,1
95,776,14,0.0713706246243812,1
95,777,14,0.0725834584238149,1
95,778,14,0.070179815231224,1
96,773,14,0.068244961855669,1
96,774,14,0.0729816946695881,1
96,777,14,0.068090946745908,1
79,784,15,0.0699831289573851,1
79,785,15,0.0756024912005399,1
80,784,15,0.0722757396726439,1
80,785,15,0.074968329658486,1
80,786,15,0.0726717297524248,1
81,783,15,0.0698754807034815,1
81,784,15,0.0777151151373906,1
81,785,15,0.0776069517627527,1
81,786,15,0.0710202406989082,1
82,781,15,0.069861578433433,1
82,783,15,0.0729986217765062,1
82,784,15,0.0802535222997443,1
82,785,15,0.0781969327171819,1
82,786,15,0.0691194212304687,1
83,782,15,0.069412147572363,1
83,783,15,0.0739663838917386,1
83,784,15,0.0780830191576037,1
83,785,15,0.0746227315640206,1
84,783,15,0.0719227741537237,1
84,784,15,0.0723347808944739,1
84,785,15,0.0704805139649471,1
85,784,15,0.0775463951276,1
85,785,15,0.0799790348257076,1
85,786,15,0.072385011155838,1
86,779,15,0.0751659982555856,1
86,780,15,0.0733740729144534,1
86,783,15,0.0794048009923286,1
86,784,15,0.0957003159822461,1
86,785,15,0.10446776671538,1
86,786,15,0.0889117434781163,1
86,787,15,0.0716298261901182,1
87,779,15,0.0798281463790079,1
87,783,15,0.0861630292913463,1
87,784,15,0.110878036948197,1
87,785,15,0.121528313862728,1
87,786,15,0.100363512316465,1
87,787,15,0.0751443931336275,1
88,776,15,0.0683679020076483,1
88,782,15,0.0678130930177708,1
88,783,15,0.0851859231255859,1
88,784,15,0.103720422366418,1
88,785,15,0.107123549527828,1
88,786,15,0.086068708288997,1
89,775,15,0.072079927906098,1
89,776,15,0.074269903809948,1
89,777,15,0.0713224069277461,1
89,783,15,0.0782174596794636,1
89,784,15,0.0860854616924117,1
89,785,15,0.0817078399075677,1
90,774,15,0.0694473494857945,1
90,775,15,0.0733631775119467,1
90,776,15,0.0774919001457384,1
90,777,15,0.073805821956832,1
90,778,15,0.0679805312155019,1
91,774,15,0.0704432276094747,1
91,775,15,0.0757238380721087,1
91,776,15,0.0828839204415912,1
91,777,15,0.0758051253219265,1
92,774,15,0.0695286786640442,1
92,775,15,0.0751218955350485,1
92,776,15,0.0803919040941988,1
92,777,15,0.0708382772944268,1
93,774,15,0.0735279742184708,1
93,775,15,0.0730446472151327,1
93,776,15,0.0687523378095648,1
94,773,15,0.0740380096329015,1
94,774,15,0.0899537249075107,1
94,775,15,0.0820741865860261,1
95,773,15,0.0772998080300758,1
95,774,15,0.0939888513018467,1
95,775,15,0.0846308086571334,1
95,776,15,0.0710774849879443,1
95,777,15,0.074813140552633,1
95,778,15,0.0756438386241264,1
96,773,15,0.0688219989042064,1
96,774,15,0.0775727142032539,1
96,775,15,0.0719263440602075,1
96,776,15,0.0696022690517284,1
96,777,15,0.0771605637078803,1
96,778,15,0.0727338976373161,1
79,785,16,0.0753459311260098,1
80,784,16,0.0700027035452861,1
80,785,16,0.0759206621107951,1
80,786,16,0.0765033654874092,1
81,784,16,0.0767440885942494,1
81,785,16,0.0796982940255483,1
81,786,16,0.0744515856949582,1
82,783,16,0.0718005108464301,1
82,784,16,0.0820313956264285,1
82,785,16,0.0807313866273891,1
82,786,16,0.0709307354764464,1
83,783,16,0.074369843222166,1
83,784,16,0.0804750781234501,1
83,785,16,0.0759368944036996,1
84,784,16,0.0722608490895588,1
85,785,16,0.0760782591065919,1
86,784,16,0.0869519307060547,1
86,785,16,0.0970623131728974,1
86,786,16,0.0868447796035573,1
87,783,16,0.0801155418202805,1
87,784,16,0.0992999077957845,1
87,785,16,0.110606712075877,1
87,786,16,0.0950868970344092,1
87,787,16,0.0735712862885786,1
88,783,16,0.0797598329839617,1
88,784,16,0.0950265799902956,1
88,785,16,0.0990213412843057,1
88,786,16,0.0823565206665959,1
89,775,16,0.076586701240612,1
89,776,16,0.0765357342368024,1
89,777,16,0.072901365783927,1
89,778,16,0.0707783615653038,1
89,780,16,0.0684733040955596,1
89,783,16,0.074572938556303,1
89,784,16,0.0799837847180593,1
89,785,16,0.0753871168256449,1
90,774,16,0.0702331961147534,1
90,775,16,0.0764093679329628,1
90,776,16,0.0780646185657946,1
90,777,16,0.0754470265649919,1
90,778,16,0.0712510087980705,1
90,779,16,0.070240916935991,1
90,780,16,0.0691107420450744,1
91,774,16,0.0689565053136021,1
91,775,16,0.0741478920732455,1
91,776,16,0.078523597129776,1
91,777,16,0.0750394822073465,1
91,778,16,0.0683403071097107,1
91,779,16,0.0678012212817795,1
91,780,16,0.0685988018818822,1
91,781,16,0.0685884874876455,1
92,775,16,0.0708394213416389,1
92,776,16,0.0741518692844959,1
92,777,16,0.068737950367662,1
93,774,16,0.0679989976948467,1
93,775,16,0.067975829241358,1
94,773,16,0.0691227695152412,1
94,774,16,0.0845453704925618,1
94,775,16,0.077877204465172,1
94,777,16,0.0707383438719848,1
94,778,16,0.0747988729062498,1
95,773,16,0.0743876987443609,1
95,774,16,0.0913601602461539,1
95,775,16,0.0828552953021852,1
95,776,16,0.0719471345726324,1
95,777,16,0.0819144392606527,1
95,778,16,0.0844640952222959,1
96,774,16,0.0772619706152132,1
96,775,16,0.0727473147355102,1
96,776,16,0.0702564903535377,1
96,777,16,0.0796516456502199,1
96,778,16,0.0764865701555626,1
80,785,17,0.0797046491778625,1
81,784,17,0.0780818511512877,1
81,785,17,0.0830785162836133,1
81,786,17,0.080234918055552,1
82,783,17,0.0721032580835381,1
82,784,17,0.0814331487811477,1
82,785,17,0.0817903730307893,1
83,784,17,0.0787543412698344,1
86,785,17,0.0861089955222352,1
87,784,17,0.087178901287246,1
87,785,17,0.0938557644693581,1
87,786,17,0.0854228187655752,1
87,787,17,0.0711831985442065,1
88,783,17,0.0766059523806101,1
88,784,17,0.0856574622497963,1
88,785,17,0.087553256296189,1
88,786,17,0.0767341575456754,1
89,776,17,0.0781152561319253,1
89,777,17,0.0758323368742014,1
89,781,17,0.0696600823694825,1
89,782,17,0.0680361283161436,1
89,783,17,0.0721993760186812,1
89,784,17,0.0744519870099489,1
89,785,17,0.0701724298374413,1
90,775,17,0.0774860840732623,1
90,776,17,0.0784011181905471,1
90,777,17,0.0776335044396699,1
90,778,17,0.0757160633428873,1
90,779,17,0.07433770208426,1
90,780,17,0.072556845849138,1
90,781,17,0.0705780035587895,1
91,775,17,0.073172564870951,1
91,776,17,0.075914846038319,1
91,777,17,0.0758730913099659,1
91,778,17,0.072972967565986,1
91,779,17,0.0723585662948885,1
91,780,17,0.0722259167160464,1
91,781,17,0.0707985291410268,1
92,776,17,0.0710978442364986,1
92,777,17,0.0709338741190597,1
92,778,17,0.0688968471448463,1
92,779,17,0.0695956922777029,1
92,780,17,0.0712694752774153,1
92,781,17,0.0700092503704317,1
93,777,17,0.070759913055287,1
93,778,17,0.0722320682159773,1
93,779,17,0.0700644281867549,1
93,780,17,0.0698093595664437,1
93,781,17,0.0683004511403431,1
94,774,17,0.0740702705663271,1
94,775,17,0.0712835033327593,1
94,776,17,0.0693998924907089,1
94,777,17,0.0800727388811309,1
94,778,17,0.0848656977221697,1
94,779,17,0.0744517773677896,1
95,773,17,0.0698761156197353,1
95,774,17,0.0827823038920989,1
95,775,17,0.0773793402755316,1
95,776,17,0.0725360193980572,1
95,777,17,0.0839756110218395,1
95,778,17,0.0880256459685885,1
95,779,17,0.0731501451394597,1
96,774,17,0.0748000169534619,1
96,775,17,0.0713343026228414,1
96,776,17,0.0685303267628845,1
96,777,17,0.0747376873446192,1
96,778,17,0.0751912571408911,1
81,785,18,0.0867952381664309,1
82,784,18,0.0813347487413564,1
88,785,18,0.0848222119485585,1
88,786,18,0.0781271697963486,1
88,787,18,0.0710553108372681,1
89,783,18,0.0774088519017826,1
89,784,18,0.0771724534131996,1
89,785,18,0.0727017564994101,1
90,776,18,0.0813199000867032,1
90,777,18,0.0820182840068094,1
90,781,18,0.0771285663245977,1
90,782,18,0.0743482440899839,1
90,783,18,0.0719163650934257,1
90,784,18,0.0678799089688222,1
91,776,18,0.0778159290569016,1
91,777,18,0.0802874843295481,1
91,779,18,0.0786734134065754,1
91,780,18,0.0775220766371232,1
91,781,18,0.0749042031168494,1
91,782,18,0.0697332055546403,1
92,778,18,0.0785817279056571,1
92,779,18,0.0769551024122313,1
92,780,18,0.076637530479574,1
92,781,18,0.0736650622213137,1
93,776,18,0.070972927458446,1
93,777,18,0.0792866466713569,1
93,778,18,0.082439784542487,1
93,779,18,0.078966325431525,1
93,780,18,0.0781971184002372,1
93,781,18,0.0747411434453594,1
94,775,18,0.0700263451910772,1
94,776,18,0.0738913379884914,1
94,777,18,0.0863237888888601,1
94,778,18,0.092077555715219,1
94,779,18,0.0837477479640272,1
94,780,18,0.077578524285954,1
94,781,18,0.0721023476375892,1
95,774,18,0.0753335203101803,1
95,775,18,0.0751580677921887,1
95,776,18,0.0745570117419735,1
95,777,18,0.0826339071922067,1
95,778,18,0.087953301454308,1
95,779,18,0.0797749152398781,1
95,780,18,0.071526730165959,1
96,774,18,0.0707605180226609,1
96,775,18,0.0709881175303301,1
96,776,18,0.0687934516318881,1
96,777,18,0.0703900803272085,1
96,778,18,0.0738405267188573,1
96,779,18,0.0710100760490709,1
89,785,19,0.0783759012336734,1
89,786,19,0.0753139337427273,1
89,787,19,0.0736177849195075,1
89,788,19,0.0726660394652443,1
89,789,19,0.0722795551599428,1
89,790,19,0.0717209187032145,1
90,783,19,0.0758941753214138,1
90,784,19,0.0729670017491104,1
90,785,19,0.068844616298305,1
90,788,19,0.0684067696639793,1
90,789,19,0.0710189828459525,1
90,790,19,0.0700744131433127,1
91,781,19,0.076898792528248,1
91,782,19,0.0725998823895507,1
91,783,19,0.0693292610523586,1
91,789,19,0.0685437618304065,1
92,779,19,0.0827472517230669,1
92,780,19,0.0806210908925025,1
92,781,19,0.0759741088818603,1
92,782,19,0.0702856725421098,1
93,778,19,0.0864046987827913,1
93,779,19,0.0854092998411895,1
93,780,19,0.0850275774077917,1
93,781,19,0.0800329308299711,1
93,782,19,0.0722657966445179,1
94,776,19,0.0757496420270284,1
94,777,19,0.0840030322162737,1
94,778,19,0.0892666976026616,1
94,779,19,0.0897553854555014,1
94,780,19,0.0880993801108961,1
94,781,19,0.081551410918087,1
94,782,19,0.0730971176527132,1
94,783,19,0.0680331813463617,1
95,777,19,0.0789447562482228,1
95,778,19,0.0833430906784039,1
95,779,19,0.0861364346859973,1
95,780,19,0.0836149306714577,1
95,781,19,0.0778136229931495,1
95,782,19,0.0721742009902393,1
95,783,19,0.0680382726559443,1
96,775,19,0.0704116495105107,1
96,776,19,0.0709846793989178,1
96,777,19,0.070768077119947,1
96,778,19,0.0739274683171997,1
96,779,19,0.0774741224906313,1
96,781,19,0.0707511140743731,1
96,782,19,0.0686930749660236,1
97,779,19,0.0677440069416233,1
90,787,20,0.0821333835420315,1
90,788,20,0.0823483625917119,1
90,789,20,0.0819778829678276,1
90,790,20,0.0795223323765984,1
91,788,20,0.077762039042414,1
91,789,20,0.0800669228086548,1
91,790,20,0.0762558439848322,1
92,789,20,0.0760985464778344,1
