x,y,z,signal,cytoplasm.p
177,706,1,0.0700847754557573,1
177,710,1,0.0710494228874803,1
177,711,1,0.0744872608006922,1
177,712,1,0.0739151533377859,1
177,713,1,0.0751319942973499,1
177,714,1,0.0713920800019397,1
177,716,1,0.0687908101406812,1
177,717,1,0.0698907007242454,1
178,711,1,0.0693974905905411,1
178,712,1,0.0722247367301784,1
178,713,1,0.0746797722006734,1
178,714,1,0.0706519832819123,1
178,716,1,0.0716008296846014,1
178,717,1,0.0740077912130849,1
186,693,1,0.0686748181288381,1
187,690,1,0.0741102283618864,1
187,691,1,0.0739846407289241,1
187,692,1,0.0735482555999374,1
187,693,1,0.072880024212112,1
187,694,1,0.0679790158021791,1
188,689,1,0.0727670929757945,1
188,690,1,0.0880087128718944,1
188,691,1,0.0885557171836706,1
188,692,1,0.082715086626057,1
188,693,1,0.0753429002993642,1
188,694,1,0.0686160464469272,1
189,689,1,0.0713452758924359,1
189,690,1,0.0892502137391661,1
189,691,1,0.0936569757841503,1
189,692,1,0.0861829512862541,1
189,693,1,0.0750479577403575,1
189,694,1,0.0687848922420134,1
190,690,1,0.0808513498607066,1
190,691,1,0.0869617120102292,1
190,692,1,0.0805427266533627,1
190,693,1,0.0700826251261806,1
191,690,1,0.0688260240336647,1
191,691,1,0.0725157859347985,1
220,713,1,0.0702164786499946,1
220,714,1,0.0693408572586549,1
221,713,1,0.0776588651511671,1
221,714,1,0.0760841710154836,1
222,713,1,0.0686826707251472,1
222,714,1,0.0689837947329648,1
176,711,2,0.0682902445620741,1
177,710,2,0.0740581592392965,1
177,711,2,0.0819816984551266,1
177,712,2,0.0793411476429944,1
177,713,2,0.0742906883325968,1
178,711,2,0.074461295121821,1
178,712,2,0.0768405060181915,1
178,713,2,0.0755816228210273,1
178,717,2,0.0709094597921672,1
181,698,2,0.0717325508481667,1
181,699,2,0.0725200446655199,1
182,697,2,0.07000388952093,1
182,698,2,0.0716619134200404,1
183,696,2,0.067915044994718,1
183,697,2,0.0715233459425305,1
183,698,2,0.0685111415104222,1
187,690,2,0.0695340395135459,1
187,691,2,0.0700379473871495,1
187,692,2,0.0719309621774877,1
187,693,2,0.0727887160670805,1
188,690,2,0.0829435306921392,1
188,691,2,0.0859052652718443,1
188,692,2,0.0808310205610321,1
188,693,2,0.0734358454741301,1
189,690,2,0.0869188671426478,1
189,691,2,0.0954592873968309,1
189,692,2,0.0854256938580454,1
189,693,2,0.070866567006378,1
190,690,2,0.0780795690466395,1
190,691,2,0.0877159565811202,1
190,692,2,0.079160376203933,1
191,691,2,0.0711823539857934,1
220,713,2,0.0872584515020298,1
220,714,2,0.0894879179989126,1
221,712,2,0.0771567362410294,1
221,713,2,0.108362462811877,1
221,714,2,0.10431170909201,1
221,715,2,0.0701905309404514,1
222,712,2,0.0750731387585753,1
222,713,2,0.0942201764501751,1
222,714,2,0.0867027620150833,1
176,707,3,0.0737579935956357,1
177,707,3,0.0678390167682101,1
177,710,3,0.0690995231946648,1
177,711,3,0.0819188417459977,1
177,712,3,0.0790483913522202,1
177,713,3,0.0714821901917754,1
178,711,3,0.0756761774246398,1
178,712,3,0.0788770657898785,1
178,713,3,0.0767116419777684,1
178,718,3,0.06843520912033,1
180,698,3,0.0710274823380674,1
180,699,3,0.0729097454805224,1
181,696,3,0.0682891903615017,1
181,697,3,0.075978547305861,1
181,698,3,0.0805001034074925,1
181,699,3,0.0768018659733477,1
182,696,3,0.0732480240687408,1
182,697,3,0.0813237095842262,1
182,698,3,0.0799560700246022,1
182,699,3,0.0698247233418312,1
183,696,3,0.0740946309852357,1
183,697,3,0.0804819064680668,1
183,698,3,0.0747873246181614,1
184,695,3,0.069948088767905,1
184,696,3,0.0715838247105956,1
184,697,3,0.0717391276221921,1
184,698,3,0.0702368558678769,1
184,699,3,0.0686407722421706,1
185,695,3,0.0699051660332359,1
185,698,3,0.0678386993100832,1
185,699,3,0.0749602135120337,1
186,692,3,0.0680415131247492,1
186,693,3,0.0688188003638334,1
187,690,3,0.0698704373121067,1
187,691,3,0.0737155620225969,1
187,692,3,0.0746266668468391,1
187,693,3,0.0751706762706256,1
187,694,3,0.0697825014109516,1
188,690,3,0.07907651934022,1
188,691,3,0.0870415736933639,1
188,692,3,0.080956129011916,1
188,693,3,0.0744336582954516,1
188,694,3,0.0685010667072246,1
189,690,3,0.086786726694764,1
189,691,3,0.100667613242944,1
189,692,3,0.0868054806833558,1
189,693,3,0.0701954126078747,1
190,690,3,0.0755648634278367,1
190,691,3,0.0884203662158617,1
190,692,3,0.0769348809285245,1
191,691,3,0.0713053899741884,1
199,733,3,0.069140355497517,1
199,734,3,0.0763801198568549,1
220,712,3,0.0703568131114184,1
220,713,3,0.100613657340921,1
220,714,3,0.103787352123213,1
220,715,3,0.0700431165638198,1
221,712,3,0.106928881808494,1
221,713,3,0.143456164950572,1
221,714,3,0.132891565791651,1
221,715,3,0.0820814162456333,1
222,712,3,0.108548409417385,1
222,713,3,0.1268562435556,1
222,714,3,0.105620870468746,1
223,712,3,0.0737116267397784,1
223,713,3,0.0749048799615351,1
176,707,4,0.0772623659404279,1
177,711,4,0.0769589418586342,1
177,712,4,0.0769933351523085,1
177,713,4,0.067749637331044,1
178,711,4,0.0733804759849755,1
178,712,4,0.0798980290953608,1
178,713,4,0.0764472832149131,1
178,718,4,0.0739838620580468,1
178,719,4,0.0728337472028944,1
179,718,4,0.0725321380232225,1
179,719,4,0.0714974162023153,1
180,697,4,0.0681796253792846,1
180,698,4,0.0751204519990374,1
180,699,4,0.0765517149591157,1
181,696,4,0.0765962848821792,1
181,697,4,0.0860363155804999,1
181,698,4,0.0849437504929586,1
181,699,4,0.0774794893299089,1
182,696,4,0.0828504675427457,1
182,697,4,0.0942138332774128,1
182,698,4,0.0873606310904641,1
182,699,4,0.0716080473646567,1
183,695,4,0.0683540895842396,1
183,696,4,0.0810191893734282,1
183,697,4,0.0923012678582775,1
183,698,4,0.0849592340638656,1
183,699,4,0.0692066084096263,1
184,694,4,0.0697120316965528,1
184,695,4,0.0748092352186944,1
184,696,4,0.0762761553151787,1
184,697,4,0.0787768208990855,1
184,698,4,0.0779574135553135,1
184,699,4,0.0771683564064296,1
185,694,4,0.0724298625983725,1
185,695,4,0.0768562471494656,1
185,696,4,0.071525843679114,1
185,698,4,0.0732562120925048,1
185,699,4,0.0869647308573229,1
186,691,4,0.0694191017022752,1
186,692,4,0.0682406552067397,1
186,693,4,0.0693767599758761,1
186,694,4,0.0699647283655761,1
186,695,4,0.072516205219117,1
186,696,4,0.0687090616781129,1
187,691,4,0.0746641748240228,1
187,692,4,0.0741244660593896,1
187,693,4,0.075485564783644,1
187,694,4,0.0711951122086297,1
187,695,4,0.0690588645953159,1
187,696,4,0.0683088847449223,1
188,690,4,0.0738072714826191,1
188,691,4,0.0848592347538878,1
188,692,4,0.0784313785387956,1
188,693,4,0.0743832363612561,1
188,694,4,0.0695661207536921,1
189,690,4,0.0842238213486541,1
189,691,4,0.100102681531661,1
189,692,4,0.0852016882159639,1
189,693,4,0.069830617281395,1
190,690,4,0.0737883976985076,1
190,691,4,0.0869664858616849,1
190,692,4,0.0739021435443584,1
190,697,4,0.0693004502298972,1
191,691,4,0.0703273553931512,1
191,697,4,0.0696226642389386,1
198,734,4,0.0687022213539443,1
199,733,4,0.0769715143984152,1
199,734,4,0.0862308215758823,1
200,733,4,0.0708878127417773,1
200,734,4,0.0780774247068388,1
220,712,4,0.0755202455865653,1
220,713,4,0.102889221153742,1
220,714,4,0.107991132639804,1
220,715,4,0.0720969448596557,1
221,711,4,0.0693357300104165,1
221,712,4,0.127279181637513,1
221,713,4,0.162831305291023,1
221,714,4,0.152369754238054,1
221,715,4,0.0921178549280091,1
222,711,4,0.0761398040547812,1
222,712,4,0.134901495019334,1
222,713,4,0.150707112221663,1
222,714,4,0.123900193273299,1
222,715,4,0.0732815847835539,1
223,712,4,0.0847710772310214,1
223,713,4,0.0834752251365118,1
176,707,5,0.0704911098786548,1
177,711,5,0.0692655897336965,1
177,712,5,0.0725066275673258,1
178,711,5,0.0702536691690513,1
178,712,5,0.0793126542786599,1
178,713,5,0.0748177826290171,1
178,718,5,0.0758776315601584,1
178,719,5,0.0748857965352644,1
179,718,5,0.0740082524258353,1
179,719,5,0.0732226034594838,1
180,698,5,0.0694026238285556,1
180,699,5,0.0721187596237731,1
181,696,5,0.0772134234808994,1
181,697,5,0.0840528072546633,1
181,698,5,0.0789035945076917,1
181,699,5,0.072861048601809,1
182,696,5,0.0862579073428616,1
182,697,5,0.0959359837181597,1
182,698,5,0.0866311542432484,1
182,699,5,0.0705987162041266,1
183,695,5,0.0687349614694483,1
183,696,5,0.0848700762484107,1
183,697,5,0.0971984068729277,1
183,698,5,0.0913418255418807,1
183,699,5,0.072919508815369,1
184,694,5,0.0717077951040434,1
184,695,5,0.0755623177730454,1
184,696,5,0.0788132746756968,1
184,697,5,0.0830699568937386,1
184,698,5,0.0835784289766386,1
184,699,5,0.0792209388288617,1
185,694,5,0.0737046127121063,1
185,695,5,0.077698643253447,1
185,696,5,0.074058308983696,1
185,697,5,0.0713851737902354,1
185,698,5,0.077654217085007,1
185,699,5,0.0887342424567397,1
185,700,5,0.0703448754878912,1
186,694,5,0.07058779085274,1
186,695,5,0.0745809888152194,1
186,696,5,0.0720370770487406,1
186,699,5,0.0700990191430365,1
187,691,5,0.0700748264378553,1
187,692,5,0.0705291868845565,1
187,693,5,0.0727909861921767,1
187,694,5,0.0717302927026224,1
187,695,5,0.0717528382194092,1
187,696,5,0.0704370940788717,1
188,691,5,0.0771155086129624,1
188,692,5,0.0742464598267642,1
188,693,5,0.0742081851582552,1
188,694,5,0.0721795438704131,1
188,695,5,0.0694302906038049,1
189,690,5,0.0750638605955831,1
189,691,5,0.0897533609112203,1
189,692,5,0.080733165590855,1
189,693,5,0.0710390186466039,1
190,690,5,0.0694336808170093,1
190,691,5,0.0815918239366207,1
190,692,5,0.0725116649689246,1
190,697,5,0.0727544245995979,1
191,691,5,0.0685226299007509,1
191,697,5,0.0723404771714304,1
199,733,5,0.0745187730121203,1
199,734,5,0.0840410433346396,1
200,733,5,0.0697374223569299,1
200,734,5,0.0803679988982646,1
220,712,5,0.0708670401986804,1
220,713,5,0.0894257860526773,1
220,714,5,0.0956832331411526,1
220,715,5,0.0690423567727164,1
221,712,5,0.118939269134244,1
221,713,5,0.14527729643938,1
221,714,5,0.139796699336342,1
221,715,5,0.0900484292555226,1
222,711,5,0.0728170836461194,1
222,712,5,0.130406048351197,1
222,713,5,0.142545179921849,1
222,714,5,0.120878123680153,1
222,715,5,0.074698298577778,1
223,712,5,0.081876068755728,1
223,713,5,0.0808142851269454,1
223,714,5,0.0679946850561415,1
178,712,6,0.0719161494614904,1
178,713,6,0.0690410809504327,1
178,718,6,0.0769447520793387,1
178,719,6,0.0747086129720147,1
179,718,6,0.0700632062724551,1
179,719,6,0.068608780848664,1
181,696,6,0.0713603761176802,1
181,697,6,0.0762303455084874,1
181,698,6,0.0703083318646403,1
182,696,6,0.0838181697602182,1
182,697,6,0.0934745212180387,1
182,698,6,0.0832989759783149,1
182,699,6,0.0694353819133875,1
183,696,6,0.0845548103795055,1
183,697,6,0.0986661775176011,1
183,698,6,0.0936654393376094,1
183,699,6,0.0754386528581726,1
184,694,6,0.0704724097980468,1
184,695,6,0.0729464088992929,1
184,696,6,0.0785654716536487,1
184,697,6,0.0876095901392762,1
184,698,6,0.0885408325903615,1
184,699,6,0.0790290084371505,1
185,694,6,0.0714136731443458,1
185,695,6,0.0744038711395055,1
185,696,6,0.077073538252674,1
185,697,6,0.083610480267905,1
185,698,6,0.0871036098031836,1
185,699,6,0.0859128543180103,1
185,700,6,0.0678098166103101,1
186,694,6,0.0699321799229034,1
186,695,6,0.0740667725371551,1
186,696,6,0.0765818435322926,1
186,697,6,0.0800421970134114,1
186,698,6,0.0759349776753862,1
186,699,6,0.0709156172818742,1
187,693,6,0.0691855723163863,1
187,694,6,0.0715398178264742,1
187,695,6,0.0724353911616016,1
187,696,6,0.0714554817806828,1
187,697,6,0.0714127746779489,1
188,692,6,0.0694379395477307,1
188,693,6,0.0724368706362685,1
188,694,6,0.073130480704919,1
188,695,6,0.0705977578399699,1
189,691,6,0.0760292567493035,1
189,692,6,0.0760129885177432,1
189,693,6,0.071683368797599,1
190,691,6,0.0752577855826955,1
190,692,6,0.0732192971031431,1
190,697,6,0.0678977465216892,1
199,734,6,0.0726084956874092,1
200,734,6,0.0744900041180908,1
220,713,6,0.0689669814317903,1
220,714,6,0.0758694794750503,1
221,712,6,0.0905788778264914,1
221,713,6,0.109040936716627,1
221,714,6,0.110045026823175,1
221,715,6,0.0819823693100363,1
222,712,6,0.100422134253976,1
222,713,6,0.112510202984403,1
222,714,6,0.100722180102118,1
222,715,6,0.0698552951584305,1
223,713,6,0.0695257616431422,1
177,718,7,0.0743297117231033,1
177,719,7,0.0753998570791533,1
178,718,7,0.0792722292805742,1
178,719,7,0.0771945916252198,1
181,697,7,0.0739345362528556,1
181,698,7,0.0689193207843214,1
182,696,7,0.0807455704169085,1
182,697,7,0.0929815446855976,1
182,698,7,0.0829295864936589,1
182,699,7,0.0717811938188962,1
183,695,7,0.0706405308302395,1
183,696,7,0.0837056278593394,1
183,697,7,0.0964933144037245,1
183,698,7,0.0901364609930934,1
183,699,7,0.0772800417693434,1
183,724,7,0.0804791751302201,1
183,725,7,0.0767987632693903,1
184,694,7,0.067876452868082,1
184,695,7,0.0728414380752521,1
184,696,7,0.0786341444352537,1
184,697,7,0.0876163226474772,1
184,698,7,0.0865634338360241,1
184,699,7,0.0775538284395905,1
185,694,7,0.0678917148172778,1
185,695,7,0.0714652391257534,1
185,696,7,0.0809644667800795,1
185,697,7,0.0944741189926021,1
185,698,7,0.0947912776307168,1
185,699,7,0.0814231997632457,1
186,694,7,0.0693143045817378,1
186,695,7,0.0724359841494235,1
186,696,7,0.0821494541109845,1
186,697,7,0.0948677011824393,1
186,698,7,0.0906181108591572,1
186,699,7,0.0718918848789974,1
187,693,7,0.0679405913892706,1
187,694,7,0.070643903074116,1
187,695,7,0.0715460591730448,1
187,696,7,0.0739047910253414,1
187,697,7,0.0776201472392356,1
187,698,7,0.0703963336533311,1
188,693,7,0.0709822056214383,1
188,694,7,0.0719347956341146,1
188,695,7,0.0702152267868149,1
189,691,7,0.069416819597627,1
189,692,7,0.0749730196530779,1
189,693,7,0.071865709557967,1
190,691,7,0.0744889139788625,1
190,692,7,0.0774354584866836,1
200,734,7,0.0693971192244304,1
221,713,7,0.076440868164839,1
221,714,7,0.0806281947668142,1
221,715,7,0.0723913842774802,1
222,713,7,0.0808386395560781,1
222,714,7,0.0761546886480903,1
177,718,8,0.0754581855176417,1
177,719,8,0.0793186740035193,1
178,718,8,0.0791581719663725,1
178,719,8,0.0797460445196569,1
181,697,8,0.0740722771412802,1
181,698,8,0.0725502331364566,1
182,696,8,0.0763805930491573,1
182,697,8,0.0924021716244282,1
182,698,8,0.0857803604733437,1
182,699,8,0.0760088316132134,1
182,700,8,0.0683317237607321,1
182,724,8,0.0740009988071241,1
183,695,8,0.0726772044076701,1
183,696,8,0.0814093154625252,1
183,697,8,0.0912454740054744,1
183,698,8,0.0852787646532682,1
183,699,8,0.0793687964489158,1
183,700,8,0.0713414184767051,1
183,724,8,0.0922383991695966,1
183,725,8,0.086303094212851,1
184,695,8,0.0724474665499762,1
184,696,8,0.078798593734771,1
184,697,8,0.0861562488649374,1
184,698,8,0.0831136103810772,1
184,699,8,0.0777689033256865,1
184,700,8,0.0707757080945449,1
184,725,8,0.0703733688522257,1
185,695,8,0.0696582255389289,1
185,696,8,0.0833044027153523,1
185,697,8,0.101276018748286,1
185,698,8,0.099069475124077,1
185,699,8,0.0793164997148387,1
185,728,8,0.0682648119732651,1
185,729,8,0.0765268813479047,1
186,695,8,0.0717270821826974,1
186,696,8,0.0875071889291306,1
186,697,8,0.109155113826348,1
186,698,8,0.104694731306796,1
186,699,8,0.0755306558172177,1
186,729,8,0.0743808045122085,1
187,694,8,0.0688573445722615,1
187,695,8,0.0702289493635839,1
187,696,8,0.0760459981731662,1
187,697,8,0.0839790072248199,1
187,698,8,0.0778626552993177,1
188,693,8,0.0700297773327135,1
188,694,8,0.0707106231887516,1
188,695,8,0.0702185211636036,1
188,696,8,0.0682267948651232,1
189,692,8,0.0742289097831442,1
189,693,8,0.0727544964769096,1
189,694,8,0.069474093835543,1
190,691,8,0.0750447651897604,1
190,692,8,0.0805043920870938,1
190,693,8,0.0710966522710787,1
192,732,8,0.0682418471721597,1
200,734,8,0.068332652176009,1
201,734,8,0.06912838792511,1
201,735,8,0.0699708199677472,1
221,715,8,0.0707862501002688,1
177,718,9,0.0721292177726333,1
177,719,9,0.0783080790002575,1
178,718,9,0.0751948210575989,1
178,719,9,0.0795825955127282,1
181,697,9,0.0725955278224136,1
181,698,9,0.0773968543804957,1
181,699,9,0.0681980559199735,1
182,696,9,0.0727883566805217,1
182,697,9,0.0891241768730053,1
182,698,9,0.0913146499282616,1
182,699,9,0.0782876239152875,1
182,724,9,0.0737173529656148,1
183,695,9,0.0717457043962176,1
183,696,9,0.0802366790496899,1
183,697,9,0.0865036498819727,1
183,698,9,0.08455758963556,1
183,699,9,0.0787943589631535,1
183,700,9,0.0708924368488335,1
183,724,9,0.0935683450689816,1
183,725,9,0.0888487669734678,1
184,695,9,0.0703956807677494,1
184,696,9,0.0788892190453409,1
184,697,9,0.0839026136219773,1
184,698,9,0.0806476016409878,1
184,699,9,0.0776762654503876,1
184,700,9,0.0722238442535575,1
184,725,9,0.0698729290589142,1
185,696,9,0.0801569910700586,1
185,697,9,0.096682231938118,1
185,698,9,0.0954595209980941,1
185,699,9,0.0803375348976328,1
185,700,9,0.0683567430549985,1
185,728,9,0.0697541937296725,1
185,729,9,0.0861060665217812,1
185,730,9,0.069695002763443,1
186,695,9,0.068567601138805,1
186,696,9,0.0832687934971542,1
186,697,9,0.10582893132717,1
186,698,9,0.104799947711652,1
186,699,9,0.0797376708128375,1
186,728,9,0.07335402513425,1
186,729,9,0.0934702564975413,1
186,730,9,0.0753807676631066,1
187,696,9,0.073257308221509,1
187,697,9,0.0823034512514175,1
187,698,9,0.0791262943786096,1
187,729,9,0.0688824956415994,1
188,694,9,0.0679701868723853,1
188,695,9,0.0677770165970463,1
188,696,9,0.0685838993192452,1
189,692,9,0.0697135950280834,1
189,693,9,0.0708912029549817,1
189,694,9,0.0697242867782068,1
190,691,9,0.0710870686295115,1
190,692,9,0.0752441288934622,1
190,693,9,0.0703263251516827,1
192,732,9,0.0689737259195432,1
199,733,9,0.0693970653164466,1
200,734,9,0.0712177595516083,1
201,734,9,0.0762375571987667,1
201,735,9,0.0772230430611225,1
221,715,9,0.0724578288624208,1
177,719,10,0.0753516693313982,1
178,718,10,0.0709160185968648,1
178,719,10,0.0812098199837519,1
181,698,10,0.0785172839058936,1
181,699,10,0.0709322928182011,1
182,696,10,0.0723920551323899,1
182,697,10,0.0836837771565661,1
182,698,10,0.09610595559113,1
182,699,10,0.0854521986167547,1
182,700,10,0.0695128716452343,1
183,695,10,0.0691000622745029,1
183,696,10,0.0813176778798148,1
183,697,10,0.084117191356667,1
183,698,10,0.0869965665166539,1
183,699,10,0.0808680793050173,1
183,700,10,0.0719121363115841,1
183,724,10,0.0830140842634018,1
183,725,10,0.0803551328594606,1
184,696,10,0.0800081091983121,1
184,697,10,0.0850345315377039,1
184,698,10,0.0823149815701781,1
184,699,10,0.0780835941760977,1
184,700,10,0.0712784659311605,1
185,696,10,0.0776392426450582,1
185,697,10,0.0931356196931184,1
185,698,10,0.0944540712123987,1
185,699,10,0.0839598339519095,1
185,700,10,0.069384085471899,1
185,729,10,0.0810643223354338,1
185,730,10,0.0688230411252269,1
186,696,10,0.0767489762514487,1
186,697,10,0.0948590878845808,1
186,698,10,0.0976105154398695,1
186,699,10,0.0818908036046376,1
186,728,10,0.0720523988956961,1
186,729,10,0.0986564740805143,1
186,730,10,0.0842442944029521,1
187,696,10,0.0695778846737158,1
187,697,10,0.0772642287607575,1
187,698,10,0.0762146283363172,1
187,729,10,0.0740009209400364,1
189,694,10,0.0678796034902473,1
198,733,10,0.0681282989889162,1
199,733,10,0.0697529658255967,1
200,733,10,0.0680185842622997,1
200,734,10,0.0708656625502051,1
201,734,10,0.0764962256744416,1
201,735,10,0.0748941882114117,1
220,720,10,0.0683825829485741,1
221,715,10,0.07003721663448,1
221,716,10,0.068575190184971,1
178,719,11,0.0750592424783029,1
181,698,11,0.0743753538160671,1
181,699,11,0.0735697768650318,1
182,697,11,0.0772356754986632,1
182,698,11,0.0934020748775666,1
182,699,11,0.0912183702691671,1
182,700,11,0.0738418624389007,1
183,696,11,0.0789346814450253,1
183,697,11,0.080795974381776,1
183,698,11,0.0870773446355135,1
183,699,11,0.0834480674922207,1
183,700,11,0.0723847775545748,1
183,724,11,0.0682262977137169,1
184,696,11,0.0790593526422627,1
184,697,11,0.0855636563681813,1
184,698,11,0.0869966024553098,1
184,699,11,0.079351216456416,1
184,700,11,0.0697601295976682,1
185,696,11,0.0762588328830459,1
185,697,11,0.0905490727012174,1
185,698,11,0.0960864948089726,1
185,699,11,0.0848536462928989,1
185,700,11,0.0687673421983934,1
185,729,11,0.0684078897520875,1
186,696,11,0.0713030779206603,1
186,697,11,0.0834085649196359,1
186,698,11,0.0884321301358855,1
186,699,11,0.0781987955375115,1
186,729,11,0.0897887305383793,1
186,730,11,0.0853736486945595,1
187,697,11,0.07109274693714,1
187,698,11,0.0711449478348014,1
187,729,11,0.0713722358741196,1
187,730,11,0.0679606451592499,1
193,706,11,0.0817972433038378,1
193,707,11,0.0731297499522495,1
201,734,11,0.0688904680334281,1
220,720,11,0.069042746108155,1
181,699,12,0.0722664794789796,1
181,715,12,0.0714137090830017,1
181,716,12,0.0702705483577616,1
182,698,12,0.0842207965117845,1
182,699,12,0.0901562572027056,1
182,700,12,0.0752371987226539,1
182,715,12,0.0730416942555748,1
182,716,12,0.0713593338966598,1
183,697,12,0.078385383049049,1
183,698,12,0.0853333973999772,1
183,699,12,0.0853319718332941,1
183,700,12,0.0730129073922173,1
184,696,12,0.0821343478959642,1
184,697,12,0.0933241239329693,1
184,698,12,0.0951410565888159,1
184,699,12,0.081760651762379,1
184,700,12,0.0691628471063201,1
185,696,12,0.0834707567636311,1
185,697,12,0.101842627596843,1
185,698,12,0.103618224808655,1
185,699,12,0.0834430899883817,1
186,696,12,0.0726087712171043,1
186,697,12,0.0850901705667775,1
186,698,12,0.0863011894640895,1
186,699,12,0.0728954778341392,1
186,729,12,0.0713397892576387,1
186,730,12,0.075156222941187,1
192,706,12,0.0725765941405424,1
193,705,12,0.0679421547208012,1
193,706,12,0.0974048025736294,1
193,707,12,0.0849544122942021,1
194,706,12,0.0738205747750695,1
181,715,13,0.0721347343563104,1
181,716,13,0.0724412551522855,1
182,698,13,0.0743927960437194,1
182,699,13,0.0804142160097224,1
182,700,13,0.0723559128241295,1
182,715,13,0.0790534766720268,1
182,716,13,0.0760604095741729,1
183,698,13,0.0810392491331836,1
183,699,13,0.0835328348018826,1
183,700,13,0.0731966617397165,1
184,696,13,0.0840125918987369,1
184,697,13,0.0956459288163522,1
184,698,13,0.0965744758682468,1
184,699,13,0.0849069013911327,1
184,700,13,0.0693450321325126,1
185,695,13,0.0770161801578943,1
185,696,13,0.0899743477062081,1
185,697,13,0.109563892077846,1
185,698,13,0.106350521019466,1
185,699,13,0.083701045680715,1
186,696,13,0.0748541944771965,1
186,697,13,0.0891383367034209,1
186,698,13,0.0857546403752877,1
186,699,13,0.0712711883533454,1
187,697,13,0.0691766894786087,1
192,701,13,0.0688037660261248,1
192,705,13,0.0756414307341827,1
192,706,13,0.0790749380393614,1
193,705,13,0.0775349306963752,1
193,706,13,0.0958557027507064,1
193,707,13,0.0819708030526198,1
194,706,13,0.0748265277019472,1
201,693,13,0.0682833623094736,1
181,715,14,0.0719085544255484,1
181,716,14,0.0744762575822178,1
182,699,14,0.0728910214408104,1
182,700,14,0.0721489001765019,1
182,701,14,0.0683643321011645,1
182,715,14,0.0813959043541071,1
182,716,14,0.0808149140534232,1
182,717,14,0.070711383890301,1
183,698,14,0.0760697057064931,1
183,699,14,0.0806509858644162,1
183,700,14,0.0757469166789577,1
183,701,14,0.0696563387594954,1
184,697,14,0.0912195981732429,1
184,698,14,0.0937743753933486,1
184,699,14,0.0858895540894501,1
184,700,14,0.0707384337186245,1
185,696,14,0.0893826716451768,1
185,697,14,0.107352945968291,1
185,698,14,0.105820761272734,1
185,699,14,0.0849385274083044,1
186,696,14,0.0725643031202324,1
186,697,14,0.0872514494539097,1
186,698,14,0.0842580828672569,1
186,699,14,0.0705836579073141,1
187,697,14,0.068464145728087,1
189,691,14,0.0678540630854707,1
189,700,14,0.0691698970726479,1
190,700,14,0.07168190729226,1
190,701,14,0.0683426610916707,1
191,701,14,0.0701224331773404,1
191,705,14,0.0691872075252287,1
192,701,14,0.0705193097439663,1
192,702,14,0.0726773781111735,1
192,705,14,0.0834003948651999,1
192,706,14,0.0822110290080538,1
193,702,14,0.0679127928389497,1
193,705,14,0.0830362524243019,1
193,706,14,0.0896281326648168,1
193,707,14,0.0742428899202804,1
194,706,14,0.0708463874511031,1
201,693,14,0.0727329213038314,1
201,694,14,0.0689315039886637,1
181,705,15,0.0719379582358318,1
181,706,15,0.0724436870013332,1
181,716,15,0.0681002189191243,1
182,700,15,0.0744108013103138,1
182,715,15,0.0728068471189705,1
182,716,15,0.077250931458083,1
182,717,15,0.0704517450709175,1
183,699,15,0.078494079513749,1
183,700,15,0.0801263234170436,1
183,701,15,0.0730221376370017,1
183,716,15,0.069952191764451,1
183,717,15,0.0685286076971784,1
183,718,15,0.0693128670355027,1
184,698,15,0.0900277046306335,1
184,699,15,0.0859283558582453,1
184,700,15,0.0749837952600651,1
185,697,15,0.0953280154664641,1
185,698,15,0.103649383623301,1
185,699,15,0.0891233383043682,1
185,700,15,0.069509457472926,1
186,697,15,0.0800472763434421,1
186,698,15,0.0840887399207644,1
189,691,15,0.0683698606643936,1
189,700,15,0.0706637831405919,1
190,700,15,0.070920037736547,1
190,701,15,0.067927605554947,1
191,729,15,0.0703280681764927,1
191,730,15,0.0679212384230808,1
192,702,15,0.0693158798928204,1
192,705,15,0.0801208667311262,1
192,706,15,0.0789202940031225,1
193,705,15,0.0799673667420995,1
193,706,15,0.0799986693113684,1
194,698,15,0.0686297211054884,1
198,708,15,0.0722396033541595,1
201,694,15,0.0703611497092275,1
202,693,15,0.0680042926568126,1
202,694,15,0.0710493090817367,1
180,706,16,0.0744106934943462,1
181,705,16,0.0819623754378167,1
181,706,16,0.0825692715196119,1
182,700,16,0.074115307691917,1
182,705,16,0.0723928757316991,1
182,706,16,0.0701867334224804,1
182,716,16,0.0746842405735541,1
182,717,16,0.0718482134223309,1
183,699,16,0.0788592641756674,1
183,700,16,0.084228253782879,1
183,701,16,0.0766493303382537,1
183,715,16,0.070157611131668,1
183,716,16,0.0778743832806856,1
183,717,16,0.0773983757835945,1
183,718,16,0.0704984952724375,1
184,699,16,0.0852797349969768,1
184,700,16,0.0790608620658095,1
184,701,16,0.070771018099953,1
184,715,16,0.0708532517343756,1
184,716,16,0.0719525792789977,1
184,717,16,0.069145925989178,1
185,698,16,0.095204140909432,1
185,700,16,0.0708166422235889,1
189,700,16,0.0682912268853347,1
190,700,16,0.0684823905857205,1
191,729,16,0.0679604834352985,1
192,705,16,0.07102554165065,1
192,706,16,0.0724350078159389,1
193,705,16,0.0711224262771185,1
193,706,16,0.070751150013029,1
194,697,16,0.0706145232229365,1
194,698,16,0.0768609970418174,1
194,699,16,0.0681941386064829,1
195,698,16,0.0707449206460103,1
198,707,16,0.0678249707435382,1
198,708,16,0.081572141532752,1
181,706,17,0.0776038310894674,1
182,700,17,0.0683583243558571,1
182,705,17,0.067813350578138,1
183,699,17,0.0784228850364567,1
183,700,17,0.0839689923193821,1
183,701,17,0.0782129433883751,1
183,715,17,0.0685674274353016,1
183,716,17,0.0794401766092635,1
183,717,17,0.0831124004463294,1
184,699,17,0.0839275011411721,1
184,700,17,0.0833837672470808,1
184,701,17,0.0757934871871983,1
184,715,17,0.0764014674184458,1
184,716,17,0.0786878966848938,1
184,717,17,0.0778699867851166,1
185,700,17,0.0741755947871507,1
194,698,17,0.0737746871012906,1
195,697,17,0.0690429976787462,1
195,698,17,0.0723414954333469,1
198,708,17,0.0723241310727823,1
183,700,18,0.0813624274961577,1
183,701,18,0.0784069821812311,1
183,717,18,0.0850098716299963,1
184,699,18,0.078691346795858,1
184,700,18,0.0905339005986613,1
184,701,18,0.0862174284367921,1
184,715,18,0.0756719067143664,1
184,716,18,0.0819994281920259,1
184,717,18,0.0859511828945032,1
184,718,18,0.0721802566537546,1
185,699,18,0.0731366501741779,1
185,700,18,0.0814490516363733,1
185,701,18,0.0777419253746749,1
185,715,18,0.0702141905555704,1
185,716,18,0.0738404488517695,1
185,717,18,0.076719949797052,1
195,697,18,0.0713205081687606,1
195,698,18,0.0715441783833873,1
196,697,18,0.075540520978256,1
196,698,18,0.0709848291433173,1
183,700,19,0.0721189213477245,1
183,701,19,0.0722145002030294,1
183,717,19,0.0762990123003164,1
184,699,19,0.0724110487120209,1
184,700,19,0.0893724950157876,1
184,701,19,0.0885029412675152,1
184,702,19,0.0687761950872912,1
184,715,19,0.0685895297086659,1
184,716,19,0.0809752184279627,1
184,717,19,0.084806285134229,1
184,718,19,0.0726169592408683,1
185,699,19,0.0694877205758964,1
185,700,19,0.0868682715049489,1
185,701,19,0.0851729612503662,1
185,716,19,0.0801775958994281,1
185,717,19,0.081798045933819,1
185,718,19,0.0710155147656603,1
186,700,19,0.0700703281160947,1
186,717,19,0.0694212340625239,1
196,697,19,0.074201231028343,1
196,698,19,0.0691647818039614,1
184,700,20,0.07742950464936,1
184,701,20,0.078642542101177,1
184,717,20,0.0806247087171941,1
185,700,20,0.0836355714394831,1
185,701,20,0.0827078150380178,1
185,716,20,0.0838249082581952,1
185,717,20,0.0847042612799701,1
185,718,20,0.0734494422656035,1
186,700,20,0.0716512336494689,1
186,701,20,0.069668420137646,1
186,716,20,0.0694352920667478,1
186,717,20,0.0719094349226174,1
192,718,20,0.0690188528917728,1
193,718,20,0.0774134760088388,1
193,719,20,0.0697044606197147,1
185,700,21,0.0763117585436008,1
185,701,21,0.0775269103863386,1
185,717,21,0.0790046839568978,1
186,700,21,0.0712635573787475,1
186,701,21,0.0720806287098875,1
185,701,22,0.0715828843157668,1
185,702,22,0.0732246579526447,1
186,701,22,0.0712012816778886,1
186,702,22,0.072544860307403,1
187,701,22,0.0681201588833601,1
185,702,23,0.0741198539318854,1
186,701,23,0.0685143460405712,1
186,702,23,0.0781870136481598,1
186,703,23,0.0699098799869318,1
187,702,23,0.0682739403918579,1
186,702,24,0.0734942457899302,1
186,703,24,0.0689522286135528,1
