x,y,z,signal,cytoplasm.p
115,823,1,0.0733217941497043,1
115,824,1,0.072558283395373,1
115,825,1,0.071293536207525,1
116,822,1,0.0790353635894648,1
116,823,1,0.0765132605973273,1
116,824,1,0.0772168616123116,1
116,825,1,0.0764785019273182,1
116,826,1,0.0698699102118205,1
117,820,1,0.101127100937884,1
117,821,1,0.089237647189161,1
117,822,1,0.081652524326397,1
117,823,1,0.0786439616780841,1
117,824,1,0.079957303918454,1
117,825,1,0.0795095681639861,1
117,826,1,0.0726255964978307,1
118,819,1,0.119948726080069,1
118,820,1,0.111964522413119,1
118,821,1,0.0933547316882246,1
118,822,1,0.0810225316684248,1
118,823,1,0.0763948067875566,1
118,824,1,0.077263216488617,1
118,825,1,0.0764758484565593,1
118,826,1,0.0693924771480463,1
119,818,1,0.101672997141104,1
119,819,1,0.111490862908212,1
119,820,1,0.107337767875959,1
119,821,1,0.0910187250459943,1
119,822,1,0.0771124658067648,1
119,823,1,0.0706685629818236,1
119,824,1,0.0690497900847069,1
120,817,1,0.0926180072120736,1
120,818,1,0.0973213110862511,1
120,819,1,0.102319581478539,1
120,820,1,0.0986158454300453,1
120,821,1,0.0848460632365088,1
120,822,1,0.0711511592324921,1
121,816,1,0.0897480240208226,1
121,817,1,0.0999326437711553,1
121,818,1,0.106981615796218,1
121,819,1,0.108188939001751,1
121,820,1,0.0964758781658482,1
121,821,1,0.0792384229849459,1
122,815,1,0.0908242070710599,1
122,816,1,0.0991630893328607,1
122,817,1,0.110683453085727,1
122,818,1,0.118784313629654,1
122,819,1,0.116023877451292,1
122,820,1,0.0954182933700272,1
122,821,1,0.0725936290634281,1
123,813,1,0.0857717172266053,1
123,814,1,0.089835277087516,1
123,815,1,0.0980710393660536,1
123,816,1,0.106910624971309,1
123,817,1,0.112582116234813,1
123,818,1,0.114161033162562,1
123,819,1,0.107281607736375,1
123,820,1,0.085398332561371,1
124,812,1,0.081398276305395,1
124,813,1,0.0824641150125158,1
124,814,1,0.0873298795805853,1
124,815,1,0.0976462684126912,1
124,816,1,0.105929451747658,1
124,817,1,0.106088959481993,1
124,818,1,0.0999786871791097,1
124,819,1,0.0871077127997296,1
125,811,1,0.0760006375996735,1
125,812,1,0.0786288434835119,1
125,813,1,0.0784195008130282,1
125,814,1,0.0800440478541891,1
125,815,1,0.0868402693022448,1
125,816,1,0.0927536995971133,1
125,817,1,0.0925970969041292,1
125,818,1,0.0831213491716427,1
126,811,1,0.0751836501253972,1
126,812,1,0.0752046442902053,1
126,813,1,0.0741143313584323,1
126,814,1,0.0726673272670799,1
126,815,1,0.0722710376985,1
126,816,1,0.0729002337162669,1
126,817,1,0.0709353416141747,1
127,810,1,0.0885446420878845,1
127,811,1,0.078185198746038,1
127,812,1,0.0732510489056104,1
127,813,1,0.0700650271643528,1
128,807,1,0.156891268411254,1
128,808,1,0.161246230873567,1
128,809,1,0.1539669998803,1
128,810,1,0.128647953264797,1
128,811,1,0.0983125171846673,1
128,812,1,0.0812959589521131,1
128,813,1,0.0702281048051708,1
129,806,1,0.194322744176093,1
129,807,1,0.267099612466286,2
129,808,1,0.306089580022784,2
129,809,1,0.297776393899935,2
129,810,1,0.237387855820246,2
129,811,1,0.155656164624728,1
129,812,1,0.105630142641963,1
129,813,1,0.0768240221546959,1
130,806,1,0.269483112042258,2
130,807,1,0.409331035942777,2
130,808,1,0.477311974463045,2
130,809,1,0.465189865835727,2
130,810,1,0.377386051220539,2
130,811,1,0.241331021183969,2
130,812,1,0.142929112582583,1
130,813,1,0.0873014341344587,1
131,805,1,0.171596635643461,1
131,806,1,0.321026044791832,2
131,807,1,0.497975455718928,2
131,808,1,0.571622147297312,2
131,809,1,0.555706737501278,2
131,810,1,0.471482868234416,2
131,811,1,0.31071502878878,2
131,812,1,0.173313533050673,1
131,813,1,0.0949474251007265,1
132,805,1,0.167042441252517,1
132,806,1,0.308314518249027,2
132,807,1,0.474925024776109,2
132,808,1,0.543497226062867,2
132,809,1,0.533339476447578,2
132,810,1,0.460225539503914,2
132,811,1,0.307149387025494,2
132,812,1,0.164376415923144,1
132,813,1,0.085822061293713,1
133,805,1,0.141047604151902,1
133,806,1,0.2324685726038,2
133,807,1,0.343819682058858,2
133,808,1,0.398767467025325,2
133,809,1,0.397376545206469,2
133,810,1,0.342417164033705,2
133,811,1,0.228950369866271,1
133,812,1,0.122486462387513,1
134,806,1,0.155406810250701,1
134,807,1,0.207998301203696,2
134,808,1,0.236588364481606,2
134,809,1,0.235652186455114,2
134,810,1,0.20399420783871,1
134,811,1,0.142432104930908,1
134,812,1,0.08157274051035,1
135,806,1,0.107942351904226,1
135,807,1,0.128248099779509,1
135,808,1,0.134169700128814,1
135,809,1,0.127428267161643,1
135,810,1,0.112951397903502,1
135,811,1,0.0863798951204601,1
136,806,1,0.0752209065319897,1
136,807,1,0.0826007418026082,1
136,808,1,0.0813963296282017,1
136,809,1,0.0754457747018122,1
136,810,1,0.0698122466384658,1
154,816,1,0.0858779578831537,1
154,817,1,0.111520260728719,1
154,818,1,0.129922984898002,1
154,819,1,0.144653880555433,1
154,820,1,0.138299111586843,1
154,821,1,0.105970589529086,1
155,817,1,0.167289064288697,1
155,818,1,0.236179622168765,1
155,819,1,0.282603428816113,3
155,820,1,0.271382781473709,3
155,821,1,0.208315687453298,1
155,822,1,0.116435638611227,1
156,817,1,0.192378007670172,1
156,818,1,0.30771336037262,3
156,819,1,0.373584795629323,3
156,820,1,0.361869129240869,3
156,821,1,0.288771244896831,3
156,822,1,0.161523557501418,1
156,823,1,0.0777727966800732,1
157,817,1,0.176750358691745,1
157,818,1,0.295343658365412,3
157,819,1,0.365720195809131,3
157,820,1,0.371430321127703,3
157,821,1,0.308943684317914,3
157,822,1,0.170237531514607,1
157,823,1,0.0782799270531538,1
158,818,1,0.207726533087954,1
158,819,1,0.265627085939485,3
158,820,1,0.288192177314236,3
158,821,1,0.244098489359331,1
158,822,1,0.134810414485789,1
158,823,1,0.0696823703259023,1
159,819,1,0.140704677497523,1
159,820,1,0.15452420478057,1
115,824,2,0.0687463240744814,1
116,822,2,0.0750708506641512,1
116,823,2,0.0733665377762712,1
116,824,2,0.0741032862115261,1
116,825,2,0.073479391145501,1
117,821,2,0.0815291169718913,1
117,822,2,0.076450523683718,1
117,823,2,0.0751101076559208,1
117,824,2,0.076751210437889,1
117,825,2,0.0765517628773235,1
117,826,2,0.0687954162784094,1
118,820,2,0.100377642198001,1
118,821,2,0.0849658767254269,1
118,822,2,0.0752245543055612,1
118,823,2,0.072001018597344,1
118,824,2,0.0731847121366374,1
118,825,2,0.0726077649347397,1
119,818,2,0.0896737867373326,1
119,819,2,0.0982261745639227,1
119,820,2,0.0955791907323886,1
119,821,2,0.0819209741062464,1
119,822,2,0.0701579405693469,1
120,817,2,0.0856967911188777,1
120,818,2,0.0876117943768367,1
120,819,2,0.0923986256770483,1
120,820,2,0.0899426677810525,1
120,821,2,0.0774249224707356,1
121,816,2,0.081633237247743,1
121,817,2,0.0896861436451783,1
121,818,2,0.0941551454523656,1
121,819,2,0.0969857398767755,1
121,820,2,0.0878171658258459,1
121,821,2,0.0727656674091114,1
122,815,2,0.0829947852051958,1
122,816,2,0.0891443564282803,1
122,817,2,0.098599876687284,1
122,818,2,0.104450468242352,1
122,819,2,0.105087121531213,1
122,820,2,0.0884194617596888,1
122,821,2,0.0689146667283853,1
123,814,2,0.0836025498045081,1
123,815,2,0.0882278727852085,1
123,816,2,0.0947581481797742,1
123,817,2,0.0996802046624991,1
123,818,2,0.0996300342988948,1
123,819,2,0.0962249544705148,1
123,820,2,0.0784363859915145,1
124,812,2,0.0794011352494291,1
124,813,2,0.0803676514912578,1
124,814,2,0.0822927055933103,1
124,815,2,0.0885765855631832,1
124,816,2,0.0953478416249563,1
124,817,2,0.0966749843091828,1
124,818,2,0.090900181389584,1
124,819,2,0.079757976153408,1
125,811,2,0.0743836676251267,1
125,812,2,0.0773444198815711,1
125,813,2,0.0771392041667373,1
125,814,2,0.0769074417647624,1
125,815,2,0.0812208771102101,1
125,816,2,0.0860769622002968,1
125,817,2,0.0873943475394527,1
125,818,2,0.0781012041174774,1
126,811,2,0.0760600142489583,1
126,812,2,0.0751228359298773,1
126,813,2,0.0733144866230094,1
126,814,2,0.0719221871556777,1
126,815,2,0.0707011413733761,1
126,816,2,0.0700191634496778,1
127,810,2,0.0868821558056694,1
127,811,2,0.0782806278569435,1
127,812,2,0.0732165118573126,1
127,813,2,0.0686088407464238,1
128,807,2,0.138852794498836,1
128,808,2,0.141514303537121,2
128,809,2,0.136373674139128,2
128,810,2,0.11294772018105,1
128,811,2,0.0878875277242771,1
128,812,2,0.0777348454594671,1
128,813,2,0.0686160224878233,1
129,806,2,0.180835877071396,1
129,807,2,0.262354559853531,2
129,808,2,0.300519831094068,2
129,809,2,0.287802171020659,2
129,810,2,0.217194308428612,2
129,811,2,0.133182728802015,1
129,812,2,0.0958759481935171,1
129,813,2,0.0737789098933561,1
130,805,2,0.147102584832718,1
130,806,2,0.267664687932192,2
130,807,2,0.436212288011047,2
130,808,2,0.517769652766457,2
130,809,2,0.500521014673801,2
130,810,2,0.37919582609409,2
130,811,2,0.213286961925246,2
130,812,2,0.124269870267202,1
130,813,2,0.0802051907973657,1
131,805,2,0.1617545951405,2
131,806,2,0.326719518533181,2
131,807,2,0.545014460277579,2
131,808,2,0.644579152110313,2
131,809,2,0.622328523974486,2
131,810,2,0.494562241774768,2
131,811,2,0.281809951212556,2
131,812,2,0.148575902009948,1
131,813,2,0.0844453052950482,1
132,805,2,0.161047777615814,2
132,806,2,0.317456545612815,2
132,807,2,0.525481848726626,2
132,808,2,0.6165883539396,2
132,809,2,0.593728877055008,2
132,810,2,0.481554460912016,2
132,811,2,0.278992456428213,2
132,812,2,0.138763522877638,1
132,813,2,0.0750787511786681,1
133,805,2,0.134882926713797,1
133,806,2,0.231622768317286,2
133,807,2,0.362579396876519,2
133,808,2,0.428541349627824,2
133,809,2,0.411797673609344,2
133,810,2,0.339672480966169,2
133,811,2,0.201823536982842,2
133,812,2,0.103054874398231,1
134,805,2,0.102630630545155,1
134,806,2,0.146522235438064,1
134,807,2,0.202322940544909,2
134,808,2,0.237422021502433,2
134,809,2,0.227021422409832,2
134,810,2,0.190643560219339,2
134,811,2,0.122496561149815,1
134,812,2,0.0698448250300184,1
135,805,2,0.07856979028213,1
135,806,2,0.0978495254707796,1
135,807,2,0.114222943487087,1
135,808,2,0.124121383720671,1
135,809,2,0.114659011157946,1
135,810,2,0.100172013188624,1
135,811,2,0.0730227725532556,1
136,806,2,0.0701036672091966,1
136,807,2,0.0742467653053391,1
136,808,2,0.0742370738478043,1
136,809,2,0.0690345341252871,1
153,817,2,0.0713240541161405,1
153,818,2,0.0757102772192911,1
153,819,2,0.0719006419314795,1
154,816,2,0.0872631175375178,1
154,817,2,0.120782802385215,1
154,818,2,0.145788955083101,1
154,819,2,0.162468887905607,3
154,820,2,0.146929779795709,3
154,821,2,0.101667378731235,1
155,817,2,0.18153454850075,1
155,818,2,0.270670309600499,3
155,819,2,0.333851832301223,3
155,820,2,0.307911933425892,3
155,821,2,0.220157474564776,3
155,822,2,0.110112831087263,1
156,817,2,0.206207166512993,3
156,818,2,0.351714182840739,3
156,819,2,0.44113871104046,3
156,820,2,0.414846229991872,3
156,821,2,0.318107634261787,3
156,822,2,0.162256825876829,3
156,823,2,0.0773717751884695,1
157,817,2,0.184103251950008,3
157,818,2,0.325928963940303,3
157,819,2,0.412881487634179,3
157,820,2,0.415506063713774,3
157,821,2,0.34441439493631,3
157,822,2,0.176090345276563,3
157,823,2,0.0798829348598924,1
158,818,2,0.222922427034226,3
158,819,2,0.29047919357873,3
158,820,2,0.319057540854824,3
158,821,2,0.270985467653437,3
158,822,2,0.137875059406598,1
158,823,2,0.0687396814129201,1
159,819,2,0.146659640899034,1
159,820,2,0.162599069696746,3
159,821,2,0.133142968669063,1
115,823,3,0.068932300628869,1
116,822,3,0.0745193540203904,1
116,823,3,0.0744404267423084,1
116,824,3,0.074122028220566,1
116,825,3,0.0716151512389684,1
117,821,3,0.0764073254193538,1
117,822,3,0.0749619146084119,1
117,823,3,0.0765263542476185,1
117,824,3,0.0780436543498664,1
117,825,3,0.0752005592629873,1
118,820,3,0.0882286814049657,1
118,821,3,0.0784372185703756,1
118,822,3,0.0725356480319465,1
118,823,3,0.0718605284017447,1
118,824,3,0.0725698915812213,1
118,825,3,0.0697581170329391,1
119,819,3,0.0899344498084086,1
119,820,3,0.0876617670778336,1
119,821,3,0.0765240781327463,1
120,818,3,0.0843241201474309,1
120,819,3,0.0893673617777732,1
120,820,3,0.0863673884682149,1
120,821,3,0.0732057003116696,1
121,817,3,0.0831370244153811,1
121,818,3,0.0875578624339172,1
121,819,3,0.0906502579868392,1
121,820,3,0.0843249107978602,1
121,821,3,0.0695159024718799,1
122,815,3,0.0778911846023081,1
122,816,3,0.0818282823229635,1
122,817,3,0.0890927844570968,1
122,818,3,0.0936498778996146,1
122,819,3,0.0943273754708802,1
122,820,3,0.0837461846324966,1
123,814,3,0.0802951931712337,1
123,815,3,0.0810882694597998,1
123,816,3,0.0854635672115638,1
123,817,3,0.0908595826879949,1
123,818,3,0.0915963071641458,1
123,819,3,0.088009413675684,1
123,820,3,0.0753497645826367,1
124,813,3,0.080355582092659,1
124,814,3,0.0799908766128191,1
124,815,3,0.0811034655214598,1
124,816,3,0.0851698345873049,1
124,817,3,0.0893354602309063,1
124,818,3,0.0861553863371964,1
124,819,3,0.0756447550598513,1
125,812,3,0.0769336709937767,1
125,813,3,0.078492935466537,1
125,814,3,0.0789970949107317,1
125,815,3,0.0803113835357063,1
125,816,3,0.0819145051481885,1
125,817,3,0.0832507582816799,1
125,818,3,0.075228106242717,1
126,811,3,0.0769832064411272,1
126,812,3,0.0754769694551134,1
126,813,3,0.0740407230014202,1
126,814,3,0.0750398715427852,1
126,815,3,0.074664408425286,1
126,816,3,0.0709754671234614,1
127,810,3,0.0853146733602653,1
127,811,3,0.0792421725847091,1
127,812,3,0.0745072846217917,1
127,813,3,0.0690662739482025,1
128,807,3,0.132516282367432,1
128,808,3,0.138130834820475,2
128,809,3,0.128714595512345,1
128,810,3,0.105450173832883,1
128,811,3,0.0838355580798867,1
128,812,3,0.0766154102368817,1
128,813,3,0.0679888090859056,1
129,806,3,0.169205564990651,1
129,807,3,0.251085131775551,2
129,808,3,0.294058707663185,2
129,809,3,0.272280145751854,2
129,810,3,0.193642257706614,2
129,811,3,0.115733373316286,1
129,812,3,0.088244967605854,1
129,813,3,0.0713074205082454,1
130,805,3,0.136797079423567,1
130,806,3,0.25315546190421,2
130,807,3,0.432304414407395,2
130,808,3,0.537021224028451,2
130,809,3,0.512953681206105,2
130,810,3,0.358837895290474,2
130,811,3,0.183467401291127,2
130,812,3,0.107289214751869,1
130,813,3,0.07384497712241,1
131,805,3,0.150165121352382,2
131,806,3,0.311800352237162,2
131,807,3,0.551361945678578,2
131,808,3,0.690465915443339,2
131,809,3,0.663213201427924,2
131,810,3,0.481401218483356,2
131,811,3,0.240286619885079,2
131,812,3,0.121246171454989,1
131,813,3,0.0740791713734326,1
132,805,3,0.149236382627656,2
132,806,3,0.307668604766501,2
132,807,3,0.535448260938026,2
132,808,3,0.65057328864673,2
132,809,3,0.613246538125116,2
132,810,3,0.455431706155583,2
132,811,3,0.232562156863703,2
132,812,3,0.111635408182149,1
133,805,3,0.126696927494097,1
133,806,3,0.228033263286497,2
133,807,3,0.368247234376676,2
133,808,3,0.436936619640696,2
133,809,3,0.398779829922947,2
133,810,3,0.306957642316838,2
133,811,3,0.166446338747037,2
133,812,3,0.0866950411938457,1
134,805,3,0.0978907950272784,1
134,806,3,0.142519304089618,1
134,807,3,0.202716085481099,2
134,808,3,0.237145102179349,2
134,809,3,0.21299602652637,2
134,810,3,0.168215371164375,2
134,811,3,0.101881117897288,1
135,805,3,0.0769116106488442,1
135,806,3,0.0913153447422753,1
135,807,3,0.10531116311195,1
135,808,3,0.116805207789162,1
135,809,3,0.10635085644692,1
135,810,3,0.0898365169711438,1
136,806,3,0.0684214386253531,1
136,807,3,0.0697687309159748,1
136,808,3,0.0706901261753498,1
136,809,3,0.0681858008383195,1
153,818,3,0.0740004297784061,1
153,819,3,0.0713276599612802,1
154,816,3,0.0787165278140758,1
154,817,3,0.112315068062543,1
154,818,3,0.146687720968826,1
154,819,3,0.167900824068587,3
154,820,3,0.150252092899605,3
154,821,3,0.0985385353914779,1
155,817,3,0.169130453199868,1
155,818,3,0.272809953416793,3
155,819,3,0.348958191076154,3
155,820,3,0.321289762648658,3
155,821,3,0.212814847782542,3
155,822,3,0.10366362731058,1
156,817,3,0.20123023769252,3
156,818,3,0.36511546802624,3
156,819,3,0.476242487982353,3
156,820,3,0.451541370615999,3
156,821,3,0.31905696583633,3
156,822,3,0.157697887583309,3
156,823,3,0.0770815286138307,1
157,817,3,0.180933019258232,3
157,818,3,0.334785997762986,3
157,819,3,0.437865849527052,3
157,820,3,0.444572577732198,3
157,821,3,0.344788252793847,3
157,822,3,0.175249500524561,3
157,823,3,0.0833370050660088,1
158,817,3,0.130854478919678,1
158,818,3,0.234037582442079,3
158,819,3,0.310692004089915,3
158,820,3,0.340488336372785,3
158,821,3,0.274915263837173,3
158,822,3,0.141287267068394,1
158,823,3,0.071126349580385,1
159,818,3,0.123373464353214,1
159,819,3,0.158088864220595,3
159,820,3,0.173110455685864,3
159,821,3,0.137191709824201,1
159,822,3,0.077691036237953,1
115,823,4,0.0683398458969603,1
116,822,4,0.0749687848814604,1
116,823,4,0.0760977318683012,1
116,824,4,0.0742948751860065,1
116,825,4,0.0692353653241039,1
117,822,4,0.0739432393973538,1
117,823,4,0.077888585039533,1
117,824,4,0.0793723364065197,1
117,825,4,0.0734651055297899,1
118,820,4,0.0756714095629601,1
118,821,4,0.0714646042094996,1
118,822,4,0.069706700795931,1
118,823,4,0.0713485882385526,1
118,824,4,0.0726438832838961,1
118,825,4,0.0681535279253419,1
119,819,4,0.0794110842673311,1
119,820,4,0.0779158205509118,1
119,821,4,0.0700102566527963,1
120,818,4,0.0775334811705881,1
120,819,4,0.0828970320612103,1
120,820,4,0.0802317913924907,1
120,821,4,0.0683264108294383,1
121,817,4,0.0745338672475887,1
121,818,4,0.0785928868583069,1
121,819,4,0.0820823326813582,1
121,820,4,0.0784777573742049,1
122,816,4,0.0725542762352427,1
122,817,4,0.0769822900054023,1
122,818,4,0.0807948722629958,1
122,819,4,0.0822227869383016,1
122,820,4,0.0774703788806441,1
123,814,4,0.0743626375216626,1
123,815,4,0.0714664909889331,1
123,816,4,0.0733506289312697,1
123,817,4,0.0784205250647207,1
123,818,4,0.0812799063524881,1
123,819,4,0.0789728722566706,1
123,820,4,0.0714057606502769,1
124,813,4,0.0775172309083558,1
124,814,4,0.0757012086984581,1
124,815,4,0.0719733877607505,1
124,816,4,0.0729918832785293,1
124,817,4,0.0785547918830773,1
124,818,4,0.0788704590669731,1
124,819,4,0.0706238133654807,1
125,812,4,0.0736701355615683,1
125,813,4,0.077028836554539,1
125,814,4,0.0785877416407405,1
125,815,4,0.0773075647899692,1
125,816,4,0.075306734032,1
125,817,4,0.0755064032142767,1
125,818,4,0.0697422261572655,1
126,811,4,0.0744160243949679,1
126,812,4,0.0739386691982814,1
126,813,4,0.073581097541633,1
126,814,4,0.0761579470862232,1
126,815,4,0.076628204398374,1
126,816,4,0.0699623743836161,1
127,810,4,0.0804178757628459,1
127,811,4,0.0773349560355235,1
127,812,4,0.0742693587403338,1
127,813,4,0.06923827635523,1
128,808,4,0.135137635947549,1
128,809,4,0.121416820172645,1
128,810,4,0.0968959471450667,1
128,811,4,0.0793443821220233,1
128,812,4,0.0737990535099752,1
129,807,4,0.229265240409961,2
129,808,4,0.278696801085865,2
129,809,4,0.251026959071238,2
129,810,4,0.168286649498531,2
129,811,4,0.0990258515856183,1
129,812,4,0.0764352317856423,1
130,806,4,0.221025992081804,2
130,807,4,0.3944531032646,2
130,808,4,0.515388788691916,2
130,809,4,0.486684440488317,2
130,810,4,0.318561683240137,2
130,811,4,0.149582220313161,2
130,812,4,0.082943303080652,1
131,805,4,0.1307662495195,1
131,806,4,0.277979633228287,2
131,807,4,0.520064407821517,2
131,808,4,0.687001189425755,2
131,809,4,0.658732561486009,2
131,810,4,0.445273333603592,2
131,811,4,0.197542188867316,2
131,812,4,0.0869680671625434,1
132,805,4,0.131481332935037,1
132,806,4,0.277288317243837,2
132,807,4,0.504688940391379,2
132,808,4,0.633876045371643,2
132,809,4,0.593967653484655,2
132,810,4,0.411810994871123,2
132,811,4,0.187950664754922,2
132,812,4,0.0799187417406979,1
133,805,4,0.114808468048187,1
133,806,4,0.213298414376919,2
133,807,4,0.356564152369551,2
133,808,4,0.423084615792289,2
133,809,4,0.377949497467379,2
133,810,4,0.271550591037551,2
133,811,4,0.13501080843096,1
134,805,4,0.088817128976744,1
134,806,4,0.131887643398831,1
134,807,4,0.195458034335696,2
134,808,4,0.223830548950031,2
134,809,4,0.195587976535795,2
134,810,4,0.14404014414947,1
134,811,4,0.0825576633337636,1
135,805,4,0.0700337844928438,1
135,806,4,0.081261811239254,1
135,807,4,0.0969075792900189,1
135,808,4,0.107364661970107,1
135,809,4,0.0987885067124305,1
135,810,4,0.0795346353764603,1
136,808,4,0.0680227651259334,1
154,816,4,0.0694525126726888,1
154,817,4,0.0950659987060167,1
154,818,4,0.1310481523362,1
154,819,4,0.155608042764509,3
154,820,4,0.14035040620744,3
154,821,4,0.0891243745356127,1
155,817,4,0.146016949915985,1
155,818,4,0.251899932981595,3
155,819,4,0.332914719869678,3
155,820,4,0.310702689850262,3
155,821,4,0.192705971864153,3
155,822,4,0.0930434609998977,1
156,817,4,0.184402884503606,3
156,818,4,0.356385153904179,3
156,819,4,0.483563767202996,3
156,820,4,0.462878099816885,3
156,821,4,0.299219498647125,3
156,822,4,0.146415617425629,3
156,823,4,0.0695054203639158,1
157,817,4,0.170031339466289,3
157,818,4,0.337045748567222,3
157,819,4,0.459962660215726,3
157,820,4,0.461469352424714,3
157,821,4,0.322481440559332,3
157,822,4,0.165490705928163,3
157,823,4,0.0782093854614432,1
158,817,4,0.125135740303248,1
158,818,4,0.240026999035023,3
158,819,4,0.32852713708738,3
158,820,4,0.346223451036744,3
158,821,4,0.257339320425893,3
158,822,4,0.13669326462629,1
158,823,4,0.0679652812458581,1
159,818,4,0.125723804529363,1
159,819,4,0.164954405346062,3
159,820,4,0.174802495522762,3
159,821,4,0.134542264194739,1
159,822,4,0.0802411893510025,1
116,822,5,0.0716287719895458,1
116,823,5,0.0737682660614405,1
116,824,5,0.0708249859815283,1
117,822,5,0.0708313231645146,1
117,823,5,0.0754805333718212,1
117,824,5,0.0761405647563306,1
117,825,5,0.0708630450181021,1
118,820,5,0.0693944118456876,1
118,823,5,0.0699446985547006,1
118,824,5,0.0706266046010871,1
119,819,5,0.0744631399728227,1
119,820,5,0.0730301279981584,1
120,818,5,0.0749567274624137,1
120,819,5,0.079224071481699,1
120,820,5,0.0766112413528,1
121,817,5,0.0709772400971513,1
121,818,5,0.0742328390761868,1
121,819,5,0.0767842859808479,1
121,820,5,0.0745313036234694,1
122,816,5,0.06779229651557,1
122,817,5,0.0703631682637326,1
122,818,5,0.0727860805656495,1
122,819,5,0.0738552795370948,1
122,820,5,0.0714165003186082,1
123,817,5,0.0693193479731125,1
123,818,5,0.072313696883026,1
123,819,5,0.0709569647054607,1
124,814,5,0.0722671623134412,1
124,817,5,0.0692713279390848,1
124,818,5,0.0702337711332474,1
125,812,5,0.0724305574123861,1
125,813,5,0.0760721734941967,1
125,814,5,0.0751578042420456,1
125,815,5,0.0718926156316669,1
126,811,5,0.0722039701768575,1
126,812,5,0.0732885628725701,1
126,813,5,0.07447911470536,1
126,814,5,0.0742346899169645,1
126,815,5,0.0735751317247574,1
127,810,5,0.0742762829213661,1
127,811,5,0.0738022999685561,1
127,812,5,0.0730774472283965,1
127,813,5,0.0707815061976931,1
128,808,5,0.127128862219531,1
128,809,5,0.111642044853934,1
128,810,5,0.0894717935219758,1
128,811,5,0.0749866284241034,1
128,812,5,0.0697747087124023,1
129,807,5,0.198324034325921,2
129,808,5,0.246893989686277,2
129,809,5,0.219239840884716,2
129,810,5,0.147907311235564,1
129,811,5,0.0887580877549141,1
130,806,5,0.184603470121608,2
130,807,5,0.332822956501672,2
130,808,5,0.446687639507872,2
130,809,5,0.416206436239506,2
130,810,5,0.272061375173979,2
130,811,5,0.12720168591589,1
131,805,5,0.113407028182711,1
131,806,5,0.233161853234771,2
131,807,5,0.448035914121755,2
131,808,5,0.607956320061811,2
131,809,5,0.578490359862866,2
131,810,5,0.386067967952686,2
131,811,5,0.167874013831303,2
131,812,5,0.0689146727181613,1
132,805,5,0.115010203703177,1
132,806,5,0.23240246943609,2
132,807,5,0.430880141515885,2
132,808,5,0.553577875281747,2
132,809,5,0.517266751175218,2
132,810,5,0.353572067594957,2
132,811,5,0.158681097330793,2
133,805,5,0.103608521371569,1
133,806,5,0.183590095862291,2
133,807,5,0.307757253450997,2
133,808,5,0.365775445502766,2
133,809,5,0.328180400935478,2
133,810,5,0.232121405188028,2
133,811,5,0.115046441847853,1
134,805,5,0.082589702645478,1
134,806,5,0.118187480371504,1
134,807,5,0.172447231750758,2
134,808,5,0.192286435974997,2
134,809,5,0.170842474929433,2
134,810,5,0.124902306753774,1
134,811,5,0.0723785302182281,1
135,806,5,0.0758502043759482,1
135,807,5,0.0913116610300479,1
135,808,5,0.0985150015616544,1
135,809,5,0.0927654096091532,1
135,810,5,0.073588111569305,1
136,808,5,0.06775312937044,1
147,843,5,0.0697363082585977,1
148,842,5,0.0714714205745642,1
148,843,5,0.0769881779551902,1
149,841,5,0.0684801024912964,1
149,842,5,0.0737129983984777,1
149,843,5,0.0762578325904574,1
154,817,5,0.0787322869146779,1
154,818,5,0.105992116783956,1
154,819,5,0.128128052689328,1
154,820,5,0.11911432632702,1
154,821,5,0.080116829622116,1
155,816,5,0.0721727933928842,1
155,817,5,0.118926067667985,1
155,818,5,0.201287547869092,1
155,819,5,0.275912058396578,3
155,820,5,0.263213254137953,3
155,821,5,0.167823807529043,1
155,822,5,0.0875730764649051,1
156,817,5,0.153153480486316,1
156,818,5,0.293804573447927,3
156,819,5,0.420243209822236,3
156,820,5,0.403631548466344,3
156,821,5,0.259136013628705,3
156,822,5,0.13369844851385,1
157,817,5,0.145340692228347,1
157,818,5,0.289664512168206,3
157,819,5,0.420059299740561,3
157,820,5,0.41230795460459,3
157,821,5,0.278353179617473,3
157,822,5,0.149234525797103,1
157,823,5,0.0746458940277333,1
158,817,5,0.112406016821016,1
158,818,5,0.211756286653236,1
158,819,5,0.302321196322143,3
158,820,5,0.304604403089114,3
158,821,5,0.220818626037393,1
158,822,5,0.123985631437871,1
159,818,5,0.11452401358692,1
159,819,5,0.152353737577085,1
159,820,5,0.156115197096693,1
159,821,5,0.122848915711585,1
159,822,5,0.078098406892095,1
116,823,6,0.0679839693469141,1
117,823,6,0.0698488621390286,1
117,824,6,0.0691926222827142,1
119,819,6,0.0705759131269726,1
119,820,6,0.069675745633669,1
120,818,6,0.0727414747039302,1
120,819,6,0.0752002957128442,1
120,820,6,0.0732131995111959,1
121,817,6,0.0687099361854059,1
121,818,6,0.0711753998558812,1
121,819,6,0.0727896444823573,1
121,820,6,0.0716517787190831,1
122,819,6,0.06859359077678,1
124,814,6,0.0681254778044299,1
125,813,6,0.0745143825063274,1
125,814,6,0.0708009609900745,1
126,812,6,0.0734845243835155,1
126,813,6,0.075484384797776,1
126,814,6,0.0724389071601015,1
126,815,6,0.0680642862530233,1
127,811,6,0.0699815596360785,1
127,812,6,0.0720730815921534,1
127,813,6,0.0728083924811732,1
127,814,6,0.0678409933942834,1
128,810,6,0.08248860121672,1
128,811,6,0.070590414374619,1
129,807,6,0.161328961659396,1
129,808,6,0.204046151176004,2
129,809,6,0.187211670153675,2
129,810,6,0.135166219158524,1
129,811,6,0.0841041995325675,1
130,806,6,0.149791922370203,1
130,807,6,0.267837984130831,2
130,808,6,0.36601494070553,2
130,809,6,0.347407941216243,2
130,810,6,0.240460491102212,2
130,811,6,0.118938765993061,1
131,805,6,0.0990610954274817,1
131,806,6,0.187147579550694,2
131,807,6,0.363471106806139,2
131,808,6,0.502430794847106,2
131,809,6,0.481759263332307,2
131,810,6,0.331121620532454,2
131,811,6,0.151944468163957,2
132,805,6,0.10115924207579,1
132,806,6,0.187965711072182,2
132,807,6,0.350520540283544,2
132,808,6,0.463442720059817,2
132,809,6,0.437665791009337,2
132,810,6,0.303721198641385,2
132,811,6,0.142256544596949,2
133,805,6,0.0925757313732103,1
133,806,6,0.150012885206087,1
133,807,6,0.245410370094361,2
133,808,6,0.298714943877716,2
133,809,6,0.275981587716148,2
133,810,6,0.197672394617559,2
133,811,6,0.101519323448574,1
134,805,6,0.0749901803612592,1
134,806,6,0.10229952770856,1
134,807,6,0.140972037138144,1
134,808,6,0.15696902768302,2
134,809,6,0.145307964092395,1
134,810,6,0.109040745043796,1
135,806,6,0.0700785700478425,1
135,807,6,0.0823778622384109,1
135,808,6,0.0871281019971638,1
135,809,6,0.0827781649568971,1
147,843,6,0.0817015925712211,1
148,842,6,0.0830300589959391,1
148,843,6,0.0943312927843708,1
148,844,6,0.090318616070406,1
149,841,6,0.0718362458499238,1
149,842,6,0.0811720544462011,1
149,843,6,0.085869979501549,1
149,844,6,0.0815129206176427,1
150,843,6,0.0730607597125176,1
154,818,6,0.0797954302226079,1
154,819,6,0.0952084894867931,1
154,820,6,0.0916271485206643,1
155,817,6,0.093293815666513,1
155,818,6,0.146060795076155,1
155,819,6,0.20320578560608,3
155,820,6,0.199190251768973,3
155,821,6,0.137709322305245,1
155,822,6,0.0768477416675747,1
156,818,6,0.218341278651375,3
156,819,6,0.323211354660194,3
156,820,6,0.314041606613173,3
156,821,6,0.213977079954501,3
156,822,6,0.117762721397694,1
157,817,6,0.117184504363288,1
157,818,6,0.228044404269819,3
157,819,6,0.342299788383611,3
157,820,6,0.332909760335167,3
157,821,6,0.231424961955339,3
157,822,6,0.130638176129506,1
158,817,6,0.0951082146471203,1
158,818,6,0.172308891884735,1
158,819,6,0.251273570127866,3
158,820,6,0.247853072616115,3
158,821,6,0.183422861316944,1
158,822,6,0.107840262162432,1
159,818,6,0.0992978832515034,1
159,819,6,0.130836341878012,1
159,820,6,0.131659732422811,1
159,821,6,0.106709727884956,1
159,822,6,0.0700941494551652,1
119,820,7,0.0678160519671047,1
120,819,7,0.0712687565042977,1
120,820,7,0.0701546521823341,1
121,818,7,0.0680993144629514,1
121,819,7,0.0692062969412754,1
121,820,7,0.0687652517665766,1
125,813,7,0.0722619452185631,1
126,812,7,0.0714193035337666,1
126,813,7,0.0729883193618215,1
126,814,7,0.0693170419093604,1
127,812,7,0.0697490005938983,1
127,813,7,0.0713085046576977,1
127,814,7,0.0679694860685957,1
128,810,7,0.0805565630358753,1
128,811,7,0.0695561597562382,1
129,807,7,0.129844422996255,1
129,808,7,0.160501102741717,1
129,809,7,0.153755393074496,1
129,810,7,0.122684975543026,1
129,811,7,0.0835837059692766,1
130,806,7,0.123965673504307,1
130,807,7,0.210078622278689,1
130,808,7,0.283573317301818,2
130,809,7,0.273712636616008,2
130,810,7,0.203644764308065,1
130,811,7,0.113492047062964,1
131,806,7,0.149337370250671,1
131,807,7,0.282393043924609,2
131,808,7,0.390239080231085,2
131,809,7,0.371700627738106,2
131,810,7,0.264250276032836,2
131,811,7,0.135284241704424,1
132,806,7,0.147867503184405,1
132,807,7,0.271174696656181,2
132,808,7,0.363878363654538,2
132,809,7,0.341472696157257,2
132,810,7,0.240024171860761,2
132,811,7,0.123695546587184,1
133,805,7,0.081631769752628,1
133,806,7,0.118509442809954,1
133,807,7,0.183938820619818,1
133,808,7,0.228160030905327,2
133,809,7,0.214682196382808,2
133,810,7,0.158485615001926,1
133,811,7,0.0908474234427565,1
134,805,7,0.0695013592958017,1
134,806,7,0.0876812757781989,1
134,807,7,0.11164672885875,1
134,808,7,0.123668269147373,1
134,809,7,0.11878294796073,1
134,810,7,0.0940025798683917,1
135,807,7,0.0746192155655206,1
135,808,7,0.077006326976408,1
135,809,7,0.0732633938339042,1
147,812,7,0.0691832363037543,1
147,842,7,0.074532603404857,1
147,843,7,0.0930667971671139,1
147,844,7,0.0919976880423083,1
148,811,7,0.0736674042237217,1
148,812,7,0.092692987227785,1
148,813,7,0.0946524585826158,1
148,814,7,0.0684563949579695,1
148,841,7,0.0680979068655962,1
148,842,7,0.0966621721783627,1
148,843,7,0.115867700032402,1
148,844,7,0.104339010490925,1
148,845,7,0.087702874910381,1
149,811,7,0.0742518326558178,1
149,812,7,0.0952737660654178,1
149,813,7,0.100673543121164,1
149,814,7,0.0792657183940845,1
149,841,7,0.0735591330331162,1
149,842,7,0.0914677905307296,1
149,843,7,0.101028724857197,1
149,844,7,0.0898439323138064,1
150,812,7,0.0752185106215979,1
150,813,7,0.081663341861816,1
150,814,7,0.0764486788327163,1
150,842,7,0.076004566892716,1
150,843,7,0.0785268735372368,1
154,819,7,0.0712738897423122,1
154,820,7,0.0712878159714645,1
155,817,7,0.0702993711597749,1
155,818,7,0.100846743483387,1
155,819,7,0.137232584055485,1
155,820,7,0.141044022265866,1
155,821,7,0.106865294346696,1
156,818,7,0.146458300569259,1
156,819,7,0.216701853006681,3
156,820,7,0.220047023095714,3
156,821,7,0.161878619441931,1
156,822,7,0.096740686161902,1
157,818,7,0.15969484295622,1
157,819,7,0.237643834886506,3
157,820,7,0.238180806323517,3
157,821,7,0.175083931136935,1
157,822,7,0.107008210401567,1
158,818,7,0.130888069583371,1
158,819,7,0.185482230155561,1
158,820,7,0.186280475620797,1
158,821,7,0.144139382757898,1
158,822,7,0.0922753141589583,1
159,819,7,0.108851887407162,1
159,820,7,0.110030172178746,1
114,830,8,0.0693768677918437,1
114,831,8,0.0692551255950603,1
115,829,8,0.0710459607969641,1
115,830,8,0.0798043969172492,1
115,831,8,0.0832923213372017,1
115,832,8,0.0741550618350929,1
116,830,8,0.0716878012318238,1
116,831,8,0.075670852513794,1
116,832,8,0.0688149309685506,1
125,813,8,0.0708145038735642,1
126,812,8,0.0701670869572676,1
126,813,8,0.0708773366235892,1
127,813,8,0.0691930535465847,1
127,814,8,0.067868863821916,1
128,810,8,0.0789040317613382,1
128,811,8,0.0686133929761683,1
129,808,8,0.128213742424491,1
129,809,8,0.12793391207028,1
129,810,8,0.10931827532403,1
129,811,8,0.0818838794236053,1
130,807,8,0.160743760546199,1
130,808,8,0.214743867116293,1
130,809,8,0.213188513967247,1
130,810,8,0.167545354823308,1
130,811,8,0.106497761692594,1
131,806,8,0.115147980530257,1
131,807,8,0.211541900591378,1
131,808,8,0.297188437489787,2
131,809,8,0.287510397053145,2
131,810,8,0.209771322811837,1
131,811,8,0.121575070054024,1
131,812,8,0.0692101184183503,1
132,806,8,0.112041359259384,1
132,807,8,0.199869947588023,1
132,808,8,0.274934790506866,2
132,809,8,0.262830603289278,2
132,810,8,0.188994634789941,1
132,811,8,0.110410487014789,1
133,806,8,0.0929146868061144,1
133,807,8,0.136613049546373,1
133,808,8,0.173367069668378,1
133,809,8,0.169864248675565,1
133,810,8,0.132633729894838,1
133,811,8,0.0869091457362331,1
134,806,8,0.0744106455761383,1
134,807,8,0.090304899483413,1
134,808,8,0.100353233860884,1
134,809,8,0.100081729295285,1
134,810,8,0.0845803028660743,1
135,807,8,0.0680534327789484,1
135,808,8,0.0698037890747828,1
147,811,8,0.0710331187172641,1
147,812,8,0.0896249760528756,1
147,813,8,0.0908676029980314,1
147,842,8,0.0819293957312735,1
147,843,8,0.0989796584332644,1
147,844,8,0.0905544934484789,1
148,811,8,0.0847957131796251,1
148,812,8,0.120820705687613,1
148,813,8,0.128184703990542,1
148,814,8,0.0862796622092191,1
148,841,8,0.0741996497274844,1
148,842,8,0.116661836511317,1
148,843,8,0.13560507806499,1
148,844,8,0.110115370752278,1
148,845,8,0.0840287343450017,1
149,811,8,0.0795551024409823,1
149,812,8,0.111044792311466,1
149,813,8,0.121771678460775,1
149,814,8,0.0918614565774305,1
149,841,8,0.0788434032488737,1
149,842,8,0.109080241626605,1
149,843,8,0.11743248108884,1
149,844,8,0.092893177520572,1
150,812,8,0.0773382144736563,1
150,813,8,0.0881107906341371,1
150,814,8,0.0836085096316077,1
150,842,8,0.0825691397445404,1
150,843,8,0.0830326765280422,1
151,814,8,0.0710581619706344,1
155,818,8,0.0722119605380141,1
155,819,8,0.0898870706804108,1
155,820,8,0.0955472472570899,1
155,821,8,0.0780872479394452,1
156,818,8,0.0950745161674596,1
156,819,8,0.132473455469178,1
156,820,8,0.142910400522423,1
156,821,8,0.11325396544733,1
156,822,8,0.073842647099554,1
157,819,8,0.148251831170353,1
157,820,8,0.157072387257322,1
157,821,8,0.123513900640829,1
157,822,8,0.083086788164241,1
158,819,8,0.12737229869489,1
158,820,8,0.132060148947041,1
158,821,8,0.10764781066021,1
158,822,8,0.0771196774970442,1
114,829,9,0.0790991127752146,1
114,830,9,0.0991353027620918,1
114,831,9,0.0973569802022091,1
114,832,9,0.0704658509933492,1
115,829,9,0.087821508413431,1
115,830,9,0.121324972947776,1
115,831,9,0.12456338126975,1
115,832,9,0.0878435388094836,1
116,829,9,0.0718750356391671,1
116,830,9,0.096432086913662,1
116,831,9,0.10125622852845,1
116,832,9,0.0759401588316084,1
126,813,9,0.071098023929778,1
126,814,9,0.0684468592346101,1
127,813,9,0.0680004052922019,1
127,814,9,0.0704497504755163,1
127,815,9,0.0718425950124621,1
128,811,9,0.0678871506079814,1
128,815,9,0.0689466760912198,1
129,808,9,0.108545905691025,1
129,809,9,0.107949755267337,1
129,810,9,0.0943955870397348,1
129,811,9,0.0786409368412145,1
130,807,9,0.124412498812826,1
130,808,9,0.160183105534965,1
130,809,9,0.16113739664402,1
130,810,9,0.131960886379508,1
130,811,9,0.0975007348257172,1
130,812,9,0.0686135367307918,1
131,806,9,0.0912050549971647,1
131,807,9,0.154923615022435,1
131,808,9,0.215715576493896,1
131,809,9,0.213910377809193,1
131,810,9,0.162553571358405,1
131,811,9,0.109293357855955,1
131,812,9,0.0714129663507803,1
132,807,9,0.141547019693521,1
132,808,9,0.194199905850305,1
132,809,9,0.191922784695729,1
132,810,9,0.1467187480084,1
132,811,9,0.100552250157579,1
133,807,9,0.102563365360905,1
133,808,9,0.129338766108065,1
133,809,9,0.131917125076202,1
133,810,9,0.112290414144612,1
133,811,9,0.0850056248788268,1
134,807,9,0.0750034417252778,1
134,808,9,0.0836047899807244,1
134,809,9,0.0847374745877764,1
134,810,9,0.0767491200060722,1
147,811,9,0.0788722020917831,1
147,812,9,0.0967162718350096,1
147,813,9,0.0981038513588693,1
147,842,9,0.086485141474196,1
147,843,9,0.0962448225574388,1
147,844,9,0.0817434910541977,1
148,810,9,0.0695292177438823,1
148,811,9,0.0926613552208373,1
148,812,9,0.125829092811531,1
148,813,9,0.131290762222473,1
148,814,9,0.0902845941428425,1
148,841,9,0.082634997331435,1
148,842,9,0.13374938556878,1
148,843,9,0.143010825106496,1
148,844,9,0.104845793456999,1
149,811,9,0.0793887963109113,1
149,812,9,0.106263501554035,1
149,813,9,0.115827915940346,1
149,814,9,0.0924242199898088,1
149,841,9,0.086535994672262,1
149,842,9,0.127714171148696,1
149,843,9,0.128982542151012,1
149,844,9,0.0925880343730722,1
150,812,9,0.0729509311801574,1
150,813,9,0.0835916783611053,1
150,814,9,0.0855227042698094,1
150,815,9,0.071787099738012,1
150,841,9,0.0760154263565669,1
150,842,9,0.0910914349366095,1
150,843,9,0.0893639955236727,1
151,814,9,0.0714298395497145,1
151,842,9,0.0726604749633593,1
155,819,9,0.0695135664592479,1
155,820,9,0.0741884368668507,1
156,819,9,0.0930226884568008,1
156,820,9,0.103904799650619,1
156,821,9,0.0876668044794324,1
157,820,9,0.113049246883903,1
157,821,9,0.0938591187439066,1
157,822,9,0.068985184360992,1
158,821,9,0.0848510766790037,1
114,829,10,0.0833249296776341,1
114,830,10,0.12474811794051,1
114,831,10,0.132135991490493,1
114,832,10,0.0883148922506387,1
115,829,10,0.0958810754417556,1
115,830,10,0.169073873775965,1
115,831,10,0.18890864556598,1
115,832,10,0.121678872871749,1
116,829,10,0.0740403156966536,1
116,830,10,0.129707005555733,1
116,831,10,0.148907184539823,1
116,832,10,0.100166514574275,1
117,830,10,0.0686012876389137,1
117,831,10,0.075271370394617,1
125,814,10,0.068439581656795,1
126,813,10,0.0730390707336958,1
126,814,10,0.069892258066,1
127,814,10,0.0707015127394868,1
127,815,10,0.0776447712082873,1
127,816,10,0.0743649076467588,1
128,815,10,0.0766257965084302,1
128,816,10,0.0725036087202321,1
129,810,10,0.0814156466557356,1
129,811,10,0.0742774389481302,1
130,808,10,0.114286638764853,1
130,809,10,0.115007005162804,1
130,810,10,0.101510853905339,1
130,811,10,0.0868768308948236,1
131,807,10,0.107804515179386,1
131,808,10,0.142803638755365,1
131,809,10,0.145722768058528,1
131,810,10,0.12087431418263,1
131,811,10,0.0955145430802418,1
131,812,10,0.0708640153618107,1
131,847,10,0.0682842907247504,1
132,808,10,0.128648983506265,1
132,809,10,0.13217529640047,1
132,810,10,0.1124655432147,1
132,811,10,0.0903028210311481,1
133,807,10,0.0788427922917238,1
133,808,10,0.0955325064184043,1
133,809,10,0.100020262214183,1
133,810,10,0.0932018606256757,1
133,811,10,0.0786481185826139,1
134,808,10,0.0709269679073553,1
134,809,10,0.0724004108698813,1
134,810,10,0.0692217445735265,1
146,811,10,0.06918449415671,1
146,812,10,0.0750906229146595,1
146,813,10,0.0743571628664174,1
147,810,10,0.0806132802246252,1
147,811,10,0.0878579621900423,1
147,812,10,0.100866090459801,1
147,813,10,0.104072429521181,1
147,814,10,0.0764234019780828,1
147,842,10,0.0827604352199978,1
147,843,10,0.0848838766922674,1
148,810,10,0.082122428241765,1
148,811,10,0.0965466234099421,1
148,812,10,0.115395585889698,1
148,813,10,0.120099273109538,1
148,814,10,0.0912072053267413,1
148,841,10,0.085307437710882,1
148,842,10,0.13145780509499,1
148,843,10,0.126906617571588,1
148,844,10,0.0902805630236082,1
149,811,10,0.0763862953158898,1
149,812,10,0.0909082316485004,1
149,813,10,0.0994236086493132,1
149,814,10,0.0883172522223746,1
149,841,10,0.0899982109737104,1
149,842,10,0.13043138510359,1
149,843,10,0.121039931488463,1
149,844,10,0.0851315838778998,1
150,813,10,0.0788233434891183,1
150,814,10,0.0855289276470521,1
150,815,10,0.0755601434843648,1
150,841,10,0.075887676414476,1
150,842,10,0.0916793374387737,1
150,843,10,0.0870216936268879,1
151,814,10,0.0748667969658574,1
151,815,10,0.0705204358218505,1
151,842,10,0.0709529216066745,1
156,820,10,0.0706673650266277,1
157,820,10,0.0766221726939626,1
114,829,11,0.0763314109985896,1
114,830,11,0.124202006105355,1
114,831,11,0.144663847542663,1
114,832,11,0.0978774737655,1
115,829,11,0.0931159911972335,1
115,830,11,0.184899281198132,1
115,831,11,0.227262522872559,1
115,832,11,0.147228178455456,1
116,829,11,0.0741178054285004,1
116,830,11,0.146107215839996,1
116,831,11,0.183522459311931,1
116,832,11,0.121371812995935,1
117,830,11,0.0748953681972796,1
117,831,11,0.0886957401767434,1
125,814,11,0.069508864485104,1
126,813,11,0.0769093465135239,1
126,814,11,0.0726374622440461,1
127,812,11,0.0679839274184823,1
127,813,11,0.0711226179499498,1
127,814,11,0.0737269066583021,1
127,815,11,0.0801982965652133,1
127,816,11,0.0779295670867848,1
128,814,11,0.0696912351943519,1
128,815,11,0.0820345282792658,1
128,816,11,0.0793011539087793,1
129,811,11,0.0743526166264489,1
130,810,11,0.085474037339976,1
130,811,11,0.080241351074954,1
130,847,11,0.0681795834508527,1
131,809,11,0.101020087600234,1
131,810,11,0.0949537622837128,1
131,811,11,0.0863803743025385,1
131,812,11,0.0702645106635742,1
131,847,11,0.0755152561031744,1
132,808,11,0.0898749653431562,1
132,809,11,0.0944414866930658,1
132,810,11,0.0905361946828615,1
132,811,11,0.0824641629307236,1
133,808,11,0.0764091163623717,1
133,809,11,0.0800788963708379,1
133,810,11,0.0788817378151425,1
133,811,11,0.0718526099178998,1
134,809,11,0.0678912476147514,1
146,810,11,0.0702594972210794,1
146,811,11,0.0740362725978674,1
146,812,11,0.0791318169520627,1
146,813,11,0.0738199578281436,1
147,809,11,0.07213369213529,1
147,810,11,0.083970771282848,1
147,811,11,0.0887057670617331,1
147,812,11,0.0987794920995813,1
147,813,11,0.100672764450287,1
147,814,11,0.0749467664649598,1
147,842,11,0.0760471362306023,1
147,843,11,0.0745228939779942,1
148,810,11,0.0837786072898736,1
148,811,11,0.0894562021351012,1
148,812,11,0.10147007551047,1
148,813,11,0.108105729033843,1
148,814,11,0.0872337077374584,1
148,841,11,0.0826397112851309,1
148,842,11,0.112030218276062,1
148,843,11,0.0994886755857785,1
148,844,11,0.0763923988976129,1
149,811,11,0.0712344530572631,1
149,812,11,0.0828905391440486,1
149,813,11,0.0921024971423977,1
149,814,11,0.0823417798279104,1
149,841,11,0.0897020884288358,1
149,842,11,0.116957611649185,1
149,843,11,0.101632602091898,1
149,844,11,0.077156532588646,1
150,812,11,0.0705045988541606,1
150,813,11,0.0797063382946887,1
150,814,11,0.0774418016594459,1
150,841,11,0.0761490163302377,1
150,842,11,0.0872940187917961,1
150,843,11,0.08060370856261,1
151,813,11,0.0714920493630376,1
151,814,11,0.0702459962660216,1
114,830,12,0.104765087215451,1
114,831,12,0.132102472704112,1
114,832,12,0.0954557234801231,1
115,829,12,0.081318791978147,1
115,830,12,0.162784010019889,1
115,831,12,0.2178008571034,1
115,832,12,0.14937075726198,1
115,833,12,0.0690708681063788,1
116,830,12,0.136167026867835,1
116,831,12,0.183620056721741,1
116,832,12,0.126056644400992,1
117,830,12,0.0733587929959297,1
117,831,12,0.0919741781715888,1
117,832,12,0.0680540197769944,1
126,813,12,0.083364396311563,1
126,814,12,0.0721651204898544,1
127,812,12,0.0882100951301013,1
127,813,12,0.0825284152576557,1
127,814,12,0.0774872401000264,1
127,815,12,0.079437109843962,1
127,816,12,0.0737535372023069,1
128,812,12,0.0782503854780229,1
128,813,12,0.0752135810359667,1
128,814,12,0.0787410020387281,1
128,815,12,0.085744337960603,1
128,816,12,0.0761780308050824,1
129,811,12,0.0757815196147913,1
129,812,12,0.0682526587178027,1
129,814,12,0.0687618675431482,1
129,815,12,0.0698723420608682,1
130,810,12,0.0738203351840304,1
130,811,12,0.0728986404358564,1
130,847,12,0.0680153677525987,1
131,809,12,0.0749001600180633,1
131,810,12,0.0768029800716799,1
131,811,12,0.0773242463160721,1
131,812,12,0.068064070621088,1
131,847,12,0.0729882654538377,1
132,809,12,0.0714908214589618,1
132,810,12,0.0748965362035957,1
132,811,12,0.0750026091464167,1
133,810,12,0.0686232880860864,1
136,809,12,0.072348479512139,1
137,808,12,0.0677684572071716,1
137,809,12,0.0731777400373973,1
146,810,12,0.0711295002025503,1
146,811,12,0.0758499168667012,1
146,812,12,0.0771650620296409,1
147,809,12,0.0715231542696992,1
147,810,12,0.0805232299325494,1
147,811,12,0.0866134005472451,1
147,812,12,0.093867169002823,1
147,813,12,0.0890532040174242,1
147,842,12,0.0687235449564313,1
148,810,12,0.079986797575377,1
148,811,12,0.0877284332844855,1
148,812,12,0.0985366126733884,1
148,813,12,0.0998642884476772,1
148,814,12,0.0793028190665016,1
148,841,12,0.0775400160161818,1
148,842,12,0.0899721075299918,1
148,843,12,0.0776928691094027,1
149,811,12,0.086403009665965,1
149,812,12,0.100423116577237,1
149,813,12,0.0986984144919228,1
149,814,12,0.0787416788834138,1
149,841,12,0.0850688589438424,1
149,842,12,0.0974560151582542,1
149,843,12,0.0825611493833837,1
150,812,12,0.0971674756697696,1
150,813,12,0.0916481366956965,1
150,814,12,0.0722536793277114,1
150,842,12,0.0805479257789129,1
151,812,12,0.0779548259720903,1
151,813,12,0.0764005869213769,1
114,831,13,0.101457101655699,1
115,830,13,0.119315403106652,1
115,831,13,0.161573188785184,1
115,832,13,0.121545744110828,1
116,830,13,0.105923174462432,1
116,831,13,0.14247834600147,1
116,832,13,0.106370886257796,1
117,831,13,0.0803268790861653,1
126,814,13,0.0716095807473075,1
127,813,13,0.0935988390184933,1
127,814,13,0.0818671080508627,1
127,815,13,0.0775022804275109,1
128,813,13,0.0872148159840191,1
128,814,13,0.0891834037778907,1
128,815,13,0.0854406802775461,1
129,811,13,0.0804489567104035,1
129,812,13,0.0745641934833729,1
129,813,13,0.0736816898394328,1
129,814,13,0.0772732793122625,1
129,815,13,0.0714587641779195,1
130,810,13,0.0700444702531912,1
130,811,13,0.069674260169226,1
131,810,13,0.069131005457213,1
131,811,13,0.0712633956547961,1
132,810,13,0.0682535631739756,1
132,811,13,0.0703686788576338,1
135,809,13,0.0702456488590148,1
136,809,13,0.0729860192878453,1
137,809,13,0.0706539179795537,1
145,808,13,0.0718128318156199,1
145,809,13,0.0707286164757941,1
146,808,13,0.0691235421963426,1
146,809,13,0.0721165014782288,1
146,810,13,0.0718579527980735,1
146,811,13,0.0735535924903351,1
146,812,13,0.0703775736749633,1
147,809,13,0.0700468062658232,1
147,810,13,0.0754014443697879,1
147,811,13,0.0825960218591364,1
147,812,13,0.0870054074259997,1
147,813,13,0.076889148988921,1
148,810,13,0.0810896411184991,1
148,811,13,0.0951146177176423,1
148,812,13,0.103548300163871,1
148,813,13,0.095936169401215,1
148,814,13,0.0732305279331047,1
148,842,13,0.0761185583193819,1
149,811,13,0.108366799409686,1
149,812,13,0.119147018524317,1
149,813,13,0.104899617583951,1
149,814,13,0.0781664447574462,1
149,842,13,0.0828908086839676,1
150,812,13,0.115631115860764,1
150,813,13,0.0984873827046129,1
150,814,13,0.0712661150130908,1
151,813,13,0.0769327545580518,1
115,831,14,0.0979655354519506,1
116,831,14,0.09058104013562,1
126,814,14,0.0726915738802449,1
127,814,14,0.0844869222585538,1
127,815,14,0.074228107153163,1
128,814,14,0.0947368066079592,1
128,815,14,0.0811516592589909,1
129,813,14,0.0774685400194184,1
129,814,14,0.081115109645964,1
129,815,14,0.0685209168248207,1
135,809,14,0.0686758483703065,1
139,808,14,0.0680640286926562,1
139,809,14,0.0697127504696703,1
145,808,14,0.073662061343548,1
145,809,14,0.0750343070409002,1
145,810,14,0.0689209679727158,1
146,809,14,0.0752292203410492,1
146,810,14,0.0727228465006339,1
146,811,14,0.070914790692789,1
147,809,14,0.0679919237694149,1
147,810,14,0.0753287883871565,1
147,811,14,0.0852245751499816,1
147,812,14,0.084311236139299,1
147,813,14,0.068180080602259,1
148,810,14,0.0867751843964515,1
148,811,14,0.108758962022616,1
148,812,14,0.109669563705676,1
148,813,14,0.0905632924293928,1
149,811,14,0.125585967804523,1
149,812,14,0.127299451039427,1
149,813,14,0.10418921817323,1
149,814,14,0.0748109782435044,1
150,812,14,0.117575996121309,1
150,813,14,0.0992023762735102,1
150,814,14,0.073037267811126,1
151,813,14,0.0785446631718959,1
121,821,15,0.068267165955225,1
121,822,15,0.0679797585344005,1
124,834,15,0.0705404776122779,1
124,835,15,0.079155698188893,1
124,836,15,0.0706039512683327,1
125,834,15,0.0754225762994436,1
125,835,15,0.0922518162677907,1
125,836,15,0.0788997251124089,1
126,814,15,0.0738493376793231,1
127,814,15,0.0823218398636746,1
127,815,15,0.0687437245117063,1
128,814,15,0.0903955487530868,1
128,815,15,0.0732255564190417,1
129,813,15,0.0806435765115295,1
129,814,15,0.0796850326615296,1
133,811,15,0.0731894859880931,1
134,811,15,0.0690389845288399,1
138,809,15,0.0723648855085468,1
139,808,15,0.0710344484475315,1
139,809,15,0.0852835804331557,1
139,810,15,0.0773077864116805,1
139,811,15,0.0738289784307688,1
140,809,15,0.0779998331488003,1
140,810,15,0.0780075958984698,1
140,811,15,0.0784491142654709,1
141,811,15,0.0679563445000966,1
145,808,15,0.0691589837008133,1
145,809,15,0.0705979734719051,1
146,809,15,0.0713221014491712,1
146,810,15,0.0701933700942657,1
146,811,15,0.068360690317369,1
147,810,15,0.0778975217852944,1
147,811,15,0.0874253027017148,1
147,812,15,0.0800076300162337,1
148,810,15,0.0920764416168868,1
148,811,15,0.111995920818803,1
148,812,15,0.102785082908562,1
148,813,15,0.0822107894170146,1
149,811,15,0.122962326129981,1
149,812,15,0.113753488804917,1
149,813,15,0.0929831439557842,1
149,814,15,0.072617312637651,1
150,812,15,0.101485049950419,1
150,813,15,0.0900498188835498,1
150,814,15,0.0756605201502293,1
150,815,15,0.0690211829146288,1
151,813,15,0.0775380334003326,1
151,814,15,0.0684345143063164,1
121,822,16,0.0705857124004751,1
122,820,16,0.0682664831207634,1
123,833,16,0.0718297229838821,1
124,832,16,0.0774841194267411,1
124,833,16,0.0988226723946176,1
124,834,16,0.0917570128536759,1
124,835,16,0.0939919959342359,1
124,836,16,0.0841491647808456,1
125,833,16,0.0784529297527698,1
125,834,16,0.0881927846775205,1
125,835,16,0.107620209772497,1
125,836,16,0.0938140995876447,1
126,835,16,0.0705654429985604,1
128,814,16,0.0855335637336603,1
129,814,16,0.0778572884600401,1
134,811,16,0.07731787319443,1
137,810,16,0.070862781467959,1
138,809,16,0.0907919820762902,1
138,810,16,0.0973614545648658,1
138,811,16,0.0798531836426022,1
139,808,16,0.0730694388979119,1
139,809,16,0.108435106814956,1
139,810,16,0.112118759144591,1
139,811,16,0.0921595138199466,1
140,809,16,0.0937997900128296,1
140,810,16,0.0968666751098549,1
140,811,16,0.0842171607177649,1
141,810,16,0.0693387248984062,1
147,810,16,0.0769662374057772,1
147,811,16,0.0838550967291319,1
147,812,16,0.0719388207635728,1
148,810,16,0.0943994444554656,1
148,811,16,0.106724318979243,1
148,812,16,0.0902840311039004,1
148,813,16,0.0744326999312949,1
149,811,16,0.112086486231613,1
149,812,16,0.0965159198182712,1
149,813,16,0.0828547142939151,1
149,814,16,0.0770162460454301,1
149,815,16,0.0740715583681627,1
150,812,16,0.087661078253596,1
150,813,16,0.0823959873005249,1
150,814,16,0.079941814357771,1
150,815,16,0.0816632220662964,1
150,816,16,0.0769122755139779,1
151,813,16,0.0740120798926862,1
151,814,16,0.0709844697567586,1
151,815,16,0.0742194998450804,1
151,816,16,0.0728050741452805,1
123,832,17,0.0692799651960473,1
123,833,17,0.0925780673858423,1
123,834,17,0.0702804973756635,1
124,832,17,0.0921376151989655,1
124,833,17,0.125683720948508,1
124,834,17,0.107193042908743,1
124,835,17,0.101458922547596,1
124,836,17,0.0888517918103374,1
125,833,17,0.0903372382839263,1
125,834,17,0.09434850141076,1
125,835,17,0.110403874302107,1
125,836,17,0.0966345892599771,1
126,835,17,0.0730235512241329,1
129,814,17,0.0798927760618268,1
137,809,17,0.0681965524862027,1
137,810,17,0.090202618068787,1
137,811,17,0.0811184519409606,1
138,809,17,0.0960340722896,1
138,810,17,0.129997976893265,1
138,811,17,0.110972387899426,1
138,812,17,0.068928479151794,1
139,808,17,0.0700421222610072,1
139,809,17,0.107242015317151,1
139,810,17,0.132205628626031,1
139,811,17,0.106743174794026,1
140,809,17,0.0903276246934792,1
140,810,17,0.098975381733215,1
140,811,17,0.0787731851050659,1
147,810,17,0.0728924829461494,1
147,811,17,0.0753635051287337,1
148,811,17,0.0921803642301312,1
148,812,17,0.0793077426623567,1
148,813,17,0.0718705492969584,1
148,814,17,0.0738849768464012,1
148,815,17,0.073237140645786,1
149,810,17,0.0921543686023802,1
149,812,17,0.0821027697970003,1
149,813,17,0.0773822513066577,1
149,814,17,0.0798814254363456,1
149,815,17,0.0804454107630237,1
149,816,17,0.0688648258024599,1
150,813,17,0.0773677800078912,1
150,814,17,0.0796633975906917,1
150,815,17,0.0828619858819543,1
150,816,17,0.078172326717458,1
151,815,17,0.0722645747302181,1
151,816,17,0.0734908855256057,1
123,832,18,0.0756888697599403,1
123,833,18,0.101045172782036,1
123,834,18,0.0749890902220309,1
124,832,18,0.0961722324623432,1
124,833,18,0.13221760817799,1
124,834,18,0.110140911157055,1
124,835,18,0.0993167570356148,1
124,836,18,0.0800866112022995,1
125,817,18,0.0699231054122945,1
125,833,18,0.0919639835728717,1
125,834,18,0.0943431345714823,1
125,835,18,0.104828770513665,1
125,836,18,0.0858296323705511,1
126,819,18,0.0682459022504978,1
126,835,18,0.071744710093405,1
127,818,18,0.0690788704470874,1
127,819,18,0.068184758617299,1
128,815,18,0.0711539025498908,1
128,818,18,0.0687720441725374,1
134,811,18,0.0728142504820811,1
136,811,18,0.0695907866511757,1
137,810,18,0.0940280543856325,1
137,811,18,0.102829922371545,1
137,812,18,0.0800540627596268,1
138,809,18,0.086306298743,1
138,810,18,0.131064899749838,1
138,811,18,0.131458068645133,1
138,812,18,0.0893470744065306,1
139,809,18,0.0908971385833864,1
139,810,18,0.120255582303499,1
139,811,18,0.10562920823691,1
139,812,18,0.0683604926547617,1
140,809,18,0.0811035194294436,1
140,810,18,0.0865992107679497,1
140,811,18,0.0678100382320213,1
147,811,18,0.0690684182880032,1
147,814,18,0.0755035520809105,1
147,815,18,0.078544920732263,1
148,803,18,0.0722831909539624,1
148,804,18,0.0727066201975054,1
148,810,18,0.081842747631954,1
148,812,18,0.0745783353444605,1
148,813,18,0.0745009115001495,1
148,814,18,0.0854825907400747,1
148,815,18,0.0902182334147655,1
148,816,18,0.0714940319788869,1
149,809,18,0.0734268907590407,1
149,810,18,0.0847116646430807,1
149,811,18,0.0834334823877106,1
149,813,18,0.0770789470203835,1
149,814,18,0.0827789855562063,1
149,815,18,0.0848157310109486,1
149,816,18,0.0717904180739046,1
150,810,18,0.0806467510927987,1
150,814,18,0.0743826433734342,1
150,815,18,0.0758584702668,1
150,816,18,0.0716878431602556,1
151,816,18,0.0684972871585816,1
123,832,19,0.0707034294678003,1
123,833,19,0.0889034775872646,1
123,834,19,0.0694763519810873,1
124,832,19,0.0834480794717727,1
124,833,19,0.10993492276112,1
124,834,19,0.0943047580767816,1
124,835,19,0.0830468064095778,1
125,817,19,0.0770424213664605,1
125,818,19,0.0677692837962568,1
125,833,19,0.0791933079922683,1
125,834,19,0.0823946575702574,1
125,835,19,0.087563486833562,1
125,836,19,0.0679753201103997,1
126,816,19,0.0717541559701247,1
126,817,19,0.0732641425559016,1
126,818,19,0.0741939953789597,1
126,819,19,0.0731088276647531,1
127,815,19,0.0718435833254987,1
127,817,19,0.0710716449563642,1
127,818,19,0.0737981011355944,1
127,819,19,0.0710821809723122,1
128,815,19,0.0725046150025967,1
134,811,19,0.0680918631816329,1
135,812,19,0.0693036427804943,1
136,811,19,0.0842226054241303,1
136,812,19,0.0864271185142825,1
137,810,19,0.0867218154924741,1
137,811,19,0.114983752852451,1
137,812,19,0.106584122282666,1
137,813,19,0.072088091970758,1
138,809,19,0.0760986123653702,1
138,810,19,0.108024879037672,1
138,811,19,0.126320266421402,1
138,812,19,0.101275467688896,1
139,809,19,0.0784723605860474,1
139,810,19,0.0938625928139747,1
139,811,19,0.0916308262431157,1
140,809,19,0.0806333699332605,1
140,810,19,0.0740803753184045,1
141,809,19,0.0794481909295241,1
146,814,19,0.0720000961718431,1
146,815,19,0.0753978325348722,1
147,803,19,0.0714764160477311,1
147,804,19,0.0761457998205367,1
147,813,19,0.069638045983654,1
147,814,19,0.0939693785401373,1
147,815,19,0.111104522357534,1
147,816,19,0.0878792019356656,1
148,803,19,0.0767711264430209,1
148,804,19,0.0780747113383201,1
148,805,19,0.0690659505002996,1
148,809,19,0.0702167721490176,1
148,810,19,0.074914247971167,1
148,811,19,0.0766025142491979,1
148,812,19,0.0735915257416133,1
148,813,19,0.0776971398196761,1
148,814,19,0.102821440848758,1
148,815,19,0.1249171374391,1
148,816,19,0.104690897850169,1
149,809,19,0.0701173778064137,1
149,810,19,0.0802763313666743,1
149,811,19,0.0835499056634242,1
149,812,19,0.0794459447635318,1
149,813,19,0.0796757125701055,1
149,814,19,0.0933212668098271,1
149,815,19,0.108316569148322,1
149,816,19,0.0964387116058954,1
150,810,19,0.0764978429139561,1
150,811,19,0.077621770468526,1
150,814,19,0.0740874552336123,1
150,815,19,0.0810740257725206,1
150,816,19,0.0772065651874028,1
123,833,20,0.0681258671398686,1
124,833,20,0.07933482243956,1
124,834,20,0.0736989583635817,1
125,817,20,0.0788612348119646,1
125,835,20,0.069448655256958,1
126,816,20,0.0773924459053748,1
126,817,20,0.0816570945254693,1
126,818,20,0.0770275188038235,1
126,819,20,0.0699440576486708,1
127,815,20,0.073570884973588,1
127,816,20,0.0750732765234229,1
127,817,20,0.0805362876441847,1
127,818,20,0.0757435504248572,1
127,819,20,0.0678877735446833,1
128,815,20,0.0711508118254853,1
133,811,20,0.0678171720552129,1
134,812,20,0.0694211262465562,1
135,811,20,0.071076682357963,1
135,812,20,0.0763118843288964,1
136,811,20,0.0916020094308783,1
136,812,20,0.103375650861037,1
136,813,20,0.0769333535356498,1
137,810,20,0.0801809322046487,1
137,811,20,0.114008401691053,1
137,812,20,0.122839511763297,1
137,813,20,0.084905338059602,1
138,809,20,0.0734215778277469,1
138,810,20,0.0910757057848873,1
138,811,20,0.108711918322073,1
138,812,20,0.101129472889172,1
138,813,20,0.0683608700106484,1
139,809,20,0.0806596650498105,1
139,810,20,0.0840611450228268,1
139,811,20,0.0804756471521682,1
140,809,20,0.0907784032541447,1
140,810,20,0.0756829219123927,1
141,810,20,0.0706369669135317,1
144,805,20,0.131267126566458,1
145,805,20,0.122396148545294,1
145,806,20,0.107347315578871,1
146,804,20,0.0890456029917062,1
146,808,20,0.0699694602885999,1
146,813,20,0.0680982003646192,1
146,814,20,0.0811615483791331,1
146,815,20,0.0912485347809999,1
146,816,20,0.0699420690430456,1
147,803,20,0.0795829009913031,1
147,804,20,0.0903673968059831,1
147,805,20,0.0832157480410797,1
147,806,20,0.0707080296157525,1
147,807,20,0.0687676955951762,1
147,808,20,0.0701931904009863,1
147,813,20,0.076389745426854,1
147,814,20,0.119235810963437,1
147,815,20,0.158512221586827,1
147,816,20,0.130339729551552,1
147,817,20,0.0768312697836311,1
148,803,20,0.0809009452058169,1
148,804,20,0.0874030746430549,1
148,805,20,0.0762609293046388,1
148,808,20,0.0689236274332507,1
148,809,20,0.0683858413867069,1
148,810,20,0.0733852558262072,1
148,811,20,0.0782968541600719,1
148,812,20,0.0731086659408016,1
148,813,20,0.0862505698672867,1
148,814,20,0.140011983864598,1
148,815,20,0.194734074072157,1
148,816,20,0.169947135195569,1
148,817,20,0.103222959491768,1
149,804,20,0.0686497329470359,1
149,810,20,0.0789255470366566,1
149,811,20,0.0854109769784637,1
149,812,20,0.0780790599156812,1
149,813,20,0.0873123295369654,1
149,814,20,0.130245749966433,1
149,815,20,0.176885176569491,1
149,816,20,0.16129101043879,1
149,817,20,0.103202007255392,1
150,810,20,0.0714639932523496,1
150,811,20,0.0735637751095003,1
150,814,20,0.0940095699369598,1
150,815,20,0.119650483154498,1
150,816,20,0.111650993579248,1
150,817,20,0.0793657356733903,1
124,822,21,0.0685250018520387,1
125,817,21,0.0765416042172623,1
126,816,21,0.0784931570882482,1
126,817,21,0.083602879242187,1
126,818,21,0.0757435025066494,1
127,815,21,0.0735649431158163,1
127,816,21,0.076206793709336,1
127,817,21,0.0831360420921205,1
127,818,21,0.0749575780106028,1
128,815,21,0.0686091102863429,1
128,817,21,0.0678819335131033,1
131,817,21,0.0722638260082206,1
133,811,21,0.068831774218605,1
134,811,21,0.0692974972703393,1
134,812,21,0.0717155578537128,1
135,811,21,0.0744341554468579,1
135,812,21,0.0804114786820998,1
136,810,21,0.0686980584596385,1
136,811,21,0.0906113124634204,1
136,812,21,0.107171910979087,1
136,813,21,0.081433358423307,1
137,810,21,0.0756328953034119,1
137,811,21,0.102585431695614,1
137,812,21,0.121622568977541,1
137,813,21,0.0905209986212015,1
138,809,21,0.07223596756014,1
138,810,21,0.0806302612395271,1
138,811,21,0.0896502409279572,1
138,812,21,0.0945615637321269,1
138,813,21,0.0726296575659448,1
139,809,21,0.0871463827934533,1
139,810,21,0.0839430026814071,1
139,811,21,0.0746068107394671,1
139,812,21,0.0682045847757912,1
140,809,21,0.100413652731189,1
140,810,21,0.0811361038107721,1
141,809,21,0.107793973173662,1
141,810,21,0.0787666083310404,1
142,810,21,0.0684317170809339,1
143,805,21,0.107751589518831,1
144,804,21,0.124347689436728,1
144,805,21,0.159475042136876,1
144,806,21,0.135192610111489,1
145,804,21,0.112355678743684,1
145,805,21,0.153678699982855,1
145,806,21,0.134733925046531,1
145,807,21,0.0899165942862137,1
146,804,21,0.0958194346571505,1
146,805,21,0.109111687950497,1
146,806,21,0.0955478821733437,1
146,807,21,0.0773801429055129,1
146,808,21,0.070222773904549,1
146,813,21,0.0714674134144339,1
146,814,21,0.0864639795956604,1
146,815,21,0.0986512150572043,1
146,816,21,0.0787875485878648,1
147,803,21,0.0875445711210187,1
147,804,21,0.09944266811648,1
147,805,21,0.088143836228216,1
147,806,21,0.0739423349411809,1
147,807,21,0.0719251281356837,1
147,808,21,0.0733532644327007,1
147,809,21,0.0683656258927761,1
147,810,21,0.0694945848591689,1
147,811,21,0.0715684249965523,1
147,812,21,0.0696786147363631,1
147,813,21,0.0853987518456896,1
147,814,21,0.13737833926417,1
147,815,21,0.187987849284203,1
147,816,21,0.161744903682965,1
147,817,21,0.0986113231491808,1
148,803,21,0.081503492710251,1
148,804,21,0.0909143412199995,1
148,805,21,0.0789530341186265,1
148,808,21,0.0710102257934704,1
148,809,21,0.0700856679323782,1
148,810,21,0.0765258211575563,1
148,811,21,0.080268802218268,1
148,812,21,0.0735432840858744,1
148,813,21,0.096699770002186,1
148,814,21,0.172932068177643,1
148,815,21,0.248599829967031,1
148,816,21,0.224455929480499,1
148,817,21,0.136560770781624,1
149,810,21,0.0779517651965648,1
149,811,21,0.0824472597829094,1
149,812,21,0.074800867501651,1
149,813,21,0.0991327630970764,1
149,814,21,0.172016542898728,1
149,815,21,0.24113357420858,1
149,816,21,0.221825699052379,1
149,817,21,0.136655996240146,1
150,811,21,0.0681890592764523,1
150,814,21,0.119694855414954,1
150,815,21,0.158100160938093,1
150,816,21,0.146352748736948,1
150,817,21,0.0962414323442344,1
151,815,21,0.0767461251180824,1
151,816,21,0.0749039515462583,1
126,817,22,0.0777935213049623,1
126,818,22,0.069556794672492,1
127,816,22,0.0746537106853866,1
127,817,22,0.0767734085476691,1
127,818,22,0.0696874855945888,1
130,817,22,0.0730751052259885,1
131,816,22,0.0690607992929573,1
131,817,22,0.0809157699013661,1
131,818,22,0.0702627616489882,1
132,814,22,0.0687691151720834,1
132,817,22,0.073467118094519,1
133,813,22,0.0722277555772721,1
133,837,22,0.0786847700218325,1
134,811,22,0.0725765582018865,1
134,812,22,0.0736056196844931,1
135,811,22,0.0748230176932232,1
135,812,22,0.079659803725104,1
136,811,22,0.0833750760821345,1
136,812,22,0.0988346399670246,1
136,813,22,0.0809191720941225,1
137,810,22,0.0692845773235515,1
137,811,22,0.0876169755330589,1
137,812,22,0.107391687839327,1
137,813,22,0.0886281395650388,1
138,810,22,0.0723967091883259,1
138,811,22,0.0761578572395835,1
138,812,22,0.0854644596881847,1
138,813,22,0.0743393852113102,1
139,810,22,0.0803326053120017,1
139,811,22,0.0705263956489501,1
139,812,22,0.0714052155806628,1
139,813,22,0.0693226064112454,1
140,810,22,0.0835998903439732,1
140,811,22,0.0707965285558497,1
140,812,22,0.0750043162325708,1
140,813,22,0.0757771530681022,1
141,810,22,0.0829123958365978,1
141,811,22,0.0735228110315765,1
141,812,22,0.0763758371670295,1
141,813,22,0.071800534805534,1
142,810,22,0.072200591943205,1
142,811,22,0.0693869545745932,1
142,812,22,0.0688827412224146,1
143,805,22,0.102321150799846,1
144,804,22,0.11780354771077,1
144,805,22,0.155514530381917,1
144,806,22,0.136501052715108,1
145,804,22,0.108125758844719,1
145,805,22,0.157985169218838,1
145,806,22,0.14233323768859,1
145,807,22,0.0900364856422195,1
146,804,22,0.0890971989219937,1
146,805,22,0.107714740417005,1
146,806,22,0.098700672637467,1
146,807,22,0.0781480082269813,1
146,808,22,0.0690426682410673,1
146,812,22,0.068493076346068,1
146,813,22,0.0763500811303177,1
146,814,22,0.0913696720104094,1
146,815,22,0.100903598436985,1
146,816,22,0.084085050218761,1
147,804,22,0.090834982678047,1
147,805,22,0.0832857505529522,1
147,806,22,0.0753579406268487,1
147,807,22,0.0752056685418978,1
147,808,22,0.0749597043810755,1
147,809,22,0.070900756647669,1
147,810,22,0.0701086327334836,1
147,811,22,0.0714178420284276,1
147,812,22,0.0732235438543126,1
147,813,22,0.0948399685196542,1
147,814,22,0.150775072219927,1
147,815,22,0.20205529339504,1
147,816,22,0.18054310880107,1
147,817,22,0.111445879690606,1
148,805,22,0.0734107662821039,1
148,807,22,0.0689850465961445,1
148,808,22,0.0710177190032208,1
148,809,22,0.0717750363291893,1
148,810,22,0.0758068863160645,1
148,811,22,0.074875991271986,1
148,812,22,0.071729532001073,1
148,813,22,0.104831382055992,1
148,814,22,0.19655095282002,1
148,815,22,0.281212746588295,1
148,816,22,0.260832198390581,1
148,817,22,0.156024931172682,1
148,818,22,0.0715500124251913,1
149,810,22,0.0727902434599553,1
149,811,22,0.0714373147901369,1
149,813,22,0.10446849746805,1
149,814,22,0.198714400006057,1
149,815,22,0.278214336610268,1
149,816,22,0.257263729453032,1
149,817,22,0.152734483676998,1
149,818,22,0.0706051731826325,1
150,814,22,0.132116512739008,1
150,815,22,0.174915678329671,1
150,816,22,0.162463053863803,1
150,817,22,0.102791623743932,1
151,815,22,0.0788818456311101,1
151,816,22,0.0769278848701805,1
127,817,23,0.0681843692818604,1
128,815,23,0.0684578924019644,1
129,817,23,0.0677704518025728,1
130,816,23,0.0688484797038118,1
130,817,23,0.0788321245007043,1
130,818,23,0.0757513970313904,1
131,816,23,0.0705494203478153,1
131,817,23,0.087528410705426,1
131,818,23,0.0839398340899139,1
132,817,23,0.0799959619326257,1
132,818,23,0.0746422522439378,1
133,813,23,0.0711779754595524,1
133,837,23,0.0794171758695022,1
134,811,23,0.0741225792799561,1
134,812,23,0.073442002963837,1
135,811,23,0.072577576463803,1
135,812,23,0.0755870255989608,1
135,813,23,0.068971449804671,1
136,811,23,0.0744725798597664,1
136,812,23,0.0844372370668038,1
136,813,23,0.0766009029994594,1
137,811,23,0.0769666626798718,1
137,812,23,0.0922927983150425,1
137,813,23,0.0843248808489803,1
138,811,23,0.0717337308340346,1
138,812,23,0.083279952449804,1
138,813,23,0.079114770049625,1
139,810,23,0.0747174239324806,1
139,811,23,0.0716458668101913,1
139,812,23,0.0793819679662947,1
139,813,23,0.079898843704894,1
140,810,23,0.0857353772557377,1
140,811,23,0.0800725591878515,1
140,812,23,0.0889339895061042,1
140,813,23,0.0886149560681079,1
140,814,23,0.0741384521863018,1
141,810,23,0.087806318341547,1
141,811,23,0.0851485409336978,1
141,812,23,0.0908291845748989,1
141,813,23,0.0830129162570858,1
142,810,23,0.0782385916091193,1
142,811,23,0.0747169207912983,1
142,812,23,0.0736900875053561,1
144,805,23,0.129405552110236,1
144,806,23,0.117922780191418,1
145,804,23,0.0987858532416716,1
145,805,23,0.136362089912383,1
145,806,23,0.128107196289367,1
145,807,23,0.0863845671457242,1
146,805,23,0.0993250408957945,1
146,806,23,0.0975660114043418,1
146,807,23,0.0793174700585474,1
146,808,23,0.0690178705685122,1
146,811,23,0.0682874772855715,1
146,812,23,0.0757846702369565,1
146,813,23,0.0873018234698973,1
146,814,23,0.099315822630562,1
146,815,23,0.0997631031620554,1
146,816,23,0.0855388467160742,1
146,817,23,0.0696294147164675,1
147,805,23,0.0788530947064085,1
147,806,23,0.0791798429758664,1
147,807,23,0.0775473115633248,1
147,808,23,0.0746891282307534,1
147,809,23,0.0723204653298828,1
147,810,23,0.0695483730474648,1
147,811,23,0.072375355636959,1
147,812,23,0.0856876207718531,1
147,813,23,0.113899363809122,1
147,814,23,0.160442666487261,1
147,815,23,0.191717515072912,1
147,816,23,0.172309622637405,1
147,817,23,0.109246398012276,1
148,806,23,0.0679776501332557,1
148,807,23,0.0691633502475023,1
148,808,23,0.0703460494839832,1
148,809,23,0.0731953320094491,1
148,810,23,0.0735924242080103,1
148,811,23,0.0726049736991333,1
148,812,23,0.082626809307671,1
148,813,23,0.122933371552896,1
148,814,23,0.205862059580158,1
148,815,23,0.272165142053048,1
148,816,23,0.253592092614012,1
148,817,23,0.14954204089589,1
148,818,23,0.0702587005808741,1
149,810,23,0.0690794514553574,1
149,812,23,0.0713070311728068,1
149,813,23,0.111891674757656,1
149,814,23,0.199196852502102,1
149,815,23,0.264172049558544,1
149,816,23,0.244869780832659,1
149,817,23,0.143773095977199,1
149,818,23,0.0688972544496129,1
150,814,23,0.128348859791036,1
150,815,23,0.163500782552252,1
150,816,23,0.154009419473787,1
150,817,23,0.100505002804653,1
151,815,23,0.0765350573921167,1
151,816,23,0.0758076889460457,1
129,814,24,0.0677701283546699,1
129,817,24,0.0682364384044502,1
130,816,24,0.0704607357246627,1
130,817,24,0.0812084842637085,1
130,818,24,0.079776981712591,1
131,816,24,0.0715598536271256,1
131,817,24,0.0900049794205673,1
131,818,24,0.0910248346174934,1
131,819,24,0.0709073334216945,1
132,817,24,0.0810209144289103,1
132,818,24,0.0812617393619422,1
133,813,24,0.0691062257539858,1
134,811,24,0.0722133621455933,1
134,812,24,0.0712211138261568,1
134,813,24,0.0678254978438244,1
135,812,24,0.0691736346928591,1
135,813,24,0.0683215651006709,1
136,811,24,0.0679820705879286,1
136,812,24,0.0723272098176358,1
136,813,24,0.0705987102143506,1
137,811,24,0.074497844734848,1
137,812,24,0.0844327806734751,1
137,813,24,0.0799810234313328,1
138,811,24,0.0775035861986745,1
138,812,24,0.0929202872466552,1
138,813,24,0.0908343058333614,1
139,811,24,0.0780758613753082,1
139,812,24,0.090929393527036,1
139,813,24,0.0931483539568508,1
139,814,24,0.0722243234356358,1
140,811,24,0.0881650520147354,1
140,812,24,0.0907284904509075,1
140,813,24,0.0895496246710535,1
140,814,24,0.0726719334048081,1
141,811,24,0.0910462600461721,1
141,812,24,0.0855934435241273,1
141,813,24,0.0761667161182571,1
142,811,24,0.0764058758935668,1
144,805,24,0.10840473865074,1
144,806,24,0.0993440644243054,1
145,804,24,0.0885358850354025,1
145,805,24,0.11171117884829,1
145,806,24,0.109144332229585,1
145,807,24,0.0835853771167749,1
145,808,24,0.068764556952563,1
145,813,24,0.0694206470644779,1
145,814,24,0.0697860832969874,1
145,818,24,0.069106453365473,1
146,805,24,0.0877468578353985,1
146,806,24,0.0925505922834243,1
146,807,24,0.0804357432645927,1
146,808,24,0.0725177086528879,1
146,809,24,0.0694882117375267,1
146,811,24,0.068202883679413,1
146,812,24,0.0818636519501225,1
146,813,24,0.10102366948627,1
146,814,24,0.11027027833866,1
146,815,24,0.0992141701424139,1
146,816,24,0.0854327917425811,1
146,817,24,0.0820428840167572,1
146,818,24,0.0796958921253805,1
146,819,24,0.0692512621895535,1
147,805,24,0.0709869375444621,1
147,806,24,0.0786553063137893,1
147,807,24,0.0773066962724522,1
147,808,24,0.0758725881687836,1
147,809,24,0.074441738503248,1
147,810,24,0.0692434814705561,1
147,811,24,0.0729907032926613,1
147,812,24,0.099325484139217,1
147,813,24,0.139277062311017,1
147,814,24,0.170892501538414,1
147,815,24,0.171930385961038,1
147,816,24,0.146445326714487,1
147,817,24,0.101045041006965,1
147,818,24,0.07051297256098,1
148,807,24,0.0687255754904884,1
148,808,24,0.0708073580708206,1
148,809,24,0.0733580263046043,1
148,810,24,0.0701508486745872,1
148,811,24,0.071875928115788,1
148,812,24,0.0957270663217706,1
148,813,24,0.142990543725029,1
148,814,24,0.200976043579502,1
148,815,24,0.233145417289484,1
148,816,24,0.209874418835996,1
148,817,24,0.126803545506532,1
149,812,24,0.074713800118013,1
149,813,24,0.111104186930079,1
149,814,24,0.171283693807635,1
149,815,24,0.211414366281222,1
149,816,24,0.196014256912705,1
149,817,24,0.120638400865901,1
150,814,24,0.105890626019759,1
150,815,24,0.13063428277512,1
150,816,24,0.126850840777667,1
150,817,24,0.0913129009136756,1
151,815,24,0.0679101932761746,1
151,816,24,0.068929653147886,1
130,816,25,0.0700687528050121,1
130,817,25,0.0786348332594914,1
130,818,25,0.0762868949835099,1
131,816,25,0.0710950709702201,1
131,817,25,0.0852359137959108,1
131,818,25,0.0862515821394272,1
131,819,25,0.0713129251123706,1
132,817,25,0.0764075769899449,1
132,818,25,0.0770417265524469,1
137,812,25,0.0768702272866018,1
137,813,25,0.0751999363262854,1
138,812,25,0.0960856203016796,1
138,813,25,0.0950048011648341,1
138,814,25,0.0728396830708901,1
139,812,25,0.0998319616267158,1
139,813,25,0.099572125144725,1
139,814,25,0.0775441130229518,1
140,812,25,0.0914414474959718,1
140,813,25,0.0842103862811321,1
140,814,25,0.0683606423991612,1
141,812,25,0.0789070266493279,1
145,805,25,0.0927066618863463,1
145,806,25,0.0921453959179629,1
145,807,25,0.080195439442071,1
145,808,25,0.0713462642054725,1
145,809,25,0.0684008996835194,1
145,812,25,0.0684614443391202,1
145,813,25,0.0736069973329684,1
145,814,25,0.076373674857901,1
145,815,25,0.0684712436126227,1
145,817,25,0.0745391622095546,1
145,818,25,0.0749543734804537,1
146,806,25,0.0839770066396427,1
146,807,25,0.079004330560115,1
146,808,25,0.0746115606318188,1
146,809,25,0.0723892279581275,1
146,811,25,0.0697135830485315,1
146,812,25,0.0887351888413444,1
146,813,25,0.112289899023877,1
146,814,25,0.119289012153687,1
146,815,25,0.0992377399108932,1
146,816,25,0.0899724848858785,1
146,817,25,0.0953819294400556,1
146,818,25,0.0936559275733539,1
146,819,25,0.0722801661170927,1
147,806,25,0.0734234765867324,1
147,807,25,0.0750858969814117,1
147,808,25,0.0766207351477275,1
147,809,25,0.0764395084856917,1
147,810,25,0.0694204673711985,1
147,811,25,0.076183415613688,1
147,812,25,0.11422675298461,1
147,813,25,0.16102616650408,1
147,814,25,0.176195669497387,1
147,815,25,0.147356144029482,1
147,816,25,0.118465322120089,1
147,817,25,0.0955602031425336,1
147,818,25,0.0790360524137024,1
148,807,25,0.0690620870947928,1
148,808,25,0.0716044954275009,1
148,809,25,0.0726369291539839,1
148,811,25,0.0745049306398317,1
148,812,25,0.11105704739312,1
148,813,25,0.158818131425652,1
148,814,25,0.184996674955558,1
148,815,25,0.176482447991734,1
148,816,25,0.150365048095026,1
148,817,25,0.104085654946544,1
148,818,25,0.0689658613436821,1
149,812,25,0.0813922326214317,1
149,813,25,0.10924537975036,1
149,814,25,0.13571661967328,1
149,815,25,0.147275557583454,1
149,816,25,0.137829537109154,1
149,817,25,0.100393563022554,1
150,814,25,0.0820478735001481,1
150,815,25,0.0958490061811613,1
150,816,25,0.0982960153518437,1
130,816,26,0.0684616120528476,1
130,817,26,0.0735245840052664,1
130,818,26,0.0690627699292545,1
131,816,26,0.0692513340668653,1
131,817,26,0.0768267834414224,1
131,818,26,0.0752463690696785,1
132,817,26,0.0709065128223853,1
132,818,26,0.0685649117293902,1
133,825,26,0.0827553738592951,1
133,826,26,0.070472948877885,1
134,824,26,0.0896744276433624,1
134,825,26,0.119289802804116,1
134,826,26,0.103014539246785,1
135,824,26,0.0771129509786192,1
135,825,26,0.103382862551317,1
135,826,26,0.0926990548708523,1
137,813,26,0.0682385647749229,1
138,813,26,0.0862114745994685,1
138,814,26,0.0709970422965395,1
139,813,26,0.0964768724686608,1
139,814,26,0.0768448545955526,1
140,813,26,0.0815443549619831,1
144,814,26,0.0688252094241314,1
145,808,26,0.0700962818154139,1
145,809,26,0.0704500439745393,1
145,810,26,0.0709225414629065,1
145,812,26,0.0685750164814676,1
145,813,26,0.074518287840266,1
145,814,26,0.0798485535457701,1
145,815,26,0.0733422073062425,1
145,816,26,0.0729774000002108,1
145,818,26,0.0738925898516711,1
146,807,26,0.0753560837962951,1
146,808,26,0.0747701219815482,1
146,809,26,0.0759337916997422,1
146,810,26,0.069746442959555,1
146,811,26,0.069634799525073,1
146,812,26,0.089399856312462,1
146,813,26,0.114825886316735,1
146,814,26,0.121214257928571,1
146,815,26,0.0977134736991812,1
146,817,26,0.100142669276101,1
146,818,26,0.098793921469916,1
147,807,26,0.0715157509065885,1
147,808,26,0.0783589082392196,1
147,809,26,0.0813184146222603,1
147,810,26,0.0711558612066361,1
147,811,26,0.0755523447960395,1
147,812,26,0.118718929235062,1
147,813,26,0.169925464186075,1
147,814,26,0.176735240497172,1
147,815,26,0.129504431332106,1
147,816,26,0.0990532847596044,1
148,807,26,0.0679870720508715,1
148,808,26,0.0726849491880116,1
148,809,26,0.0738884988346771,1
148,811,26,0.0728029298054799,1
148,812,26,0.116204732747217,1
148,813,26,0.164387664722433,1
148,814,26,0.170961132391587,1
148,815,26,0.132742552144833,1
148,816,26,0.105692136823351,1
149,812,26,0.0830161567258907,1
149,813,26,0.105711531717972,1
149,814,26,0.111480380800247,1
149,815,26,0.102516561251401,1
149,816,26,0.098343274684322,1
133,824,27,0.0865959702991447,1
133,825,27,0.110801571468042,1
133,826,27,0.0926875724702996,1
134,824,27,0.120998685891068,1
134,825,27,0.163950435035033,1
134,826,27,0.138620654740975,1
135,824,27,0.103296801450043,1
135,825,27,0.140986484477807,1
135,826,27,0.122411937594776,1
136,825,27,0.0715402670596726,1
145,809,27,0.0693048167765862,1
145,810,27,0.0720758728277598,1
145,813,27,0.071576702866956,1
145,814,27,0.0774799565324353,1
146,808,27,0.0716637043630582,1
146,809,27,0.0780807789813873,1
146,810,27,0.0737417133845234,1
146,811,27,0.0707045255968045,1
146,812,27,0.0842562440060312,1
146,813,27,0.105771669068806,1
146,814,27,0.111070752000561,1
146,815,27,0.0915580564547407,1
147,808,27,0.0770668716320089,1
147,809,27,0.0859291764575545,1
147,810,27,0.0763919736235183,1
147,811,27,0.0749591473319094,1
147,812,27,0.108705509261775,1
147,813,27,0.154428859526528,1
147,814,27,0.157081958919337,1
147,815,27,0.110671162065417,1
148,808,27,0.0699086700521839,1
148,809,27,0.0746676429043149,1
148,811,27,0.0705812799662502,1
148,812,27,0.108078775041936,1
148,813,27,0.151994602588906,1
148,814,27,0.149951094677083,1
148,815,27,0.103817684348773,1
149,813,27,0.0979617199646517,1
149,814,27,0.0953507885947382,1
133,824,28,0.0968329766301942,1
133,825,28,0.1233914217016,1
134,823,28,0.0722376866258461,1
134,824,28,0.141156306606378,1
134,825,28,0.187592176662549,1
134,826,28,0.15344391274401,1
135,824,28,0.122006621433795,1
135,825,28,0.16170121425697,1
135,826,28,0.133474742360568,1
136,825,28,0.0801423820064446,1
145,809,28,0.0678060071127871,1
145,810,28,0.0693946214878469,1
146,808,28,0.0686080740550985,1
146,809,28,0.0771593238242525,1
146,810,28,0.0754690270121646,1
146,811,28,0.0706770205455066,1
146,813,28,0.0905704142730324,1
146,814,28,0.0949251850625146,1
147,808,28,0.0723083120744204,1
147,809,28,0.0851330214241349,1
147,810,28,0.081004059199304,1
147,811,28,0.074887359866795,1
147,812,28,0.0920581668103734,1
147,813,28,0.124386467246419,1
147,814,28,0.12486803325562,1
147,815,28,0.0920549622802243,1
148,809,28,0.071895502703689,1
148,810,28,0.0692318852642598,1
148,812,28,0.0922109839649384,1
148,813,28,0.126126149761458,1
148,814,28,0.122520544212837,1
148,815,28,0.0856780191609579,1
149,813,28,0.0848893693168407,1
149,814,28,0.0809541164471869,1
133,824,29,0.0920887086780929,1
133,825,29,0.114278971851599,1
134,823,29,0.0733728510001536,1
134,824,29,0.136542981146964,1
134,825,29,0.174138145509772,1
134,826,29,0.139074943310364,1
135,824,29,0.119997087531328,1
135,825,29,0.150469354053933,1
135,826,29,0.119576713073534,1
136,825,29,0.0803287778451508,1
146,809,29,0.0697328701271855,1
146,810,29,0.0702138251792357,1
147,809,29,0.0768728448187048,1
147,810,29,0.0791003167201865,1
147,813,29,0.094220200409279,1
147,814,29,0.0939380460219885,1
148,813,29,0.098121479269577,1
148,814,29,0.0955412095629026,1
133,825,30,0.0905902224621966,1
134,824,30,0.112746260055756,1
134,825,30,0.138107283021323,1
134,826,30,0.108965621273461,1
135,825,30,0.122440412989783,1
134,825,31,0.0931290309395409,1
