x,y,z,signal,cytoplasm.p
714,652,1,0.0680226273610858,1
717,653,1,0.0687750929685109,1
717,668,1,0.079214421952596,1
717,669,1,0.0862131816856226,1
717,670,1,0.073511849741534,1
718,654,1,0.0741542771744396,1
718,655,1,0.0771593358038045,1
718,656,1,0.070638350551783,1
718,668,1,0.0744666619610987,1
718,669,1,0.0825136324905383,1
718,670,1,0.0729767111759732,1
723,668,1,0.0788952926781841,1
723,669,1,0.0874763236135082,1
723,670,1,0.0803431173688457,1
723,676,1,0.0740203817221938,1
723,677,1,0.0785428362902222,1
723,678,1,0.0764293378460785,1
723,679,1,0.0737620906024057,1
723,680,1,0.0677825631296033,1
724,667,1,0.0782083372506468,1
724,668,1,0.110541375599493,1
724,669,1,0.121142799901135,1
724,670,1,0.0993835849662181,1
724,671,1,0.0724343489405811,1
724,675,1,0.0788376291048294,1
724,676,1,0.100417162739913,1
724,677,1,0.115498058977155,1
724,678,1,0.108060410388782,1
724,679,1,0.102893521812895,1
724,680,1,0.0952880636606808,1
724,681,1,0.0766833941942491,1
725,667,1,0.10304538659308,1
725,668,1,0.149591037263403,1
725,669,1,0.156322347509168,1
725,670,1,0.116605616473973,1
725,671,1,0.0763673436646906,1
725,674,1,0.0732771403697771,1
725,675,1,0.101667869892865,1
725,676,1,0.15339126261315,1
725,677,1,0.188834084834587,1
725,678,1,0.171386705974931,1
725,679,1,0.157425472571762,1
725,680,1,0.146833140750056,1
725,681,1,0.110795797323998,1
725,682,1,0.0802801408641972,1
725,683,1,0.0812700651505537,1
726,666,1,0.0751829014033997,1
726,667,1,0.116005285186651,1
726,668,1,0.161671804456911,1
726,669,1,0.163465275160246,1
726,670,1,0.119989899800152,1
726,671,1,0.0782835269085175,1
726,674,1,0.0816641025633654,1
726,675,1,0.121450135306643,1
726,676,1,0.191907630562501,1
726,677,1,0.240348314577668,1
726,678,1,0.221175305217421,1
726,679,1,0.205063526605674,1
726,680,1,0.190506753735967,1
726,681,1,0.142028358091234,1
726,682,1,0.102207141403852,1
726,683,1,0.10906749538332,1
726,684,1,0.148621975366783,1
726,685,1,0.164117190398303,1
727,666,1,0.0718295193314988,1
727,667,1,0.0986708974610729,1
727,668,1,0.126477066776994,1
727,669,1,0.128062836008463,1
727,670,1,0.102323822239933,1
727,671,1,0.0748621848383532,1
727,673,1,0.0699062202338083,1
727,674,1,0.0847722212782335,1
727,675,1,0.116356861077544,1
727,676,1,0.167945867183953,1
727,677,1,0.203135417717872,1
727,678,1,0.19821836269809,1
727,679,1,0.197960359087549,1
727,680,1,0.188769143683417,1
727,681,1,0.14877820070388,1
727,682,1,0.118384627858093,1
727,683,1,0.127300672953727,1
727,684,1,0.16693966867626,1
727,685,1,0.182104379848784,1
727,686,1,0.139352569427014,1
728,667,1,0.0768060827756373,1
728,668,1,0.0875236488335223,1
728,669,1,0.0896437719698993,1
728,670,1,0.0808178190947733,1
728,673,1,0.0687528888689549,1
728,674,1,0.0818896236187696,1
728,675,1,0.110162007148055,1
728,676,1,0.141254622789305,1
728,677,1,0.149491259575136,1
728,678,1,0.144590376950499,1
728,679,1,0.150941228605598,1
728,680,1,0.149796079274733,1
728,681,1,0.136160438114258,1
728,682,1,0.125917190436637,1
728,683,1,0.132562751049481,1
728,684,1,0.158174278426063,1
728,685,1,0.165208946866087,1
728,686,1,0.133462882604128,1
728,688,1,0.0844397767318191,1
728,689,1,0.0720103087398882,1
729,674,1,0.0796964431847706,1
729,675,1,0.114634273383151,1
729,676,1,0.142926297387873,1
729,677,1,0.130631048296091,1
729,678,1,0.111922138758288,1
729,679,1,0.11365150687909,1
729,680,1,0.121971317694172,1
729,681,1,0.129504491229866,1
729,682,1,0.132521445554326,1
729,683,1,0.148177977232526,1
729,684,1,0.1766290058304,1
729,685,1,0.16828529580916,1
729,686,1,0.129640387267289,1
729,687,1,0.10667550230501,1
729,688,1,0.0916304788361089,1
729,689,1,0.0764826228931921,1
730,674,1,0.0700315622859554,1
730,675,1,0.0981096434722415,1
730,676,1,0.119625673502391,1
730,677,1,0.105590658038706,1
730,678,1,0.08690362316278,1
730,679,1,0.0878375190846242,1
730,680,1,0.0983259642317413,1
730,681,1,0.110186541270467,1
730,682,1,0.124134872696176,1
730,683,1,0.17063240150628,1
730,684,1,0.22204279249298,1
730,685,1,0.200045364167358,1
730,686,1,0.138456463001825,1
730,687,1,0.107190383448208,1
730,688,1,0.0925022368219418,1
731,661,1,0.0692192408471671,1
731,662,1,0.0721280437765413,1
731,663,1,0.072674011857073,1
731,675,1,0.0694157953459345,1
731,676,1,0.0791094391490033,1
731,677,1,0.073419792874505,1
731,680,1,0.0731323495150246,1
731,681,1,0.0816357589434304,1
731,682,1,0.102268596505402,1
731,683,1,0.159664858137667,1
731,684,1,0.213279055420953,1
731,685,1,0.199862640061328,1
731,686,1,0.154079439954988,1
731,687,1,0.119150061330514,1
731,688,1,0.0926278004958001,1
732,661,1,0.0870256708381383,1
732,662,1,0.112873039654138,1
732,663,1,0.116302545788962,1
732,664,1,0.0866787010849737,1
732,682,1,0.0813510409320206,1
732,683,1,0.114044543999313,1
732,684,1,0.142610636193753,1
732,685,1,0.15767306595165,1
732,686,1,0.163670508844407,1
732,687,1,0.13790418169741,1
733,638,1,0.0805086148791594,1
733,660,1,0.0712370825689181,1
733,661,1,0.112845882009847,1
733,662,1,0.161561149335466,1
733,663,1,0.166612578989572,1
733,664,1,0.113568284931631,1
733,682,1,0.0683255542914732,1
733,683,1,0.0803195236412624,1
733,684,1,0.0912075587235241,1
733,685,1,0.11772399150621,1
733,686,1,0.144894334122355,1
733,687,1,0.127260158109002,1
734,638,1,0.079880419153981,1
734,639,1,0.0792753379743076,1
734,640,1,0.0781206589098589,1
734,641,1,0.0762435290054183,1
734,661,1,0.108977732600491,1
734,662,1,0.156004134670481,1
734,663,1,0.158946707956828,1
734,664,1,0.107875745595334,1
734,683,1,0.0685314887794245,1
734,684,1,0.0810469699544212,1
734,685,1,0.100097158958208,1
734,686,1,0.113273587953439,1
734,687,1,0.101590913251081,1
734,689,1,0.0726415412814881,1
734,690,1,0.0695721584478794,1
735,639,1,0.0788311601467716,1
735,640,1,0.0781692659419325,1
735,641,1,0.077478884362535,1
735,661,1,0.0819925159905456,1
735,662,1,0.109401209762242,1
735,663,1,0.107421504944153,1
735,664,1,0.0770439846979912,1
735,684,1,0.0707238725732183,1
735,685,1,0.0833026177621104,1
735,686,1,0.0920081941093764,1
735,687,1,0.0929259835236117,1
735,688,1,0.0853115886256358,1
735,689,1,0.0740250297883539,1
735,690,1,0.0681696404227268,1
736,639,1,0.0781230069020428,1
736,640,1,0.0780161972167763,1
736,641,1,0.0771749870884389,1
736,662,1,0.0731067372329363,1
736,663,1,0.0698596856642235,1
736,685,1,0.0679759909653094,1
736,686,1,0.0819410817842096,1
736,687,1,0.0923073834195526,1
736,688,1,0.0874263808613911,1
736,689,1,0.0734645904090557,1
737,639,1,0.0797650440890638,1
737,640,1,0.0806487217290959,1
737,641,1,0.0798763760551949,1
737,650,1,0.0704516971527097,1
737,686,1,0.0688691084922852,1
737,687,1,0.0777332162404007,1
737,688,1,0.0749942953373571,1
738,640,1,0.087418234766059,1
738,641,1,0.0867079551508575,1
738,642,1,0.0837534382512077,1
738,649,1,0.0942886156305169,1
738,650,1,0.108568762676163,1
738,651,1,0.0835258387435386,1
739,640,1,0.0958789490712828,1
739,641,1,0.0942860220575178,1
739,642,1,0.0891971622933156,1
739,648,1,0.073300572373409,1
739,649,1,0.107019758689656,1
739,650,1,0.123151998376148,1
739,651,1,0.0920580110761979,1
739,673,1,0.0693830672099825,1
740,641,1,0.0981644559122299,1
740,648,1,0.0690585052087571,1
740,649,1,0.0877152737466585,1
740,650,1,0.0955271156200228,1
740,651,1,0.0741544388983911,1
740,659,1,0.0684974848211889,1
740,673,1,0.0702431032042235,1
741,642,1,0.101712469764809,1
741,658,1,0.0700421342405592,1
741,659,1,0.0909294953532276,1
741,660,1,0.0790781126206305,1
741,668,1,0.0756485465880463,1
741,669,1,0.0751271246094786,1
742,659,1,0.0812862135865945,1
742,660,1,0.0723251433449228,1
742,667,1,0.0725285561371868,1
742,668,1,0.0937049119613143,1
742,669,1,0.0900294955736514,1
743,667,1,0.0722263958981247,1
743,668,1,0.0836773621064921,1
743,669,1,0.077528270065486,1
745,652,1,0.0737414737934842,1
745,653,1,0.0873308319549661,1
745,654,1,0.0768041420882199,1
746,651,1,0.0681622310698401,1
746,652,1,0.10719890090965,1
746,653,1,0.142979318884844,1
746,654,1,0.124650784080843,1
746,655,1,0.0792380396392832,1
747,651,1,0.0750047654657693,1
747,652,1,0.117478326834187,1
747,653,1,0.159715962906324,1
747,654,1,0.142253298138368,1
747,655,1,0.0899912987722301,1
747,674,1,0.0760527187018153,1
747,675,1,0.0936487039035226,1
747,676,1,0.0765073067600037,1
748,650,1,0.0679463475639869,1
748,651,1,0.0742794095844274,1
748,652,1,0.0955061933325264,1
748,653,1,0.119027055290999,1
748,654,1,0.110444664676528,1
748,655,1,0.0799751953793047,1
748,674,1,0.0843631375481614,1
748,675,1,0.107195259125855,1
748,676,1,0.0857435772590536,1
749,651,1,0.070221629857337,1
749,652,1,0.0735601393154807,1
749,653,1,0.0772697872728665,1
749,654,1,0.0740189321964068,1
749,674,1,0.0722689113280272,1
749,675,1,0.0886538237244389,1
749,676,1,0.0727937714380072,1
751,667,1,0.0711232229173237,1
757,664,1,0.0690268672120334,1
757,665,1,0.0881728507030607,1
757,666,1,0.0718947060634838,1
758,665,1,0.0756795376889643,1
759,672,1,0.0719857566481482,1
760,672,1,0.0854811831427195,1
760,673,1,0.0739170880354273,1
761,672,1,0.0687704149534709,1
717,654,2,0.0679107443355647,1
717,669,2,0.0722785608571302,1
723,669,2,0.0739057433997221,1
723,677,2,0.0690691071122408,1
723,678,2,0.0681791282278783,1
724,668,2,0.0933448725169623,1
724,669,2,0.104502902741276,1
724,670,2,0.0843440121934588,1
724,675,2,0.0681518028698598,1
724,676,2,0.0803347556415783,1
724,677,2,0.0923623515937165,1
724,678,2,0.088619873674187,1
724,679,2,0.0919195753737596,1
724,680,2,0.0886053484674368,1
724,681,2,0.0689693533830782,1
725,667,2,0.0799701220390501,1
725,668,2,0.119259183069309,1
725,669,2,0.128176018815372,1
725,670,2,0.0965736313098337,1
725,675,2,0.0826336496318396,1
725,676,2,0.116747777817071,1
725,677,2,0.146926497398473,1
725,678,2,0.140049947064756,1
725,679,2,0.14769068499749,1
725,680,2,0.145924048490543,1
725,681,2,0.103196700313874,1
725,682,2,0.0695368008002724,1
725,683,2,0.070345228884674,1
725,685,2,0.1168561927623,1
726,667,2,0.0933167624982905,1
726,668,2,0.128383732266789,1
726,669,2,0.131841342430509,1
726,670,2,0.0990244320087112,1
726,674,2,0.0689771221225236,1
726,675,2,0.0993305934181275,1
726,676,2,0.150781505239329,1
726,677,2,0.194590966344455,1
726,678,2,0.188033730968206,1
726,679,2,0.197542392519699,1
726,680,2,0.19090052160886,1
726,681,2,0.132373761637775,1
726,682,2,0.087822975908546,1
726,683,2,0.0987844336647644,1
726,684,2,0.161824435928421,1
726,685,2,0.205363207077481,1
726,686,2,0.143214573326215,1
727,667,2,0.0800004542646103,1
727,668,2,0.0978901960496805,1
727,669,2,0.100532148469392,1
727,670,2,0.0844233527660833,1
727,674,2,0.0697569430368471,1
727,675,2,0.0913669826009946,1
727,676,2,0.12668263588861,1
727,677,2,0.157221808208907,1
727,678,2,0.161549577088273,1
727,679,2,0.179135211957088,1
727,680,2,0.176002690894879,1
727,681,2,0.133773775936569,1
727,682,2,0.10442000424172,1
727,683,2,0.118016915510712,1
727,684,2,0.181620681479335,1
727,685,2,0.226857350466201,1
727,686,2,0.162540250096627,1
727,687,2,0.0923260595410567,1
727,688,2,0.0696943498778613,1
728,667,2,0.0678535060363046,1
728,668,2,0.0727461527189702,1
728,669,2,0.0743977256293506,1
728,670,2,0.070453937328926,1
728,675,2,0.0840227146201423,1
728,676,2,0.105624284641055,1
728,677,2,0.112234445677859,1
728,678,2,0.112953841732101,1
728,679,2,0.127372957570248,1
728,680,2,0.129770173733213,1
728,681,2,0.122275526436619,1
728,682,2,0.116656613426663,1
728,683,2,0.121759543174641,1
728,684,2,0.153745857351137,1
728,685,2,0.174781171920275,1
728,686,2,0.135462545355782,1
728,687,2,0.0981652765115391,1
728,688,2,0.0799337161806467,1
728,689,2,0.0721236233218684,1
729,675,2,0.0899372350542391,1
729,676,2,0.115102098846254,1
729,677,2,0.10222168457993,1
729,678,2,0.089305475412353,1
729,679,2,0.0977248902121981,1
729,680,2,0.111115902931895,1
729,681,2,0.125340830232786,1
729,682,2,0.129040091918623,1
729,683,2,0.139789212116368,1
729,684,2,0.168288578206397,1
729,685,2,0.159722120396031,1
729,686,2,0.12282283622697,1
729,687,2,0.105600217721169,1
729,688,2,0.0897944687437676,1
729,689,2,0.0758490004309764,1
730,660,2,0.069864225914416,1
730,675,2,0.0791874260322564,1
730,676,2,0.100690482207634,1
730,677,2,0.0864899632438595,1
730,678,2,0.0723398482449525,1
730,679,2,0.0786226021369412,1
730,680,2,0.0924251843437415,1
730,681,2,0.106295726548805,1
730,682,2,0.118918340856971,1
730,683,2,0.170096783758641,1
730,684,2,0.236160550722046,1
730,685,2,0.209717462746229,1
730,686,2,0.146116284360829,1
730,687,2,0.116830352868724,1
730,688,2,0.094816931841237,1
730,689,2,0.0767680297288395,1
731,676,2,0.0691869080364297,1
731,680,2,0.0678817777789278,1
731,681,2,0.076448163711982,1
731,682,2,0.0978914479128602,1
731,683,2,0.168758368316021,1
731,684,2,0.246771965970022,1
731,685,2,0.22784542391178,1
731,686,2,0.174925753132868,1
731,687,2,0.132916051995856,1
731,688,2,0.0954945252489183,1
731,689,2,0.0743504243684404,1
732,661,2,0.0737449957817602,1
732,662,2,0.100709098431378,1
732,663,2,0.107095481437588,1
732,664,2,0.0746890323943377,1
732,682,2,0.0777523356053272,1
732,683,2,0.117190733730307,1
732,684,2,0.160135798284279,1
732,685,2,0.170412732462008,1
732,686,2,0.174729707765059,1
732,687,2,0.143256034555545,1
732,688,2,0.095667024807352,1
733,661,2,0.10170868422639,1
733,662,2,0.158397804886066,1
733,663,2,0.167346062996918,1
733,664,2,0.105425963158373,1
733,683,2,0.0810134811169197,1
733,684,2,0.0945830191096854,1
733,685,2,0.115643694390321,1
733,686,2,0.14298205022269,1
733,687,2,0.122689419956803,1
733,688,2,0.0869095530409997,1
733,689,2,0.0725470286063075,1
733,690,2,0.0688615493949991,1
734,638,2,0.0752840806992455,1
734,640,2,0.074503984255227,1
734,661,2,0.0976989784413108,1
734,662,2,0.150804949222513,1
734,663,2,0.155522017601891,1
734,664,2,0.0977257647194911,1
734,683,2,0.069682166673519,1
734,684,2,0.0820136419304252,1
734,685,2,0.0978397501563811,1
734,686,2,0.109395004354328,1
734,687,2,0.0958599554916518,1
734,688,2,0.0784119357259661,1
734,689,2,0.0711560528794674,1
734,690,2,0.0681385055671853,1
735,639,2,0.0745974547093871,1
735,640,2,0.0750898562233341,1
735,641,2,0.07395780054276,1
735,661,2,0.0697717797119483,1
735,662,2,0.0972349984143865,1
735,663,2,0.0947471090226439,1
735,684,2,0.0725614160482103,1
735,685,2,0.0853588000399063,1
735,686,2,0.0921734879673067,1
735,687,2,0.0896861316656264,1
735,688,2,0.0804609841805704,1
735,689,2,0.071136316567615,1
735,690,2,0.067792302505346,1
736,639,2,0.073351401612371,1
736,640,2,0.0743844822346599,1
736,641,2,0.073399918797805,1
736,685,2,0.0714394591299376,1
736,686,2,0.085047062149053,1
736,687,2,0.0926789052644572,1
736,688,2,0.0841079850709865,1
736,689,2,0.0712555610278149,1
737,639,2,0.0735116281198227,1
737,640,2,0.0748758295480345,1
737,641,2,0.0748386390289778,1
737,650,2,0.0705740862452989,1
737,686,2,0.0706601653159003,1
737,687,2,0.0778172468076171,1
737,688,2,0.0724736778096626,1
738,640,2,0.0795784805366303,1
738,641,2,0.0801265510285308,1
738,649,2,0.102668665622625,1
738,650,2,0.128773019787249,1
738,651,2,0.0861793154922345,1
739,641,2,0.0873941319075175,1
739,648,2,0.0718892373980145,1
739,649,2,0.124484867286211,1
739,650,2,0.156291488183322,1
739,651,2,0.100923640227412,1
740,649,2,0.0913430833948363,1
740,650,2,0.108341762146092,1
740,651,2,0.0729315422753118,1
741,659,2,0.0824776878448853,1
741,660,2,0.0702414679953811,1
742,659,2,0.0709386300011874,1
742,668,2,0.0783336253948101,1
742,669,2,0.0754006836682385,1
745,652,2,0.0924303774795157,1
745,653,2,0.118204036112311,1
745,654,2,0.0919670024199653,1
746,651,2,0.0774019576696302,1
746,652,2,0.152232456593052,1
746,653,2,0.215221396016483,1
746,654,2,0.165502158379836,1
746,655,2,0.0805251346813109,1
746,675,2,0.0681148699111702,1
747,651,2,0.0848206605965798,1
747,652,2,0.160466853202666,1
747,653,2,0.228702081672368,1
747,654,2,0.180897775416369,1
747,655,2,0.0909172103226937,1
747,674,2,0.0866643495817268,1
747,675,2,0.127106652130199,1
747,676,2,0.097293871922489,1
748,650,2,0.0703082899362084,1
748,651,2,0.0805588690996274,1
748,652,2,0.111319040194464,1
748,653,2,0.142006998550091,1
748,654,2,0.119151403040334,1
748,655,2,0.076480610328463,1
748,674,2,0.100126904185723,1
748,675,2,0.151390749313308,1
748,676,2,0.114650445778296,1
749,650,2,0.0713350573346149,1
749,651,2,0.0774334039935226,1
749,652,2,0.0800229219143094,1
749,653,2,0.0800329128606432,1
749,654,2,0.0734576602382474,1
749,674,2,0.0738651207390291,1
749,675,2,0.104396572238088,1
749,676,2,0.081085023001219,1
750,651,2,0.0709930710750651,1
750,652,2,0.0708723531299742,1
750,667,2,0.0797832410284896,1
751,666,2,0.0698208599363244,1
751,667,2,0.0879709054059118,1
751,668,2,0.0701177012543166,1
757,665,2,0.0793821057311422,1
759,672,2,0.0786259683910417,1
759,673,2,0.0717423261625652,1
760,672,2,0.111099263334224,1
724,668,3,0.0790564655702406,1
724,669,3,0.0883567787540634,1
724,670,3,0.0711373827477393,1
724,676,3,0.0733861423130521,1
724,677,3,0.0806471643873413,1
724,678,3,0.0832563886711006,1
724,679,3,0.088563473943564,1
724,680,3,0.0845957984165332,1
725,668,3,0.0902957351261643,1
725,669,3,0.0986774023577867,1
725,670,3,0.0787174322702487,1
725,675,3,0.0754983289962563,1
725,676,3,0.0940630346773528,1
725,677,3,0.110337819052605,1
725,678,3,0.117521081855128,1
725,679,3,0.137190404053037,1
725,680,3,0.135580136637811,1
725,681,3,0.0959161934983234,1
725,685,3,0.110459639116476,1
726,667,3,0.0748868507358368,1
726,668,3,0.0938523742561537,1
726,669,3,0.0968798226681299,1
726,670,3,0.079065384346674,1
726,675,3,0.0861679468974254,1
726,676,3,0.11532845248052,1
726,677,3,0.14029476118859,1
726,678,3,0.14918901547921,1
726,679,3,0.173656268032221,1
726,680,3,0.169137017994341,1
726,681,3,0.118999370546422,1
726,682,3,0.0827335051871939,1
726,683,3,0.0907072686746121,1
726,684,3,0.159284758933559,1
726,685,3,0.223926313488391,1
726,686,3,0.155462946431181,1
727,667,3,0.068357767306691,1
727,668,3,0.0760595889748637,1
727,669,3,0.078520692088426,1
727,670,3,0.0714293483880842,1
727,675,3,0.0784415371988568,1
727,676,3,0.0989889665451365,1
727,677,3,0.115982032876299,1
727,678,3,0.124350995793069,1
727,679,3,0.14471458094521,1
727,680,3,0.143679835165198,1
727,681,3,0.115863087904898,1
727,682,3,0.0972177418697896,1
727,683,3,0.110546335134004,1
727,684,3,0.184493114488961,1
727,685,3,0.257260542892211,1
727,686,3,0.18464953149889,1
727,687,3,0.0940014478007316,1
728,675,3,0.0710988445290872,1
728,676,3,0.0853183391031647,1
728,677,3,0.0893729322694341,1
728,678,3,0.0912053305268597,1
728,679,3,0.102591924612775,1
728,680,3,0.108702502394233,1
728,681,3,0.113461163778013,1
728,682,3,0.114411345900746,1
728,683,3,0.115985171518912,1
728,684,3,0.14423173312395,1
728,685,3,0.177761372979325,1
728,686,3,0.13854259598041,1
728,687,3,0.093522954546609,1
728,688,3,0.0758048078637996,1
728,689,3,0.0716939108033229,1
729,675,3,0.0729422160561072,1
729,676,3,0.0910662838672715,1
729,677,3,0.0825962794195035,1
729,678,3,0.0757018555942639,1
729,679,3,0.0841581674141428,1
729,680,3,0.101254790982215,1
729,681,3,0.121438503161691,1
729,682,3,0.126847941726092,1
729,683,3,0.130148008802,1
729,684,3,0.143530402234062,1
729,685,3,0.136994238889708,1
729,686,3,0.114291718094883,1
729,687,3,0.101911306368224,1
729,688,3,0.084944517184284,1
729,689,3,0.073485237166857,1
730,660,3,0.0681159360912945,1
730,675,3,0.0680657118197064,1
730,676,3,0.0862048199583552,1
730,677,3,0.075708827693504,1
730,679,3,0.0703126025749136,1
730,680,3,0.0856836375708267,1
730,681,3,0.101478293483114,1
730,682,3,0.111772633949839,1
730,683,3,0.15026404849246,1
730,684,3,0.203269133476839,1
730,685,3,0.186062280061416,1
730,686,3,0.149862170462891,1
730,687,3,0.12911798296546,1
730,688,3,0.0951081906880163,1
730,689,3,0.0732321212135152,1
731,681,3,0.0734379778343788,1
731,682,3,0.0912027908618444,1
731,683,3,0.154085321914999,1
731,684,3,0.234380676810185,1
731,685,3,0.226379605934076,1
731,686,3,0.188057162971837,1
731,687,3,0.149053275175963,1
731,688,3,0.0999383520276638,1
731,689,3,0.0723707974174386,1
732,662,3,0.0842129558950273,1
732,663,3,0.0903966688411949,1
732,682,3,0.0728845704520805,1
732,683,3,0.113728140072972,1
732,684,3,0.175532972662567,1
732,685,3,0.187926298346237,1
732,686,3,0.176562112012261,1
732,687,3,0.138331863681899,1
732,688,3,0.0939853173340188,1
733,637,3,0.0689138640984041,1
733,640,3,0.0690019377644067,1
733,661,3,0.0851798375131907,1
733,662,3,0.136401802127128,1
733,663,3,0.14468755507599,1
733,664,3,0.0909455898812846,1
733,683,3,0.0846018421004966,1
733,684,3,0.117901169079684,1
733,685,3,0.135946147888815,1
733,686,3,0.138109235688293,1
733,687,3,0.109336616018079,1
734,638,3,0.069672822622991,1
734,639,3,0.0702947590322707,1
734,640,3,0.0708126170941306,1
734,641,3,0.0687750151014232,1
734,661,3,0.0831609715397471,1
734,662,3,0.130747225990989,1
734,663,3,0.133521833979319,1
734,664,3,0.0830488549129628,1
734,683,3,0.0702382035674722,1
734,684,3,0.0907564267660759,1
734,685,3,0.106318954900054,1
734,686,3,0.107547553789865,1
734,687,3,0.0905974341524759,1
734,688,3,0.0778804449339769,1
734,689,3,0.0706648014025084,1
735,639,3,0.0692998512522992,1
735,640,3,0.0715459154184213,1
735,641,3,0.0707621592212793,1
735,662,3,0.0829906762188739,1
735,663,3,0.079580001939729,1
735,684,3,0.0716515930360277,1
735,685,3,0.0868699726013271,1
735,686,3,0.0930150035742191,1
735,687,3,0.0874620499773491,1
735,688,3,0.0760617872226482,1
735,689,3,0.068813343677916,1
736,639,3,0.0681506708021997,1
736,640,3,0.0707599789428228,1
736,641,3,0.0710873082205506,1
736,685,3,0.0753717350809295,1
736,686,3,0.0887738468555162,1
736,687,3,0.0909283632855675,1
736,688,3,0.0781541956655681,1
736,689,3,0.0689999132201256,1
736,691,3,0.0685503146453281,1
736,692,3,0.0708248721757847,1
737,639,3,0.0679422445674409,1
737,640,3,0.0700838829791363,1
737,641,3,0.0720019889410527,1
737,642,3,0.0704819515111821,1
737,686,3,0.0724759359552068,1
737,687,3,0.0765414544728628,1
737,688,3,0.0687539969775111,1
737,691,3,0.0703471276436595,1
737,692,3,0.0730532485334393,1
738,640,3,0.073871577717535,1
738,641,3,0.0765206998990938,1
738,642,3,0.0752416730853106,1
738,649,3,0.102081763413049,1
738,650,3,0.136160665725745,1
738,651,3,0.0860313919846447,1
738,691,3,0.0691783726056589,1
739,641,3,0.0843376151127127,1
739,642,3,0.0793143254261582,1
739,648,3,0.069606461894914,1
739,649,3,0.131901851147454,1
739,650,3,0.174525899647581,1
739,651,3,0.106451328949201,1
740,649,3,0.088447769440968,1
740,650,3,0.111113542960159,1
740,651,3,0.0698825186902574,1
740,688,3,0.0700228232028013,1
741,659,3,0.0681867532127002,1
741,688,3,0.0731494503254461,1
742,688,3,0.0732845796715437,1
745,652,3,0.105333852383361,1
745,653,3,0.138896340170207,1
745,654,3,0.0989573285484128,1
746,651,3,0.0892614026406958,1
746,652,3,0.186422085904505,1
746,653,3,0.263329312037332,1
746,654,3,0.183729897233653,1
746,655,3,0.0801428192600911,1
747,651,3,0.0962946335344844,1
747,652,3,0.188496321367103,1
747,653,3,0.266188807130843,1
747,654,3,0.190202161647857,1
747,655,3,0.0869335780324535,1
747,674,3,0.0846162714708312,1
747,675,3,0.139844282116724,1
747,676,3,0.103255100629674,1
748,649,3,0.0683079024216616,1
748,650,3,0.0717717479421765,1
748,651,3,0.0863517132244766,1
748,652,3,0.116596200546133,1
748,653,3,0.146398091341113,1
748,654,3,0.110767585479135,1
748,655,3,0.0700089868202886,1
748,674,3,0.101401863941616,1
748,675,3,0.172331245728691,1
748,676,3,0.127978811431023,1
749,650,3,0.0745347357651057,1
749,651,3,0.0835420410875631,1
749,652,3,0.0821252134875955,1
749,653,3,0.0783953440465029,1
749,654,3,0.0694338724898406,1
749,675,3,0.101653087125748,1
749,676,3,0.0764754770904486,1
750,651,3,0.0745088898817542,1
750,652,3,0.0714581112923378,1
750,667,3,0.0853422442990989,1
751,666,3,0.072002779591482,1
751,667,3,0.0985878492171171,1
751,668,3,0.0762528431070664,1
752,667,3,0.070068183776294,1
759,672,3,0.0763500272223339,1
759,673,3,0.0778419666130845,1
760,672,3,0.127959428515953,1
760,673,3,0.130883565271835,1
761,672,3,0.0973709423700173,1
724,669,4,0.0698149480274326,1
724,678,4,0.0710720342918029,1
724,679,4,0.0788643255363701,1
724,680,4,0.0750212792781448,1
725,669,4,0.0717871895846517,1
725,677,4,0.072238315552324,1
725,678,4,0.0871040470568301,1
725,679,4,0.11012706279499,1
725,680,4,0.107622414010057,1
725,681,4,0.0821322934028032,1
725,685,4,0.0954191918364241,1
726,676,4,0.0753834690520734,1
726,677,4,0.0828524741176988,1
726,678,4,0.0980439056808665,1
726,679,4,0.124559883240578,1
726,680,4,0.122685802132111,1
726,681,4,0.0959403322955208,1
726,682,4,0.0771428399607569,1
726,683,4,0.0815837137799444,1
726,684,4,0.138996525163241,1
726,685,4,0.20681340371943,1
726,686,4,0.151779569631242,1
727,677,4,0.0714049280714158,1
727,678,4,0.07942483679298,1
727,679,4,0.0961747182193747,1
727,680,4,0.100316881910464,1
727,681,4,0.0953436667510986,1
727,682,4,0.0917741316334253,1
727,683,4,0.101756770147953,1
727,684,4,0.169027381134812,1
727,685,4,0.252662407504681,1
727,686,4,0.193009114426476,1
727,687,4,0.0991391721573745,1
728,679,4,0.0719722856419703,1
728,680,4,0.0842834914969619,1
728,681,4,0.101037050645808,1
728,682,4,0.108972509515837,1
728,683,4,0.108846760158924,1
728,684,4,0.129150902774244,1
728,685,4,0.168408265910019,1
728,686,4,0.13751513376799,1
728,687,4,0.0905110496032995,1
728,688,4,0.0719393658331869,1
728,689,4,0.0694663790040814,1
729,680,4,0.0835492348085145,1
729,681,4,0.106112499301592,1
729,682,4,0.115552673754536,1
729,683,4,0.117681535974067,1
729,684,4,0.117808351511105,1
729,685,4,0.116308643380909,1
729,686,4,0.109951466522375,1
729,687,4,0.100311586948499,1
729,688,4,0.0808391486870363,1
729,689,4,0.0699757735124823,1
730,680,4,0.0726217330923239,1
730,681,4,0.0888367694521808,1
730,682,4,0.0992340801577697,1
730,683,4,0.123415500601038,1
730,684,4,0.151804846485875,1
730,685,4,0.151619199369166,1
730,686,4,0.154897811067515,1
730,687,4,0.147991874892843,1
730,688,4,0.100305675039607,1
730,689,4,0.0699288675767868,1
731,681,4,0.0697907613120274,1
731,682,4,0.0838419851095128,1
731,683,4,0.126512011130058,1
731,684,4,0.189792640664139,1
731,685,4,0.205607829528484,1
731,686,4,0.199732086904078,1
731,687,4,0.175301635534686,1
731,688,4,0.112402219303045,1
731,689,4,0.0710633371370807,1
732,682,4,0.0696337632938286,1
732,683,4,0.106745942070529,1
732,684,4,0.184596402185952,1
732,685,4,0.212595262595133,1
732,686,4,0.181765574160279,1
732,687,4,0.137679529159523,1
732,688,4,0.0941160561743234,1
732,689,4,0.0694218629890017,1
733,662,4,0.0965882343836717,1
733,663,4,0.102567582163195,1
733,683,4,0.0882903940668825,1
733,684,4,0.153642689449666,1
733,685,4,0.182067231258159,1
733,686,4,0.143612833531092,1
733,687,4,0.0961747361887027,1
733,688,4,0.0787656619464357,1
734,662,4,0.0921831674452896,1
734,663,4,0.0927078119233343,1
734,683,4,0.0682200503773703,1
734,684,4,0.104057526958544,1
734,685,4,0.125551466694881,1
734,686,4,0.106675705957393,1
734,687,4,0.0809369677185576,1
735,640,4,0.0678937932695427,1
735,684,4,0.0678760755121953,1
735,685,4,0.0849090517207093,1
735,686,4,0.0885465707957499,1
735,687,4,0.0793900242149871,1
735,688,4,0.0693274760991167,1
736,685,4,0.0725094307824842,1
736,686,4,0.0846021655483994,1
736,687,4,0.0818581353664454,1
736,688,4,0.0701782459099174,1
736,691,4,0.0690806254514494,1
737,686,4,0.0699467530478616,1
737,687,4,0.0712709367827543,1
737,691,4,0.0733727012557541,1
738,640,4,0.0681358101679945,1
738,641,4,0.0706512165905869,1
738,642,4,0.0698770200759082,1
738,649,4,0.0914692460462926,1
738,650,4,0.125825738536982,1
738,651,4,0.0810948162849454,1
739,641,4,0.0785583617895611,1
739,642,4,0.0732387638750765,1
739,643,4,0.0678940388503579,1
739,649,4,0.123866590630054,1
739,650,4,0.167801525562399,1
739,651,4,0.104646393814641,1
740,642,4,0.0777514551082582,1
740,649,4,0.079761498141684,1
740,650,4,0.102052497367613,1
740,687,4,0.0678792441036885,1
740,688,4,0.0808668933293734,1
741,687,4,0.0717508975319919,1
742,687,4,0.0693627019716522,1
745,651,4,0.0685156398321828,1
745,652,4,0.109623705980777,1
745,653,4,0.137836461290186,1
745,654,4,0.090302246012654,1
746,651,4,0.100694040134566,1
746,652,4,0.199732745779436,1
746,653,4,0.263273271693267,1
746,654,4,0.167761070615434,1
746,655,4,0.072915124299352,1
747,650,4,0.0686888401944061,1
747,651,4,0.106971337340637,1
747,652,4,0.198164850039489,1
747,653,4,0.258518851070881,1
747,654,4,0.167021249425101,1
747,655,4,0.075857284291156,1
747,674,4,0.0681521263177627,1
747,675,4,0.121241020247647,1
747,676,4,0.0871966549832492,1
748,649,4,0.0684815040988756,1
748,650,4,0.0723868380375117,1
748,651,4,0.0910733877415832,1
748,652,4,0.120843886120654,1
748,653,4,0.140545732802131,1
748,654,4,0.0962699736267768,1
748,674,4,0.0866747478328272,1
748,675,4,0.157127948419308,1
748,676,4,0.116444491500125,1
749,650,4,0.0749077310949013,1
749,651,4,0.0855534078614803,1
749,652,4,0.0843078638954225,1
749,653,4,0.0774764824623672,1
749,675,4,0.0839814869920754,1
750,651,4,0.0748398190148457,1
750,652,4,0.0706720490314436,1
750,667,4,0.0782425688203697,1
751,667,4,0.0940853406031005,1
751,668,4,0.0731627596076725,1
759,673,4,0.0716514133427483,1
760,672,4,0.123676966302095,1
760,673,4,0.139141621496568,1
724,679,5,0.0690488017716703,1
725,679,5,0.0841962683791484,1
725,680,5,0.0817468752776261,1
725,681,5,0.0708241234537872,1
725,685,5,0.0800019756677091,1
726,679,5,0.0834774772922801,1
726,680,5,0.0850805390070025,1
726,681,5,0.0806794612594228,1
726,682,5,0.0765758178176572,1
726,683,5,0.0766628612421914,1
726,684,5,0.113300458088483,1
726,685,5,0.162571804236487,1
726,686,5,0.130394536001764,1
727,680,5,0.0744361440524831,1
727,681,5,0.0877460252565373,1
727,682,5,0.0935956284985683,1
727,683,5,0.0961944485414512,1
727,684,5,0.143161240360893,1
727,685,5,0.210354391564785,1
727,686,5,0.174500323304148,1
727,687,5,0.0973037969812871,1
728,680,5,0.0694998618518068,1
728,681,5,0.0924052982874895,1
728,682,5,0.103728268972951,1
728,683,5,0.101217103311752,1
728,684,5,0.112880850322015,1
728,685,5,0.145179040154212,1
728,686,5,0.126484494099208,1
728,687,5,0.0861802978154952,1
729,680,5,0.0679768654726024,1
729,681,5,0.0883901597755971,1
729,682,5,0.100234923805737,1
729,683,5,0.103595643353213,1
729,684,5,0.0994443093150983,1
729,685,5,0.102142080457163,1
729,686,5,0.105206857153043,1
729,687,5,0.097282203838881,1
729,688,5,0.0778086934075184,1
730,681,5,0.0758354874963666,1
730,682,5,0.0870009989508788,1
730,683,5,0.100336995578204,1
730,684,5,0.10845145890338,1
730,685,5,0.118615869149558,1
730,686,5,0.143689251093038,1
730,687,5,0.14851042177894,1
730,688,5,0.0996391088095037,1
730,689,5,0.0702949986233099,1
731,682,5,0.0772163644609053,1
731,683,5,0.0992274255166565,1
731,684,5,0.134829713543995,1
731,685,5,0.164137603554841,1
731,686,5,0.180139913020786,1
731,687,5,0.176203695797199,1
731,688,5,0.115312076432992,1
731,689,5,0.0727811689493463,1
732,683,5,0.0928101831846,1
732,684,5,0.163236801145283,1
732,685,5,0.203474247365481,1
732,686,5,0.162977958966105,1
732,687,5,0.128556189896791,1
732,688,5,0.0910677333930586,1
732,689,5,0.068571674186471,1
733,683,5,0.0836541816734514,1
733,684,5,0.160041004089627,1
733,685,5,0.201273388038676,1
733,686,5,0.139540636413219,1
733,687,5,0.0891318138373792,1
733,688,5,0.0749931812390249,1
734,684,5,0.100521642402324,1
734,685,5,0.127864538484886,1
734,686,5,0.097604531653666,1
734,687,5,0.0744079681462755,1
735,685,5,0.0765878093491682,1
735,686,5,0.0783138591340777,1
735,687,5,0.0712256361070213,1
736,686,5,0.0751475617251206,1
736,687,5,0.0710341309894046,1
738,649,5,0.0789501350670524,1
738,650,5,0.105069152203274,1
738,651,5,0.0722700793343433,1
739,640,5,0.0782367946763254,1
739,641,5,0.0719701293226177,1
739,649,5,0.106932667346914,1
739,650,5,0.140942220033318,1
739,651,5,0.0938406642441137,1
740,641,5,0.0841441094099189,1
740,642,5,0.0711115069155078,1
740,643,5,0.067989545828351,1
740,649,5,0.0724557563999319,1
740,650,5,0.0876030493039066,1
741,637,5,0.0795096220719699,1
741,643,5,0.07312960020785,1
743,638,5,0.12228109692828,1
744,637,5,0.130849603242031,1
744,638,5,0.134415089271142,1
745,652,5,0.0964132790170864,1
745,653,5,0.110606041220967,1
745,654,5,0.0727484048747385,1
746,651,5,0.0976406500028224,1
746,652,5,0.172983184925852,1
746,653,5,0.205690153009546,1
746,654,5,0.12614609571547,1
747,650,5,0.0682019073459283,1
747,651,5,0.105537013605033,1
747,652,5,0.17833793683556,1
747,653,5,0.207413579272577,1
747,654,5,0.127053079573838,1
747,675,5,0.0900597499321239,1
748,650,5,0.0698469274413872,1
748,651,5,0.0889742767393423,1
748,652,5,0.117044858726102,1
748,653,5,0.123828926918695,1
748,654,5,0.0813890101219547,1
748,674,5,0.0682811341128092,1
748,675,5,0.120414526998891,1
748,676,5,0.0929167293197234,1
749,651,5,0.0796771620958926,1
749,652,5,0.0806679489099902,1
749,653,5,0.072695041960537,1
751,667,5,0.0734275616139504,1
760,672,5,0.10507639983221,1
760,673,5,0.123467575713404,1
761,672,5,0.079357044508444,1
720,636,6,0.0713306069310621,1
721,635,6,0.079766469655747,1
721,636,6,0.0776450048095505,1
726,681,6,0.0719362092212457,1
726,682,6,0.076102481760653,1
726,683,6,0.0727286086651262,1
726,684,6,0.0874155573361962,1
726,685,6,0.111673227627684,1
727,681,6,0.0854041007156393,1
727,682,6,0.0956916787252837,1
727,683,6,0.0907773370740203,1
727,684,6,0.111326060211912,1
727,685,6,0.148289039658738,1
727,686,6,0.134839500837946,1
728,681,6,0.0835832627258541,1
728,682,6,0.0968104970009431,1
728,683,6,0.092197369204137,1
728,684,6,0.0956686600161944,1
728,685,6,0.112695047471131,1
728,686,6,0.10529385265937,1
729,681,6,0.0696947811417318,1
729,682,6,0.0831439066679815,1
729,683,6,0.0881315871363379,1
729,684,6,0.0870188424935217,1
729,685,6,0.0892888657635618,1
729,686,6,0.0961821814802452,1
729,687,6,0.0940596744130283,1
729,688,6,0.0794776426580153,1
730,682,6,0.0747304936236678,1
730,683,6,0.0833733031084446,1
730,684,6,0.085019029997469,1
730,685,6,0.0949728217508796,1
730,686,6,0.124637798246519,1
730,687,6,0.139367687621586,1
730,688,6,0.103728209075191,1
730,689,6,0.0775513307030071,1
731,682,6,0.0702170416889367,1
731,683,6,0.0790515060357295,1
731,684,6,0.0960135632966462,1
731,685,6,0.123414889643888,1
731,686,6,0.148918457298216,1
731,687,6,0.162053592777844,1
731,688,6,0.119753207812546,1
731,689,6,0.081482744126258,1
732,683,6,0.0754802398727982,1
732,684,6,0.129049459928255,1
732,685,6,0.172607086892099,1
732,686,6,0.142184044348493,1
732,687,6,0.122091364784353,1
732,688,6,0.0952569288051394,1
733,683,6,0.070089525348109,1
733,684,6,0.140267495728331,1
733,685,6,0.188503976300804,1
733,686,6,0.133871816589801,1
733,687,6,0.0899695259365446,1
734,684,6,0.0857321906949166,1
734,685,6,0.115907891429225,1
734,686,6,0.0882529759363385,1
734,687,6,0.0705037063775397,1
735,686,6,0.0688990094539749,1
736,686,6,0.0687109364779945,1
738,650,6,0.0749922468339721,1
739,639,6,0.0762684764223729,1
739,640,6,0.0756263784271462,1
739,641,6,0.0679647661251238,1
739,649,6,0.0804903340828699,1
739,650,6,0.100036895822079,1
739,651,6,0.0724932883362194,1
740,636,6,0.0726078128529476,1
740,637,6,0.0704419877258469,1
740,640,6,0.092378254448942,1
740,641,6,0.0778680820363552,1
740,650,6,0.0679866527665529,1
741,636,6,0.0779081057194502,1
741,637,6,0.0784783743211308,1
741,638,6,0.0829799006118868,1
741,641,6,0.0933617996238804,1
741,642,6,0.0819512524238227,1
742,637,6,0.0989590895425507,1
742,638,6,0.102615021188952,1
743,637,6,0.136995424865352,1
743,638,6,0.14496395927834,1
743,639,6,0.115185045264018,1
744,636,6,0.108659447884493,1
744,637,6,0.160879165421991,1
744,638,6,0.169565203120012,1
744,639,6,0.121944878822998,1
745,637,6,0.142803159573286,1
745,638,6,0.146958183313404,1
745,652,6,0.0729306497986908,1
745,653,6,0.0760675913155723,1
746,651,6,0.0806378562754691,1
746,652,6,0.126718167239721,1
746,653,6,0.134702921966061,1
746,654,6,0.083375525315333,1
747,651,6,0.0930642455225466,1
747,652,6,0.147025556313622,1
747,653,6,0.153327938701495,1
747,654,6,0.0920061036775595,1
748,651,6,0.08070830802054,1
748,652,6,0.109796223508539,1
748,653,6,0.108493267539717,1
748,654,6,0.0687185854219203,1
748,675,6,0.0788687879194748,1
749,651,6,0.0701571978371254,1
749,652,6,0.0750142592606968,1
749,653,6,0.0677491102307578,1
760,672,6,0.0808091638684829,1
760,673,6,0.0960646800448553,1
761,673,6,0.0774667131377446,1
720,636,7,0.0709437812085298,1
721,635,7,0.0784426033789812,1
721,636,7,0.0756678216871483,1
722,635,7,0.0793498567772686,1
726,682,7,0.071282107714956,1
726,683,7,0.0679903664276602,1
726,684,7,0.0706868976860968,1
726,685,7,0.0792067610291183,1
727,681,7,0.075329507160274,1
727,682,7,0.0871106657592875,1
727,683,7,0.0826464497831078,1
727,684,7,0.0882646559994986,1
727,685,7,0.103020481104557,1
727,686,7,0.101193407757977,1
728,681,7,0.0714914683547676,1
728,682,7,0.0858190484363953,1
728,683,7,0.0835945714229034,1
728,684,7,0.0842748302808956,1
728,685,7,0.0905107501145006,1
728,686,7,0.089398095318324,1
729,682,7,0.0758096775516709,1
729,683,7,0.0801226456945922,1
729,684,7,0.0808008800083033,1
729,685,7,0.0816689902205646,1
729,686,7,0.0898648186626469,1
729,687,7,0.0954804432855905,1
729,688,7,0.0876626475749026,1
730,682,7,0.0723533072715785,1
730,683,7,0.0778761143259437,1
730,684,7,0.078134345547972,1
730,685,7,0.0853853107883916,1
730,686,7,0.11150595714368,1
730,687,7,0.133821406635158,1
730,688,7,0.117048931773768,1
730,689,7,0.0900727297766714,1
731,683,7,0.0720903141776464,1
731,684,7,0.0820656930836871,1
731,685,7,0.10250756460788,1
731,686,7,0.127090012532528,1
731,687,7,0.148610486976454,1
731,688,7,0.128304451591924,1
731,689,7,0.0934226557478322,1
732,684,7,0.107604516559431,1
732,685,7,0.149253357652782,1
732,686,7,0.136956551219245,1
732,687,7,0.125851806042045,1
732,688,7,0.106596533098496,1
733,684,7,0.123331811451052,1
733,685,7,0.174861099490946,1
733,686,7,0.141963908101694,1
733,687,7,0.101907724482189,1
734,684,7,0.082038852897523,1
734,685,7,0.116314082097499,1
734,686,7,0.0978180192491274,1
734,687,7,0.0765567882993703,1
734,688,7,0.0680323307981726,1
735,685,7,0.0703620062471926,1
735,686,7,0.0728882901029638,1
736,686,7,0.0678081215037079,1
738,638,7,0.0678223172727793,1
739,636,7,0.0702835102329812,1
739,639,7,0.0740842267443593,1
739,640,7,0.0713824184932848,1
740,635,7,0.0851719429884497,1
740,636,7,0.0760436501809823,1
740,637,7,0.0710987726517754,1
740,638,7,0.0740275874226971,1
740,639,7,0.0804071061456347,1
740,640,7,0.080701587491891,1
740,641,7,0.0710986768153597,1
741,635,7,0.0817833170746854,1
741,636,7,0.0791646289448784,1
741,637,7,0.078044936161926,1
741,638,7,0.0795316704373504,1
741,639,7,0.0820590564119019,1
741,640,7,0.0855427340806849,1
741,641,7,0.0857450088155127,1
741,642,7,0.0781905476159877,1
742,636,7,0.0881188588623815,1
742,637,7,0.107992558206487,1
742,638,7,0.113139153421355,1
743,636,7,0.104860025164726,1
743,637,7,0.16638166114601,1
743,638,7,0.181039948739018,1
743,639,7,0.124356326693691,1
744,636,7,0.115845334208895,1
744,637,7,0.194830066222005,1
744,638,7,0.211607476658801,1
744,639,7,0.134835152260585,1
745,637,7,0.14489448985653,1
745,638,7,0.15272813451446,1
746,652,7,0.0863925455273289,1
746,653,7,0.0840600848324784,1
747,651,7,0.0813680279366985,1
747,652,7,0.114600562923938,1
747,653,7,0.111494756262598,1
747,654,7,0.0700420324143675,1
748,651,7,0.0753146884545007,1
748,652,7,0.0992548586906426,1
748,653,7,0.0944207980068326,1
749,652,7,0.0721478819145854,1
760,673,7,0.0718365273693948,1
721,635,8,0.0726323469753596,1
721,636,8,0.0685221746777764,1
722,635,8,0.0715645196626137,1
722,636,8,0.0684590124900726,1
723,635,8,0.0700408763876035,1
727,682,8,0.0742825542168167,1
727,683,8,0.0753407260106836,1
727,684,8,0.0778232964813564,1
727,685,8,0.0798968910379247,1
728,682,8,0.0735223318494981,1
728,683,8,0.0759288201856792,1
728,684,8,0.0789878227375155,1
728,685,8,0.0797822587052289,1
729,682,8,0.0721245876758011,1
729,683,8,0.0756979023421174,1
729,684,8,0.0777767379526677,1
729,685,8,0.0790140220176498,1
729,686,8,0.0846348277968157,1
730,682,8,0.0727402587794063,1
730,683,8,0.0758353257724152,1
730,684,8,0.075011288331811,1
730,685,8,0.0812419790909858,1
730,686,8,0.10248879264996,1
730,687,8,0.126867624129961,1
730,688,8,0.122025189739332,1
731,683,8,0.0683362999495805,1
731,684,8,0.0752041052103672,1
731,685,8,0.094110629437286,1
731,686,8,0.119584379986788,1
731,687,8,0.146228149417022,1
731,688,8,0.135578399602777,1
732,684,8,0.0921516672134134,1
732,685,8,0.137169966937395,1
732,686,8,0.146328454205575,1
732,687,8,0.144680019937808,1
733,684,8,0.10670620589668,1
733,685,8,0.166321763386215,1
733,686,8,0.156059851566643,1
733,687,8,0.119208377789451,1
734,684,8,0.078655983158475,1
734,685,8,0.12358746706941,1
734,686,8,0.115075216731658,1
734,687,8,0.08475862448676,1
735,685,8,0.0789992691994123,1
735,686,8,0.0843276181766029,1
735,687,8,0.070975580929205,1
736,686,8,0.0722364467422184,1
738,638,8,0.0690776066043557,1
739,636,8,0.0698448549788983,1
739,638,8,0.068357467817892,1
739,639,8,0.0687085106187228,1
740,635,8,0.0839917834169841,1
740,636,8,0.0755277208269878,1
740,637,8,0.0695130633180656,1
740,638,8,0.0693303511915869,1
740,639,8,0.0701002769959922,1
741,635,8,0.0790109013443645,1
741,636,8,0.0759006263101437,1
741,637,8,0.0741137144115064,1
741,638,8,0.0731984886213903,1
741,639,8,0.0708237760467804,1
741,640,8,0.0726784922095057,1
741,641,8,0.0765169802482106,1
741,642,8,0.0723891740501437,1
742,636,8,0.0829392599818658,1
742,637,8,0.108208884955762,1
742,638,8,0.116262222617068,1
742,639,8,0.0879938342683613,1
742,640,8,0.08855470491153,1
742,641,8,0.117756611826195,1
743,636,8,0.101947688267524,1
743,637,8,0.179716196267996,1
743,638,8,0.203785571961792,1
743,639,8,0.125938741650612,1
744,637,8,0.204213433639559,1
744,638,8,0.231303225748331,1
744,639,8,0.136520603343905,1
745,638,8,0.142590079282592,1
747,651,8,0.0686628146177751,1
747,652,8,0.0868736203748986,1
747,653,8,0.0823171917975145,1
748,651,8,0.0680401953740337,1
748,652,8,0.0853863829582919,1
748,653,8,0.0803551089003567,1
721,635,9,0.0684704170235375,1
727,683,9,0.0680034780472794,1
727,684,9,0.0740905040295858,1
727,685,9,0.0731419091974879,1
728,683,9,0.0683369588249382,1
728,684,9,0.0772409824401811,1
728,685,9,0.0792444606791333,1
729,682,9,0.067898081949144,1
729,683,9,0.0716354805386428,1
729,684,9,0.0786552524058055,1
729,685,9,0.0834602147579071,1
730,682,9,0.0717080586541865,1
730,683,9,0.0739168304750602,1
730,684,9,0.074788588460893,1
730,685,9,0.0815723811237912,1
730,686,9,0.0960578457104627,1
731,684,9,0.0707886639799886,1
731,685,9,0.0864884538203127,1
731,686,9,0.111538529545457,1
732,684,9,0.0768732161848155,1
732,685,9,0.117177783834639,1
732,686,9,0.140994163370613,1
733,684,9,0.0897684072284808,1
733,685,9,0.154058607514131,1
733,686,9,0.165557827357789,1
733,687,9,0.133437018751449,1
734,684,9,0.0784909648302397,1
734,685,9,0.145637569484995,1
734,686,9,0.158304783665105,1
734,687,9,0.113518533852345,1
735,685,9,0.108725263542955,1
735,686,9,0.127483301223342,1
735,687,9,0.0963450973971117,1
736,685,9,0.076167926053005,1
736,686,9,0.0898911856565087,1
736,687,9,0.0759643335674617,1
737,686,9,0.0682479088254509,1
737,688,9,0.068220128244458,1
738,638,9,0.068074289178909,1
739,635,9,0.077438549211089,1
739,636,9,0.0690708321677229,1
740,635,9,0.07897540593191,1
740,636,9,0.0732909527931859,1
741,636,9,0.0720362863983113,1
741,637,9,0.0701442539312337,1
741,641,9,0.0717701906004218,1
741,642,9,0.0686613471226602,1
742,637,9,0.0995691602056151,1
742,638,9,0.108640951456268,1
742,639,9,0.0812931976653866,1
742,640,9,0.0823257691567172,1
742,641,9,0.105697132296517,1
743,637,9,0.170376877662995,1
743,638,9,0.197235991519244,1
743,639,9,0.118683050476944,1
743,640,9,0.0904268093939238,1
744,637,9,0.187979343802312,1
744,638,9,0.216802672915968,1
744,639,9,0.12613612872824,1
744,640,9,0.0782049650067704,1
745,638,9,0.125019227180894,1
748,652,9,0.0698667715692073,1
706,654,10,0.0697383268131028,1
717,631,10,0.0680931390039165,1
727,684,10,0.0686934882605662,1
728,684,10,0.0709303521307837,1
729,684,10,0.0743747787975731,1
730,683,10,0.0685589818511705,1
730,684,10,0.0718104359052281,1
730,685,10,0.0806794253207669,1
731,684,10,0.0682848956921244,1
731,685,10,0.0789030674074055,1
732,684,10,0.0692442361823295,1
732,685,10,0.0945149932238862,1
733,684,10,0.0749628789623446,1
733,685,10,0.124532713616735,1
733,686,10,0.146805515903239,1
734,684,10,0.0747694511266385,1
734,685,10,0.149935904605199,1
734,686,10,0.184190594863341,1
734,687,10,0.131346263486699,1
735,685,10,0.129087471046621,1
735,686,10,0.164829985719416,1
735,687,10,0.11891056612775,1
736,685,10,0.0864685318254048,1
736,686,10,0.105487741707826,1
736,687,10,0.084259789953411,1
739,635,10,0.0723516301343042,1
740,635,10,0.0715939654013289,1
740,636,10,0.0688075635440958,1
742,638,10,0.0934696155915115,1
742,639,10,0.0739398372045974,1
742,640,10,0.073187772912163,1
742,641,10,0.0874529275485323,1
742,642,10,0.0855581996822639,1
743,638,10,0.161752163291452,1
743,639,10,0.103836839652355,1
743,640,10,0.0783023048562133,1
743,641,10,0.0932213813055929,1
744,638,10,0.175356070618788,1
744,639,10,0.108557969099848,1
744,640,10,0.0697206210353074,1
706,654,11,0.0690190625339321,1
712,641,11,0.0761397741059014,1
712,643,11,0.0701328733568727,1
717,631,11,0.0684358140877039,1
717,633,11,0.0689988590195532,1
718,634,11,0.086843114445835,1
719,635,11,0.0712007425980505,1
721,634,11,0.0696342963838908,1
732,685,11,0.0753365631163779,1
733,685,11,0.0936517586892722,1
733,686,11,0.114513471581196,1
734,684,11,0.0723856340925398,1
734,685,11,0.135827646160836,1
734,686,11,0.175575536010677,1
735,684,11,0.0697659935883521,1
735,685,11,0.13924693373784,1
735,686,11,0.181369470274754,1
735,687,11,0.133237954536546,1
736,685,11,0.0967747979361053,1
736,686,11,0.117782595474394,1
736,687,11,0.0937627372586204,1
737,686,11,0.0713427841456284,1
737,687,11,0.0704389928378572,1
742,637,11,0.070705250359698,1
742,638,11,0.0774631552108128,1
742,641,11,0.068884645971176,1
742,642,11,0.068168999516697,1
743,638,11,0.11265719208694,1
743,639,11,0.0834996634225082,1
743,640,11,0.0679725109054653,1
743,641,11,0.0734803135710019,1
743,642,11,0.0786054534083119,1
743,643,11,0.0682181755774887,1
744,638,11,0.120856812057218,1
744,639,11,0.0858400485909795,1
744,641,11,0.0688193334538955,1
745,642,11,0.0699327309822936,1
748,644,11,0.0714876468776927,1
706,654,12,0.0681522940314901,1
711,643,12,0.0795096759799537,1
712,641,12,0.0801093843305735,1
712,642,12,0.093077590743429,1
712,643,12,0.0815068110461436,1
715,629,12,0.0712174181343774,1
718,631,12,0.088461509987065,1
718,632,12,0.0888315703266306,1
718,633,12,0.0947950511895839,1
718,634,12,0.0749742355776018,1
719,631,12,0.0962025946367833,1
719,634,12,0.0989596885201487,1
720,634,12,0.0861601422193241,1
721,632,12,0.0839338083752785,1
721,633,12,0.0747207362785972,1
733,685,12,0.0714479586220525,1
734,684,12,0.0689319771809661,1
734,685,12,0.106028474724152,1
734,686,12,0.130260496794895,1
735,684,12,0.073516827245373,1
735,685,12,0.128268608772463,1
735,686,12,0.158701163080324,1
736,685,12,0.0985931082404271,1
736,686,12,0.117380573690201,1
736,687,12,0.0970330830661175,1
737,686,12,0.078002540527543,1
737,687,12,0.0793593445824201,1
738,687,12,0.0709351619208953,1
739,634,12,0.0680826509061764,1
743,637,12,0.068757548914667,1
743,638,12,0.0753024872808305,1
744,638,12,0.0795678426944907,1
744,642,12,0.0683245899375405,1
705,653,13,0.0734287775384743,1
706,653,13,0.0732259217953764,1
706,654,13,0.0677944887735785,1
707,652,13,0.0721526018580573,1
708,649,13,0.0679792254443383,1
711,641,13,0.0744675184990637,1
711,642,13,0.0872898139690585,1
711,643,13,0.086139417594435,1
711,644,13,0.068059967624542,1
712,641,13,0.0737053614341038,1
712,642,13,0.0900335626315415,1
712,643,13,0.0875214146470819,1
714,628,13,0.0830071780516974,1
715,628,13,0.0815576462748816,1
716,627,13,0.0901671945336442,1
716,628,13,0.0865314124936377,1
716,629,13,0.0768039444256126,1
717,626,13,0.0812776841455997,1
717,627,13,0.0870465871358588,1
717,630,13,0.0803992715186536,1
718,626,13,0.0725286639531544,1
718,627,13,0.0897990629019439,1
718,630,13,0.109559184113926,1
718,631,13,0.0761133532040558,1
718,632,13,0.0697710190103989,1
718,633,13,0.0682618530239312,1
719,631,13,0.0835451018630887,1
719,632,13,0.0823314953825536,1
719,633,13,0.085465855305988,1
719,634,13,0.072085480428431,1
720,632,13,0.0768720002602917,1
720,633,13,0.0772198325411974,1
720,634,13,0.0683607681844567,1
721,632,13,0.0691515923172546,1
734,685,13,0.0803596371709972,1
735,684,13,0.0757019694000075,1
735,685,13,0.104128026621823,1
735,686,13,0.112637809171871,1
736,685,13,0.092253181936714,1
736,686,13,0.103002463858411,1
737,685,13,0.0679731458217192,1
737,686,13,0.0852451320611432,1
737,687,13,0.0916459683967919,1
738,686,13,0.0739492351631093,1
738,687,13,0.0856551322269403,1
743,688,13,0.0690628537861182,1
752,644,13,0.0754696559386425,1
753,645,13,0.0711576162109981,1
705,654,14,0.0724842976824742,1
706,654,14,0.0699794692042616,1
707,653,14,0.0714441191756496,1
711,642,14,0.0741139659820976,1
711,643,14,0.0810698329293349,1
711,644,14,0.06881804565206,1
712,642,14,0.073823060532101,1
712,643,14,0.0804024760488026,1
714,627,14,0.0792256947109895,1
714,628,14,0.0690524255861379,1
715,626,14,0.0869511340658494,1
715,627,14,0.0769451593841054,1
715,628,14,0.0695802925636596,1
716,626,14,0.0832848940149871,1
716,627,14,0.0784498869465722,1
716,628,14,0.0761204930170233,1
716,629,14,0.0705045988541606,1
717,626,14,0.074331850073128,1
717,627,14,0.0776871249142384,1
717,628,14,0.0829469388746716,1
717,629,14,0.08096489804395,1
718,626,14,0.0696835203628903,1
718,627,14,0.0774753084662752,1
718,628,14,0.0909969282512049,1
718,629,14,0.0949550081571165,1
718,630,14,0.0782688279982638,1
719,630,14,0.0870157637486682,1
719,631,14,0.0689049632912985,1
720,631,14,0.0723886349703056,1
721,631,14,0.0717840449522624,1
735,684,14,0.069012066475588,1
735,685,14,0.0743704481895399,1
736,685,14,0.0743155698620157,1
736,686,14,0.0770816963275581,1
737,686,14,0.0803631471797212,1
738,686,14,0.0807136449109378,1
738,687,14,0.0992564819199331,1
743,686,14,0.0684958675816744,1
743,688,14,0.072529957744766,1
749,631,14,0.110029968526363,1
750,631,14,0.1088466164043,1
751,631,14,0.112005252889779,1
751,632,14,0.0924814642788449,1
752,643,14,0.0740438017462737,1
752,644,14,0.0711849894872244,1
753,644,14,0.0871765053768542,1
753,645,14,0.0683561800160564,1
754,645,14,0.0766385906699224,1
714,626,15,0.0703763457708875,1
715,626,15,0.0718101184471012,1
716,626,15,0.0703315182874569,1
717,627,15,0.0688120798351844,1
717,628,15,0.0722163270847032,1
717,629,15,0.069883806492093,1
718,627,15,0.0685966695216335,1
718,628,15,0.0725822365095151,1
718,629,15,0.0707760614913277,1
719,627,15,0.0681329650244043,1
719,628,15,0.0736181083674104,1
719,629,15,0.0774837959788382,1
719,630,15,0.0723926900486437,1
720,630,15,0.0819083955766894,1
721,630,15,0.0786404516693602,1
738,686,15,0.0730428802312188,1
739,686,15,0.0812302271505141,1
743,686,15,0.0724328574863622,1
743,688,15,0.073443158990601,1
744,687,15,0.0721720087322309,1
748,631,15,0.0989711649309254,1
749,630,15,0.1197550646431,1
749,631,15,0.109448648788,1
749,632,15,0.0937393951016283,1
750,630,15,0.115709809537583,1
750,631,15,0.108616561088479,1
750,632,15,0.0936589224613437,1
750,633,15,0.0783207294071262,1
751,630,15,0.11943603719488,1
751,631,15,0.107763640948102,1
751,632,15,0.0910231275313392,1
751,633,15,0.0811188832048311,1
752,631,15,0.108107813475884,1
752,632,15,0.091064397087838,1
752,633,15,0.0851771780526558,1
752,643,15,0.0698361518344,1
752,644,15,0.0686181668276239,1
753,644,15,0.0745559395720732,1
754,645,15,0.0705357277199261,1
707,654,16,0.0739241020630993,1
708,653,16,0.0710058832058853,1
720,629,16,0.0739153210515133,1
720,630,16,0.0704235931238138,1
721,630,16,0.0697728039636408,1
749,631,16,0.103482915769278,1
749,632,16,0.0918430080674136,1
749,633,16,0.0768829675401102,1
750,630,16,0.107932923996835,1
750,631,16,0.104179275145104,1
750,632,16,0.0934697892950149,1
750,633,16,0.081265015769403,1
750,634,16,0.0738414191954782,1
751,630,16,0.109232465793348,1
751,631,16,0.101284392455106,1
751,632,16,0.0903187897739094,1
751,633,16,0.0837435790799455,1
751,634,16,0.0794106530034606,1
752,631,16,0.102461611046565,1
752,632,16,0.0897634956121776,1
752,633,16,0.0857631817958345,1
752,634,16,0.0825354232955517,1
753,631,16,0.0976092575869138,1
753,632,16,0.087507937651128,1
753,633,16,0.0860276663439855,1
755,633,16,0.0888098693682569,1
756,633,16,0.0896885934635539,1
757,648,16,0.0678468573849673,1
721,629,17,0.0683392349398104,1
748,632,17,0.0829013686590195,1
749,631,17,0.0958118635803124,1
749,632,17,0.0901729327390326,1
749,633,17,0.0790657257639049,1
750,630,17,0.100926551258538,1
750,631,17,0.0989808743577882,1
750,632,17,0.09566936680976,1
750,633,17,0.0872576728311524,1
750,634,17,0.0772515603845609,1
751,631,17,0.0952474170408839,1
751,632,17,0.0927075244140873,1
751,633,17,0.0893185630728682,1
751,634,17,0.0820358699890852,1
751,635,17,0.0749619385675158,1
752,630,17,0.105471844842376,1
752,631,17,0.0951896216924577,1
752,632,17,0.0897809977375897,1
752,633,17,0.0883023376801856,1
752,634,17,0.0837121806742609,1
752,635,17,0.0803380200694871,1
752,636,17,0.0915400571779223,1
753,631,17,0.0920279483905568,1
753,632,17,0.0861754580765037,1
753,633,17,0.0858111479218784,1
753,634,17,0.0829502632003402,1
753,635,17,0.083756564914269,1
753,636,17,0.1064595828605,1
754,632,17,0.0870291209491025,1
754,633,17,0.0862097375644344,1
754,634,17,0.0830847157017521,1
754,635,17,0.0799613290479122,1
754,636,17,0.0860222755456039,1
755,632,17,0.0913107745432029,1
755,633,17,0.0879967932176952,1
755,634,17,0.0831411094425991,1
755,636,17,0.0751853212728954,1
756,632,17,0.0926191752183896,1
756,633,17,0.088189424413196,1
756,634,17,0.0830886270254667,1
757,633,17,0.085115177881492,1
757,634,17,0.0813900164043193,1
758,634,17,0.0788305132509658,1
758,635,17,0.070707598351882,1
748,632,18,0.0796088606803983,1
749,631,18,0.0913825739878692,1
749,632,18,0.088013792201925,1
749,633,18,0.0797223010476741,1
749,634,18,0.0700761322090188,1
750,630,18,0.0976407937574459,1
750,631,18,0.0957602077522652,1
750,632,18,0.0961672250096244,1
750,633,18,0.0901873680991432,1
750,634,18,0.0771656669970148,1
751,631,18,0.0916039081898638,1
751,632,18,0.0940216992333183,1
751,633,18,0.0925041236013753,1
751,634,18,0.0809908277841653,1
751,635,18,0.0731364045933627,1
751,636,18,0.0724775292356174,1
752,631,18,0.0890134019560404,1
752,632,18,0.0888213697381375,1
752,633,18,0.0887802379464863,1
752,634,18,0.0812720537561789,1
752,635,18,0.0789372151202646,1
752,636,18,0.0851629044164966,1
752,637,18,0.0895394600212163,1
753,631,18,0.0871224716077431,1
753,632,18,0.0844057607940315,1
753,633,18,0.0841216836886516,1
753,634,18,0.0798605989852649,1
753,635,18,0.0813191813135857,1
753,636,18,0.0901595875181502,1
753,637,18,0.0962449962609422,1
754,632,18,0.084888392983356,1
754,633,18,0.0839831042315898,1
754,634,18,0.0801289649082505,1
754,635,18,0.0792525049482737,1
754,636,18,0.0810628548403188,1
754,637,18,0.0804386842445987,1
755,631,18,0.0868892177515493,1
755,632,18,0.0878745598592815,1
755,633,18,0.0858175929208323,1
755,634,18,0.08020625697749,1
755,635,18,0.0764541654675135,1
755,636,18,0.0739678573766295,1
755,637,18,0.0701528911881962,1
756,632,18,0.0878166147664558,1
756,633,18,0.0852224427897329,1
756,634,18,0.0796423135792438,1
756,635,18,0.073813716481573,1
756,636,18,0.0698854596702633,1
757,632,18,0.0830793368829225,1
757,633,18,0.0812399126182729,1
757,634,18,0.0775432025770029,1
757,635,18,0.0716595833971843,1
758,633,18,0.0791793218653562,1
758,634,18,0.0757634005424533,1
758,635,18,0.0692898782752934,1
759,634,18,0.0705282464897277,1
748,632,19,0.077366354441208,1
748,633,19,0.0709549940691634,1
749,631,19,0.0874977969603947,1
749,632,19,0.0849995632255356,1
749,633,19,0.0786294484508858,1
749,634,19,0.06987531897953,1
750,630,19,0.0938319551098395,1
750,631,19,0.0909082735769322,1
750,632,19,0.0923476107550309,1
750,633,19,0.0886411074300344,1
750,634,19,0.0757410407087218,1
751,630,19,0.0914695754839715,1
751,631,19,0.0863884664898868,1
751,632,19,0.0907447586824678,1
751,633,19,0.0917575040153062,1
751,634,19,0.0795907655671642,1
751,635,19,0.0715435015387016,1
751,636,19,0.0720303625098676,1
752,631,19,0.0812111437242434,1
752,632,19,0.0846138995195433,1
752,633,19,0.0870809504806532,1
752,634,19,0.0791026347634906,1
752,635,19,0.0766990514686595,1
752,636,19,0.0816537582202488,1
752,637,19,0.0808712958147183,1
753,632,19,0.0813443743113555,1
753,633,19,0.0824086017687377,1
753,634,19,0.0774151112176812,1
753,635,19,0.0787951615931347,1
753,636,19,0.0842346388840731,1
753,637,19,0.0824782928122592,1
754,632,19,0.0816763935836753,1
754,633,19,0.0818256228624286,1
754,634,19,0.0773637788375369,1
754,635,19,0.0776390449824509,1
754,636,19,0.0794294369409323,1
754,637,19,0.0751383374701122,1
755,632,19,0.0829026205221992,1
755,633,19,0.0831842537989795,1
755,634,19,0.0776959059258243,1
755,635,19,0.0749366018151225,1
755,636,19,0.0737537408546902,1
755,637,19,0.0699004041613322,1
756,632,19,0.0819780926099869,1
756,633,19,0.082174724975842,1
756,634,19,0.0772290687757578,1
756,635,19,0.073016501257805,1
756,636,19,0.0709901660337151,1
756,637,19,0.0686237373192849,1
757,632,19,0.0781985918851282,1
757,633,19,0.0783759132132254,1
757,634,19,0.0754566042167831,1
757,635,19,0.0724568165902802,1
757,636,19,0.0717552640786809,1
757,637,19,0.0700486870554808,1
758,633,19,0.0765359079403058,1
758,634,19,0.0737316565506538,1
758,635,19,0.0698907007242454,1
758,636,19,0.0694248938156473,1
759,634,19,0.068211646721671,1
748,632,20,0.0767025315285036,1
748,633,20,0.0715148883788475,1
749,631,20,0.0845174042285135,1
749,632,20,0.0823776406166997,1
749,633,20,0.077570354231518,1
749,634,20,0.0687732600970612,1
750,631,20,0.0864066274906567,1
750,632,20,0.0866499321909441,1
750,633,20,0.0844167520329539,1
750,634,20,0.073062987909182,1
751,631,20,0.0819232023029107,1
751,632,20,0.0850562145267497,1
751,633,20,0.0871006688231777,1
751,634,20,0.0767709347701896,1
751,635,20,0.0692808456931163,1
751,636,20,0.0697085156980528,1
752,631,20,0.0756468395018921,1
752,632,20,0.079500230103234,1
752,633,20,0.0829885498484012,1
752,634,20,0.0763983287758326,1
752,635,20,0.0743931075120704,1
752,636,20,0.0774278155325337,1
752,637,20,0.0740271861077065,1
753,632,20,0.0783255931052216,1
753,633,20,0.0796480398050802,1
753,634,20,0.0746821621212892,1
753,635,20,0.0764036896253342,1
753,636,20,0.0797403242835964,1
753,637,20,0.0744211696125343,1
754,632,20,0.0792967933518662,1
754,633,20,0.0794667532452846,1
754,634,20,0.0745021034655694,1
754,635,20,0.0748950207902728,1
754,636,20,0.0764736502087748,1
754,637,20,0.0709073813399023,1
755,632,20,0.0782776689076096,1
755,633,20,0.0794611468149678,1
755,634,20,0.0747070436507081,1
755,635,20,0.0717846618991883,1
755,636,20,0.0713982255120947,1
755,637,20,0.0679821185061365,1
756,632,20,0.0757917561419403,1
756,633,20,0.0778404212508818,1
756,634,20,0.0747892832749067,1
756,635,20,0.0706650589628756,1
756,636,20,0.07005241269614,1
757,632,20,0.0735313644316752,1
757,633,20,0.0755104942312707,1
757,634,20,0.074429729002409,1
757,635,20,0.0725710775568653,1
757,636,20,0.0744365872959056,1
757,637,20,0.0715531630473565,1
758,632,20,0.0731396510519436,1
758,633,20,0.0742963127322416,1
758,634,20,0.0728787424000524,1
758,635,20,0.0707179606643265,1
758,636,20,0.0732637592102389,1
758,637,20,0.0704877855529862,1
759,633,20,0.07117634025071,1
746,629,21,0.0763641990323014,1
747,630,21,0.0762449965005333,1
747,632,21,0.0689741691629657,1
748,631,21,0.0797365627042813,1
748,632,21,0.0773186997835151,1
748,633,21,0.0719432172591418,1
749,631,21,0.0819049454657252,1
749,632,21,0.0803707721645431,1
749,633,21,0.0759257414408258,1
750,630,21,0.0845049035660443,1
750,631,21,0.0826238683276651,1
750,632,21,0.0814460088301757,1
750,633,21,0.0790801431546875,1
750,634,21,0.0699663336255386,1
751,630,21,0.0810916776423322,1
751,631,21,0.0783618552090015,1
751,632,21,0.0792486655018709,1
751,633,21,0.0800932538638607,1
751,634,21,0.0726292502611782,1
752,631,21,0.0725324734506774,1
752,632,21,0.0750985893167122,1
752,633,21,0.0773116558069632,1
752,634,21,0.072562679890942,1
752,635,21,0.0706913181407697,1
752,636,21,0.0723863289065535,1
753,632,21,0.0752536107088378,1
753,633,21,0.0756062408003031,1
753,634,21,0.0710683206306956,1
753,635,21,0.0721098108984597,1
753,636,21,0.0741882991020032,1
753,637,21,0.0684900215603184,1
754,632,21,0.0767981822611203,1
754,633,21,0.0757673537945998,1
754,634,21,0.0707294730137591,1
754,635,21,0.0702477213215037,1
754,636,21,0.0717500889122346,1
755,632,21,0.0747088585528299,1
755,633,21,0.0744860748250482,1
755,634,21,0.0705816872710169,1
756,632,21,0.0713339791749385,1
756,633,21,0.0728979935400506,1
756,634,21,0.071561794314543,1
757,632,21,0.0700796482075188,1
757,633,21,0.0726633141171736,1
757,634,21,0.0731669464610822,1
757,635,21,0.0715308990500407,1
757,636,21,0.0739561593441416,1
757,637,21,0.0700542455675897,1
758,632,21,0.0698840221240282,1
758,633,21,0.0714342480248354,1
758,634,21,0.0719476377138146,1
758,635,21,0.0715941690537122,1
758,636,21,0.0748536374280304,1
758,637,21,0.0705068629894809,1
759,633,21,0.0678383638826284,1
745,629,22,0.071899593720683,1
746,628,22,0.0759308147810804,1
746,629,22,0.0760099037831138,1
746,630,22,0.0717591634228436,1
747,629,22,0.0772245704539972,1
747,630,22,0.0754058947733406,1
747,631,22,0.0717573305513939,1
748,630,22,0.0779916331454844,1
748,631,22,0.0773990765873841,1
748,632,22,0.076332159720587,1
748,633,22,0.0711618689519435,1
749,631,22,0.0796341375350318,1
749,632,22,0.0779364373598333,1
749,633,22,0.0735855719042897,1
750,630,22,0.0828368108535124,1
750,631,22,0.082417274964356,1
750,632,22,0.0791288400334009,1
750,633,22,0.075162955449388,1
751,629,22,0.0765237367155154,1
751,630,22,0.0797894703955083,1
751,631,22,0.0812056690689981,1
751,632,22,0.0795145037393932,1
751,633,22,0.0763819048100968,1
751,634,22,0.0693918661908964,1
752,630,22,0.0740954515845449,1
752,631,22,0.0762985870262219,1
752,632,22,0.0770083515206891,1
752,633,22,0.0753665659042592,1
752,634,22,0.0703302304856213,1
753,631,22,0.0744131253433939,1
753,632,22,0.0754267272141974,1
753,633,22,0.074453406586856,1
753,635,22,0.0694394010530697,1
753,636,22,0.0700382828146044,1
754,633,22,0.0744228407600326,1
754,636,22,0.0679733734332064,1
755,633,22,0.0720701406121474,1
756,633,22,0.0702501172318955,1
756,634,22,0.0696300795816012,1
757,632,22,0.0679831068191731,1
757,633,22,0.0710972692180046,1
757,634,22,0.0717140005119581,1
757,635,22,0.0695231560905911,1
757,636,22,0.0698428124652892,1
758,633,22,0.0698914494462428,1
758,634,22,0.0708789418835517,1
758,635,22,0.0720450075121374,1
758,636,22,0.0732959302970248,1
758,637,22,0.0684203784350047,1
759,635,22,0.0709587197098227,1
759,636,22,0.069842297344555,1
745,629,23,0.070190632766643,1
746,628,23,0.0748516548121812,1
746,629,23,0.0751111678462692,1
746,630,23,0.0724600810181891,1
747,628,23,0.0759229621847713,1
747,629,23,0.0765832990478556,1
747,630,23,0.0762289858293401,1
747,631,23,0.071551845296641,1
748,629,23,0.0765256654233809,1
748,630,23,0.0776716772819872,1
748,631,23,0.0755796102562982,1
748,632,23,0.0736612048055829,1
748,633,23,0.0690474540720749,1
749,631,23,0.0783459523537759,1
749,632,23,0.0753829359620112,1
749,633,23,0.0712894811291868,1
750,630,23,0.0831539515222992,1
750,631,23,0.0849703391085316,1
750,632,23,0.0797541007683493,1
750,633,23,0.0736613785090863,1
751,629,23,0.0728687514537186,1
751,630,23,0.081909970887772,1
751,631,23,0.0883608098732975,1
751,632,23,0.0847781092280214,1
751,633,23,0.0763839413339298,1
752,630,23,0.0777760970466379,1
752,631,23,0.0844192198206575,1
752,632,23,0.083035641467152,1
752,633,23,0.0756913914556277,1
753,631,23,0.0798221625928044,1
753,632,23,0.0787017031185265,1
757,633,23,0.0698655496549074,1
757,634,23,0.069249662919367,1
758,633,23,0.0690991158898981,1
758,634,23,0.0697496235306001,1
758,635,23,0.0723051015544954,1
758,636,23,0.0722607412735912,1
759,634,23,0.0682214699542774,1
759,635,23,0.0755640727774074,1
759,636,23,0.0751766121386212,1
760,635,23,0.0681560017028214,1
746,628,24,0.0708991154490506,1
746,629,24,0.0709572522147077,1
746,630,24,0.0705145718311665,1
747,629,24,0.0726533710890477,1
747,630,24,0.0746631625518822,1
747,631,24,0.0696109242780188,1
748,630,24,0.0756771537581244,1
748,631,24,0.0730052644380675,1
748,632,24,0.0696833047309551,1
749,631,24,0.077922499151129,1
749,632,24,0.0739568122297233,1
749,633,24,0.0696433768842757,1
750,630,24,0.082499400782811,1
750,631,24,0.0897735943744791,1
750,632,24,0.0845177456457443,1
750,633,24,0.0743171152242184,1
751,629,24,0.0707734559387766,1
751,630,24,0.0861111638211397,1
751,631,24,0.101014409292606,1
751,632,24,0.0966450114701814,1
751,633,24,0.0796287587162022,1
752,630,24,0.0865674110472745,1
752,631,24,0.101389465105338,1
752,632,24,0.0967096770916561,1
752,633,24,0.0793613271982693,1
753,631,24,0.0979311122093964,1
753,632,24,0.0910431273933348,1
758,634,24,0.0680022561329795,1
758,635,24,0.0701405762087823,1
758,636,24,0.07024060546764,1
759,635,24,0.07431721705041,1
759,636,24,0.0759687180834787,1
760,636,24,0.0681512338411417,1
747,629,25,0.068450980200484,1
747,630,25,0.0707644652850314,1
748,630,25,0.0714596326954366,1
748,631,25,0.0677754832143956,1
749,631,25,0.0738224256158472,1
749,632,25,0.0707848245335857,1
750,630,25,0.0775014718077537,1
750,631,25,0.0899821883229653,1
750,632,25,0.0874575995737963,1
750,633,25,0.0736108307895953,1
751,630,25,0.0909980243802091,1
751,631,25,0.113834195046465,1
751,632,25,0.109373477099457,1
751,633,25,0.0838967316619654,1
752,630,25,0.103311596196713,1
752,631,25,0.129949447728279,1
752,632,25,0.120096493853484,1
752,633,25,0.0890478910861304,1
753,630,25,0.11084142743741,1
753,631,25,0.136160653746193,1
753,632,25,0.121973857359187,1
753,633,25,0.0913812861860336,1
754,631,25,0.12114912510457,1
754,632,25,0.107771787043434,1
759,635,25,0.0695455638425304,1
759,636,25,0.0719268891298216,1
749,635,26,0.0680155234867741,1
750,631,26,0.0893794671150278,1
750,632,26,0.0909492975526159,1
750,635,26,0.0699760071137455,1
751,630,26,0.100624510814996,1
751,631,26,0.132052601829306,1
751,632,26,0.125691771207425,1
751,633,26,0.0877203111482573,1
752,629,26,0.0871635435016345,1
752,630,26,0.140199248220821,1
752,631,26,0.190680577034892,1
752,632,26,0.171756742355393,1
752,633,26,0.108413004541592,1
753,629,26,0.0898195359562419,1
753,630,26,0.156126026611664,1
753,631,26,0.220942806073,1
753,632,26,0.200787497411219,1
753,633,26,0.125219645085168,1
754,630,26,0.130167715164972,1
754,631,26,0.183047637790484,1
754,632,26,0.171813477513471,1
754,633,26,0.114344799489614,1
755,631,26,0.121885220654243,1
755,632,26,0.119978195777888,1
756,632,26,0.0881394816610789,1
757,632,26,0.0767843878070395,1
748,635,27,0.0745893505424868,1
748,636,27,0.0697359069436071,1
749,634,27,0.0755719912612523,1
749,635,27,0.104234177431732,1
749,636,27,0.0988386591067068,1
750,631,27,0.0863479576349374,1
750,632,27,0.0886490259138793,1
750,634,27,0.0768109165248527,1
750,635,27,0.101237061245316,1
750,636,27,0.0962577784428825,1
751,630,27,0.112079454234613,1
751,631,27,0.147271736106379,1
751,632,27,0.13501478564221,1
751,633,27,0.0866830915907666,1
751,635,27,0.0740162907051998,1
751,636,27,0.0711814076011886,1
752,629,27,0.0980744056201541,1
752,630,27,0.182834090297263,1
752,631,27,0.25838345817464,1
752,632,27,0.229509263883366,1
752,633,27,0.126568063453674,1
753,629,27,0.100081549602006,1
753,630,27,0.204237057316023,1
753,631,27,0.309705296313259,2
753,632,27,0.28876261961942,2
753,633,27,0.158591598098107,1
753,634,27,0.0713097325617735,1
754,630,27,0.154082662454465,1
754,631,27,0.237047852176546,1
754,632,27,0.235096047734969,1
754,633,27,0.139169246343386,1
755,631,27,0.136471451242217,1
755,632,27,0.142073413186152,1
755,633,27,0.0978455183106493,1
756,631,27,0.0840727292495712,1
756,632,27,0.0935941849625572,1
756,633,27,0.0778224159842874,1
757,631,27,0.0708578818312077,1
757,632,27,0.0828878916630656,1
757,633,27,0.0741961576880883,1
748,635,28,0.0844357575921369,1
748,636,28,0.0756634251915794,1
749,634,28,0.0822895370018172,1
749,635,28,0.135226895589196,1
749,636,28,0.12769022402433,1
750,634,28,0.0808185977656506,1
750,635,28,0.128373921013735,1
750,636,28,0.123758738723768,1
750,637,28,0.0701358622550864,1
751,630,28,0.115387871058236,1
751,631,28,0.152892673660617,1
751,632,28,0.138196590581178,1
751,635,28,0.0801389558545843,1
751,636,28,0.078167960170769,1
752,629,28,0.0993994998009957,1
752,630,28,0.204989037751593,1
752,631,28,0.301083205463596,2
752,632,28,0.270953530167914,2
752,633,28,0.138142778433778,1
753,629,28,0.102411943824143,1
753,630,28,0.229914867553594,2
753,631,28,0.363551250008745,2
753,632,28,0.347186535136936,2
753,633,28,0.177085654371525,2
753,634,28,0.0708319820398724,1
754,629,28,0.0831643617529515,1
754,630,28,0.166017854132567,1
754,631,28,0.265890827755414,2
754,632,28,0.270603799128023,2
754,633,28,0.148088549877152,1
755,630,28,0.096216724518319,1
755,631,28,0.138037562028922,1
755,632,28,0.146885659105844,1
755,633,28,0.0941214649420329,1
756,631,28,0.0821918796942473,1
756,632,28,0.0930222931315862,1
756,633,28,0.073709698031913,1
757,632,28,0.082816176075263,1
748,635,29,0.0825531111040192,1
748,636,29,0.073838867550911,1
749,634,29,0.0808782619241825,1
749,635,29,0.14116549492273,1
749,636,29,0.136243336613814,1
749,637,29,0.0701889496395928,1
750,634,29,0.0797830493556582,1
750,635,29,0.135838523594015,1
750,636,29,0.134841261832084,1
750,637,29,0.0748275519536397,1
751,630,29,0.109854516008371,1
751,631,29,0.144186618131272,1
751,632,29,0.132901808308576,1
751,635,29,0.080202746968766,1
751,636,29,0.0791356204598097,1
752,629,29,0.0950637884786803,1
752,630,29,0.190343148994863,1
752,631,29,0.286778638101281,2
752,632,29,0.267438154604647,2
752,633,29,0.141585006852783,1
753,629,29,0.10006405346637,1
753,630,29,0.214503557303995,2
753,631,29,0.346305415131248,2
753,632,29,0.339124584177772,2
753,633,29,0.178139052313937,2
754,629,29,0.0823162933311176,1
754,630,29,0.154785370992828,1
754,631,29,0.249045229708867,2
754,632,29,0.255663668616075,2
754,633,29,0.143142899666844,1
755,630,29,0.0895063126009457,1
755,631,29,0.126458654205633,1
755,632,29,0.133341805272479,1
755,633,29,0.0874437512117317,1
756,631,29,0.0770604865308147,1
756,632,29,0.084503525917569,1
748,635,30,0.0678135542305213,1
749,634,30,0.0688547869379182,1
749,635,30,0.114804335102761,1
749,636,30,0.113672387238155,1
750,634,30,0.0700156414614018,1
750,635,30,0.114260523341582,1
750,636,30,0.116207583880583,1
751,630,30,0.0935122867555894,1
751,631,30,0.120260733510842,1
751,632,30,0.114699046820593,1
751,635,30,0.0699538209835174,1
751,636,30,0.0693990778811757,1
752,629,30,0.0848259855074256,1
752,630,30,0.148373543418257,1
752,631,30,0.22367246678238,1
752,632,30,0.217819329572521,1
752,633,30,0.12635003560802,1
753,629,30,0.0908034944257228,1
753,630,30,0.170457188579328,1
753,631,30,0.273304637035389,2
753,632,30,0.273877475250964,2
753,633,30,0.154681292645408,1
754,630,30,0.126456701538663,1
754,631,30,0.198815351690415,1
754,632,30,0.203731088959482,1
754,633,30,0.120593896830373,1
755,630,30,0.0795210505645388,1
755,631,30,0.109643879546276,1
755,632,30,0.112000197518853,1
755,633,30,0.076022979464077,1
756,631,30,0.0713100799687803,1
756,632,30,0.073654160829031,1
749,635,31,0.0788850681305871,1
749,636,31,0.07760656841709,1
750,635,31,0.0816640546451575,1
750,636,31,0.0828188954335577,1
751,630,31,0.0732915996889917,1
752,629,31,0.0717583907417422,1
752,630,31,0.100634741352369,1
752,631,31,0.141202248188141,1
752,632,31,0.143262934777473,1
753,629,31,0.0756445933358998,1
753,630,31,0.115754876612052,1
753,631,31,0.172823329784511,1
753,632,31,0.177926978305606,1
753,633,31,0.112553401248768,1
754,630,31,0.0921286185554443,1
754,631,31,0.132134925310369,1
754,632,31,0.136164475223268,1
754,633,31,0.0897371106489879,1
755,631,31,0.0860379927177741,1
755,632,31,0.0865032186181021,1
752,630,32,0.0724613268915928,1
753,630,32,0.0773794061630674,1
753,631,32,0.0995148568965849,1
753,632,32,0.103849082754457,1
754,631,32,0.0855879688688821,1
754,632,32,0.0887383274839577,1
743,668,33,0.0747720027712058,1
742,667,34,0.0687101637968931,1
742,668,34,0.0929397180799327,1
742,669,34,0.0764300266703161,1
743,667,34,0.101515801460298,1
743,668,34,0.130902576820794,1
743,669,34,0.0995025898353789,1
744,667,34,0.0771451819631649,1
744,668,34,0.0964758482169683,1
744,669,34,0.0719836722061073,1
742,667,35,0.0771771553873435,1
742,668,35,0.104673084256406,1
742,669,35,0.0870091749950908,1
743,667,35,0.117830142316119,1
743,668,35,0.15114939727999,1
743,669,35,0.114448410634507,1
744,667,35,0.0901223670502136,1
744,668,35,0.112337445865603,1
744,669,35,0.0829445010358479,1
742,668,36,0.0912609575763814,1
742,669,36,0.0756137819282613,1
743,667,36,0.0988155864896338,1
743,668,36,0.132344327878612,1
743,669,36,0.0997396651686477,1
744,667,36,0.0749540680018788,1
744,668,36,0.0978754731803228,1
744,669,36,0.0715935760658902,1
743,668,37,0.0873975161309459,1
764,654,38,0.0743143299783879,1
764,655,38,0.0697858257366203,1
764,662,38,0.0689956305303003,1
765,662,38,0.0738523685059687,1
767,659,38,0.0720802513540008,1
767,660,38,0.0701782818485733,1
719,627,39,0.0812945154161021,1
719,629,39,0.0713446110273022,1
720,629,39,0.0723344933852268,1
763,654,39,0.0716427042084741,1
764,654,39,0.0773228087698371,1
764,655,39,0.073008337193145,1
765,662,39,0.0761639787906345,1
765,663,39,0.0728216718145197,1
766,659,39,0.0689856216146385,1
766,662,39,0.0717258902172774,1
766,663,39,0.0750824528602235,1
766,664,39,0.0678205442990893,1
767,659,39,0.0726302984719746,1
767,663,39,0.0684940466897767,1
763,653,40,0.0679319481425321,1
763,654,40,0.0752513944917253,1
764,654,40,0.0747981541331323,1
764,655,40,0.0681668971053282,1
765,662,40,0.0691048301361826,1
765,663,40,0.0842936801059031,1
765,664,40,0.0960480584165121,1
765,665,40,0.0881414223484963,1
766,659,40,0.0703780708263696,1
766,660,40,0.0677967229600189,1
766,662,40,0.0747895528148257,1
766,663,40,0.104113723036784,1
766,664,40,0.119843641450285,1
766,665,40,0.107084843595449,1
767,659,40,0.0688115167962423,1
767,662,40,0.0678953865499533,1
767,663,40,0.0947446052962845,1
767,664,40,0.107006353571013,1
767,665,40,0.0946034502355515,1
768,663,40,0.0693163291260188,1
768,664,40,0.0744654580161268,1
768,665,40,0.0686220002842508,1
762,653,41,0.0726697950547835,1
763,653,41,0.0737765858602761,1
763,654,41,0.0728001146107695,1
764,664,41,0.0710283328862565,1
764,665,41,0.0711842527447789,1
764,666,41,0.0728047447076017,1
764,667,41,0.0695191668997888,1
765,660,41,0.068510895929607,1
765,663,41,0.0946624315596217,1
765,664,41,0.130619631783074,1
765,665,41,0.121068850126892,1
765,666,41,0.0904149316681564,1
765,667,41,0.0720507097788699,1
766,659,41,0.0688732354479351,1
766,660,41,0.0714281204840084,1
766,661,41,0.0680728995508818,1
766,662,41,0.0762241580699006,1
766,663,41,0.131369659551675,1
766,664,41,0.187615225320518,1
766,665,41,0.162430002279948,1
766,666,41,0.0997844806725263,1
766,667,41,0.0695958719709823,1
767,662,41,0.0726007509070677,1
767,663,41,0.118206216390768,1
767,664,41,0.162957857277918,1
767,665,41,0.138463626773896,1
767,666,41,0.0879689108105106,1
767,667,41,0.0692912379544407,1
767,668,41,0.0685618449640887,1
768,663,41,0.0791659826342498,1
768,664,41,0.0979069314837672,1
768,665,41,0.085908002599467,1
769,657,41,0.0715891196725615,1
719,629,42,0.0683283215679758,1
761,652,42,0.0703270079861444,1
762,652,42,0.0825090143732581,1
762,653,42,0.082201900589461,1
763,652,42,0.0684297404548607,1
763,653,42,0.074912786465828,1
763,654,42,0.0683149044697817,1
763,666,42,0.0678976327159456,1
763,667,42,0.0729120755033784,1
764,663,42,0.0710385754031814,1
764,664,42,0.0769091129122607,1
764,665,42,0.0782277800634763,1
764,666,42,0.0927821031148081,1
764,667,42,0.0963478946224941,1
764,668,42,0.0749239454184779,1
765,660,42,0.0692271353719081,1
765,662,42,0.0713516909425099,1
765,663,42,0.108702131028123,1
765,664,42,0.150955735843021,1
765,665,42,0.132091810902868,1
765,666,42,0.10228888986642,1
765,667,42,0.0900889800389038,1
765,668,42,0.0761783842018652,1
766,659,42,0.0679602917624671,1
766,660,42,0.0747223055999039,1
766,661,42,0.073781856863138,1
766,662,42,0.0876819765819885,1
766,663,42,0.154880356860311,1
766,664,42,0.231911235928459,1
766,665,42,0.192021699856255,1
766,666,42,0.113021035039039,1
766,667,42,0.080873146655496,1
766,668,42,0.0732671913518752,1
766,669,42,0.0680644958951826,1
767,661,42,0.068836428274541,1
767,662,42,0.0810372245889025,1
767,663,42,0.132767373776492,1
767,664,42,0.195339939912484,1
767,665,42,0.161978397130198,1
767,666,42,0.100791685462584,1
767,667,42,0.0802625548819214,1
767,668,42,0.0749059760905393,1
768,657,42,0.0757101753930994,1
768,658,42,0.0700113467920245,1
768,663,42,0.0843928049085879,1
768,664,42,0.109783405387942,1
768,665,42,0.0949935224166647,1
768,666,42,0.0759201949082687,1
768,667,42,0.0726840028034068,1
768,668,42,0.0711260500915861,1
769,656,42,0.0684669249841415,1
769,657,42,0.0794405180264944,1
769,658,42,0.0719438881140515,1
769,664,42,0.0689219982141842,1
770,657,42,0.0681152352875049,1
713,640,43,0.071786225230719,1
714,640,43,0.0742455014626075,1
715,654,43,0.0682847758966048,1
761,651,43,0.0689367390528698,1
761,652,43,0.086054099225383,1
761,653,43,0.0711612520050176,1
762,651,43,0.0694409044868406,1
762,652,43,0.0889522942614975,1
762,653,43,0.0795643746141985,1
763,653,43,0.0683146349298626,1
763,663,43,0.0709666501732195,1
763,666,43,0.0793347445724723,1
763,667,43,0.0863577030004561,1
763,668,43,0.0706700005280586,1
764,658,43,0.0686733506337231,1
764,662,43,0.0786842429215463,1
764,663,43,0.0951891185512754,1
764,664,43,0.0913353146553909,1
764,665,43,0.0852259348291289,1
764,666,43,0.104812094977338,1
764,667,43,0.11348731513994,1
764,668,43,0.0912914395463411,1
764,669,43,0.0708689449474419,1
765,658,43,0.0706755530503917,1
765,659,43,0.068098841270649,1
765,661,43,0.0718681713558946,1
765,662,43,0.0996431039900821,1
765,663,43,0.139426794730952,1
765,664,43,0.158378781357555,1
765,665,43,0.124731202813144,1
765,666,43,0.104273949544236,1
765,667,43,0.103725130330338,1
765,668,43,0.0924001351005952,1
765,669,43,0.0794230578295141,1
766,657,43,0.069187105699037,1
766,658,43,0.0698825965573451,1
766,660,43,0.0716750789476433,1
766,661,43,0.0796867637067877,1
766,662,43,0.110606340709766,1
766,663,43,0.175177683110566,1
766,664,43,0.22593133109977,1
766,665,43,0.176210883528375,1
766,666,43,0.109202528893002,1
766,667,43,0.0906036395603907,1
766,668,43,0.0853746849258039,1
766,669,43,0.0781878522167969,1
767,657,43,0.0787513284125167,1
767,658,43,0.0747266302181611,1
767,661,43,0.0727942685894135,1
767,662,43,0.0903913199712452,1
767,663,43,0.13600255959899,1
767,664,43,0.181522640826102,1
767,665,43,0.149394931997834,1
767,666,43,0.0993278501007289,1
767,667,43,0.0868402213840369,1
767,668,43,0.0794704788859438,1
767,669,43,0.0691737005803949,1
768,656,43,0.0704450245422685,1
768,657,43,0.0829153487961557,1
768,658,43,0.0764241447103042,1
768,662,43,0.0678166629242546,1
768,663,43,0.0851192748882619,1
768,664,43,0.102691929912529,1
768,665,43,0.0911001021424518,1
768,667,43,0.0740163565927356,1
768,668,43,0.0683222179862527,1
769,656,43,0.0693362271618228,1
769,657,43,0.0784047120561348,1
769,658,43,0.0707375831704354,1
713,639,44,0.0700903878758501,1
713,640,44,0.0844812499407012,1
713,641,44,0.0776798413466473,1
714,640,44,0.0821026440117047,1
714,641,44,0.0812317545433888,1
742,631,44,0.0759980380368984,1
742,632,44,0.0861586747242092,1
743,632,44,0.071915987737539,1
761,651,44,0.0718273749916982,1
761,652,44,0.0860361778156523,1
761,653,44,0.0677432701991778,1
762,652,44,0.0811300721063608,1
762,653,44,0.0689529713457742,1
762,667,44,0.0712816405124296,1
763,662,44,0.0724170504675523,1
763,663,44,0.0860840900337124,1
763,664,44,0.0827916719017309,1
763,665,44,0.0771092492970639,1
763,666,44,0.0866124242137604,1
763,667,44,0.0953144905523024,1
763,668,44,0.0847183372535219,1
764,657,44,0.0737100154900399,1
764,658,44,0.075281588952438,1
764,662,44,0.100514861975915,1
764,663,44,0.126869648674242,1
764,664,44,0.112177758437989,1
764,665,44,0.0924686521480247,1
764,666,44,0.106990061380349,1
764,667,44,0.127222003236012,1
764,668,44,0.114189903882784,1
764,669,44,0.0835307503598418,1
765,657,44,0.0735328259370142,1
765,658,44,0.0737563464072413,1
765,661,44,0.0830683456440001,1
765,662,44,0.133247226709762,1
765,663,44,0.179563564796486,1
765,664,44,0.162837558617146,1
765,665,44,0.11380689364755,1
765,666,44,0.104229673120195,1
765,667,44,0.125371809354152,1
765,668,44,0.120940213697956,1
765,669,44,0.0934023983254695,1
765,670,44,0.0681404342750507,1
766,657,44,0.0744832955689937,1
766,658,44,0.0714936186843443,1
766,661,44,0.0871853702453038,1
766,662,44,0.134445050130591,1
766,663,44,0.191965443880255,1
766,664,44,0.194461179878531,1
766,665,44,0.13972018593798,1
766,666,44,0.100172857747037,1
766,667,44,0.105131481812117,1
766,668,44,0.10489508931331,1
766,669,44,0.0883801209110555,1
766,670,44,0.0688062937115882,1
767,657,44,0.0859087153828085,1
767,658,44,0.0800257550783477,1
767,661,44,0.0755214794804171,1
767,662,44,0.099088762202731,1
767,663,44,0.135481425129669,1
767,664,44,0.147992270218058,1
767,665,44,0.118995285519204,1
767,667,44,0.0862771465033077,1
767,668,44,0.0814179766785916,1
767,669,44,0.0719267573547501,1
768,656,44,0.0683352098103522,1
768,657,44,0.0853782548322877,1
768,658,44,0.0790357109964716,1
768,662,44,0.0694771007030847,1
768,663,44,0.0836038256267917,1
768,664,44,0.0898298743095825,1
769,657,44,0.0735395284963353,1
713,639,45,0.0705793991765927,1
713,640,45,0.0794269152452449,1
713,641,45,0.0760365702657745,1
714,640,45,0.0765776926175388,1
714,641,45,0.0878983153108162,1
714,642,45,0.0896232150587377,1
714,643,45,0.0698582301486605,1
715,641,45,0.0766290190079072,1
715,642,45,0.0882856801131866,1
715,643,45,0.0698402907696019,1
727,630,45,0.0723467484668809,1
728,630,45,0.0949238074140393,1
728,631,45,0.0938655337939806,1
729,630,45,0.0846941265790128,1
729,631,45,0.085229145349054,1
741,631,45,0.0814913933627724,1
741,632,45,0.102258917027419,1
742,631,45,0.117914298668631,1
742,632,45,0.14721126332809,1
742,633,45,0.0842270378583551,1
743,631,45,0.0836047540420685,1
743,632,45,0.10245448321315,1
759,666,45,0.0848085732286531,1
759,667,45,0.100387219849792,1
759,668,45,0.0752032187235222,1
760,666,45,0.103633307064572,1
760,667,45,0.126622534476432,1
760,668,45,0.0953817557365522,1
761,652,45,0.0698158764427094,1
761,666,45,0.0898038247738476,1
761,667,45,0.104984504689132,1
761,668,45,0.0843725654555531,1
762,663,45,0.0693061584864057,1
762,664,45,0.0718846073011823,1
762,665,45,0.0747177893088153,1
762,666,45,0.0795557433470121,1
762,667,45,0.0818031132842977,1
762,668,45,0.0738524643423844,1
763,663,45,0.0935330173702545,1
763,664,45,0.0955594244716562,1
763,665,45,0.0923884250885552,1
763,666,45,0.0929657077179078,1
763,667,45,0.0998226954432755,1
763,668,45,0.0951364444613117,1
763,669,45,0.0746628690528593,1
764,657,45,0.074347034155236,1
764,658,45,0.0737054872193994,1
764,662,45,0.107271532933178,1
764,663,45,0.139241363246179,1
764,664,45,0.123150680625432,1
764,665,45,0.100871744808326,1
764,666,45,0.108175917228771,1
764,667,45,0.135619860832107,1
764,668,45,0.133302883708164,1
764,669,45,0.0959366246241895,1
764,670,45,0.0687345661442336,1
765,657,45,0.0808133387423406,1
765,658,45,0.0775116664064708,1
765,661,45,0.0893188206332353,1
765,662,45,0.14523993221682,1
765,663,45,0.194819679950456,1
765,664,45,0.162821410181105,1
765,665,45,0.110500728979696,1
765,666,45,0.106061023166824,1
765,667,45,0.140108598951147,1
765,668,45,0.142039606890523,1
765,669,45,0.102909933799079,1
765,670,45,0.0687907262838174,1
766,657,45,0.0804753117247134,1
766,658,45,0.075993761336849,1
766,661,45,0.0898396076955492,1
766,662,45,0.142087992300886,1
766,663,45,0.191554425452542,1
766,664,45,0.166565379554853,1
766,665,45,0.112139962951558,1
766,667,45,0.107737717197663,1
766,668,45,0.11153237205575,1
766,669,45,0.0899362347616505,1
766,670,45,0.0678523739686444,1
767,657,45,0.0859506198555611,1
767,658,45,0.0813979588472681,1
767,661,45,0.0758355114554705,1
767,662,45,0.101765934505202,1
767,663,45,0.12877039626537,1
767,664,45,0.119684205593262,1
767,668,45,0.0764903077757738,1
767,669,45,0.0701992280951736,1
768,657,45,0.0800246230106876,1
768,658,45,0.0762407497493638,1
768,662,45,0.0692400732880238,1
768,663,45,0.0778175223373122,1
714,638,46,0.0687155665748266,1
714,641,46,0.0825601670601231,1
714,642,46,0.103226924723466,1
714,643,46,0.0794377806988717,1
715,641,46,0.0871561281589719,1
715,642,46,0.119284268251111,1
715,643,46,0.0917747306110233,1
716,642,46,0.0833044027153523,1
721,654,46,0.0886460729543214,1
721,655,46,0.0697939299035205,1
722,654,46,0.0764323507033962,1
727,630,46,0.0700871234479412,1
727,631,46,0.0694468463446122,1
728,627,46,0.0725397450387165,1
728,629,46,0.0707340012843996,1
728,630,46,0.110304971121134,1
728,631,46,0.118122479322575,1
728,632,46,0.069420605136046,1
729,629,46,0.0706479401831261,1
729,630,46,0.127507452000092,1
729,631,46,0.144305275593426,1
729,632,46,0.0842229109027052,1
730,630,46,0.112305688073359,1
730,631,46,0.131552826901129,1
730,632,46,0.0816940754023668,1
731,630,46,0.0803444470991132,1
731,631,46,0.0932741692013003,1
741,631,46,0.0920955190533815,1
741,632,46,0.130310343710596,1
741,633,46,0.0710386353009412,1
742,631,46,0.146791020645368,1
742,632,46,0.202678733238091,1
742,633,46,0.114350909061113,1
743,632,46,0.130152189665633,1
743,633,46,0.0707294670239832,1
752,643,46,0.0760813198821174,1
753,643,46,0.0825701639962329,1
758,667,46,0.0753304715142067,1
759,666,46,0.11710807482179,1
759,667,46,0.164018454931057,1
759,668,46,0.127300589096863,1
760,666,46,0.151430749037299,1
760,667,46,0.220236563566809,1
760,668,46,0.174171101257211,1
761,666,46,0.11533022545421,1
761,667,46,0.158429059537127,1
762,665,46,0.0826286781177766,1
762,666,46,0.0927127834373973,1
762,667,46,0.0965248984924644,1
762,668,46,0.0820280054132241,1
763,663,46,0.0958898085351337,1
763,664,46,0.0986401399614182,1
763,665,46,0.106534790487699,1
763,666,46,0.110195933239203,1
763,667,46,0.109900888854004,1
763,668,46,0.0972049836469532,1
763,669,46,0.0759167268279766,1
764,662,46,0.106469801418321,1
764,663,46,0.133210509383008,1
764,664,46,0.122343953637409,1
764,665,46,0.110480806984788,1
764,666,46,0.119587961872824,1
764,667,46,0.141924183907398,1
764,668,46,0.13485695504515,1
764,669,46,0.0959653156511313,1
764,670,46,0.0706543013252164,1
765,657,46,0.0806962925299252,1
765,658,46,0.077481208395615,1
765,661,46,0.0893499375194488,1
765,662,46,0.135448098016119,1
765,663,46,0.177178256308169,1
765,664,46,0.152174068256804,1
765,665,46,0.1099617090393,1
765,666,46,0.108072485777157,1
765,667,46,0.138356433742967,1
765,668,46,0.137675995191695,1
765,669,46,0.0981668098941899,1
766,657,46,0.0830316223274698,1
766,658,46,0.0814500579187378,1
766,661,46,0.0877797536850779,1
766,662,46,0.133920645243586,1
766,663,46,0.174010347649473,1
766,664,46,0.149104727351627,1
766,665,46,0.0994898735409744,1
766,667,46,0.0966384406859319,1
766,668,46,0.0985391463486278,1
766,669,46,0.0801941456504595,1
767,657,46,0.0818237121238912,1
767,658,46,0.0831447092979628,1
767,659,46,0.0706673350777478,1
767,662,46,0.0991713552237124,1
767,663,46,0.120491088315461,1
767,664,46,0.106667116618638,1
768,657,46,0.0726012061300422,1
768,658,46,0.0743346113598545,1
714,641,47,0.0740695458034336,1
714,642,47,0.102600537910634,1
714,643,47,0.0838801519620541,1
715,641,47,0.0914370929288347,1
715,642,47,0.133425985584095,1
715,643,47,0.108438760578304,1
716,641,47,0.0691469322715425,1
716,642,47,0.0959845608013534,1
716,643,47,0.0800435387232308,1
720,653,47,0.0797155565599212,1
720,654,47,0.0926879797750662,1
721,653,47,0.120251808744632,1
721,654,47,0.143982881891106,1
721,655,47,0.0950542767144248,1
722,653,47,0.0953805338222524,1
722,654,47,0.119446363568668,1
722,655,47,0.0822075609277617,1
728,628,47,0.0711750704182023,1
728,629,47,0.0723060120004443,1
728,630,47,0.102362132847098,1
728,631,47,0.113515958248674,1
728,632,47,0.0696725411035199,1
729,629,47,0.0788099563398041,1
729,630,47,0.148201313399742,1
729,631,47,0.18096223738546,1
729,632,47,0.105974626638096,1
730,629,47,0.0793621897260104,1
730,630,47,0.17544676780667,1
730,631,47,0.222901918041272,1
730,632,47,0.13428537468253,1
731,630,47,0.139676975694064,1
731,631,47,0.176463879686197,1
731,632,47,0.109690671676228,1
732,630,47,0.0781505239328927,1
732,631,47,0.091747327385917,1
741,631,47,0.0970650804494,1
741,632,47,0.142958941666961,1
741,633,47,0.0833217011883811,1
742,631,47,0.154001225460247,1
742,632,47,0.225324183447383,1
742,633,47,0.136572498762991,1
743,632,47,0.146925539034316,1
743,633,47,0.0866173058811837,1
752,642,47,0.0721996455586003,1
752,643,47,0.0933530066327425,1
753,642,47,0.0836679940968601,1
753,643,47,0.104055011252633,1
753,644,47,0.0718570124032448,1
758,666,47,0.0680141458382989,1
758,667,47,0.0927728608904717,1
758,668,47,0.0831467637911238,1
759,666,47,0.129198042311202,1
759,667,47,0.2018391822777,1
759,668,47,0.171844804041843,1
760,666,47,0.164741983930725,1
760,667,47,0.268202641692463,1
760,668,47,0.233660921369384,1
760,669,47,0.125304640006318,1
761,666,47,0.117465987895669,1
761,667,47,0.178384728965512,1
761,668,47,0.158740288297022,1
762,665,47,0.0836574820400161,1
762,666,47,0.0998399160492166,1
762,667,47,0.105364004915641,1
762,668,47,0.0885779033138987,1
763,663,47,0.0985170860036953,1
763,664,47,0.0953828219166766,1
763,665,47,0.110299807934239,1
763,666,47,0.126111858155971,1
763,667,47,0.119727200205243,1
763,668,47,0.0954539505064332,1
763,669,47,0.075069143577997,1
764,662,47,0.113999716515882,1
764,663,47,0.123792137714629,1
764,664,47,0.112559546758923,1
764,665,47,0.111170014568094,1
764,666,47,0.126680299875978,1
764,667,47,0.136304408369701,1
764,668,47,0.119859178929176,1
764,669,47,0.0888985240425295,1
764,670,47,0.0701962871151677,1
765,662,47,0.120969419845632,1
765,663,47,0.142448924221859,1
765,664,47,0.12759965861152,1
765,666,47,0.103892712282692,1
765,667,47,0.118818443373185,1
765,668,47,0.113673273725,1
765,669,47,0.0869177770034195,1
766,657,47,0.0781819163488012,1
766,658,47,0.083741686310736,1
766,662,47,0.113720940362244,1
766,663,47,0.137711658317877,1
766,664,47,0.123486120059836,1
766,668,47,0.0809017957540059,1
767,657,47,0.0744132690980174,1
767,658,47,0.0835982790942347,1
767,659,47,0.0765441738311575,1
768,658,47,0.0723886948680654,1
714,642,48,0.0901389227910209,1
715,640,48,0.0679469585211368,1
715,641,48,0.0857716333697416,1
715,642,48,0.117597319723796,1
715,643,48,0.105843414605489,1
715,644,48,0.0742973130248302,1
716,641,48,0.0682940241107171,1
716,642,48,0.086528974654814,1
716,643,48,0.0796324723773095,1
720,653,48,0.0984352896229192,1
720,654,48,0.105593545110728,1
720,655,48,0.0697992308552624,1
721,652,48,0.0751481427333907,1
721,653,48,0.154170460590772,1
721,654,48,0.167847203594019,1
721,655,48,0.0995445422263393,1
722,653,48,0.114830941687662,1
722,654,48,0.131512324035955,1
722,655,48,0.0826984530181619,1
728,630,48,0.0802929470052414,1
728,631,48,0.0897136846351321,1
729,629,48,0.0720779273209208,1
729,630,48,0.130464963787731,1
729,631,48,0.166343757843612,1
729,632,48,0.0977299695422287,1
730,629,48,0.0823686799118343,1
730,630,48,0.192821095358479,1
730,631,48,0.257450394831657,1
730,632,48,0.152227976240619,1
731,629,48,0.072691262411894,1
731,630,48,0.173330460157591,1
731,631,48,0.232500222580075,1
731,632,48,0.139149575919069,1
732,630,48,0.102203367844985,1
732,631,48,0.129991076671337,1
732,632,48,0.0823277098441345,1
741,632,48,0.12952322724913,1
741,633,48,0.082422258457971,1
742,632,48,0.202850951277054,1
742,633,48,0.133461624751173,1
743,633,48,0.0932455201027903,1
751,649,48,0.0711179579042378,1
751,650,48,0.0727756104372373,1
752,642,48,0.0758837351418815,1
752,643,48,0.0856014638341639,1
752,649,48,0.0895978124188086,1
752,650,48,0.101657124234758,1
753,643,48,0.098431258503685,1
753,644,48,0.0704930745251761,1
753,649,48,0.0739219756926266,1
753,650,48,0.0884107705947426,1
758,666,48,0.0725699454892051,1
758,667,48,0.102700962494706,1
758,668,48,0.0970906028848486,1
759,666,48,0.124887212518306,1
759,667,48,0.206669002200117,1
759,668,48,0.193727432321042,1
760,666,48,0.149167859590451,1
760,667,48,0.258877566774741,1
760,668,48,0.251007001137674,1
760,669,48,0.144168912353477,1
761,667,48,0.166926191680307,1
761,668,48,0.163332673499611,1
762,666,48,0.100545805158625,1
762,667,48,0.106009858500407,1
763,665,48,0.105938628084459,1
763,666,48,0.129879966326917,1
763,667,48,0.121688528390628,1
763,668,48,0.0893290272115044,1
764,663,48,0.115188255783943,1
764,665,48,0.102101421857814,1
764,666,48,0.11815369803498,1
764,667,48,0.117463472189758,1
764,668,48,0.0957545773628444,1
764,669,48,0.0766422683923738,1
765,663,48,0.110864080770164,1
765,666,48,0.0896407411432537,1
765,667,48,0.092492515415527,1
765,668,48,0.0859111652011841,1
767,658,48,0.0814072430000363,1
715,642,49,0.0898877355455445,1
715,643,49,0.0875012650406869,1
715,644,49,0.0732673111473948,1
716,642,49,0.0709721068591369,1
716,643,49,0.0707727012270032,1
720,653,49,0.100412975886504,1
720,654,49,0.100585457475609,1
720,655,49,0.0693007377391442,1
721,652,49,0.0796880574983993,1
721,653,49,0.147148993617007,1
721,654,49,0.147261948812429,1
721,655,49,0.0889132708709911,1
722,653,49,0.105902665469478,1
722,654,49,0.11102598441489,1
722,655,49,0.073427082431872,1
729,630,49,0.101307812479186,1
729,631,49,0.126246508319991,1
729,632,49,0.0818876949109042,1
730,629,49,0.0763171253828785,1
730,630,49,0.168745801766016,1
730,631,49,0.228224960076945,1
730,632,49,0.142364025137125,1
731,629,49,0.0749494199357187,1
731,630,49,0.178902173732829,1
731,631,49,0.247541340715037,1
731,632,49,0.155489529056978,1
732,630,49,0.121023603359143,1
732,631,49,0.162155131460249,1
732,632,49,0.106072631352673,1
733,631,49,0.0746623239832451,1
742,633,49,0.102542365206321,1
743,638,49,0.0678877555753554,1
750,648,49,0.0773704813968579,1
750,649,49,0.0780269967828674,1
751,648,49,0.0888595725293348,1
751,649,49,0.105702511115347,1
751,650,49,0.086662528689829,1
752,648,49,0.0680395724373318,1
752,649,49,0.10345143350673,1
752,650,49,0.107104130674103,1
753,649,49,0.0724885863620755,1
753,650,49,0.0882257643840637,1
759,667,49,0.17980892997971,1
759,668,49,0.178264741773091,1
760,666,49,0.122735421436325,1
760,667,49,0.208054748852527,1
760,668,49,0.21587049605983,1
760,669,49,0.134776668087921,1
761,667,49,0.139244945132214,1
761,668,49,0.143451684598139,1
762,666,49,0.0962507464458826,1
762,667,49,0.100685474754915,1
763,665,49,0.0955213774146344,1
763,666,49,0.116801074843736,1
763,667,49,0.109735523118762,1
763,668,49,0.0817651560739156,1
764,666,49,0.0979924115767707,1
764,667,49,0.0920420603027645,1
720,653,50,0.0854843457444367,1
720,654,50,0.0861263778521277,1
721,653,50,0.105946965852623,1
721,654,50,0.102014941472222,1
721,655,50,0.0705871259876062,1
722,653,50,0.0765861741403258,1
722,654,50,0.0759155887705405,1
729,630,50,0.0761199479474092,1
729,631,50,0.0881135399413117,1
730,630,50,0.122237790847948,1
730,631,50,0.163723398566306,1
730,632,50,0.111052710795311,1
731,630,50,0.151050314405737,1
731,631,50,0.213834954550059,1
731,632,50,0.144455990336623,1
732,630,50,0.115441671226084,1
732,631,50,0.161875265167383,1
732,632,50,0.112593245238583,1
733,631,50,0.0805320169339113,1
743,638,50,0.0831667936019992,1
743,639,50,0.0853859277353175,1
744,638,50,0.0758633159955674,1
744,639,50,0.0793651127366884,1
750,647,50,0.0754067812601856,1
750,648,50,0.113247903794039,1
750,649,50,0.113389070834324,1
751,647,50,0.079457295389013,1
751,648,50,0.125446382065097,1
751,649,50,0.140945813898906,1
751,650,50,0.0958376555556801,1
752,648,50,0.0823814321448947,1
752,649,50,0.111399027662894,1
752,650,50,0.0983524689904506,1
753,650,50,0.072936447901839,1
760,667,50,0.144657019198047,1
760,668,50,0.150675234633901,1
763,666,50,0.0980762744302597,1
763,667,50,0.0940295338602995,1
720,654,51,0.0705472340795828,1
730,631,51,0.0979421753256306,1
730,632,51,0.075197145090679,1
731,631,51,0.145735226792565,1
731,632,51,0.109473386562795,1
732,631,51,0.124687106082383,1
732,632,51,0.0960102030323217,1
733,631,51,0.0717737125886978,1
743,638,51,0.0796718132259429,1
743,639,51,0.0845500964258096,1
744,638,51,0.0732895392060547,1
744,639,51,0.0789776461081263,1
749,648,51,0.0701024932131046,1
749,649,51,0.0694141241984362,1
750,647,51,0.0764098590945931,1
750,648,51,0.123701668138235,1
750,649,51,0.128087418049083,1
750,650,51,0.0788893029022046,1
751,647,51,0.0817498881349438,1
751,648,51,0.139167820776702,1
751,649,51,0.156507515443799,1
751,650,51,0.104530036426463,1
752,648,51,0.0875167665809218,1
752,649,51,0.111307983068005,1
752,650,51,0.0905953497104351,1
731,632,52,0.0762274105182575,1
732,632,52,0.0727896444823573,1
743,639,52,0.0697022384128263,1
750,648,52,0.108816116465012,1
750,649,52,0.117994262177957,1
750,650,52,0.0816075710576708,1
751,647,52,0.0725088318048863,1
751,648,52,0.12622161481102,1
751,649,52,0.147593470933342,1
752,649,52,0.10539554707595,1
