x,y,z,signal,cytoplasm.p
622,900,1,0.110545221035672,1
622,901,1,0.139316043773091,1
622,905,1,0.148520676275417,1
622,906,1,0.156041654627217,1
622,907,1,0.167930042195815,1
623,899,1,0.0946075951605294,1
623,900,1,0.105178717185491,1
623,901,1,0.118327269763314,1
623,902,1,0.134123494996908,1
623,904,1,0.120543450937074,1
623,905,1,0.116325594446931,1
623,906,1,0.122407972363078,1
623,907,1,0.132131247587917,1
623,908,1,0.146070211003995,1
624,897,1,0.0782120089833223,1
624,898,1,0.087838453489677,1
624,899,1,0.096784806851767,1
624,900,1,0.0999897323260159,1
624,901,1,0.10092711429748,1
624,902,1,0.102233460479506,1
624,903,1,0.0964854138892075,1
624,904,1,0.0898443575879009,1
624,905,1,0.0868540397972216,1
624,906,1,0.0889776909116506,1
624,907,1,0.0951419730245407,1
624,908,1,0.107599473168056,1
624,909,1,0.122096875378254,1
625,896,1,0.0739460186534083,1
625,897,1,0.0807271278966676,1
625,898,1,0.0881421111727339,1
625,899,1,0.0926123708328769,1
625,900,1,0.0892674463246591,1
625,901,1,0.0832690869961772,1
625,902,1,0.0774221072760253,1
625,903,1,0.0703746506642853,1
625,908,1,0.0760091670406683,1
625,909,1,0.0909584319609846,1
625,910,1,0.113591704955711,1
626,895,1,0.0681735098180095,1
626,896,1,0.0740284020322304,1
626,897,1,0.0777720958762836,1
626,898,1,0.0803042437227387,1
626,899,1,0.0792794828992854,1
626,900,1,0.0732276887792904,1
626,909,1,0.0684199651404622,1
626,910,1,0.0911915480523309,1
626,911,1,0.122076905465139,1
627,895,1,0.0704829577935467,1
627,896,1,0.0720611858970581,1
627,897,1,0.0713386571899785,1
627,898,1,0.0690252978907267,1
627,910,1,0.0705142244241597,1
627,911,1,0.0968590261659291,1
627,912,1,0.123404742963379,1
627,917,1,0.115241349158226,1
628,894,1,0.0698958459418118,1
628,895,1,0.0706374880240419,1
628,911,1,0.0744805342822672,1
628,912,1,0.0982921699156649,1
628,913,1,0.113572633508992,1
628,914,1,0.120234270680564,1
628,917,1,0.114722730394816,1
628,918,1,0.110087350580246,1
629,893,1,0.0749068925262642,1
629,894,1,0.075865466325144,1
629,895,1,0.0715574696962858,1
629,912,1,0.0833253729210566,1
629,913,1,0.101826071856036,1
629,914,1,0.1102482000244,1
629,915,1,0.108685096105237,1
629,916,1,0.106780251507339,1
629,917,1,0.109143433763188,1
629,918,1,0.10979127595358,1
629,919,1,0.0987323885012785,1
630,892,1,0.0806438879798805,1
630,893,1,0.0838412603466192,1
630,894,1,0.0778491543442599,1
630,895,1,0.0681016145369275,1
630,912,1,0.0777646146460852,1
630,913,1,0.0986113650776126,1
630,914,1,0.108344349729315,1
630,915,1,0.102499166941957,1
630,916,1,0.0989243728009735,1
630,917,1,0.102380389684283,1
630,918,1,0.106143298729679,1
630,919,1,0.101289687417072,1
630,920,1,0.094173138739408,1
631,891,1,0.0776160861711215,1
631,892,1,0.088140931186866,1
631,893,1,0.0849186173929486,1
631,894,1,0.0717005175262283,1
631,912,1,0.0715893892124806,1
631,913,1,0.0891874348971249,1
631,914,1,0.0984736721073958,1
631,915,1,0.0949491681255365,1
631,916,1,0.0935180848587376,1
631,917,1,0.0979743943306243,1
631,918,1,0.103243684116657,1
631,919,1,0.104548652650208,1
631,920,1,0.107417947017221,1
632,891,1,0.0825599993463956,1
632,892,1,0.0858161194359414,1
632,893,1,0.0760891724784265,1
632,913,1,0.0734632966174441,1
632,914,1,0.0816872230986462,1
632,915,1,0.0834271452047243,1
632,916,1,0.0878199151330205,1
632,917,1,0.0949561761634325,1
632,918,1,0.103711281968273,1
632,919,1,0.110299388649921,1
632,920,1,0.121672595586522,1
633,890,1,0.0755507994338368,1
633,891,1,0.0825557106667943,1
633,892,1,0.0760512691760282,1
633,914,1,0.0701624568604354,1
633,915,1,0.0743038598499758,1
633,916,1,0.0813938378813942,1
633,917,1,0.0921162436782706,1
633,918,1,0.105465220150143,1
633,919,1,0.116805639053033,1
633,920,1,0.137789908751274,1
633,921,1,0.183974172277649,1
634,889,1,0.0706095277497696,1
634,890,1,0.0822529155114785,1
634,891,1,0.0804361326000314,1
634,915,1,0.0690889692093889,1
634,916,1,0.0772805449105257,1
634,917,1,0.0908189839864058,1
634,918,1,0.109412015318109,1
634,919,1,0.125253822746907,1
634,920,1,0.153311191287856,1
635,889,1,0.0745579341674743,1
635,890,1,0.0848849428723918,1
635,891,1,0.0775263892758284,1
635,916,1,0.075634308890543,1
635,917,1,0.0911796643367876,1
635,918,1,0.11286082051114,1
635,919,1,0.132815867002822,1
636,889,1,0.0775127385763711,1
636,890,1,0.0865662011125266,1
636,891,1,0.0745532980808662,1
636,916,1,0.0784351640772146,1
636,917,1,0.0944270573227311,1
636,918,1,0.116270584344336,1
636,919,1,0.137652119944641,1
637,889,1,0.0778318678507831,1
637,890,1,0.0850207071347432,1
637,891,1,0.0710514174828815,1
637,915,1,0.0716616558596733,1
637,916,1,0.0862538462747475,1
637,917,1,0.102869622606737,1
637,918,1,0.12208400933945,1
637,919,1,0.141854391037685,1
637,920,1,0.163581596609768,1
637,921,1,0.191996470919829,1
638,889,1,0.0794223330666206,1
638,890,1,0.0844003879649779,1
638,891,1,0.0700950059931303,1
638,914,1,0.0705654070599046,1
638,915,1,0.081790175368182,1
638,916,1,0.098543183457638,1
638,917,1,0.116138186336085,1
638,918,1,0.13284165897819,1
638,919,1,0.148301726004263,1
638,920,1,0.170726848293925,1
639,888,1,0.0723928637521471,1
639,889,1,0.085331121285105,1
639,891,1,0.0733175653678628,1
639,913,1,0.0730445513787171,1
639,914,1,0.0827617350013853,1
639,915,1,0.096227823573209,1
639,916,1,0.119436456479198,1
639,917,1,0.144348929080765,1
639,918,1,0.157996406038576,1
639,919,1,0.164871998008136,1
639,920,1,0.183814772359283,1
640,887,1,0.0774565544776834,1
640,888,1,0.0880991045812011,1
640,910,1,0.068354832316461,1
640,911,1,0.0734743237950224,1
640,912,1,0.0815306982727499,1
640,913,1,0.0893573229132315,1
640,914,1,0.100384656225673,1
640,915,1,0.118963719399792,1
640,916,1,0.158181202607096,1
640,917,1,0.197270840035893,1
640,918,1,0.206645282687238,1
640,919,1,0.195415998087872,1
641,887,1,0.0967449688517274,1
641,892,1,0.0738451927543453,1
641,893,1,0.0677668279881052,1
641,906,1,0.0716073106222112,1
641,907,1,0.0755192033655449,1
641,908,1,0.0783325652044617,1
641,909,1,0.081597011082619,1
641,910,1,0.0852105830332935,1
641,911,1,0.0890288196394117,1
641,912,1,0.0963176043253658,1
641,913,1,0.105504776630712,1
641,914,1,0.117687645545567,1
641,915,1,0.142329763618522,1
641,916,1,0.195360137437087,1
641,917,1,0.24319216437632,1
642,892,1,0.0826936671871542,1
642,893,1,0.0797754423401643,1
642,894,1,0.0805653739963412,1
642,895,1,0.0891493519014472,1
642,896,1,0.0960497655026663,1
642,897,1,0.0921420476331903,1
642,898,1,0.085919658703523,1
642,899,1,0.0846701854444227,1
642,900,1,0.0834165073625847,1
642,901,1,0.0825935660509848,1
642,902,1,0.0827817588224848,1
642,903,1,0.0824440911914163,1
642,904,1,0.0827173687307051,1
642,905,1,0.08565928913147,1
642,906,1,0.0924570379724005,1
642,907,1,0.0943272436958087,1
642,908,1,0.0955066425657249,1
642,909,1,0.100117362472587,1
642,910,1,0.105475726217211,1
642,911,1,0.107103879103512,1
642,912,1,0.111369629842386,1
642,913,1,0.119478420849711,1
642,914,1,0.129461137231326,1
642,915,1,0.151656958916941,1
642,916,1,0.201882668051311,1
642,917,1,0.246040326813678,1
643,891,1,0.0921999567873602,1
643,892,1,0.0894054627427788,1
643,893,1,0.089709318088443,1
643,894,1,0.0956481210743607,1
643,898,1,0.116822937526062,1
643,902,1,0.109379251243501,1
643,903,1,0.105562625887122,1
643,904,1,0.101938464012515,1
643,905,1,0.100898626922922,1
643,906,1,0.103962565050165,1
643,907,1,0.103835833369991,1
643,908,1,0.105570220923064,1
643,909,1,0.113775243671275,1
643,910,1,0.121362253313472,1
643,911,1,0.121590978899026,1
644,891,1,0.0931729060485908,1
644,892,1,0.0940970805640203,1
644,893,1,0.0978292081506571,1
644,894,1,0.107038087404153,1
644,903,1,0.118977783393792,1
644,904,1,0.113942490196174,1
644,905,1,0.109796439140474,1
644,906,1,0.109096006716983,1
645,893,1,0.103854353757319,1
645,894,1,0.113313443922807,1
645,895,1,0.124723799450033,1
645,896,1,0.13133507458517,1
645,902,1,0.125808128595603,1
645,903,1,0.119951589192987,1
622,900,2,0.100800730024313,1
623,899,2,0.0844516005496027,1
623,900,2,0.0956845449020921,1
623,901,2,0.11063339053809,1
623,904,2,0.110150027596096,1
623,905,2,0.112039202940031,1
623,906,2,0.122148806735997,1
623,907,2,0.133366099803852,1
623,908,2,0.145635329308779,1
624,898,2,0.0769906756917736,1
624,899,2,0.0866678296415709,1
624,900,2,0.0922454850745804,1
624,901,2,0.0964891215605389,1
624,902,2,0.0973927511443587,1
624,903,2,0.0889964568797944,1
624,904,2,0.0817834009315491,1
624,905,2,0.0807592091368139,1
624,906,2,0.0872517309733808,1
624,907,2,0.0969330897459156,1
624,908,2,0.10988117051148,1
624,909,2,0.124221712468327,1
625,897,2,0.0711826355052644,1
625,898,2,0.0793104500410994,1
625,899,2,0.0845235317693405,1
625,900,2,0.0826979618565315,1
625,901,2,0.0790088947694114,1
625,902,2,0.0723962839142314,1
625,908,2,0.0747093437246842,1
625,909,2,0.0912317753878092,1
626,897,2,0.0689070117946835,1
626,898,2,0.0728701590510738,1
626,899,2,0.0730747877678616,1
626,900,2,0.0684254996934672,1
626,910,2,0.0902871517771857,1
627,911,2,0.091843499229044,1
628,912,2,0.0932926177113171,1
628,913,2,0.110656127727708,1
628,918,2,0.112746343912619,1
629,912,2,0.0734140546691166,1
629,913,2,0.0919887752556508,1
629,914,2,0.100907467832267,1
629,917,2,0.109707107621516,1
629,918,2,0.112849883180201,1
629,919,2,0.099012506364736,1
630,892,2,0.0731551585819546,1
630,893,2,0.0768433631413337,1
630,913,2,0.0856888786248088,1
630,914,2,0.0963096858415209,1
630,915,2,0.0958494074961519,1
630,916,2,0.0983051317908846,1
630,917,2,0.104455152247167,1
630,918,2,0.109588629852641,1
630,919,2,0.10209907386563,1
630,920,2,0.0936333101792553,1
631,891,2,0.0702873077509522,1
631,892,2,0.0817806636039265,1
631,893,2,0.0763648579076591,1
631,913,2,0.0749492522219913,1
631,914,2,0.0837920243880677,1
631,915,2,0.086239075487182,1
631,916,2,0.0925573247916253,1
631,917,2,0.101418251968696,1
631,918,2,0.107019842546519,1
631,919,2,0.105237201358155,1
631,920,2,0.105769991931532,1
632,891,2,0.0791387710819749,1
632,892,2,0.0799527756478134,1
632,914,2,0.069938139750003,1
632,915,2,0.0755211979609461,1
632,916,2,0.0855786907058898,1
632,917,2,0.096676990884136,1
632,918,2,0.105985372296203,1
632,919,2,0.109577297196488,1
632,920,2,0.115465366779859,1
633,890,2,0.0732924741962847,1
633,891,2,0.082694320072736,1
633,892,2,0.0704082353382024,1
633,916,2,0.0766762004732977,1
633,917,2,0.0901230798335552,1
633,918,2,0.10484959097497,1
633,919,2,0.116941427274488,1
633,920,2,0.131162041936674,1
634,890,2,0.0839754073694562,1
634,891,2,0.0806354723446293,1
634,916,2,0.0716982174522521,1
634,917,2,0.0871361881947361,1
634,918,2,0.108496861405305,1
634,919,2,0.13060853871796,1
635,889,2,0.0753012953154106,1
635,890,2,0.0894074034301962,1
635,891,2,0.0761985757366921,1
635,916,2,0.0700602533128972,1
635,917,2,0.0894292002249856,1
635,918,2,0.116010855678312,1
636,889,2,0.0803593257026462,1
636,890,2,0.0921446771448453,1
636,891,2,0.0716865493686441,1
636,916,2,0.0744965808921163,1
636,917,2,0.0967315098251014,1
636,918,2,0.124523836768733,1
637,889,2,0.0799623353302767,1
637,890,2,0.0896993271421092,1
637,916,2,0.0847315027811249,1
637,917,2,0.108005999263785,1
637,918,2,0.131520374294872,1
637,919,2,0.150960000563518,1
638,889,2,0.0792357335755311,1
638,890,2,0.0875299620574047,1
638,915,2,0.0783075279408674,1
638,916,2,0.0979519266809252,1
638,917,2,0.119947001024587,1
638,918,2,0.138764768751042,1
638,919,2,0.15045386449325,1
638,920,2,0.164320890699814,1
639,891,2,0.0712623474439997,1
639,913,2,0.071203210385754,1
639,914,2,0.081421654401043,1
639,915,2,0.0937411860446462,1
639,916,2,0.116363294096946,1
639,917,2,0.145690962348077,1
639,918,2,0.159196421717413,1
639,919,2,0.159126041849654,1
640,911,2,0.0685909013673652,1
640,912,2,0.0772681101355922,1
640,913,2,0.0870240715679518,1
640,914,2,0.0991603999234459,1
640,915,2,0.114336509639658,1
640,916,2,0.159057638607968,1
640,917,2,0.220680789312553,1
640,919,2,0.190956502055164,1
641,906,2,0.0682414997651529,1
641,907,2,0.0725158458325583,1
641,908,2,0.0743208588342056,1
641,909,2,0.0763350527823851,1
641,910,2,0.0802563973922145,1
641,911,2,0.0837779903429477,1
641,912,2,0.0912462107479198,1
641,913,2,0.102809293583072,1
641,914,2,0.115123410469189,1
641,915,2,0.135702507761073,1
641,916,2,0.208499813166908,1
642,892,2,0.0804754734486648,1
642,893,2,0.0795624518961091,1
642,894,2,0.0801683956035236,1
642,898,2,0.0755659775261689,1
642,901,2,0.0748949908413929,1
642,902,2,0.0745177846990837,1
642,903,2,0.0765508763904786,1
642,904,2,0.0788242000270834,1
642,905,2,0.0835569376604242,1
642,906,2,0.0947531107781754,1
642,907,2,0.0963320217161484,1
642,908,2,0.0933612485644903,1
642,909,2,0.0941275146157722,1
642,910,2,0.0992005553816125,1
642,911,2,0.099719695255532,1
642,912,2,0.104030189620974,1
642,913,2,0.114334173627026,1
642,914,2,0.123989404996738,1
642,915,2,0.143683536846754,1
642,916,2,0.215010364229173,1
643,891,2,0.0923733847610707,1
643,892,2,0.0905646401289882,1
643,893,2,0.0935655538333752,1
643,902,2,0.101372789569011,1
643,903,2,0.0990316976069743,1
643,904,2,0.097454901059922,1
643,905,2,0.0991910855457889,1
643,906,2,0.106381140754273,1
643,907,2,0.104915442572088,1
643,908,2,0.101818177331295,1
643,909,2,0.106802245964736,1
643,910,2,0.114056295939785,1
643,911,2,0.112622283672532,1
643,912,2,0.113076164937155,1
644,890,2,0.0998242348157023,1
644,891,2,0.0945069549445217,1
644,892,2,0.0965967638246665,1
644,893,2,0.102716847380604,1
644,903,2,0.111636282689442,1
644,904,2,0.108495699388765,1
644,905,2,0.106173930444038,1
644,906,2,0.107401570969693,1
644,907,2,0.10358137570683,1
645,893,2,0.108123602525366,1
645,894,2,0.119227185686026,1
645,902,2,0.119567836225533,1
645,903,2,0.113994840838235,1
646,894,2,0.119163741978851,1
646,895,2,0.128302403088539,1
622,900,3,0.0938552373690719,1
622,907,3,0.166576424701759,1
623,899,3,0.0749304622947436,1
623,900,3,0.0875731782910968,1
623,901,3,0.108783580001892,1
623,904,3,0.111610323000347,1
623,905,3,0.114686444331932,1
623,906,3,0.125120969515682,1
623,907,3,0.14161678860413,1
623,908,3,0.154805616435639,1
624,898,3,0.0690807272776411,1
624,899,3,0.0766376981933015,1
624,900,3,0.0850673016020878,1
624,901,3,0.0950916708858649,1
624,902,3,0.096348505579644,1
624,903,3,0.0869629159552011,1
624,904,3,0.0781739619263005,1
624,905,3,0.0772576819356119,1
624,906,3,0.0860347282898653,1
624,907,3,0.101089904429051,1
624,908,3,0.116178892853641,1
624,909,3,0.130442753698399,1
625,898,3,0.0726628828533031,1
625,899,3,0.0761850568123064,1
625,900,3,0.0774381718552023,1
625,901,3,0.0778372107309568,1
625,902,3,0.0707313358340888,1
625,908,3,0.0740461497384576,1
625,909,3,0.0939025985277418,1
626,910,3,0.0922545176567575,1
627,911,3,0.0924043938313166,1
627,912,3,0.121837530057894,1
628,912,3,0.0940676707639609,1
628,913,3,0.1126431879907,1
629,912,3,0.0702333278898249,1
629,913,3,0.0895838921794322,1
629,914,3,0.0987250689950316,1
629,915,3,0.104790328131429,1
629,918,3,0.117265761664226,1
629,919,3,0.102678536773439,1
630,892,3,0.0706627229502435,1
630,893,3,0.0741485928770351,1
630,913,3,0.0777788044253807,1
630,914,3,0.0894837011966231,1
630,915,3,0.0974747391979661,1
630,916,3,0.103368702720901,1
630,917,3,0.110731167641179,1
630,918,3,0.116636320065644,1
630,919,3,0.109256101449363,1
630,920,3,0.0969901543416724,1
631,892,3,0.0804028653842413,1
631,893,3,0.0717245784563379,1
631,914,3,0.0747499184671694,1
631,915,3,0.0858969933912166,1
631,916,3,0.09761855970901,1
631,917,3,0.108488128311927,1
631,918,3,0.114443463079548,1
631,919,3,0.112219447278806,1
631,920,3,0.108544516062998,1
632,891,3,0.078035586121622,1
632,892,3,0.0770936279613093,1
632,915,3,0.0731012326288111,1
632,916,3,0.0871704676826668,1
632,917,3,0.100929174780417,1
632,918,3,0.110746741058726,1
632,919,3,0.113870481109349,1
632,920,3,0.114531524765999,1
633,890,3,0.0749013459937072,1
633,891,3,0.0846170381621566,1
633,916,3,0.0749988475671015,1
633,917,3,0.0912139198656143,1
633,918,3,0.107937823633586,1
633,919,3,0.122129795187038,1
634,889,3,0.0680904256353978,1
634,890,3,0.0903449770744918,1
634,891,3,0.0831449009707941,1
634,917,3,0.0851460252277864,1
634,918,3,0.108959475763306,1
635,889,3,0.0812921254954862,1
635,890,3,0.0995986838114181,1
635,891,3,0.0773715835156382,1
635,917,3,0.0884972629598866,1
635,918,3,0.119682396680917,1
636,889,3,0.0897368411090688,1
636,890,3,0.103288655354711,1
636,891,3,0.0711713926957509,1
636,916,3,0.0706948101801658,1
636,917,3,0.101204560720851,1
636,918,3,0.134242356111445,1
637,889,3,0.0901160358570033,1
637,890,3,0.101195132813459,1
637,916,3,0.0846078318764761,1
637,917,3,0.116326792402127,1
637,918,3,0.143327600398948,1
637,919,3,0.161963219037866,1
638,889,3,0.0864735812065556,1
638,890,3,0.0963893558518242,1
638,915,3,0.0794088261217868,1
638,916,3,0.101709690508754,1
638,917,3,0.128658387454553,1
638,918,3,0.148634086693813,1
638,919,3,0.156540267538855,1
638,920,3,0.162282450138469,1
639,889,3,0.0898125638570017,1
639,891,3,0.0709370726594327,1
639,913,3,0.0737553221555488,1
639,914,3,0.0853069285799238,1
639,915,3,0.09970916522936,1
639,916,3,0.12152013182874,1
639,917,3,0.151537474865702,1
639,918,3,0.164485932987153,1
639,919,3,0.158836496078805,1
640,888,3,0.078947349821222,1
640,912,3,0.0753947777491227,1
640,913,3,0.0876006773526187,1
640,914,3,0.10214524305888,1
640,915,3,0.117064073927444,1
640,916,3,0.167863974966762,1
641,906,3,0.0682592115327243,1
641,907,3,0.0734155521131115,1
641,908,3,0.0718176296261795,1
641,909,3,0.0722066416169443,1
641,910,3,0.0772403654932552,1
641,911,3,0.0833954173613609,1
641,912,3,0.0915203088865179,1
641,913,3,0.10387924726629,1
641,914,3,0.116707071299514,1
641,915,3,0.135562083453009,1
642,892,3,0.0798818746695441,1
642,893,3,0.0801677606872698,1
642,898,3,0.0683355392480311,1
642,901,3,0.0718450148819578,1
642,902,3,0.0716546298524493,1
642,903,3,0.0757600462679048,1
642,904,3,0.079053991792761,1
642,905,3,0.0853527863048229,1
642,906,3,0.0993950673667709,1
642,907,3,0.101521659461206,1
642,908,3,0.0927126516623258,1
642,909,3,0.089541011373195,1
642,910,3,0.0944734121990365,1
642,911,3,0.0977163787405312,1
642,912,3,0.103961283238105,1
642,913,3,0.115049041410628,1
642,914,3,0.124157490090275,1
642,915,3,0.141952862954788,1
643,891,3,0.0910933636444749,1
643,892,3,0.0919030735409361,1
643,902,3,0.0974503009119698,1
643,903,3,0.0959347857629638,1
643,904,3,0.0960275194746784,1
643,905,3,0.0992648017187686,1
643,906,3,0.10835447245072,1
643,907,3,0.105870033169942,1
643,908,3,0.0979050327247817,1
643,909,3,0.0997062781573379,1
643,910,3,0.106759227393651,1
643,911,3,0.107616520070493,1
644,890,3,0.0993446693916793,1
644,891,3,0.0940157813346505,1
644,892,3,0.0980018933921462,1
644,903,3,0.106148521814333,1
644,905,3,0.103814066524081,1
644,906,3,0.105292750540589,1
645,889,3,0.102773917966137,1
645,890,3,0.0944106812752032,1
645,892,3,0.10092246623132,1
645,893,3,0.110462274617907,1
646,893,3,0.111853088620796,1
646,894,3,0.117456595926933,1
622,899,4,0.0694724885755805,1
622,900,4,0.0883366231578923,1
622,907,4,0.168446864026431,1
623,900,4,0.0809063959019582,1
623,901,4,0.10439358932965,1
623,903,4,0.12029160481624,1
623,904,4,0.112377194019003,1
623,905,4,0.116072214943446,1
623,906,4,0.127997463593423,1
623,907,4,0.146776776958089,1
623,908,4,0.164771657280927,1
624,899,4,0.0678991121906125,1
624,900,4,0.0781261155957762,1
624,901,4,0.0914079945971262,1
624,902,4,0.093213462821748,1
624,903,4,0.083146104915766,1
624,904,4,0.0745051163228871,1
624,905,4,0.0743788638247911,1
624,906,4,0.0860012514319159,1
624,907,4,0.103657098454762,1
624,908,4,0.122414525177999,1
625,899,4,0.068540695065105,1
625,900,4,0.0720384786563198,1
625,901,4,0.0754374489132007,1
625,902,4,0.0684655173867863,1
625,908,4,0.0759232197451384,1
625,909,4,0.0969313646904335,1
626,909,4,0.0688094623030813,1
626,910,4,0.0977144380531139,1
627,911,4,0.0922682821619584,1
628,912,4,0.0933298501588057,1
628,913,4,0.11452346252753,1
629,913,4,0.0862554754938139,1
629,914,4,0.099084958694984,1
629,918,4,0.124755940587939,1
629,919,4,0.106526800126542,1
630,914,4,0.0832915666254283,1
630,915,4,0.0983531398453603,1
630,916,4,0.112315139939855,1
630,917,4,0.123824901789237,1
630,918,4,0.128943632566249,1
630,919,4,0.118370743557373,1
631,892,4,0.0741642920798773,1
631,915,4,0.0830532334392038,1
631,916,4,0.102889424806125,1
631,917,4,0.116684537762279,1
631,918,4,0.122617626501912,1
631,919,4,0.118093153379379,1
631,920,4,0.109117474074093,1
632,891,4,0.072038131249313,1
632,892,4,0.0689572660151515,1
632,916,4,0.0861138113021227,1
632,917,4,0.102305876871098,1
632,918,4,0.113589249147559,1
632,919,4,0.114863562007646,1
632,920,4,0.11133406255262,1
633,890,4,0.0724251606242286,1
633,891,4,0.0792059284502571,1
633,916,4,0.0708086099340003,1
633,917,4,0.0879565838515448,1
633,918,4,0.107254557908052,1
633,919,4,0.118792843070649,1
634,890,4,0.0884534297792686,1
634,891,4,0.0772071761445527,1
634,917,4,0.0802118753873588,1
634,918,4,0.108610595271604,1
635,889,4,0.0792513549112857,1
635,890,4,0.0983510913419753,1
635,891,4,0.0702488414096118,1
635,917,4,0.0853591474469131,1
636,889,4,0.0889497725658101,1
636,890,4,0.101319145135339,1
636,917,4,0.102140882501967,1
637,889,4,0.0895315295578194,1
637,890,4,0.0989438815013388,1
637,916,4,0.0827918456052343,1
637,917,4,0.119459792646414,1
637,918,4,0.152649464796745,1
638,889,4,0.0851371543695607,1
638,890,4,0.093471801859744,1
638,915,4,0.0766713068263225,1
638,916,4,0.102200444834307,1
638,917,4,0.131957556064064,1
638,918,4,0.15442018633091,1
638,919,4,0.158120514196871,1
638,920,4,0.157671939873766,1
638,921,4,0.201811749103714,1
639,889,4,0.0873300472943128,1
639,913,4,0.0728674157336752,1
639,914,4,0.0851667798015554,1
639,915,4,0.0990861566501799,1
639,916,4,0.120097368360777,1
639,917,4,0.146500528489914,1
639,918,4,0.158450862321693,1
639,919,4,0.15054638257303,1
639,920,4,0.166250257440572,1
640,888,4,0.0708675613091906,1
640,912,4,0.0721206164543267,1
640,913,4,0.0853836635999972,1
640,914,4,0.100662378178738,1
640,915,4,0.114576903308819,1
640,916,4,0.163865859398203,1
640,919,4,0.168618207558101,1
641,906,4,0.0688271321422209,1
641,907,4,0.0736866134352879,1
641,908,4,0.0709372523527121,1
641,909,4,0.0699652854147421,1
641,910,4,0.0745148197599739,1
641,911,4,0.0805525079575372,1
641,912,4,0.089521119327167,1
641,913,4,0.100747744465998,1
641,914,4,0.111714557081942,1
641,915,4,0.129742141581629,1
642,892,4,0.0760023746347075,1
642,893,4,0.078220843902892,1
642,897,4,0.0699218775082187,1
642,901,4,0.0681076342617869,1
642,902,4,0.0700470578364143,1
642,903,4,0.0769023804040598,1
642,904,4,0.0821268726555418,1
642,905,4,0.0882489747659842,1
642,906,4,0.101508302260771,1
642,907,4,0.103190147498952,1
642,908,4,0.0928764600558132,1
642,909,4,0.087147047658587,1
642,910,4,0.0905241552331427,1
642,911,4,0.0940830345393484,1
642,912,4,0.101251616400946,1
642,913,4,0.110319514297212,1
642,914,4,0.11694492530366,1
642,915,4,0.134873882152068,1
643,891,4,0.0892396897027701,1
643,892,4,0.0909734303600373,1
643,902,4,0.0938186098889572,1
643,903,4,0.0950578645902365,1
643,904,4,0.0980157657133148,1
643,905,4,0.101228723477152,1
643,906,4,0.109008567967234,1
643,907,4,0.105781264689926,1
643,908,4,0.0962773590205595,1
643,909,4,0.0942086521211905,1
643,910,4,0.0987627626552706,1
643,911,4,0.100337313036331,1
643,912,4,0.105495492477943,1
643,913,4,0.114126699766648,1
644,890,4,0.0998557470271304,1
644,891,4,0.0929076128806826,1
644,892,4,0.0985187511614176,1
644,903,4,0.102461431353286,1
645,889,4,0.103429474987989,1
645,890,4,0.0939258508380943,1
645,891,4,0.0957410883873386,1
645,892,4,0.10209363514904,1
645,893,4,0.111416781358897,1
646,894,4,0.115601837835776,1
646,895,4,0.12024421370869,1
622,900,5,0.0865464648006742,1
622,901,5,0.121084878767413,1
622,907,5,0.167594854332002,1
623,900,5,0.0782422274031389,1
623,901,5,0.100680155833845,1
623,902,5,0.118139885611571,1
623,903,5,0.116609485869256,1
623,906,5,0.127431729252159,1
623,907,5,0.144661918834798,1
624,900,5,0.0739380582411315,1
624,901,5,0.0871977750713574,1
624,902,5,0.089646197829171,1
624,903,5,0.0808899839157744,1
624,904,5,0.0737802635827275,1
624,905,5,0.0751200926124787,1
624,906,5,0.0868324346752636,1
624,907,5,0.103260742998647,1
624,908,5,0.121448374312505,1
625,900,5,0.0681657949865479,1
625,901,5,0.0727074767354705,1
625,908,5,0.0781509492069872,1
625,909,5,0.102689534002137,1
626,909,5,0.0746282361681458,1
626,910,5,0.107304416803305,1
627,910,5,0.069961517845651,1
627,911,5,0.0965788663740398,1
628,912,5,0.0954395331156505,1
629,913,5,0.0895885043069364,1
629,919,5,0.10514996626079,1
630,914,5,0.0854240766185309,1
630,915,5,0.104208744842923,1
630,918,5,0.133460031470762,1
630,919,5,0.119978075982369,1
631,915,5,0.0837082453914424,1
631,916,5,0.107671098909219,1
631,917,5,0.121814325665749,1
631,918,5,0.125714652151666,1
631,919,5,0.119530483982524,1
632,916,5,0.085201939786555,1
632,917,5,0.103844806054408,1
632,918,5,0.116403401636905,1
632,919,5,0.116762404850013,1
632,920,5,0.110080677969805,1
633,890,5,0.071088086891428,1
633,891,5,0.0719725671614413,1
633,917,5,0.0866731305933127,1
633,918,5,0.107831361355326,1
633,919,5,0.117575229429983,1
634,890,5,0.0857566529400168,1
634,891,5,0.0706030587917117,1
634,917,5,0.0783103670946817,1
634,918,5,0.108529589541257,1
635,889,5,0.0800745298241488,1
635,890,5,0.0950403385057205,1
635,917,5,0.0847617451600454,1
636,889,5,0.088910365829641,1
636,890,5,0.0968060825360462,1
636,917,5,0.103257316846786,1
637,889,5,0.0870496778602642,1
637,890,5,0.0920535726521971,1
637,916,5,0.0830144735988405,1
637,917,5,0.122368751309964,1
638,889,5,0.0818107502486715,1
638,890,5,0.08587787402629,1
638,915,5,0.0763410066197087,1
638,916,5,0.102680824867863,1
638,917,5,0.136206571368852,1
638,920,5,0.158170996028826,1
639,889,5,0.0836292162871688,1
639,890,5,0.0903305177552773,1
639,913,5,0.0701878355412606,1
639,914,5,0.0833623358286261,1
639,915,5,0.0994202663543166,1
639,916,5,0.119292222673612,1
639,917,5,0.143783769757995,1
639,919,5,0.15015006305557,1
640,888,5,0.0682354081629817,1
640,891,5,0.0733384157780475,1
640,912,5,0.0682833503299217,1
640,913,5,0.0810360805416904,1
640,914,5,0.097034376857729,1
640,915,5,0.115419125709297,1
640,916,5,0.155576524563305,1
641,906,5,0.067922047042838,1
641,907,5,0.0707438664454379,1
641,908,5,0.0686111767590558,1
641,910,5,0.0712975733165351,1
641,911,5,0.0769912387307157,1
641,912,5,0.0852090915790746,1
641,913,5,0.0945166883304884,1
641,914,5,0.105676335794317,1
641,915,5,0.129605359057361,1
642,892,5,0.0728808627807492,1
642,902,5,0.0690259807251884,1
642,903,5,0.0772371669528821,1
642,904,5,0.0841591137987475,1
642,905,5,0.0894620122178013,1
642,906,5,0.0955149623645604,1
642,907,5,0.0945587844760724,1
642,908,5,0.0866539692999543,1
642,909,5,0.0826059409281584,1
642,910,5,0.0851054444955252,1
642,911,5,0.0894021324273342,1
642,912,5,0.0961104479231147,1
642,913,5,0.103426935322974,1
642,914,5,0.11030482736651,1
642,915,5,0.133713926094981,1
643,898,5,0.0910546157836635,1
643,902,5,0.090247044237227,1
643,903,5,0.0931118702313597,1
643,904,5,0.0974870661569319,1
643,905,5,0.100074906940444,1
643,906,5,0.102109052832412,1
643,907,5,0.0978949279727043,1
643,908,5,0.0894666123657536,1
643,909,5,0.0866061708876378,1
643,910,5,0.0891919931166453,1
643,911,5,0.0923647415143323,1
643,912,5,0.0981715897354215,1
643,913,5,0.106203004816642,1
643,914,5,0.114142452877474,1
644,891,5,0.0932091022648349,1
644,902,5,0.10183606280237,1
644,903,5,0.0981834195429811,1
644,904,5,0.0990730989385446,1
645,892,5,0.100677652107486,1
622,901,6,0.121823370227478,1
622,902,6,0.14888099723924,1
623,900,6,0.0820524436992205,1
623,901,6,0.103514266256755,1
623,902,6,0.119244364363536,1
623,903,6,0.119854123558249,1
623,907,6,0.146993942276002,1
624,900,6,0.0765211611118443,1
624,901,6,0.089112880155508,1
624,902,6,0.0918175155808449,1
624,903,6,0.0843881927810837,1
624,904,6,0.0789672897854577,1
624,905,6,0.0818431788958246,1
624,906,6,0.0926030267823489,1
624,907,6,0.107804898525049,1
624,908,6,0.124522542977122,1
625,900,6,0.0701810670944038,1
625,901,6,0.0745608871270322,1
625,902,6,0.0691626913721446,1
625,907,6,0.0705335594210215,1
625,908,6,0.086514066102401,1
626,909,6,0.0856956051432338,1
627,910,6,0.0764223477775104,1
627,911,6,0.101289423866928,1
628,911,6,0.0725648242307427,1
628,912,6,0.0982745539845092,1
629,912,6,0.068473483788839,1
629,913,6,0.0952350361739343,1
630,914,6,0.0916697058789987,1
630,919,6,0.117547832194653,1
631,915,6,0.0854072812866844,1
631,919,6,0.121152239788079,1
631,920,6,0.10691026558475,1
632,916,6,0.0853778415377451,1
632,917,6,0.109521580300326,1
632,918,6,0.124070674277228,1
632,919,6,0.122093904449369,1
632,920,6,0.111441507154141,1
633,917,6,0.0892126159153427,1
633,918,6,0.111910422756472,1
633,919,6,0.120526739462091,1
634,890,6,0.0790088408614275,1
634,917,6,0.0812198169198617,1
634,918,6,0.111832519730082,1
635,889,6,0.0781189817725846,1
635,890,6,0.0868180352538089,1
635,917,6,0.091365988298182,1
636,889,6,0.0858534656891736,1
636,890,6,0.087791984807628,1
636,916,6,0.0730389928666081,1
636,917,6,0.110815539625627,1
637,889,6,0.0826765244483009,1
637,890,6,0.0824528003256905,1
637,916,6,0.0891958505323761,1
638,889,6,0.0782113680772925,1
638,890,6,0.0776392606143862,1
638,914,6,0.0686503558837378,1
638,915,6,0.0815330881933657,1
638,916,6,0.107343937345218,1
639,889,6,0.07955927731484,1
639,890,6,0.0811049090574709,1
639,913,6,0.0706484493140844,1
639,914,6,0.0861580757466112,1
639,915,6,0.103789005301383,1
639,916,6,0.124827087147024,1
640,889,6,0.0906581405320282,1
640,890,6,0.0945691647578449,1
640,912,6,0.0685416474394858,1
640,913,6,0.0808420597181624,1
640,914,6,0.0979077341137484,1
640,915,6,0.118696886859457,1
640,916,6,0.154363738682079,1
641,891,6,0.0752876985239371,1
641,910,6,0.0695222336650902,1
641,911,6,0.0748570516003388,1
641,912,6,0.0830573544050777,1
641,913,6,0.0919027261339293,1
641,914,6,0.105059903989162,1
641,915,6,0.130707010635063,1
642,892,6,0.0725236085822277,1
642,903,6,0.0734869322734592,1
642,904,6,0.0803905863434833,1
642,905,6,0.0846722519171356,1
642,906,6,0.0857287106350725,1
642,907,6,0.0837307549695734,1
642,908,6,0.0804839070532439,1
642,909,6,0.0790166215804249,1
642,910,6,0.08184042958865,1
642,911,6,0.0858531721901506,1
642,912,6,0.0918480814076683,1
642,913,6,0.0987062790677839,1
642,914,6,0.108410704467616,1
642,915,6,0.13118311396857,1
643,898,6,0.0874058598888853,1
643,899,6,0.0990410835859342,1
643,901,6,0.0940447898197192,1
643,902,6,0.0864603378118649,1
643,903,6,0.0890033451221708,1
643,904,6,0.0927469610991364,1
643,905,6,0.0948209210320394,1
643,906,6,0.0938055521773219,1
643,907,6,0.0898169244139148,1
643,908,6,0.0844750385430105,1
643,909,6,0.0822189175430188,1
643,910,6,0.084219478761069,1
643,911,6,0.0879432865488703,1
643,912,6,0.0929006347916665,1
643,913,6,0.10036018200102,1
644,891,6,0.0941028067898567,1
644,898,6,0.10446311864922,1
644,901,6,0.111201101505427,1
644,902,6,0.0985784332892773,1
644,903,6,0.0957677848188792,1
645,897,6,0.105865229369606,1
645,898,6,0.102716224443902,1
645,900,6,0.113314558021139,1
645,901,6,0.106175439867585,1
623,901,7,0.106385297658803,1
623,902,7,0.12153719071073,1
624,900,7,0.0784394767159199,1
624,901,7,0.0911283559157471,1
624,902,7,0.0954850314539908,1
624,903,7,0.0897523666084077,1
624,904,7,0.0872544024134676,1
624,905,7,0.0910575507738934,1
624,906,7,0.100149275999006,1
624,907,7,0.11494038687436,1
625,900,7,0.071705285387908,1
625,901,7,0.0762266438269321,1
625,902,7,0.072780378298917,1
625,907,7,0.079714442461589,1
625,908,7,0.102791432071101,1
626,908,7,0.073486135633254,1
626,909,7,0.100014913344234,1
627,910,7,0.0867741841038629,1
628,911,7,0.0819160864490471,1
628,912,7,0.10007915968139,1
629,912,7,0.0696811364320505,1
629,913,7,0.0965405377975469,1
630,914,7,0.0976988047378074,1
631,915,7,0.0912974892200804,1
632,916,7,0.0897061375173979,1
632,917,7,0.119815896807948,1
632,920,7,0.114948125664925,1
633,917,7,0.0940365598675234,1
633,918,7,0.118779833277221,1
634,890,7,0.0750166372017607,1
634,917,7,0.0846076701525246,1
635,889,7,0.0762171021137967,1
635,890,7,0.0796179351910073,1
635,917,7,0.0960660996217624,1
636,889,7,0.0822804505116563,1
636,890,7,0.0788763949349688,1
636,916,7,0.0793440107559126,1
636,917,7,0.117095999433415,1
637,889,7,0.079497594601803,1
637,890,7,0.0741855318255007,1
637,915,7,0.0712775135567798,1
637,916,7,0.0959169482100968,1
638,889,7,0.0778398642017157,1
638,890,7,0.0722359196419322,1
638,914,7,0.0749755293692133,1
638,915,7,0.0886662045913885,1
638,916,7,0.113723947229786,1
639,889,7,0.079538528730847,1
639,890,7,0.0750419320257221,1
639,913,7,0.0719362212007977,1
639,914,7,0.0896463595531225,1
639,915,7,0.108142410421942,1
639,916,7,0.130175429996434,1
640,888,7,0.0690137016844304,1
640,889,7,0.0857350118794029,1
640,890,7,0.0824730158196213,1
640,912,7,0.0688596925644454,1
640,913,7,0.0817910199265951,1
640,914,7,0.098941491580723,1
640,915,7,0.121891162512014,1
641,910,7,0.0687626641833535,1
641,911,7,0.07314773125974,1
641,912,7,0.0814709262982504,1
641,913,7,0.0911787299317348,1
641,914,7,0.104851938967154,1
641,915,7,0.131720253119308,1
642,896,7,0.081246309699019,1
642,900,7,0.0691652549962638,1
642,902,7,0.0693969934391348,1
642,903,7,0.0760778817507051,1
642,904,7,0.0809125054734573,1
642,905,7,0.0814691533245605,1
642,906,7,0.0787130357746798,1
642,907,7,0.0761730772603474,1
642,908,7,0.0767998354392907,1
642,909,7,0.0773588372723538,1
642,910,7,0.0799929071468761,1
642,911,7,0.0829277356528813,1
642,912,7,0.0886872886028364,1
642,913,7,0.0967965528024628,1
642,914,7,0.108214335651904,1
643,897,7,0.0902373228308122,1
643,898,7,0.0853907614845329,1
643,899,7,0.0957281624507748,1
643,900,7,0.103777756502094,1
643,901,7,0.0948713429662348,1
643,902,7,0.0877499964780117,1
643,903,7,0.0880937676908034,1
643,904,7,0.0894177178244329,1
643,905,7,0.0889978944260295,1
643,906,7,0.0861173332903986,1
643,907,7,0.0820106829810914,1
643,908,7,0.0799989148921836,1
643,909,7,0.0791729906721458,1
643,910,7,0.080920172386711,1
643,911,7,0.0845379012419154,1
644,897,7,0.104190368210218,1
644,898,7,0.0997587246358144,1
644,899,7,0.108150987781145,1
644,900,7,0.115869556862956,1
644,901,7,0.106290180016248,1
645,896,7,0.107609020870967,1
645,897,7,0.101060231078849,1
645,898,7,0.0992451253046759,1
645,899,7,0.102129801416405,1
645,900,7,0.106636269272344,1
623,901,8,0.112328293487906,1
623,902,8,0.12597786686731,1
624,899,8,0.0686083675541215,1
624,900,8,0.0827727082709798,1
624,901,8,0.0951516584922996,1
624,902,8,0.0995752518077863,1
624,903,8,0.094764916626631,1
624,904,8,0.0947324041226143,1
624,905,8,0.0997398867903589,1
624,906,8,0.108293292878866,1
625,900,8,0.073648913785273,1
625,901,8,0.0783276475983826,1
625,902,8,0.0762097885973258,1
625,903,8,0.0682333836187006,1
625,906,8,0.0723792370117937,1
625,907,8,0.0895044198317362,1
626,908,8,0.0836546249168739,1
627,909,8,0.074067659024,1
628,910,8,0.0758387998424833,1
628,911,8,0.0923262931423199,1
629,912,8,0.0716730603931382,1
629,913,8,0.0978834335925996,1
630,914,8,0.104886667688283,1
631,914,8,0.0677629466132705,1
631,915,8,0.101663030153874,1
632,915,8,0.0696141347979438,1
632,916,8,0.100835051440675,1
633,916,8,0.0720500269444083,1
633,917,8,0.0990992263413672,1
634,890,8,0.0711492664632826,1
634,917,8,0.092010637937976,1
635,889,8,0.0740432267277796,1
635,890,8,0.0724189731856417,1
635,916,8,0.0763636359933593,1
635,917,8,0.105733729827752,1
636,889,8,0.0778018710526777,1
636,890,8,0.069138007505333,1
636,915,8,0.0694045046182131,1
636,916,8,0.0894632281423251,1
637,889,8,0.0757885935402231,1
637,914,8,0.0725951744256308,1
637,915,8,0.0836498750245221,1
637,916,8,0.105675581082543,1
638,889,8,0.0764884030270124,1
638,913,8,0.0680855319884226,1
638,914,8,0.0849171798467135,1
638,915,8,0.099646332479335,1
639,889,8,0.0787504479154477,1
639,890,8,0.0688532056370596,1
639,913,8,0.0768449684012962,1
639,914,8,0.0953369402326736,1
639,915,8,0.113604463178547,1
640,888,8,0.0696197352384846,1
640,889,8,0.0806626359786963,1
640,890,8,0.0721907447514947,1
640,912,8,0.0717337488033626,1
640,913,8,0.0866008339972401,1
640,914,8,0.102658554880771,1
640,915,8,0.125361662673642,1
641,910,8,0.0695180587912325,1
641,911,8,0.0737042832744275,1
641,912,8,0.0829084725333312,1
641,913,8,0.0945007195877271,1
641,914,8,0.10775531515949,1
641,915,8,0.133405680243524,1
642,892,8,0.0715715277005097,1
642,896,8,0.0852340569653571,1
642,899,8,0.0687696842008014,1
642,900,8,0.0742925331835985,1
642,901,8,0.0731938705041101,1
642,902,8,0.0743196788483376,1
642,903,8,0.0800109603316783,1
642,904,8,0.082502623282288,1
642,905,8,0.0806953521350964,1
642,906,8,0.0779244038998904,1
642,907,8,0.0754018816234344,1
642,908,8,0.0761220862974339,1
642,909,8,0.0772761424251807,1
642,910,8,0.0801930016032474,1
642,911,8,0.0824389938920577,1
642,912,8,0.0884419353991639,1
642,913,8,0.0987800371691955,1
643,897,8,0.090312506498907,1
643,898,8,0.0864093887773832,1
643,899,8,0.0970217504099642,1
643,900,8,0.105985456153067,1
643,901,8,0.100524960738216,1
643,902,8,0.0917135330698407,1
643,903,8,0.0887774706699838,1
643,904,8,0.0870969252131905,1
643,905,8,0.0858025166546919,1
643,909,8,0.0784605427580398,1
643,910,8,0.0797038645172092,1
644,892,8,0.100701898720651,1
644,897,8,0.100851870731626,1
644,898,8,0.0970881171278171,1
644,899,8,0.103198952469642,1
644,900,8,0.110925272321571,1
645,896,8,0.100318265548716,1
645,897,8,0.0971281468006881,1
645,898,8,0.0965456710355613,1
623,900,9,0.104207103644304,1
623,901,9,0.122836157488749,1
624,899,9,0.0736250624973226,1
624,900,9,0.0894800474332756,1
624,901,9,0.101832528834542,1
624,902,9,0.104562237462129,1
624,903,9,0.100973714754601,1
624,904,9,0.10452622692894,1
625,900,9,0.0767744268095856,1
625,901,9,0.0816902419457399,1
625,902,9,0.0800880547383105,1
625,903,9,0.0742534978135401,1
625,904,9,0.0730225030133365,1
625,905,9,0.077404054091223,1
625,906,9,0.0848385580472065,1
626,907,9,0.0729450013019377,1
628,910,9,0.086939837348352,1
629,911,9,0.0735681236868614,1
629,912,9,0.0786470643820415,1
630,913,9,0.0742380861199448,1
631,914,9,0.0792821782984762,1
632,915,9,0.0858669786237833,1
633,916,9,0.0831805401378722,1
633,917,9,0.107642767268836,1
634,916,9,0.0793292459581231,1
634,917,9,0.103794144529173,1
635,889,9,0.0691673993360645,1
635,915,9,0.0698093356073398,1
635,916,9,0.0897269400093747,1
636,889,9,0.0712646654873037,1
636,914,9,0.0695524401053549,1
636,915,9,0.0825366571894035,1
636,916,9,0.1020832967957,1
637,889,9,0.0716473402950822,1
637,914,9,0.0835899712749511,1
638,889,9,0.075169094969767,1
638,913,9,0.0735780487456594,1
638,914,9,0.0933264659353773,1
639,889,9,0.0783626278901028,1
639,913,9,0.082592320177581,1
639,914,9,0.100827995484571,1
639,915,9,0.11860426096371,1
640,888,9,0.07100508656568,1
640,889,9,0.0780538549383595,1
640,912,9,0.077444970250939,1
640,913,9,0.0930095349087498,1
640,914,9,0.108948047270737,1
641,889,9,0.0822668896588386,1
641,890,9,0.074884143357094,1
641,903,9,0.0702607071558272,1
641,904,9,0.0728978497854271,1
641,905,9,0.06812428583901,1
641,909,9,0.0685399523328836,1
641,910,9,0.0725830391394963,1
641,911,9,0.0767598417050755,1
641,912,9,0.0865143835605279,1
641,913,9,0.0993235853802315,1
641,914,9,0.114114121237091,1
642,891,9,0.0821398345307614,1
642,892,9,0.072590436512831,1
642,893,9,0.0885187962045329,1
642,896,9,0.085828793801914,1
642,899,9,0.0724733962901915,1
642,900,9,0.0797746816386149,1
642,901,9,0.079717353492715,1
642,902,9,0.0798263494462141,1
642,903,9,0.083575703628568,1
642,904,9,0.0841995807252651,1
642,905,9,0.0801642446887698,1
642,906,9,0.0774722177418698,1
642,907,9,0.0757146617353081,1
642,908,9,0.0764982023005148,1
642,909,9,0.0781817546248498,1
642,910,9,0.0804943292634483,1
642,911,9,0.0820523538525808,1
642,912,9,0.0886334524963326,1
643,892,9,0.0966178478361144,1
643,897,9,0.0908889625391743,1
643,898,9,0.0872989663467551,1
643,899,9,0.0973649825429177,1
643,900,9,0.107238972510953,1
643,901,9,0.104033184508963,1
643,902,9,0.0949611476774955,1
644,891,9,0.0943016913114801,1
644,892,9,0.100594873403449,1
644,897,9,0.0965162911843819,1
644,898,9,0.0942917722424581,1
623,898,10,0.0751989899416807,1
623,899,10,0.0985317310059651,1
623,900,10,0.122816894369198,1
624,899,10,0.0840786471482389,1
624,900,10,0.103123038048878,1
624,901,10,0.113635621993192,1
624,902,10,0.113238727457239,1
624,903,10,0.110531468510023,1
625,899,10,0.0742573612190469,1
625,900,10,0.0850071163330457,1
625,901,10,0.0891580011379616,1
625,902,10,0.0869285046921988,1
625,903,10,0.0828447652760132,1
625,904,10,0.0846664358446595,1
625,905,10,0.0931530439514427,1
626,901,10,0.0683924840482682,1
626,902,10,0.0680970203787513,1
626,905,10,0.0689552534504224,1
626,906,10,0.0756812807137743,1
628,909,10,0.0681620992947686,1
629,910,10,0.0683248415081317,1
630,913,10,0.0820739529847629,1
631,914,10,0.0948794231740312,1
632,914,10,0.0721755846284906,1
632,915,10,0.102221996048281,1
633,915,10,0.0781444023818416,1
633,916,10,0.0959772472848825,1
634,915,10,0.0742387809339585,1
634,916,10,0.0915812728264373,1
634,917,10,0.113896464757548,1
635,914,10,0.0684779461719437,1
635,915,10,0.0830501726636783,1
636,914,10,0.0817368064642046,1
637,913,10,0.0729058760852396,1
638,889,10,0.0709089686305369,1
638,913,10,0.0802829800180115,1
639,889,10,0.0742574870043424,1
639,912,10,0.0724187755230344,1
639,913,10,0.0880340616038397,1
639,914,10,0.106464650210979,1
640,888,10,0.0715543969412083,1
640,889,10,0.0741146128779034,1
640,911,10,0.0705482882801551,1
640,912,10,0.0832186650619817,1
640,913,10,0.0989425637506233,1
640,914,10,0.11815480015376,1
641,889,10,0.0786299096636362,1
641,890,10,0.0706557987692112,1
641,902,10,0.0686400414895011,1
641,903,10,0.0759225429004527,1
641,904,10,0.0781878821656768,1
641,905,10,0.0727664700390926,1
641,906,10,0.0687508763042258,1
641,907,10,0.0679651794196664,1
641,908,10,0.0702887333176353,1
641,909,10,0.0728480567777094,1
641,910,10,0.0768355944018883,1
641,911,10,0.0810717256985444,1
641,912,10,0.0897121512524813,1
641,913,10,0.104597062019674,1
642,890,10,0.0890949946844332,1
642,891,10,0.0823016243697438,1
642,892,10,0.0742592360189285,1
642,893,10,0.0848388755053334,1
642,894,10,0.103222456350586,1
642,895,10,0.104117820043554,1
642,896,10,0.0826109962990851,1
642,897,10,0.068942225687667,1
642,898,10,0.0681134982524709,1
642,899,10,0.0741225493310762,1
642,900,10,0.0819260055180691,1
642,901,10,0.0851051689658302,1
642,902,10,0.0858512195231812,1
642,903,10,0.0879889166622821,1
642,904,10,0.087596214969514,1
642,905,10,0.082871132269875,1
642,906,10,0.0802200214826909,1
642,907,10,0.0781571186762461,1
642,908,10,0.078905834683908,1
642,909,10,0.0798131180310753,1
642,910,10,0.0814868051943721,1
642,911,10,0.0831164315655636,1
643,891,10,0.0954857023089005,1
643,892,10,0.0977823980513773,1
643,893,10,0.119586021185406,1
643,896,10,0.111738192737957,1
643,897,10,0.0913686657280448,1
643,898,10,0.0886713857476108,1
643,899,10,0.0956797530813085,1
644,891,10,0.0949890780028879,1
644,892,10,0.101598915591789,1
644,893,10,0.1175609617836,1
644,896,10,0.104154764981795,1
624,898,11,0.077322251720671,1
624,899,11,0.0976222733701173,1
624,900,11,0.118332492847968,1
624,901,11,0.125124407647094,1
624,902,11,0.122721836624404,1
624,903,11,0.12170707273706,1
625,898,11,0.068445439657703,1
625,899,11,0.080711835998592,1
625,900,11,0.0928782270397272,1
625,901,11,0.0963650014226916,1
625,902,11,0.0947287264001628,1
625,903,11,0.0930969377198427,1
625,904,11,0.0989919314842464,1
626,900,11,0.0713726671379902,1
626,901,11,0.073198566488478,1
626,902,11,0.0749492462322153,1
626,903,11,0.0730745541665984,1
626,904,11,0.0740435202268026,1
626,905,11,0.0830907354266115,1
627,907,11,0.0728892484671205,1
630,911,11,0.0717064953226558,1
630,912,11,0.0826191543739692,1
631,912,11,0.069587761814306,1
631,913,11,0.0809647363199986,1
632,913,11,0.0724062808503412,1
632,914,11,0.0903288286384511,1
633,913,11,0.0681614284398589,1
633,914,11,0.0816511227188178,1
633,915,11,0.095449020920802,1
634,914,11,0.075928598563968,1
635,914,11,0.0823994913194729,1
636,913,11,0.0725129767298641,1
637,913,11,0.0847265612159418,1
638,912,11,0.0727786053252271,1
638,913,11,0.0916555041201513,1
639,888,11,0.0678000652550154,1
639,889,11,0.0696761649179875,1
639,911,11,0.0693500875034393,1
639,912,11,0.0814898420107937,1
639,913,11,0.097381849752076,1
640,888,11,0.0716001588296917,1
640,889,11,0.0697353079660091,1
640,910,11,0.0728614918452315,1
640,911,11,0.0804914242220982,1
640,912,11,0.0903455880316417,1
640,913,11,0.106325879081086,1
641,889,11,0.0738345369428778,1
641,901,11,0.070628389554329,1
641,902,11,0.075919248523664,1
641,903,11,0.0799026232535371,1
641,904,11,0.0798793589636327,1
641,905,11,0.0764763396181896,1
641,906,11,0.0740972245582349,1
641,907,11,0.0737809164683092,1
641,908,11,0.0760328146762354,1
641,909,11,0.0784075032917413,1
641,910,11,0.0830282381040413,1
641,911,11,0.0870846821110884,1
641,912,11,0.093840897845377,1
641,913,11,0.112868703056329,1
642,890,11,0.0814571677828255,1
642,891,11,0.0772818087532574,1
642,892,11,0.0736572695227644,1
642,893,11,0.0778285255557865,1
642,894,11,0.0864576484024501,1
642,895,11,0.0867978676780859,1
642,896,11,0.0767911921925522,1
642,897,11,0.0698252923705492,1
642,898,11,0.0704017783596965,1
642,899,11,0.0760768994274445,1
642,900,11,0.0837380385371645,1
642,901,11,0.0894534887665825,1
642,902,11,0.0900739277318673,1
642,903,11,0.0901255176723788,1
642,904,11,0.088332927466113,1
642,905,11,0.0858548433376489,1
642,906,11,0.0838636441394546,1
642,907,11,0.0822769824313641,1
642,908,11,0.0831764251617743,1
642,909,11,0.0836771524643328,1
642,910,11,0.0849869307879948,1
643,890,11,0.0894177298039848,1
643,891,11,0.0905940379494956,1
643,892,11,0.0964097450492585,1
643,893,11,0.108057355603033,1
643,894,11,0.118747859853043,1
643,895,11,0.115749941036645,1
643,896,11,0.0999957460610994,1
644,892,11,0.100505493966283,1
644,893,11,0.109597015539012,1
624,899,12,0.111960377488141,1
625,898,12,0.0723039155788515,1
625,899,12,0.0867003541251395,1
625,900,12,0.100067725199045,1
625,901,12,0.104564034394923,1
625,902,12,0.103082882590711,1
625,903,12,0.104405377208778,1
626,899,12,0.070041882669968,1
626,900,12,0.0762863079854639,1
626,901,12,0.079753615596495,1
626,902,12,0.0825832456669721,1
626,903,12,0.0815895418319725,1
626,904,12,0.0836107318384961,1
627,902,12,0.0679444907334332,1
627,905,12,0.0695365791785612,1
627,906,12,0.0793174221403396,1
631,911,12,0.0736154668762034,1
632,912,12,0.0776028607457587,1
633,912,12,0.070712863364968,1
633,913,12,0.0823766043854552,1
633,914,12,0.0982913433265797,1
634,913,12,0.0749312469553969,1
635,913,12,0.0774660782214908,1
636,912,12,0.0707301857971007,1
636,913,12,0.0842619941909715,1
637,912,12,0.0758210042180482,1
638,911,12,0.071414493743655,1
638,912,12,0.0816575856870997,1
639,888,12,0.0695810832140889,1
639,910,12,0.071177795766273,1
640,888,12,0.0714699171407934,1
640,908,12,0.0717811399109124,1
640,909,12,0.076059804606799,1
640,910,12,0.0833855821492025,1
640,912,12,0.0968423446398261,1
641,889,12,0.0684241460040959,1
641,901,12,0.0785841178262729,1
641,902,12,0.0844545115807287,1
641,903,12,0.0841124354745393,1
641,904,12,0.0799589091784165,1
641,905,12,0.0786302031626592,1
641,906,12,0.0782571359555518,1
641,907,12,0.079070355860737,1
641,908,12,0.0818780393920253,1
641,909,12,0.0848154614710296,1
641,910,12,0.0894938658464603,1
641,911,12,0.0928734891269274,1
641,912,12,0.0984838247776811,1
642,890,12,0.0717282501890134,1
642,891,12,0.068435808097928,1
642,892,12,0.0677519673539,1
642,894,12,0.068789109044303,1
642,895,12,0.0707688138623925,1
642,896,12,0.0696169619722061,1
642,897,12,0.0689812969963813,1
642,898,12,0.0711321656528611,1
642,899,12,0.0770836669638554,1
642,900,12,0.0849244514347526,1
642,901,12,0.0920746686431969,1
642,902,12,0.0930281211836142,1
642,903,12,0.0902231150821888,1
642,904,12,0.0867529982662234,1
642,905,12,0.087360080031074,1
642,906,12,0.0870771769217861,1
642,907,12,0.0875767062691487,1
642,908,12,0.0897614890372245,1
642,909,12,0.0903807360370895,1
642,910,12,0.0908993248516189,1
643,892,12,0.0900222299753883,1
643,893,12,0.0933825302385455,1
625,899,13,0.0967019502806426,1
625,900,13,0.112469184998496,1
625,901,13,0.115001350814279,1
625,902,13,0.111153914050261,1
626,899,13,0.0756945660368968,1
626,900,13,0.0842141478604472,1
626,901,13,0.0892432835683578,1
626,902,13,0.0927582518268577,1
627,900,13,0.0688725226645935,1
627,901,13,0.0725871241667143,1
627,902,13,0.0784181351441049,1
628,906,13,0.068342283735784,1
632,910,13,0.0680354574612339,1
632,911,13,0.0809644607903035,1
633,911,13,0.0751750787559705,1
633,912,13,0.0864772709085589,1
634,911,13,0.0735821996604132,1
634,912,13,0.0817210773124824,1
634,913,13,0.0908360308888435,1
635,910,13,0.0683904714835391,1
635,911,13,0.0764805803795831,1
635,912,13,0.0842763696533223,1
635,913,13,0.0936030498310069,1
636,910,13,0.0703244503518011,1
636,911,13,0.0780594733482282,1
636,912,13,0.0861629813731384,1
636,913,13,0.100235420957143,1
637,910,13,0.0715848369827361,1
637,911,13,0.0782488281362683,1
637,912,13,0.0871904915037663,1
639,888,13,0.0677937460413571,1
640,888,13,0.0695015389890811,1
640,902,13,0.0689941031374255,1
640,903,13,0.0685342919945829,1
640,906,13,0.0687849880784291,1
640,907,13,0.074142195796289,1
640,908,13,0.0825532668381947,1
640,909,13,0.0893187188070436,1
641,888,13,0.0756097088805952,1
641,900,13,0.0709034640264117,1
641,901,13,0.0823961430347004,1
641,902,13,0.0886833293609139,1
641,903,13,0.0859613894727723,1
641,904,13,0.0813522508667685,1
641,905,13,0.081507871236492,1
641,906,13,0.0833225517365702,1
641,907,13,0.0851393705866732,1
641,908,13,0.0907479632126168,1
641,909,13,0.0949248855737156,1
641,910,13,0.0981044443466913,1
641,912,13,0.105508466332715,1
642,889,13,0.0753795457488068,1
642,897,13,0.0684760474129582,1
642,898,13,0.0719649661357233,1
642,899,13,0.0775566975422847,1
642,900,13,0.0840992879162643,1
642,901,13,0.090015293814804,1
642,902,13,0.0920695713438383,1
642,909,13,0.102402731548687,1
642,910,13,0.101257678054237,1
643,889,13,0.0847239197247348,1
625,901,14,0.121499515019818,1
626,900,14,0.0918541071223037,1
626,901,14,0.0984121810671902,1
627,899,14,0.0717504423090174,1
627,900,14,0.0784066647231042,1
627,901,14,0.0846862080951679,1
628,901,14,0.0690181401084312,1
628,902,14,0.0763758790954614,1
631,909,14,0.0710587429789044,1
632,910,14,0.0816846055665432,1
632,911,14,0.0958993861869249,1
633,910,14,0.0788221215748185,1
633,911,14,0.0897138164102036,1
633,912,14,0.10048645845822,1
634,912,14,0.0961112685224239,1
634,913,14,0.101545726381091,1
635,909,14,0.0679504565503088,1
635,910,14,0.0813923284578474,1
635,911,14,0.0915365651385263,1
635,912,14,0.0989583288410014,1
635,913,14,0.104282802433133,1
636,909,14,0.0681475860675702,1
636,910,14,0.0812413801133879,1
636,911,14,0.091549802543441,1
636,912,14,0.100568997571218,1
637,909,14,0.0723798599484956,1
640,888,14,0.0686214013066529,1
640,902,14,0.0720345912917091,1
640,903,14,0.069555345146705,1
640,904,14,0.0685119800790593,1
640,905,14,0.0708185829110062,1
640,906,14,0.0748534277858712,1
640,907,14,0.0825018386216347,1
640,908,14,0.0938830239398408,1
641,888,14,0.0733196498099037,1
641,900,14,0.0712312185782342,1
641,901,14,0.0822393846075408,1
641,902,14,0.0865262852453992,1
641,903,14,0.082396238871116,1
641,904,14,0.0804368094447171,1
641,905,14,0.0823386052466412,1
641,906,14,0.0861169978629438,1
641,907,14,0.0895037010586186,1
641,908,14,0.0969631524315567,1
641,909,14,0.103698811254684,1
642,888,14,0.0810716358519048,1
642,889,14,0.0707441060364771,1
642,900,14,0.0801689586424657,1
642,901,14,0.0848228408750363,1
643,886,14,0.0821507898310279,1
643,888,14,0.087178014800401,1
643,889,14,0.077275178071248,1
627,900,15,0.0868370408129918,1
628,899,15,0.0702123457045687,1
628,900,15,0.0740799081158781,1
628,901,15,0.0793617644519159,1
629,902,15,0.0685828870471046,1
629,903,15,0.0694011024254568,1
629,905,15,0.0685510154491177,1
629,906,15,0.0733186495173151,1
630,907,15,0.0677460853938881,1
631,909,15,0.0804126406986398,1
632,909,15,0.0749235560830392,1
632,910,15,0.0910675776588831,1
632,911,15,0.104815089865328,1
633,909,15,0.0763230432815462,1
633,912,15,0.108875990265704,1
634,913,15,0.108348338920117,1
635,909,15,0.0797362572257064,1
635,912,15,0.108710205246143,1
636,909,15,0.0785283769710077,1
636,910,15,0.0911301169098851,1
636,912,15,0.109718787684676,1
637,908,15,0.0720363223369672,1
639,906,15,0.0677510089897433,1
639,907,15,0.0801672635358635,1
640,901,15,0.070838804394713,1
640,902,15,0.07483039709723,1
640,903,15,0.0734877349034405,1
640,904,15,0.0743607507422291,1
640,905,15,0.0760642729796797,1
640,906,15,0.0817373695031466,1
640,907,15,0.0942298738974859,1
641,900,15,0.072109146033326,1
641,901,15,0.0823580720185746,1
641,902,15,0.0854558823289821,1
641,903,15,0.0826098043336652,1
641,904,15,0.0823975925604874,1
641,905,15,0.0839937360839535,1
642,888,15,0.0757782731562104,1
642,889,15,0.0685505063181595,1
627,900,16,0.0973767584424934,1
628,899,16,0.0804809241448061,1
628,900,16,0.0843284267963602,1
628,901,16,0.0905988058111752,1
629,897,16,0.0719440618175549,1
629,898,16,0.0728557236909632,1
629,899,16,0.0716674419832695,1
629,900,16,0.070526126109031,1
629,901,16,0.0722233291328232,1
629,902,16,0.0795507299045172,1
630,905,16,0.0707404522731296,1
630,906,16,0.0752943950934822,1
630,907,16,0.0835769255428678,1
631,907,16,0.0719379881847117,1
631,908,16,0.0798180955349143,1
631,909,16,0.0896538288037689,1
632,908,16,0.071701757409856,1
632,909,16,0.0854412552960401,1
634,908,16,0.0742091674815158,1
635,908,16,0.0754151789261089,1
635,909,16,0.0919173112384394,1
636,908,16,0.0773647491812455,1
636,909,16,0.0897712943005029,1
637,907,16,0.0695069597363425,1
637,908,16,0.0854297129977276,1
639,904,16,0.0683973417565876,1
639,905,16,0.0724648548696447,1
640,901,16,0.0708806310003779,1
640,902,16,0.0746057924775506,1
640,903,16,0.0762926271991223,1
640,904,16,0.0800482227280468,1
640,905,16,0.0827536727629169,1
640,906,16,0.0903514340529977,1
641,901,16,0.0813053808697289,1
642,888,16,0.0721999690065032,1
629,899,17,0.0838835601445865,1
629,900,17,0.083164799006598,1
630,899,17,0.0703603530690222,1
630,900,17,0.0699796069691091,1
630,901,17,0.070293782698786,1
630,902,17,0.0742921318686079,1
630,906,17,0.0910957715344186,1
630,907,17,0.0994141088646097,1
631,903,17,0.0699536113413581,1
631,908,17,0.093293240648019,1
631,909,17,0.098488245232354,1
633,905,17,0.0688651073219309,1
634,906,17,0.069776541583852,1
635,906,17,0.0698804881562003,1
635,907,17,0.077767310045276,1
636,906,17,0.0696814838390573,1
636,907,17,0.080414617324713,1
636,908,17,0.0931189860852233,1
639,903,17,0.0719319385109724,1
639,904,17,0.0817768900450594,1
640,901,17,0.075116774276586,1
640,902,17,0.0799605923054667,1
640,903,17,0.0835039760612134,1
640,904,17,0.0886563933383341,1
640,905,17,0.0929454023773373,1
641,902,17,0.0890828114800909,1
641,903,17,0.0886922301680194,1
642,888,17,0.0729478284762,1
630,900,18,0.0864711313881799,1
631,899,18,0.0682489091180395,1
631,900,18,0.0723234122996648,1
631,901,18,0.0748217298913876,1
631,902,18,0.0783824061303872,1
632,902,18,0.0687118289546154,1
633,903,18,0.0682568874996442,1
634,904,18,0.0720529259959823,1
634,905,18,0.0808647489895727,1
635,904,18,0.0700535387740241,1
635,905,18,0.0799612092523926,1
635,906,18,0.0889067180560695,1
636,904,18,0.069671331168772,1
640,901,18,0.0813773899565545,1
640,902,18,0.086675670258328,1
640,903,18,0.0901641637069986,1
