x,y,z,signal,cytoplasm.p
729,712,15,0.197118424196318,1
750,701,15,0.075401995429178,1
717,700,16,0.0704438385666246,1
725,714,16,0.0812538029087694,1
725,715,16,0.0888101508877279,1
725,716,16,0.0698625966953495,1
726,713,16,0.0919084763188696,1
726,714,16,0.107468488746936,1
726,715,16,0.0976571817845258,1
727,711,16,0.0677681217797167,1
727,712,16,0.133046245766546,1
727,713,16,0.188696751250929,1
727,714,16,0.15971227320432,1
727,715,16,0.100136026614539,1
728,711,16,0.0911899907105762,1
728,712,16,0.206707600316529,1
728,715,16,0.109257527016046,1
729,711,16,0.0730680193210047,1
729,712,16,0.153235552396787,1
729,713,16,0.210866445533721,1
729,714,16,0.150208954533,1
729,715,16,0.0741293537165889,1
730,712,16,0.0681374813154928,1
730,713,16,0.0866133226801574,1
739,687,16,0.0859630007225107,1
739,688,16,0.0714451014989103,1
740,688,16,0.0840556523982536,1
748,699,16,0.0817054559767278,1
748,700,16,0.093303764684415,1
749,699,16,0.131496690720649,1
749,700,16,0.154531596164128,1
749,701,16,0.103587473298777,1
750,699,16,0.0871335407137532,1
750,700,16,0.104855520853189,1
750,701,16,0.078800648227932,1
717,701,17,0.0713650181940643,1
726,713,17,0.0718564074358708,1
726,714,17,0.0756468574712201,1
726,715,17,0.0689239269220496,1
727,712,17,0.0978671653610393,1
727,713,17,0.132671177974262,1
727,714,17,0.106327568197912,1
728,711,17,0.0681135880991106,1
728,712,17,0.143063774726155,1
728,713,17,0.200746766934558,1
728,714,17,0.148875175176988,1
728,715,17,0.0751448723157059,1
729,712,17,0.107713614339121,1
729,713,17,0.149932957635417,1
729,714,17,0.109988698969864,1
730,713,17,0.0679204897010833,1
739,727,17,0.081117727178067,1
740,687,17,0.0836835974632867,1
740,688,17,0.0714868622170394,1
741,688,17,0.0835047247832108,1
749,699,17,0.0804013020527106,1
749,700,17,0.1029436921765,1
749,701,17,0.0909183064516979,1
750,700,17,0.078601913450708,1
750,701,17,0.0771435287849945,1
717,702,18,0.0699192599761156,1
718,701,18,0.0710809470784604,1
727,712,18,0.0682275615564486,1
727,713,18,0.0885005573366753,1
727,714,18,0.0723541278708876,1
728,712,18,0.0915707727491452,1
728,713,18,0.124194890251491,1
728,714,18,0.0951847160659305,1
729,712,18,0.0731185969893757,1
729,713,18,0.097931549463043,1
729,714,18,0.0758374581326639,1
738,727,18,0.0685066312091096,1
738,728,18,0.0815134956361367,1
739,727,18,0.0745591500919982,1
739,728,18,0.0875692609776062,1
740,727,18,0.0753893030938774,1
741,687,18,0.0725820448366837,1
749,701,18,0.0712095056403085,1
728,713,19,0.077262905020266,1
731,730,19,0.0693031096904321,1
732,730,19,0.0735508970911444,1
733,730,19,0.0721148123614026,1
738,728,19,0.0717415654610158,1
739,727,19,0.0678654436598317,1
739,728,19,0.0788362634359061,1
740,727,19,0.0678499600889247,1
740,728,19,0.0779568684856993,1
720,703,20,0.0691969229418675,1
720,704,20,0.0787393907889896,1
720,705,20,0.0708041774997755,1
731,730,20,0.0690719462660551,1
731,731,20,0.076884764472904,1
732,730,20,0.0714178060897717,1
732,731,20,0.0820344024939702,1
733,730,20,0.0699755219418911,1
738,729,20,0.0740381833364049,1
739,728,20,0.0693907221436843,1
739,729,20,0.0805075007808272,1
740,728,20,0.070360424946334,1
754,705,20,0.0694121954905708,1
755,701,20,0.0744683810268048,1
755,702,20,0.085050859667024,1
755,703,20,0.0709326761638638,1
756,701,20,0.0915875980298716,1
756,702,20,0.10812839434615,1
756,703,20,0.083160426470133,1
757,702,20,0.103219054157829,1
699,680,21,0.0719090336076267,1
731,731,21,0.0746937822866895,1
732,731,21,0.0795092087774273,1
733,731,21,0.0875408215212555,1
737,730,21,0.0733668612241741,1
739,729,21,0.0725680946484275,1
753,705,21,0.0688208129285625,1
754,705,21,0.0707077960144893,1
755,701,21,0.101377317839652,1
755,702,21,0.143824572111967,1
755,703,21,0.104721924889743,1
756,701,21,0.144741630773533,1
756,702,21,0.207403372694308,1
756,703,21,0.142850059519206,1
757,701,21,0.119810458091358,1
757,702,21,0.165910050144488,1
757,703,21,0.115809934632856,1
758,702,21,0.0795233506385149,1
730,731,22,0.0677460913836641,1
731,731,22,0.0709835892596896,1
732,731,22,0.0753367547892092,1
733,731,22,0.0826457789281981,1
734,731,22,0.084258639916423,1
735,731,22,0.078376907516038,1
738,730,22,0.0707424468685307,1
740,729,22,0.0713748593959987,1
755,701,22,0.109862206880729,1
755,702,22,0.193368764535389,1
755,703,22,0.132996949910235,1
756,701,22,0.182486156190165,1
756,702,22,0.30981665822827,1
756,703,22,0.208994999926685,1
756,704,22,0.0725877051749844,1
757,701,22,0.135036408733496,1
757,702,22,0.225325501198099,1
757,703,22,0.149239006149535,1
758,702,22,0.0845467541308131,1
732,731,23,0.0686672111133441,1
732,732,23,0.0829613323063503,1
733,731,23,0.0739940985851957,1
734,731,23,0.0764195086236961,1
735,731,23,0.0735902858579856,1
736,731,23,0.0765705647841232,1
738,730,23,0.0684946875958065,1
739,730,23,0.0782997352423181,1
741,729,23,0.0693228699613885,1
755,701,23,0.102238096566114,1
755,702,23,0.204338835589466,1
755,703,23,0.142683951051742,1
756,701,23,0.188701027950978,1
756,702,23,0.354867967607675,1
756,703,23,0.249211649644682,1
756,704,23,0.09032038305432,1
757,701,23,0.134374155142098,1
757,702,23,0.253961709710155,1
757,703,23,0.174522653189,1
757,704,23,0.0691557372422324,1
758,702,23,0.0938385678225209,1
698,679,24,0.0679266052623584,1
731,732,24,0.0688561945352734,1
732,732,24,0.0735470396754136,1
735,731,24,0.0684019239352119,1
735,732,24,0.0838984327583436,1
736,731,24,0.0721856175032563,1
736,732,24,0.0986249738486381,1
737,731,24,0.084502076391782,1
739,730,24,0.0711778736333607,1
742,729,24,0.0687001129527995,1
755,701,24,0.0909070935910643,1
755,702,24,0.18178276481734,1
755,703,24,0.134722113208299,1
756,701,24,0.175111675779272,1
756,702,24,0.33317364590572,1
756,703,24,0.247597213345374,1
756,704,24,0.0955536982458198,1
757,701,24,0.132457762256112,1
757,702,24,0.25109864471016,1
757,703,24,0.183710226809336,1
757,704,24,0.0747086129720147,1
758,702,24,0.0993984456004233,1
758,703,24,0.0771659664858138,1
723,731,25,0.0684624446317088,1
733,732,25,0.0692030804315744,1
734,732,25,0.0727764430160985,1
735,732,25,0.0770340117209853,1
736,731,25,0.069149130519327,1
736,732,25,0.092678689632522,1
737,731,25,0.0794802901389983,1
738,731,25,0.0901855352276934,1
739,730,25,0.0690228121336953,1
743,729,25,0.0704180825299127,1
755,701,25,0.0801864607678778,1
755,702,25,0.141000584410463,1
755,703,25,0.111587310281034,1
756,701,25,0.149980899802357,1
756,702,25,0.261496943728786,1
756,703,25,0.201879241899451,1
756,704,25,0.0892653019848584,1
757,701,25,0.128060212486584,1
757,702,25,0.216663063217437,1
757,703,25,0.164830740431189,1
757,704,25,0.0755820900235537,1
758,701,25,0.0703361423945131,1
758,702,25,0.0978282557762764,1
758,703,25,0.0780314352068682,1
722,731,26,0.0721686125292505,1
723,731,26,0.0708538447221976,1
723,732,26,0.0810786858182326,1
735,732,26,0.069247626395534,1
736,732,26,0.0825527936458923,1
737,731,26,0.0711014680509662,1
738,731,26,0.0816677862755927,1
739,731,26,0.104213452806843,1
740,730,26,0.0875249246558059,1
755,702,26,0.0934307599147324,1
755,703,26,0.077401736047919,1
756,701,26,0.113870684761732,1
756,702,26,0.172713046029176,1
756,703,26,0.13473783038047,1
756,704,26,0.071879737613311,1
757,701,26,0.107264500936178,1
757,702,26,0.155643562136067,1
757,703,26,0.119105832824682,1
758,702,26,0.0816730273295748,1
722,731,27,0.0764663247127519,1
723,731,27,0.072072308911052,1
727,733,27,0.0711875171726877,1
728,733,27,0.0718035476628517,1
729,733,27,0.0719591261041433,1
736,732,27,0.0694944590738733,1
737,732,27,0.0814538494469328,1
738,731,27,0.0682506820917294,1
738,732,27,0.0901910877500264,1
739,731,27,0.0896080429561816,1
740,730,27,0.0764492897898662,1
741,730,27,0.097984732683965,1
742,730,27,0.0846380562860686,1
756,701,27,0.0781575020219088,1
756,702,27,0.0981493317278817,1
756,703,27,0.0774456171467448,1
757,701,27,0.079819071868399,1
757,702,27,0.0955227670426617,1
757,703,27,0.0740427415559253,1
721,731,28,0.0688087734788437,1
722,731,28,0.0737651573677072,1
723,732,28,0.0823122622118834,1
725,733,28,0.0695710563290992,1
727,733,28,0.0693411687270059,1
738,732,28,0.0707842015968839,1
739,731,28,0.0741212016314808,1
741,730,28,0.0786311255881601,1
742,730,28,0.0716938568953391,1
716,729,29,0.0685204795711742,1
721,732,29,0.075481192247179,1
723,732,29,0.0750717251714442,1
724,733,29,0.0750620876218931,1
726,679,29,0.072802600367801,1
726,680,29,0.0713091874921594,1
739,732,29,0.0749076352584857,1
740,731,29,0.0839404091084079,1
741,731,29,0.120884293149412,1
742,731,29,0.110714767634547,1
716,729,30,0.0707843872799392,1
721,732,30,0.0678568663006291,1
722,732,30,0.0680740555776459,1
723,733,30,0.0765533142293022,1
724,733,30,0.0701596117168452,1
726,679,30,0.0680818123375393,1
740,732,30,0.0849412347870472,1
740,733,30,0.0894952794335915,1
741,731,30,0.076945249230745,1
741,732,30,0.1112195859541,1
742,731,30,0.0749026098364389,1
722,733,31,0.0690621949107605,1
723,733,31,0.0691601816560092,1
734,703,34,0.0764592148486642,1
734,704,34,0.0721794839726533,1
735,703,34,0.0678903191994746,1
733,702,35,0.081033576815331,1
733,703,35,0.1345230729525,1
733,704,35,0.121769677875598,1
734,702,35,0.100193396688871,1
734,703,35,0.174951053946606,1
734,704,35,0.15730786931018,1
734,705,35,0.076595176773623,1
735,702,35,0.0736063264780587,1
735,703,35,0.119098776868578,1
735,704,35,0.10517094245627,1
714,730,36,0.0717843025126296,1
720,714,36,0.0859000721360701,1
721,713,36,0.0683845475950954,1
721,714,36,0.098868422303549,1
732,703,36,0.0807660255018785,1
732,704,36,0.0733991161678237,1
733,702,36,0.107936721514806,1
733,703,36,0.20670259286381,1
733,704,36,0.181876169383964,1
733,705,36,0.0809575306194952,1
734,702,36,0.140638742043541,1
734,703,36,0.274755145145689,1
734,704,36,0.241300976467656,1
734,705,36,0.102465504400952,1
735,702,36,0.0845132533137597,1
735,703,36,0.158305813906573,1
735,704,36,0.1364530027322,1
720,713,37,0.0703929973481105,1
720,714,37,0.103065404424403,1
721,713,37,0.0766301570653433,1
721,714,37,0.112523596123494,1
732,703,37,0.0956546559199544,1
732,704,37,0.082938331566589,1
733,702,37,0.120995439432487,1
733,703,37,0.237151571137407,1
733,704,37,0.201294256418189,1
733,705,37,0.0863415186257595,1
734,702,37,0.158901509107287,1
734,703,37,0.314555457514902,1
734,704,37,0.269402801125925,1
734,705,37,0.111430234395747,1
735,702,37,0.0862357152228575,1
735,703,37,0.167824023160978,1
735,704,37,0.142526647554969,1
694,647,38,0.0686053307376999,1
694,648,38,0.0788307109135731,1
695,648,38,0.0779418581070947,1
706,717,38,0.0684769638486831,1
707,717,38,0.07047380541585,1
720,714,38,0.0875192762970572,1
721,714,38,0.0914607285848498,1
732,703,38,0.0922641192676526,1
732,704,38,0.0768836264154679,1
733,702,38,0.113095547852224,1
733,703,38,0.210782636588216,1
733,704,38,0.173262967361854,1
733,705,38,0.0762633132354786,1
734,702,38,0.144928020622463,1
734,703,38,0.274288685351509,1
734,704,38,0.228843608099212,1
734,705,38,0.097774024344558,1
735,702,38,0.0802996136259066,1
735,703,38,0.148943278929875,1
735,704,38,0.124911998211309,1
694,647,39,0.0796163239412688,1
694,648,39,0.0960454468741851,1
694,649,39,0.0702066554173882,1
695,647,39,0.0779594680484744,1
695,648,39,0.0936668109963087,1
695,649,39,0.071461842922773,1
704,715,39,0.0730230001647428,1
706,717,39,0.071963881986271,1
707,717,39,0.0744608339090706,1
732,703,39,0.0729868638462585,1
733,702,39,0.0899608227920464,1
733,703,39,0.146573615736416,1
733,704,39,0.118285029863106,1
734,702,39,0.110394122946813,1
734,703,39,0.184475660281757,1
734,704,39,0.150501291539456,1
734,705,39,0.0736774790269192,1
735,702,39,0.0714734151699654,1
735,703,39,0.11399633828223,1
735,704,39,0.095632266137343,1
757,704,39,0.0681387631275524,1
758,704,39,0.0681578225947192,1
694,647,40,0.088175977366122,1
694,648,40,0.0992890543217096,1
695,648,40,0.0945085482249323,1
704,715,40,0.075352010748629,1
733,703,40,0.0843195199994786,1
733,704,40,0.0689657834765944,1
734,702,40,0.0739032875915705,1
734,703,40,0.104645950571219,1
734,704,40,0.0859794785962304,1
735,703,40,0.0808055999517751,1
735,704,40,0.0705936967718558,1
757,704,40,0.0719333041798957,1
757,705,40,0.0680013576665826,1
758,704,40,0.0699674177749909,1
704,715,41,0.0721818319648372,1
753,689,41,0.0753365571266019,1
753,690,41,0.0719846784884719,1
757,704,41,0.0733030221917846,1
757,705,41,0.0707695685741659,1
758,704,41,0.0693216420573127,1
753,690,42,0.0699681964458682,1
757,704,42,0.0692789649034587,1
757,705,42,0.0692330472807998,1
742,706,44,0.072688339401216,1
742,706,45,0.0784398121433747,1
743,706,45,0.0710101419366067,1
708,714,46,0.0688859217934597,1
742,706,46,0.0728120702036246,1
742,707,46,0.0732812493560991,1
743,706,46,0.0687228860810736,1
743,707,46,0.068536909526686,1
752,697,46,0.092641582970329,1
735,724,47,0.0801058323934177,1
742,707,47,0.0722922415054674,1
743,707,47,0.0704838442803917,1
746,683,47,0.0781912244606734,1
746,684,47,0.080839544012251,1
747,684,47,0.0865903698586039,1
751,698,47,0.0795179478605814,1
717,726,48,0.068261026434846,1
717,727,48,0.0703921767488014,1
718,726,48,0.0765850540522176,1
718,727,48,0.078642554080729,1
718,728,48,0.0704597294422982,1
719,727,48,0.0705879945051233,1
734,724,48,0.0754885596716338,1
735,723,48,0.0735693276318333,1
735,724,48,0.10004684483998,1
735,725,48,0.0783197051554337,1
736,724,48,0.0786576303468694,1
742,707,48,0.0693241996916559,1
743,707,48,0.0704876897165705,1
743,708,48,0.0701528552495403,1
744,707,48,0.0693818153468028,1
746,684,48,0.100219943376012,1
746,685,48,0.0753798452376058,1
747,683,48,0.0991608012384365,1
747,684,48,0.117612917100446,1
747,685,48,0.0877434316835382,1
748,684,48,0.0928449897728169,1
702,704,49,0.0680523126908402,1
717,726,49,0.0707106770967355,1
717,727,49,0.0745255534385291,1
718,726,49,0.083344540204191,1
718,727,49,0.0877470195593499,1
718,728,49,0.0747076066896502,1
719,726,49,0.0712244141927215,1
719,727,49,0.0754315849225167,1
734,724,49,0.0754055293970059,1
735,723,49,0.076376004880757,1
735,724,49,0.0977383252797201,1
735,725,49,0.0792998301682878,1
736,724,49,0.0787932388750453,1
743,708,49,0.0697113308927632,1
745,684,49,0.0699866150070052,1
746,683,49,0.0902684816454576,1
746,684,49,0.108088622233646,1
746,685,49,0.0871355233296024,1
747,682,49,0.0693774667694416,1
747,683,49,0.108158031757696,1
747,684,49,0.133465637901079,1
747,685,49,0.103066674256911,1
748,683,49,0.0876355378488194,1
748,684,49,0.105433102971341,1
748,685,49,0.0843847606394474,1
749,691,49,0.0722706244039574,1
749,692,49,0.0755481938812857,1
749,693,49,0.0715983798662258,1
702,704,50,0.0726481959226014,1
703,704,50,0.0712793284589016,1
717,727,50,0.0712327699302129,1
718,726,50,0.078672934224497,1
718,727,50,0.0833976934762331,1
719,726,50,0.0690898377269059,1
719,727,50,0.071865404079392,1
734,724,50,0.0680212197637307,1
735,723,50,0.0689082037601034,1
735,724,50,0.0805991263839857,1
735,725,50,0.0702761967165102,1
736,724,50,0.0717039316985366,1
743,713,50,0.068565534666092,1
745,684,50,0.0725700233562929,1
745,685,50,0.074728391212299,1
746,683,50,0.0805681832012755,1
746,684,50,0.10325868251571,1
746,685,50,0.0960690705506483,1
746,686,50,0.0701592822791663,1
747,683,50,0.097570054503128,1
747,684,50,0.125859269302916,1
747,685,50,0.108575327470636,1
747,686,50,0.0763893740607432,1
748,683,50,0.0825218444734062,1
748,684,50,0.104368588004712,1
748,685,50,0.0918088363954506,1
748,686,50,0.0686059416948498,1
701,707,51,0.0678386334225475,1
702,704,51,0.0719434089319731,1
703,704,51,0.0765109245846953,1
715,654,51,0.0779098846829161,1
715,655,51,0.0737997063955569,1
716,654,51,0.0708187506247336,1
718,726,51,0.069204374223186,1
718,727,51,0.0728407073225826,1
742,712,51,0.0747097270703469,1
742,713,51,0.0859887328001187,1
742,714,51,0.0792619568147694,1
743,712,51,0.0793429026473564,1
745,684,51,0.0709807201569954,1
745,685,51,0.0809155902080867,1
746,683,51,0.0682685016752685,1
746,684,51,0.0876339984763927,1
746,685,51,0.0942132103407109,1
746,686,51,0.0749220885879242,1
747,683,51,0.0776850225028696,1
747,684,51,0.0996048952091088,1
747,685,51,0.0991221671833687,1
747,686,51,0.0795360908920233,1
748,683,51,0.0700540239458785,1
748,684,51,0.0889111205414144,1
748,685,51,0.0880473768758421,1
748,686,51,0.0730728830191001,1
703,704,52,0.0734163607328687,1
714,654,52,0.0765844430950677,1
714,655,52,0.0721117336165491,1
714,657,52,0.0718446974238309,1
714,658,52,0.0722618913105793,1
715,654,52,0.0896888929523529,1
715,655,52,0.0855846984511973,1
715,656,52,0.0712428327538584,1
716,654,52,0.0772656663069926,1
716,655,52,0.0748381358877955,1
717,654,52,0.0679955715429864,1
741,713,52,0.0688699231018184,1
741,714,52,0.0679600761305319,1
742,712,52,0.079141963632572,1
742,713,52,0.103847154046592,1
745,685,52,0.0784252150593127,1
746,684,52,0.0712472891471872,1
746,685,52,0.0840205103825818,1
746,686,52,0.0726913881971896,1
747,684,52,0.0729942133013853,1
747,685,52,0.0828061551800493,1
747,686,52,0.0746784784090618,1
748,684,52,0.0684777485093364,1
748,685,52,0.075172006000893,1
748,686,52,0.0688077013089433,1
709,711,53,0.0756978604136855,1
712,658,53,0.0726658118537571,1
713,654,53,0.0684633071594498,1
713,657,53,0.0748486659139675,1
713,658,53,0.083978659817813,1
713,659,53,0.0737620666433017,1
714,654,53,0.0798379875809422,1
714,655,53,0.080506404651823,1
714,656,53,0.0735452786812756,1
714,657,53,0.0786869982184969,1
714,658,53,0.0836152780784645,1
714,659,53,0.0746515843149139,1
715,654,53,0.0910218157703997,1
715,655,53,0.0970579765750883,1
715,656,53,0.0830374982977057,1
715,657,53,0.0712661030335388,1
716,654,53,0.0787035779184081,1
716,655,53,0.0856434042455724,1
716,656,53,0.073835339572859,1
717,654,53,0.0740695517932096,1
717,655,53,0.0746923147915745,1
718,654,53,0.074172294420586,1
741,713,53,0.0772723808458656,1
746,685,53,0.0713862339805837,1
746,686,53,0.0678081035343799,1
747,685,53,0.067816261609264,1
709,710,54,0.0702822883186814,1
710,711,54,0.0716879090477914,1
712,654,54,0.0730329731417487,1
712,655,54,0.0701618998112693,1
712,657,54,0.0719527110540693,1
712,658,54,0.08594510926166,1
712,659,54,0.0732994163466449,1
713,654,54,0.069964464815433,1
713,655,54,0.0684345562347482,1
713,657,54,0.0821827392961026,1
713,658,54,0.100928168498053,1
713,659,54,0.0870684078897521,1
714,654,54,0.0740393753018248,1
714,655,54,0.0855387029614507,1
714,656,54,0.081940069512069,1
714,657,54,0.0819235077814857,1
714,658,54,0.0880239748210902,1
714,659,54,0.0800956497742525,1
715,654,54,0.0824966514756364,1
715,655,54,0.107571704566615,1
715,656,54,0.102081907167673,1
715,657,54,0.0772407368593659,1
716,654,54,0.0730563392578447,1
716,655,54,0.0956784113714891,1
716,656,54,0.091137448395684,1
717,654,54,0.0698836387783655,1
717,655,54,0.0766650535001999,1
740,713,54,0.0717165222076455,1
744,704,54,0.076262330912218,1
710,710,55,0.069382635946112,1
712,654,55,0.068955684714293,1
712,655,55,0.0687648624311379,1
712,657,55,0.0732175001703492,1
712,658,55,0.0924024651234512,1
712,659,55,0.0801409025317777,1
713,657,55,0.0854063468816316,1
713,658,55,0.10781084038282,1
713,659,55,0.0932328696959216,1
714,655,55,0.0810816327880145,1
714,656,55,0.0850852888993542,1
714,657,55,0.0810930852396873,1
714,658,55,0.0854335524441305,1
714,659,55,0.0773068100781958,1
715,654,55,0.0713418736996795,1
715,655,55,0.103751964526726,1
715,656,55,0.110002906718487,1
715,657,55,0.0802339297425154,1
716,655,55,0.0921962491160289,1
716,656,55,0.0967583080828337,1
716,657,55,0.0678653238643121,1
734,717,55,0.0688176742859492,1
735,716,55,0.069739153402188,1
743,704,55,0.0678105593425315,1
744,704,55,0.0782778605804409,1
693,655,56,0.0775604711011518,1
694,655,56,0.0840123223588179,1
694,656,56,0.0707451183086176,1
712,657,56,0.0693745197996597,1
712,658,56,0.088235881115693,1
712,659,56,0.0799213892216808,1
713,657,56,0.0798314287762447,1
713,658,56,0.0994113655472111,1
713,659,56,0.0878366505671072,1
714,656,56,0.0751047767552991,1
714,657,56,0.0730190169637164,1
714,658,56,0.076489367380945,1
714,659,56,0.0695285828276285,1
715,655,56,0.0833419586107438,1
715,656,56,0.0945815576043464,1
715,657,56,0.0730062287920002,1
716,655,56,0.0738428447621613,1
716,656,56,0.0823333881517631,1
734,716,56,0.0697083000661175,1
741,704,56,0.083879624861768,1
741,705,56,0.0705900370187323,1
742,703,56,0.0740309776359016,1
742,704,56,0.0954155081241967,1
742,705,56,0.0794257831775848,1
743,704,56,0.081659831853092,1
743,705,56,0.0705559072752011,1
744,704,56,0.0731682582220217,1
692,655,57,0.0728146278379678,1
693,654,57,0.0945314651078299,1
693,655,57,0.146598748836426,1
693,656,57,0.107264201447379,1
694,654,57,0.102115258240326,1
694,655,57,0.158106342386904,1
694,656,57,0.117361466304827,1
695,655,57,0.0902962322775706,1
695,656,57,0.0713675638488556,1
712,658,57,0.0739921698773303,1
712,659,57,0.069567905706934,1
713,657,57,0.0686588074576449,1
713,658,57,0.0793396501989995,1
713,659,57,0.0719738489735009,1
715,656,57,0.0702325013007398,1
740,704,57,0.0739572315140419,1
741,703,57,0.0843742605621553,1
741,704,57,0.12211972038384,1
741,705,57,0.0921667614488818,1
742,703,57,0.0919758193702072,1
742,704,57,0.133986952063679,1
742,705,57,0.100963184728429,1
743,703,57,0.0691379356280213,1
743,704,57,0.0927003247033599,1
743,705,57,0.0732426332703592,1
694,656,58,0.170229792724042,1
719,681,58,0.0710817556982176,1
719,682,58,0.0818497496800741,1
740,704,58,0.0837315875484345,1
741,703,58,0.0962487099220495,1
741,704,58,0.151330504146506,1
741,705,58,0.109463251861838,1
742,703,58,0.10425801674013,1
742,704,58,0.165327316818994,1
742,705,58,0.120632710578721,1
743,703,58,0.0711032949326399,1
743,704,58,0.101706168520478,1
743,705,58,0.0769828051261365,1
718,681,59,0.0689711802647519,1
718,682,59,0.0780192340331979,1
719,681,59,0.0997352387241988,1
719,682,59,0.113130671898568,1
720,682,59,0.0773643897946868,1
740,704,59,0.0823687338198181,1
741,703,59,0.094470351423511,1
741,704,59,0.149218616952101,1
741,705,59,0.112952308349451,1
742,703,59,0.105244341171123,1
742,704,59,0.169777636514901,1
742,705,59,0.131074124004847,1
743,703,59,0.072617917605025,1
743,704,59,0.106509621449033,1
743,705,59,0.0851039530413064,1
718,681,60,0.0781980348359621,1
718,682,60,0.0866825585007044,1
719,681,60,0.111930069221685,1
719,682,60,0.124415984862446,1
720,681,60,0.0712388974710399,1
720,682,60,0.0791683905241936,1
740,704,60,0.0695963032348528,1
741,703,60,0.0789820665627992,1
741,704,60,0.119551963319187,1
741,705,60,0.0980093985814485,1
742,703,60,0.0936505068260925,1
742,704,60,0.148169004548109,1
742,705,60,0.123789070949328,1
742,706,60,0.0685724887960042,1
743,703,60,0.0711116566599073,1
743,704,60,0.104092064006842,1
743,705,60,0.0895049229729185,1
708,669,61,0.0743025361094843,1
709,669,61,0.0703429707391297,1
718,681,61,0.0705518162582071,1
718,682,61,0.0750837107131792,1
719,681,61,0.0967679037039529,1
719,682,61,0.104424352819081,1
720,682,61,0.0715388175338856,1
741,704,61,0.0835367820642531,1
741,705,61,0.0754224205652681,1
742,703,61,0.0755595325272149,1
742,704,61,0.108794469414623,1
742,705,61,0.098670580002946,1
743,704,61,0.087434610813587,1
708,669,62,0.0792049461269965,1
709,669,62,0.0712338600694411,1
719,681,62,0.072965672018843,1
719,682,62,0.0763487753591542,1
742,704,62,0.0770441104832868,1
