x,y,z,signal,cytoplasm.p
61,754,1,0.0694456663587443,1
61,755,1,0.0743911488553251,1
62,753,1,0.0691857520096657,1
62,754,1,0.103279215467767,1
62,755,1,0.127057488048959,1
62,756,1,0.10982668750917,1
62,757,1,0.088012061156667,1
62,758,1,0.0959129829783984,1
62,759,1,0.0983618250205305,1
62,760,1,0.0795761744728782,1
63,737,1,0.0827396566871249,1
63,738,1,0.0750400871747204,1
63,753,1,0.0760255011597644,1
63,754,1,0.127447733933576,1
63,755,1,0.163979892753301,1
63,756,1,0.143759451267518,1
63,757,1,0.114871660184771,1
63,758,1,0.128544641608702,1
63,759,1,0.132296673220919,1
63,760,1,0.102576722561339,1
63,761,1,0.0751875674388878,1
64,736,1,0.0824094283578229,1
64,737,1,0.0857274348127888,1
64,738,1,0.0750762654216366,1
64,754,1,0.101513645140945,1
64,755,1,0.127247675415861,1
64,756,1,0.117166570974006,1
64,757,1,0.105635377706169,1
64,758,1,0.124856508926635,1
64,759,1,0.131851369315499,1
64,760,1,0.107613393407432,1
64,761,1,0.0835581116565162,1
64,762,1,0.0733164452797546,1
64,763,1,0.0707074126688266,1
64,764,1,0.0694344175594548,1
65,734,1,0.0857584977910185,1
65,735,1,0.0792691625152727,1
65,736,1,0.0776592065683979,1
65,737,1,0.0781743452719631,1
65,738,1,0.0688460418649881,1
65,755,1,0.0758980207575926,1
65,756,1,0.0778983363948276,1
65,757,1,0.0825355790297272,1
65,758,1,0.0970346463976481,1
65,759,1,0.103925835743859,1
65,760,1,0.0953303035608883,1
65,761,1,0.0844887371606756,1
65,762,1,0.0785921620954134,1
65,763,1,0.0751101615639046,1
65,764,1,0.0724193205926486,1
65,765,1,0.0707235850639713,1
66,732,1,0.113643696211213,1
66,733,1,0.0982959674336359,1
66,734,1,0.0837993798329705,1
66,735,1,0.074088982626487,1
66,736,1,0.0682356357744689,1
66,758,1,0.0735314662578669,1
66,759,1,0.0786406433421915,1
66,760,1,0.0790811134983962,1
66,761,1,0.0777959950824418,1
66,762,1,0.0759997511128285,1
66,763,1,0.0728356459618799,1
66,764,1,0.0698554209437261,1
66,765,1,0.068995702407612,1
66,766,1,0.0694811378120949,1
66,767,1,0.06877652452497,1
67,731,1,0.123588760861021,1
67,732,1,0.105059448766188,1
67,733,1,0.0882555635195617,1
67,734,1,0.0744947779695464,1
67,761,1,0.0695476482845713,1
67,762,1,0.0690481249269846,1
68,730,1,0.101635441245712,1
68,731,1,0.093638946558452,1
68,732,1,0.0816040430796189,1
68,733,1,0.0721130932956965,1
69,728,1,0.0810380631575396,1
69,729,1,0.0838624821229146,1
69,730,1,0.0799333987225197,1
69,731,1,0.0721286307745873,1
70,727,1,0.0691757730428838,1
70,728,1,0.0782838024382126,1
70,729,1,0.0786757074907755,1
70,730,1,0.0720575081746067,1
71,727,1,0.0713498940097161,1
71,728,1,0.0797293749731059,1
71,729,1,0.0778407566783367,1
71,730,1,0.0703866362060203,1
72,727,1,0.0741710066187504,1
72,728,1,0.0792534453431025,1
72,729,1,0.074182500998855,1
73,727,1,0.0726633620353815,1
73,728,1,0.0749339303750357,1
73,729,1,0.0697690543638776,1
75,761,1,0.068798459084607,1
76,760,1,0.0720860135184931,1
76,761,1,0.0767663645711172,1
76,762,1,0.0737685535706876,1
77,760,1,0.0717869619731645,1
77,761,1,0.0758849390868534,1
77,762,1,0.0738310209443778,1
78,760,1,0.0688495458839362,1
78,761,1,0.0726168693942286,1
79,761,1,0.0706151641289663,1
83,724,1,0.0708193136636757,1
84,723,1,0.0740576141696824,1
84,724,1,0.0778676268133807,1
84,725,1,0.0732204531299071,1
85,722,1,0.0725908498073736,1
85,723,1,0.0843620054805013,1
85,724,1,0.0883926814712845,1
85,725,1,0.0813267883290796,1
86,722,1,0.0788906266426961,1
86,723,1,0.0928026420566418,1
86,724,1,0.0964873545766249,1
86,725,1,0.0876283680869719,1
86,726,1,0.070282689633672,1
87,722,1,0.0782450306182973,1
87,723,1,0.089810719006,1
87,724,1,0.0926974975290976,1
87,725,1,0.0855112518181366,1
87,726,1,0.0699794033167258,1
88,722,1,0.0722797108941183,1
88,723,1,0.0805663862684817,1
88,724,1,0.0836120376096596,1
88,725,1,0.0795929398558448,1
88,756,1,0.0695039768279047,1
89,723,1,0.0720333334387534,1
89,724,1,0.0757286718213241,1
89,725,1,0.0734840032730053,1
89,755,1,0.069948076788353,1
89,756,1,0.0708597805901932,1
90,723,1,0.0712290922077615,1
90,724,1,0.0759190269019527,1
90,725,1,0.0737890386045374,1
90,755,1,0.073064730933992,1
90,756,1,0.0726414035166406,1
90,757,1,0.0694537285972127,1
91,723,1,0.0728560950570739,1
91,724,1,0.0790863365830504,1
91,725,1,0.078108056421198,1
91,755,1,0.0725938806340192,1
91,756,1,0.0728160773637549,1
91,757,1,0.0712504218000245,1
92,722,1,0.0684502734069184,1
92,723,1,0.0783934093488615,1
92,724,1,0.0843715172447567,1
92,725,1,0.0832681106626925,1
92,726,1,0.0700936642833108,1
92,755,1,0.0722372972904074,1
92,756,1,0.073454282004595,1
92,757,1,0.0730389449484002,1
92,758,1,0.0738336863946887,1
93,722,1,0.0745257810500164,1
93,723,1,0.0836649572804385,1
93,724,1,0.0850468824557736,1
93,725,1,0.0820268374069081,1
93,726,1,0.0709032064660446,1
93,755,1,0.072339410991306,1
93,756,1,0.0746779932372075,1
93,757,1,0.077440010716428,1
93,758,1,0.0809624482255744,1
93,759,1,0.0736597433002439,1
94,722,1,0.0754248344449878,1
94,723,1,0.082644946349337,1
94,724,1,0.0806192879699327,1
94,725,1,0.0772242949243022,1
94,726,1,0.0709779888191487,1
94,755,1,0.0705603337196499,1
94,756,1,0.0744613729889088,1
94,757,1,0.0807769268941612,1
94,758,1,0.0866380125367449,1
94,759,1,0.0783675215370781,1
95,723,1,0.0712560821383251,1
95,724,1,0.0711011565826153,1
95,725,1,0.0714344516772187,1
95,726,1,0.0706042567469076,1
95,756,1,0.071617613036896,1
95,757,1,0.0771790960747608,1
95,758,1,0.0807798379252873,1
95,759,1,0.0740709593905647,1
96,726,1,0.0695428205251318,1
96,727,1,0.0685286256665063,1
96,756,1,0.0721945841978976,1
96,757,1,0.0746992569419347,1
96,758,1,0.0748798726468207,1
96,759,1,0.0707858008670704,1
97,727,1,0.06991622914947,1
97,755,1,0.0694310992235621,1
97,756,1,0.0735408402572748,1
97,757,1,0.0738051990201301,1
97,758,1,0.072934399398454,1
97,759,1,0.0710284107533442,1
98,727,1,0.070480250414804,1
98,728,1,0.0679600821203079,1
98,755,1,0.0721551115741927,1
98,756,1,0.0760592834962888,1
98,757,1,0.0756146444560023,1
98,758,1,0.0733629199515796,1
99,727,1,0.0740360270170523,1
99,728,1,0.0696175429804761,1
99,752,1,0.0683580188772821,1
99,755,1,0.0758849989846132,1
99,756,1,0.080585278021921,1
99,757,1,0.0803689153339894,1
100,728,1,0.0714179079159633,1
100,729,1,0.0694897451201774,1
100,751,1,0.0699072145366209,1
100,756,1,0.083418166530531,1
101,729,1,0.0769736287893359,1
101,730,1,0.0717145515713482,1
102,730,1,0.0759436269119006,1
61,754,2,0.0686190413349169,1
61,755,2,0.0780693624683704,1
61,756,2,0.0713640238912517,1
62,754,2,0.102388643595583,1
62,755,2,0.140523366978624,1
62,756,2,0.115841033549742,1
62,757,2,0.0876877627055847,1
62,758,2,0.0887144103084715,1
62,759,2,0.0866485245935889,1
62,760,2,0.0690857886383437,1
63,738,2,0.0728129566904696,1
63,753,2,0.073610609167884,1
63,754,2,0.140983022387291,1
63,755,2,0.208031268930687,1
63,756,2,0.17262648178672,1
63,757,2,0.118476451123859,1
63,758,2,0.117235141929419,1
63,759,2,0.116139468148144,1
63,760,2,0.0886533026139286,1
63,761,2,0.0687644970548032,1
64,736,2,0.0779711361320825,1
64,737,2,0.0821534972097707,1
64,738,2,0.0719263201011036,1
64,754,2,0.112326592391528,1
64,755,2,0.165199662713319,1
64,756,2,0.141694248387097,1
64,757,2,0.105825121829648,1
64,758,2,0.112520146012529,1
64,759,2,0.116759709450822,1
64,760,2,0.0945535673811942,1
64,761,2,0.0784168054138375,1
64,762,2,0.0704671986929446,1
64,765,2,0.0685650375146857,1
65,735,2,0.0758829145425723,1
65,736,2,0.0741063230279477,1
65,737,2,0.0758913721062554,1
65,754,2,0.0702065835400764,1
65,755,2,0.0966227474728656,1
65,756,2,0.0935595101494118,1
65,757,2,0.0861088757267156,1
65,758,2,0.0928566758257529,1
65,759,2,0.0970544366174844,1
65,760,2,0.0882079268311967,1
65,761,2,0.0804035961369108,1
65,762,2,0.075369249323898,1
65,763,2,0.0710569400563346,1
65,764,2,0.0684222113064545,1
65,765,2,0.0683945385414292,1
66,733,2,0.0944110586310899,1
66,734,2,0.0797963825969886,1
66,735,2,0.0718393126152253,1
66,757,2,0.0693361073663032,1
66,758,2,0.0753663862109798,1
66,759,2,0.0777240339138241,1
66,760,2,0.0756690555810001,1
66,761,2,0.0729364778507189,1
66,762,2,0.0708742159503038,1
66,763,2,0.0682874832753475,1
67,732,2,0.100999746321008,1
67,733,2,0.0843622271022125,1
67,734,2,0.0731680306105345,1
67,761,2,0.0679391418634835,1
68,730,2,0.107512813089184,1
68,731,2,0.0934323771542469,1
68,732,2,0.0783688273082416,1
68,733,2,0.0721319670798079,1
69,729,2,0.0881753424498682,1
69,730,2,0.0824193054984131,1
69,731,2,0.0717010026980826,1
70,728,2,0.0802568046969811,1
70,729,2,0.0826389865222373,1
70,730,2,0.0741751635232802,1
71,727,2,0.068270669974173,1
71,728,2,0.079913147289933,1
71,729,2,0.0796196063385055,1
71,730,2,0.0714105704403885,1
72,727,2,0.0698639803336008,1
72,728,2,0.0788065122186159,1
72,729,2,0.0752301128176702,1
73,727,2,0.0696851915103886,1
73,728,2,0.0756347581237415,1
73,729,2,0.0713446409761821,1
76,760,2,0.0700439731017849,1
76,761,2,0.0784451670031004,1
76,762,2,0.0751222848704872,1
77,760,2,0.0722274201498172,1
77,761,2,0.0809535234593649,1
77,762,2,0.0784123729796126,1
78,760,2,0.0691999597582891,1
78,761,2,0.0763433126834609,1
78,762,2,0.0746886909771069,1
79,761,2,0.0690274781691833,1
83,724,2,0.0686261931274365,1
84,723,2,0.0707774032011471,1
84,724,2,0.0734309278680509,1
84,725,2,0.0705152187269723,1
85,722,2,0.0688943254491589,1
85,723,2,0.0803891667665761,1
85,724,2,0.0820558758408567,1
85,725,2,0.0783063779038793,1
86,722,2,0.0732708810538786,1
86,723,2,0.0885116144631335,1
86,724,2,0.0902241153747774,1
86,725,2,0.0856696694132425,1
87,722,2,0.0719828695761261,1
87,723,2,0.0857146765899525,1
87,724,2,0.0874510048304429,1
87,725,2,0.0840541789133626,1
88,723,2,0.0753034935631951,1
88,724,2,0.0782989326123368,1
88,725,2,0.0770055303362028,1
89,724,2,0.0723786799626276,1
89,725,2,0.0722900492474589,1
90,723,2,0.0699717903114559,1
90,724,2,0.0763271223189882,1
90,725,2,0.0739874918622904,1
91,723,2,0.0778111971338778,1
91,724,2,0.0835952842062449,1
91,725,2,0.0778744491682214,1
91,756,2,0.0678318529961387,1
92,723,2,0.0851586876142071,1
92,724,2,0.0898314316513372,1
92,725,2,0.0821435961100766,1
92,756,2,0.0703979808417255,1
92,757,2,0.0702612282663374,1
92,758,2,0.0693784610722542,1
93,722,2,0.0706266704886229,1
93,723,2,0.086496528038333,1
93,724,2,0.0874362580019813,1
93,725,2,0.0799224494120292,1
93,755,2,0.0677790830697592,1
93,756,2,0.0716226863771506,1
93,757,2,0.0730524399136821,1
93,758,2,0.0739595615368979,1
94,722,2,0.069356891888952,1
94,723,2,0.079843917459162,1
94,724,2,0.0782246833492949,1
94,725,2,0.073665571352272,1
94,756,2,0.0711450436712171,1
94,757,2,0.0752965633923868,1
94,758,2,0.0786109340533332,1
94,759,2,0.0714582250980814,1
95,756,2,0.0681037409074003,1
95,757,2,0.0717295978886088,1
95,758,2,0.0736191505884308,1
95,759,2,0.0681211292270688,1
96,756,2,0.0689040348760217,1
96,757,2,0.071099754975036,1
96,758,2,0.0701357963675507,1
97,756,2,0.0698222315950237,1
97,757,2,0.0707653697412043,1
97,758,2,0.068600017806406,1
98,756,2,0.0700739459407863,1
98,757,2,0.070545994195955,1
98,758,2,0.0678815082390087,1
99,755,2,0.0692561139080969,1
99,756,2,0.0741006387305432,1
99,757,2,0.0749333912951975,1
99,758,2,0.0706443762664183,1
100,756,2,0.0772771546973213,1
100,757,2,0.0774261563645874,1
101,729,2,0.0709511186841047,1
102,730,2,0.0691961502607661,1
61,754,3,0.0714233526223287,1
61,755,3,0.0881153488536575,1
61,756,3,0.0873711371575322,1
61,757,3,0.0813925920079905,1
62,754,3,0.105529945669378,1
62,755,3,0.155036869706655,1
62,756,3,0.132193589176312,1
62,757,3,0.0999658091607538,1
62,758,3,0.0881321142366241,1
62,759,3,0.0766230232421517,1
63,753,3,0.0730185198123101,1
63,754,3,0.163678930469435,1
63,755,3,0.264108198546602,1
63,756,3,0.214995845012199,1
63,757,3,0.12680964309848,1
63,758,3,0.105209073370156,1
63,759,3,0.0964690558110075,1
63,760,3,0.0760648000799659,1
64,737,3,0.0773815145642122,1
64,738,3,0.0700923285632674,1
64,754,3,0.154389470759687,1
64,755,3,0.253608840027651,1
64,756,3,0.207468301865925,1
64,757,3,0.117713221888999,1
64,758,3,0.0991090615535255,1
64,759,3,0.0988913930944304,1
64,760,3,0.0854022259157577,1
64,761,3,0.0804833260449739,1
64,762,3,0.0749063294873221,1
65,736,3,0.0733682029339935,1
65,737,3,0.0752204872476711,1
65,754,3,0.0932319233113168,1
65,755,3,0.148607635843088,1
65,756,3,0.133045071770454,1
65,757,3,0.0940961940771753,1
65,758,3,0.0871463049263655,1
65,759,3,0.0893815874957245,1
65,760,3,0.0847951022224752,1
65,761,3,0.0830629189069627,1
65,762,3,0.0790395744019784,1
65,763,3,0.0687137636522568,1
66,734,3,0.079605428538762,1
66,735,3,0.0716359836798251,1
66,736,3,0.0686231742803428,1
66,737,3,0.0684631873639303,1
66,756,3,0.0714076594092624,1
66,757,3,0.0743351743987966,1
66,758,3,0.0756595078780888,1
66,759,3,0.076023266973324,1
66,760,3,0.0744399295909021,1
66,761,3,0.0725299038367822,1
66,762,3,0.0695262288456686,1
67,732,3,0.105444555423014,1
67,733,3,0.0821362107162938,1
67,734,3,0.074156493391552,1
67,760,3,0.0681375711621325,1
67,761,3,0.0694328362585962,1
68,731,3,0.106278152546081,1
68,732,3,0.08012033963084,1
68,733,3,0.0712847791550429,1
69,730,3,0.0877373820097989,1
69,731,3,0.0759608594973936,1
70,728,3,0.0860066302507454,1
70,729,3,0.0881997268278808,1
70,730,3,0.0775236160095499,1
71,727,3,0.0732372065333218,1
71,728,3,0.08412974592712,1
71,729,3,0.0839040511682124,1
71,730,3,0.0740815013962887,1
72,727,3,0.0694179097368552,1
72,728,3,0.0792630349744457,1
72,729,3,0.0776024414614402,1
72,730,3,0.0694382270569777,1
73,727,3,0.0678129133244915,1
73,728,3,0.0756286665215703,1
73,729,3,0.0732445140600168,1
76,761,3,0.079171780737398,1
76,762,3,0.0744685068121003,1
77,760,3,0.0726857757770968,1
77,761,3,0.0870827174645671,1
77,762,3,0.0812344020243718,1
78,760,3,0.0720052294098576,1
78,761,3,0.082712433155298,1
78,762,3,0.077020378990856,1
79,761,3,0.0701477100319739,1
83,724,3,0.0684492791041059,1
83,725,3,0.0681223571311446,1
84,723,3,0.0717113230820953,1
84,724,3,0.0725515688565,1
84,725,3,0.0720337587128479,1
85,722,3,0.069525234542856,1
85,723,3,0.0802197878814277,1
85,724,3,0.0789967954219328,1
85,725,3,0.0787108614859992,1
86,722,3,0.0709503879314352,1
86,723,3,0.0858437442827588,1
86,724,3,0.0858735613875848,1
86,725,3,0.0863928210570239,1
87,722,3,0.0679311934307587,1
87,723,3,0.0841149451906747,1
87,724,3,0.0858528307729197,1
87,725,3,0.0867230973045337,1
88,723,3,0.0740384648558759,1
88,724,3,0.0769325269465646,1
88,725,3,0.0779826185326352,1
89,724,3,0.0714387044181642,1
89,725,3,0.073745918207261,1
90,724,3,0.0730581841088464,1
90,725,3,0.0740911149867358,1
91,723,3,0.0769720355089254,1
91,724,3,0.0821800199378079,1
91,725,3,0.0765237486950674,1
92,723,3,0.088746126172283,1
92,724,3,0.0918619118004049,1
92,725,3,0.0802841540141035,1
92,756,3,0.0718086389724343,1
92,757,3,0.073535227837182,1
92,758,3,0.070189189230632,1
93,722,3,0.0680231125329402,1
93,723,3,0.0919875114129192,1
93,724,3,0.0938880673312155,1
93,725,3,0.0811423092186869,1
93,756,3,0.0734607809115327,1
93,757,3,0.0751427159963532,1
93,758,3,0.0715973436349813,1
94,723,3,0.0824605031776001,1
94,724,3,0.083948567183292,1
94,725,3,0.0758234121079919,1
94,756,3,0.0736193542408141,1
94,757,3,0.0755894694275605,1
94,758,3,0.0733773073934824,1
94,759,3,0.0686286968537959,1
95,756,3,0.0717095081799735,1
95,757,3,0.0732972240886364,1
95,758,3,0.0720315604650635,1
95,759,3,0.0687535657136406,1
96,756,3,0.0718696508305615,1
96,757,3,0.0734505503741597,1
96,758,3,0.0708745633573106,1
97,756,3,0.072297925802872,1
97,757,3,0.0742959533456828,1
97,758,3,0.069695589761489,1
98,756,3,0.0717588579442686,1
98,757,3,0.0736491054581043,1
98,758,3,0.0684287401622721,1
99,756,3,0.0739892947848602,1
99,757,3,0.0755552797862695,1
99,758,3,0.0701256017688336,1
100,756,3,0.0764679898704742,1
100,757,3,0.0766945651264509,1
61,754,4,0.0730551233333209,1
61,755,4,0.095643359202457,1
61,756,4,0.107153414550862,1
61,757,4,0.0974464494860149,1
62,753,4,0.0688512889087462,1
62,754,4,0.107118110811239,1
62,755,4,0.158314127715633,1
62,756,4,0.148042584336285,1
62,757,4,0.114677363831548,1
62,758,4,0.0840535080584529,1
63,753,4,0.0798811978248584,1
63,754,4,0.17093002149515,1
63,755,4,0.280695086189043,1
63,756,4,0.226277013051099,1
63,757,4,0.124180406973173,1
63,758,4,0.0844691805421025,1
63,759,4,0.0747096372237072,1
63,760,4,0.0681814642405103,1
64,753,4,0.0771710637851723,1
64,754,4,0.190806506085085,1
64,755,4,0.320094227322253,1
64,756,4,0.254158749380777,1
64,757,4,0.12489934780444,1
64,758,4,0.0808048452400017,1
64,759,4,0.0827856461870955,1
64,760,4,0.0829913410840076,1
64,761,4,0.0826670066942695,1
64,762,4,0.0747732007264017,1
65,736,4,0.0703611916376594,1
65,737,4,0.0733187872821626,1
65,754,4,0.11095259767959,1
65,755,4,0.187650181653134,1
65,756,4,0.158506902665757,1
65,757,4,0.0964967645146887,1
65,758,4,0.0777400745338972,1
65,759,4,0.0821563663124649,1
65,760,4,0.0840401029398108,1
65,761,4,0.0844585367101869,1
65,762,4,0.0800098222742422,1
66,735,4,0.0686513262274465,1
66,755,4,0.0751304848738031,1
66,756,4,0.0845820399011083,1
66,757,4,0.079677916807666,1
66,758,4,0.0742127613471035,1
66,759,4,0.0735618464016349,1
66,760,4,0.0737456666366699,1
66,761,4,0.074735405239971,1
66,762,4,0.0729549323505117,1
67,733,4,0.0736268534403404,1
67,734,4,0.0693561731158345,1
67,760,4,0.0695114281092232,1
67,761,4,0.0743761504562724,1
67,762,4,0.0734447762301155,1
68,732,4,0.0740368655856894,1
68,761,4,0.0705030774510619,1
68,762,4,0.0713478335267791,1
69,730,4,0.0852213227016247,1
69,731,4,0.0725677951596285,1
70,729,4,0.0859793827598147,1
70,730,4,0.0754027142022955,1
71,728,4,0.0821197268527982,1
71,729,4,0.0807384665425968,1
71,730,4,0.0713653476317432,1
72,728,4,0.0742717786098295,1
72,729,4,0.074533777400949,1
73,728,4,0.0708238359445402,1
73,729,4,0.071603297472305,1
76,761,4,0.0734651055297899,1
76,762,4,0.0721143331793242,1
77,761,4,0.0845821057886441,1
77,762,4,0.0802844654824544,1
78,760,4,0.0709163839731995,1
78,761,4,0.0837951211022491,1
79,761,4,0.070446330313432,1
83,725,4,0.0677766152820557,1
84,723,4,0.070260180055541,1
84,724,4,0.0700294299257067,1
84,725,4,0.071482603486318,1
85,722,4,0.0685492664345317,1
85,723,4,0.0774573391383367,1
85,724,4,0.0748680308597092,1
85,725,4,0.0774700614225172,1
86,723,4,0.0814505371008162,1
86,724,4,0.0822278363194523,1
86,725,4,0.0876659838801232,1
87,723,4,0.0825247674840842,1
87,724,4,0.0868561122597106,1
87,725,4,0.0918139097357052,1
88,723,4,0.0754320042068353,1
88,724,4,0.0802981820694475,1
88,725,4,0.0825109131322436,1
89,724,4,0.0707279216617804,1
89,725,4,0.0746537466240425,1
90,725,4,0.0714058085684847,1
91,723,4,0.0702703506951542,1
91,724,4,0.075475064706352,1
91,725,4,0.0718114302080407,1
92,723,4,0.0892601028593082,1
92,724,4,0.0910519503333526,1
92,725,4,0.0753805700004993,1
92,756,4,0.0726925022955218,1
92,757,4,0.0730703373643088,1
93,722,4,0.0695917390255564,1
93,723,4,0.100941992901013,1
93,724,4,0.102370243003774,1
93,725,4,0.0808446233422816,1
93,756,4,0.0749830764869475,1
93,757,4,0.0738019885002051,1
94,723,4,0.0904529966945062,1
94,724,4,0.0933292152425519,1
94,725,4,0.0770096033838688,1
94,756,4,0.0734699213096775,1
94,757,4,0.0723943731756939,1
95,724,4,0.069945159767451,1
95,756,4,0.0745482486997155,1
95,757,4,0.074405494368796,1
95,758,4,0.071342622421677,1
95,759,4,0.0703462052181587,1
96,756,4,0.0758762000036993,1
96,757,4,0.0775731574466764,1
96,758,4,0.0739100081202195,1
96,759,4,0.0705519480332786,1
97,756,4,0.0749703482129911,1
97,757,4,0.0793917133318134,1
97,758,4,0.0722619152696832,1
98,756,4,0.073714070568378,1
98,757,4,0.0791339612918634,1
98,758,4,0.0701024812335527,1
99,756,4,0.0722846704286293,1
99,757,4,0.0762010015959638,1
99,758,4,0.068310118638774,1
100,756,4,0.073495785162357,1
100,757,4,0.0747057318897686,1
60,756,5,0.0736083689916677,1
61,754,5,0.0757587524762932,1
61,755,5,0.101173294090238,1
61,756,5,0.121008904448889,1
61,757,5,0.110636948465022,1
62,753,5,0.0745912912299042,1
62,754,5,0.107644839731325,1
62,755,5,0.1521177883217,1
62,756,5,0.152135170651593,1
62,757,5,0.124236303562613,1
62,758,5,0.089696464029191,1
63,753,5,0.0864862076543203,1
63,754,5,0.159154074001238,1
63,755,5,0.249838467721385,1
63,756,5,0.201947860773072,1
63,757,5,0.117388707805981,1
63,758,5,0.0822979466472924,1
63,759,5,0.0749933549425283,1
63,760,5,0.0754065895873543,1
64,753,5,0.0861638678599834,1
64,754,5,0.188761967931794,1
64,755,5,0.306739374880145,1
64,756,5,0.241382173870834,1
64,757,5,0.121970371309567,1
64,758,5,0.0800822087169545,1
64,759,5,0.0852207476831307,1
64,760,5,0.0911801674779698,1
64,761,5,0.0841672598940797,1
64,762,5,0.0706667600592537,1
65,754,5,0.106865006837449,1
65,755,5,0.177877059512593,1
65,756,5,0.147021231695364,1
65,757,5,0.0914201358730367,1
65,758,5,0.0760551026326551,1
65,759,5,0.0817784953050219,1
65,760,5,0.0857454820078151,1
65,761,5,0.0814752988347154,1
65,762,5,0.0746710990050551,1
66,755,5,0.079293636739925,1
66,756,5,0.0853131519571665,1
66,757,5,0.0783956914535097,1
66,758,5,0.0729419045877563,1
66,759,5,0.073252935685044,1
66,760,5,0.0748022271807984,1
66,761,5,0.0764076189183768,1
66,762,5,0.0752409423326411,1
67,759,5,0.0678764169294262,1
67,760,5,0.0718954487957052,1
67,761,5,0.0794432912927729,1
67,762,5,0.0802525579458116,1
67,763,5,0.0700157432875935,1
68,732,5,0.0725862137207655,1
68,738,5,0.0743631825912768,1
68,739,5,0.0865946405688773,1
68,740,5,0.0803166725078962,1
68,761,5,0.073972110117575,1
68,762,5,0.0761493457679166,1
68,763,5,0.0698530250333343,1
69,730,5,0.0816474749452463,1
69,731,5,0.0716141868850357,1
69,738,5,0.0762002708432943,1
69,739,5,0.0889690296955842,1
69,740,5,0.0818741879660705,1
70,729,5,0.0778869198818107,1
70,730,5,0.0707236509515071,1
71,728,5,0.0743669321910399,1
71,729,5,0.0730009817482421,1
72,729,5,0.0684049008538737,1
73,729,5,0.0681195239671063,1
76,762,5,0.0688353561046407,1
77,761,5,0.0756754826106261,1
77,762,5,0.0746017493787644,1
78,760,5,0.0702838157115562,1
78,761,5,0.0792670361448,1
78,762,5,0.0716233033240765,1
79,760,5,0.0700762999227463,1
79,761,5,0.0725806731779844,1
84,723,5,0.0683271355923318,1
84,724,5,0.0690477835097538,1
84,725,5,0.0710107289346527,1
85,723,5,0.0727269554869558,1
85,724,5,0.0722207295700481,1
85,725,5,0.074990234269243,1
86,723,5,0.0740956312778243,1
86,724,5,0.0778251892505659,1
86,725,5,0.0828287965332518,1
86,726,5,0.0678733801130045,1
86,759,5,0.0710030200929671,1
87,723,5,0.0747037971921272,1
87,724,5,0.0828737138633221,1
87,725,5,0.0868809758198015,1
87,726,5,0.0691414875651771,1
88,723,5,0.0715981881933944,1
88,724,5,0.0804369711686685,1
88,725,5,0.0806943937709397,1
89,724,5,0.0684376888875855,1
89,725,5,0.0717251954032638,1
90,725,5,0.0685346813300216,1
92,723,5,0.0824127646630435,1
92,724,5,0.0843721581507865,1
92,725,5,0.0716885499538212,1
92,756,5,0.0722466952489193,1
92,757,5,0.0711443248980995,1
93,722,5,0.0697294739242051,1
93,723,5,0.0997162750934477,1
93,724,5,0.100680383445333,1
93,725,5,0.0788030441383238,1
93,756,5,0.0734784567404482,1
93,757,5,0.0706914618953932,1
94,723,5,0.0919673378474202,1
94,724,5,0.0955046958885315,1
94,725,5,0.0776946480728686,1
94,756,5,0.0716896760317054,1
94,757,5,0.069112011877582,1
95,723,5,0.0686351718016297,1
95,724,5,0.0732297013440195,1
95,725,5,0.0677978849765589,1
95,756,5,0.0771184915214002,1
95,757,5,0.0749268624393799,1
95,758,5,0.0715706112647848,1
95,759,5,0.0711685655214886,1
96,756,5,0.079968402973344,1
96,757,5,0.079677030320821,1
96,758,5,0.0755050135862495,1
96,759,5,0.0717982287417819,1
97,756,5,0.076943218696688,1
97,757,5,0.0815691945629701,1
97,758,5,0.0734725927497643,1
98,756,5,0.0739701035426219,1
98,757,5,0.0816044623639375,1
98,758,5,0.0707831234372076,1
99,756,5,0.0698662085302652,1
99,757,5,0.0756049829473474,1
100,756,5,0.0702288415476163,1
100,757,5,0.0722165367268625,1
60,755,6,0.068599155278665,1
60,756,6,0.0717253810863192,1
61,754,6,0.0825158606872027,1
61,755,6,0.103157323526585,1
61,756,6,0.113858118211727,1
61,757,6,0.10508441415247,1
62,753,6,0.0803475198541906,1
62,754,6,0.113759598376416,1
62,755,6,0.146530932592786,1
62,756,6,0.140703503501431,1
62,757,6,0.116270536426128,1
62,758,6,0.0955776274008579,1
63,752,6,0.0693312975761916,1
63,753,6,0.0937799638543375,1
63,754,6,0.152257038633672,1
63,755,6,0.20996843435977,1
63,756,6,0.170945882421943,1
63,757,6,0.108939410013775,1
63,758,6,0.0884381618402969,1
63,759,6,0.0859285834697325,1
63,760,6,0.0847492564771281,1
64,753,6,0.0894964893683393,1
64,754,6,0.163585406107291,1
64,755,6,0.238332179942071,1
64,756,6,0.192196493498889,1
64,757,6,0.109816876256116,1
64,758,6,0.0836297913056629,1
64,759,6,0.0893528245914709,1
64,760,6,0.0946823894931854,1
64,761,6,0.0834358064207907,1
64,762,6,0.0682517123331979,1
65,754,6,0.0967963491500795,1
65,755,6,0.14267231890679,1
65,756,6,0.124107487440398,1
65,757,6,0.0866820373901942,1
65,758,6,0.0774740925417514,1
65,759,6,0.0814653138781576,1
65,760,6,0.0850295121054331,1
65,761,6,0.0787031406647616,1
65,762,6,0.0713824125035088,1
66,755,6,0.0757238740107645,1
66,756,6,0.0806811982944568,1
66,757,6,0.0739125417954588,1
66,758,6,0.0718411155377952,1
66,759,6,0.073709093064539,1
66,760,6,0.0760394154093648,1
66,761,6,0.0772548308022457,1
66,762,6,0.076569157186768,1
67,739,6,0.0688630887674258,1
67,759,6,0.069796122161529,1
67,760,6,0.0750572838215576,1
67,761,6,0.082240492716097,1
67,762,6,0.0859606826792067,1
67,763,6,0.0753009598879557,1
68,738,6,0.0804937782040582,1
68,739,6,0.102391350974326,1
68,740,6,0.100429286046496,1
68,741,6,0.0703316620420804,1
68,760,6,0.0706142057648096,1
68,761,6,0.0777403380840403,1
68,762,6,0.0843771116955216,1
68,763,6,0.0784317918333382,1
68,764,6,0.0694256844660766,1
69,738,6,0.086646446141324,1
69,739,6,0.114594501270647,1
69,740,6,0.112985132321818,1
69,741,6,0.0742590143972172,1
69,761,6,0.0686305357150216,1
69,762,6,0.0745314833167488,1
69,763,6,0.0731699653081759,1
69,764,6,0.0685168617464826,1
70,739,6,0.0742033214601598,1
70,740,6,0.0729569988232247,1
78,761,6,0.0684190187558574,1
79,760,6,0.068234455788601,1
79,761,6,0.0681723537912455,1
84,725,6,0.070782123144619,1
85,724,6,0.0703822816388832,1
85,725,6,0.0738715118299992,1
85,726,6,0.0679969911198936,1
86,723,6,0.0679668505671647,1
86,724,6,0.0750989187543911,1
86,725,6,0.0796476265105376,1
86,726,6,0.0717628231759671,1
86,759,6,0.0703519014951152,1
87,723,6,0.0678616102032048,1
87,724,6,0.0796721546431737,1
87,725,6,0.0843005923073834,1
87,726,6,0.0742320424359815,1
88,724,6,0.0782332786778255,1
88,725,6,0.0808424849922569,1
88,726,6,0.0701489319462737,1
89,725,6,0.0710356044742956,1
92,723,6,0.0704713555974744,1
92,724,6,0.0727715254100193,1
92,756,6,0.069882338996978,1
92,757,6,0.0698957201565162,1
93,723,6,0.0878600346525312,1
93,724,6,0.0887256171793292,1
93,725,6,0.0730697743253667,1
93,756,6,0.0690391043243595,1
93,757,6,0.0680557747813564,1
94,723,6,0.0848440866104356,1
94,724,6,0.0884489074984041,1
94,725,6,0.0747115659315726,1
95,723,6,0.0682099695843968,1
95,724,6,0.0737624320196365,1
95,725,6,0.0689112705254049,1
95,756,6,0.0727893030651265,1
95,757,6,0.0717284298822927,1
95,758,6,0.0697039395092045,1
95,759,6,0.0694427553276182,1
96,756,6,0.0775893837498049,1
96,757,6,0.0787207865447972,1
96,758,6,0.075136648353286,1
96,759,6,0.0699565103929322,1
97,756,6,0.0759641299150784,1
97,757,6,0.0830326585587142,1
97,758,6,0.075628774337538,1
98,756,6,0.0722753742963091,1
98,757,6,0.081834871076541,1
98,758,6,0.0725095865166597,1
99,757,6,0.0722162492176155,1
60,755,7,0.0705487195440257,1
61,754,7,0.0871008125778012,1
61,755,7,0.0995827569970886,1
61,756,7,0.0972306138983695,1
61,757,7,0.0913191183011424,1
62,753,7,0.0853097557541861,1
62,754,7,0.114991347888393,1
62,755,7,0.139401697569598,1
62,756,7,0.123558260921734,1
62,757,7,0.103750323328107,1
62,758,7,0.0973186216768363,1
63,752,7,0.0743624698079352,1
63,753,7,0.0970262786806047,1
63,754,7,0.143577673546092,1
63,755,7,0.182987680132929,1
63,756,7,0.149197137615439,1
63,757,7,0.104503837146329,1
63,758,7,0.0921082293580101,1
63,759,7,0.0919140947287384,1
63,760,7,0.0842965611881492,1
64,752,7,0.0698329952224588,1
64,753,7,0.087800759829438,1
64,754,7,0.135056486462579,1
64,755,7,0.17818774919265,1
64,756,7,0.148959020061149,1
64,757,7,0.100908186605385,1
64,758,7,0.0853912646257152,1
64,759,7,0.0875528669607503,1
64,760,7,0.0866174136971514,1
64,761,7,0.0768234471362018,1
65,753,7,0.0684183359213957,1
65,754,7,0.0897251850050127,1
65,755,7,0.115798865526846,1
65,756,7,0.106366849148786,1
65,757,7,0.085254847477782,1
65,758,7,0.0796418343971655,1
65,759,7,0.0816769446430654,1
65,760,7,0.0826072946175298,1
65,761,7,0.0772833361461321,1
65,762,7,0.0720800956198254,1
66,755,7,0.0722298819477448,1
66,756,7,0.0758089408092254,1
66,757,7,0.0715756606459355,1
66,758,7,0.0730157465460316,1
66,759,7,0.0770810254726484,1
66,760,7,0.0795251595508607,1
66,761,7,0.0791435928516384,1
66,762,7,0.0777451598537038,1
66,763,7,0.0699022370327819,1
67,738,7,0.0726611398284931,1
67,739,7,0.0756313319718812,1
67,740,7,0.0715156490803969,1
67,759,7,0.0744302920413511,1
67,760,7,0.0804407027991038,1
67,761,7,0.0837393922265358,1
67,762,7,0.0874865182122253,1
67,763,7,0.0806067873074634,1
68,737,7,0.0691565758108695,1
68,738,7,0.0904740687264021,1
68,739,7,0.107274443964304,1
68,740,7,0.103270626129013,1
68,741,7,0.0760109160552543,1
68,759,7,0.06807108464876,1
68,760,7,0.0751255732574999,1
68,761,7,0.0803245850019651,1
68,762,7,0.0907730783432989,1
68,763,7,0.0898038247738476,1
68,764,7,0.07539965342677,1
69,737,7,0.0710156704998358,1
69,738,7,0.0971265415407256,1
69,739,7,0.12237465722908,1
69,740,7,0.119945599417008,1
69,741,7,0.0831230562577969,1
69,760,7,0.0682125032596361,1
69,761,7,0.0726600556790408,1
69,762,7,0.0830844102231771,1
69,763,7,0.0850724468196542,1
69,764,7,0.0750179369831482,1
70,738,7,0.0685303327526605,1
70,739,7,0.0784642384498191,1
70,740,7,0.077492606939304,1
70,762,7,0.0710517109819045,1
70,763,7,0.0712272892851916,1
76,764,7,0.0691183191116884,1
84,724,7,0.0679874673760861,1
84,725,7,0.0713178546980017,1
84,726,7,0.0697501326615584,1
85,723,7,0.0687156684010183,1
85,724,7,0.0736098544561106,1
85,725,7,0.0771856129510265,1
85,726,7,0.0730102718907863,1
86,723,7,0.0695571780181547,1
86,724,7,0.0811764269826662,1
86,725,7,0.0856798640119596,1
86,726,7,0.078603398915151,1
86,759,7,0.0703720451117342,1
87,723,7,0.0678783276679636,1
87,724,7,0.0842471515260943,1
87,725,7,0.0903253126399511,1
87,726,7,0.0818585666303159,1
88,724,7,0.0776143970542953,1
88,725,7,0.0846144984971412,1
88,726,7,0.0777835243688525,1
89,725,7,0.0736589227009347,1
89,726,7,0.0709382885839566,1
92,757,7,0.0703578553324388,1
93,723,7,0.073029972263983,1
93,724,7,0.0761937300079247,1
93,725,7,0.0693180781406049,1
93,757,7,0.0680666282554313,1
94,723,7,0.0741869394228559,1
94,724,7,0.0803661899859188,1
94,725,7,0.0736295668088592,1
95,724,7,0.0745214264828793,1
95,725,7,0.0715266582886472,1
95,757,7,0.0694500388952093,1
95,758,7,0.0680543312453454,1
95,759,7,0.068409776531521,1
96,724,7,0.0678336499289325,1
96,756,7,0.0733274125595731,1
96,757,7,0.0765563270866199,1
96,758,7,0.0731607410531675,1
97,756,7,0.0747057378795446,1
97,757,7,0.0832456849414253,1
97,758,7,0.0769640331682168,1
98,756,7,0.0712962615555956,1
98,757,7,0.0801823817304357,1
98,758,7,0.0731372671211038,1
99,757,7,0.0701402347915515,1
61,754,8,0.0850743815172955,1
61,755,8,0.0908080885838991,1
61,756,8,0.0812994390119572,1
62,752,8,0.0725555700268543,1
62,753,8,0.0881019736838953,1
62,754,8,0.108099092362058,1
62,755,8,0.126441427609916,1
62,756,8,0.107572758767187,1
62,757,8,0.0900303221627366,1
62,758,8,0.0897976313454848,1
63,752,8,0.0772702484856169,1
63,753,8,0.0956181063069274,1
63,754,8,0.130634067143184,1
63,755,8,0.163640763616893,1
63,756,8,0.1359026381561,1
63,757,8,0.102688060517246,1
63,758,8,0.0924718267292939,1
63,759,8,0.0922512172901928,1
64,751,8,0.0735726759166058,1
64,752,8,0.077957557309937,1
64,753,8,0.0873739044340347,1
64,754,8,0.117898785148844,1
64,755,8,0.148802327521526,1
64,756,8,0.128982745803395,1
64,757,8,0.100522013768434,1
64,758,8,0.0884049904609224,1
64,759,8,0.0855100239140608,1
64,760,8,0.0794276400081384,1
64,761,8,0.0729280262768118,1
64,762,8,0.0678894267228536,1
65,751,8,0.0805528134361121,1
65,752,8,0.0770093278541738,1
65,753,8,0.0735327660392544,1
65,754,8,0.0868800833431805,1
65,755,8,0.10426725297469,1
65,756,8,0.0976932102870425,1
65,757,8,0.0854485268840792,1
65,758,8,0.0816351120476246,1
65,759,8,0.082150490342229,1
65,760,8,0.079262364119536,1
65,761,8,0.0749156076503144,1
65,762,8,0.0732552357590201,1
65,763,8,0.069596536836116,1
66,751,8,0.0718104239256762,1
66,755,8,0.0734052616779787,1
66,756,8,0.074672590459274,1
66,757,8,0.0710067457336263,1
66,758,8,0.074577017593745,1
66,759,8,0.0813577375015657,1
66,760,8,0.0821984444887209,1
66,761,8,0.0785765347698829,1
66,762,8,0.0772592812057984,1
66,763,8,0.073999004211723,1
67,737,8,0.0716209553318925,1
67,738,8,0.082587959620668,1
67,739,8,0.0802511862871123,1
67,740,8,0.0719585510856493,1
67,758,8,0.0696117987853118,1
67,759,8,0.0798024322707279,1
67,760,8,0.0848529694482132,1
67,761,8,0.0827938701495154,1
67,762,8,0.0841700571194621,1
67,763,8,0.0837208359005513,1
67,764,8,0.069369482398061,1
68,737,8,0.0801485634552555,1
68,738,8,0.101222613905653,1
68,739,8,0.102254448654538,1
68,740,8,0.089443390004281,1
68,741,8,0.0718883868498254,1
68,759,8,0.0715153915200298,1
68,760,8,0.0781475649835588,1
68,761,8,0.0805220559364574,1
68,762,8,0.0910392400287241,1
68,763,8,0.0974938945015486,1
68,764,8,0.0781999575540515,1
68,767,8,0.0698745043699968,1
69,737,8,0.0819218605930913,1
69,738,8,0.104267480586178,1
69,739,8,0.110189380424281,1
69,740,8,0.0993960437002555,1
69,741,8,0.0766952838995684,1
69,760,8,0.0704457133665062,1
69,761,8,0.074329813549295,1
69,762,8,0.0870957152784426,1
69,763,8,0.0950771396893386,1
69,764,8,0.078763805115882,1
69,765,8,0.0685498714019056,1
69,766,8,0.0731624122006657,1
69,767,8,0.0762439722488408,1
69,768,8,0.0709380849315733,1
70,736,8,0.0686723802900144,1
70,737,8,0.0720109676152459,1
70,738,8,0.0771783653220913,1
70,739,8,0.0760617033657845,1
70,740,8,0.0700314664495397,1
70,762,8,0.072132811638221,1
70,763,8,0.0760669683788705,1
70,764,8,0.0681902153032164,1
70,766,8,0.0730246353735852,1
70,767,8,0.0756865996348441,1
71,766,8,0.0708512331798705,1
71,767,8,0.0729200478952071,1
75,763,8,0.0700576118216902,1
75,764,8,0.0734275077059666,1
76,763,8,0.0707901434546555,1
76,764,8,0.0772931054707547,1
76,765,8,0.0754145320303031,1
77,764,8,0.0723553737442914,1
82,727,8,0.0682546952416357,1
84,725,8,0.068642982469507,1
84,726,8,0.0703686429189779,1
85,723,8,0.0723792669606736,1
85,724,8,0.0818738944670475,1
85,725,8,0.0852214125482644,1
85,726,8,0.0789055292053331,1
86,723,8,0.0769690765595915,1
86,724,8,0.0995190736988745,1
86,725,8,0.103940462776801,1
86,726,8,0.0877366272980255,1
86,758,8,0.0690107187759926,1
86,759,8,0.0687881686494742,1
87,723,8,0.0730633832343966,1
87,724,8,0.0990660609517687,1
87,725,8,0.106092098124606,1
87,726,8,0.0896527566338686,1
88,724,8,0.0771718065173938,1
88,725,8,0.0866307529282577,1
88,726,8,0.080715627526787,1
89,725,8,0.0733739890575897,1
89,726,8,0.0743721013677102,1
90,726,8,0.0677606585188463,1
92,756,8,0.0683539158807362,1
92,757,8,0.0734404396323063,1
94,724,8,0.0724267598944151,1
94,725,8,0.0714207171208977,1
94,760,8,0.0715102762513433,1
95,724,8,0.0732437833073473,1
95,725,8,0.0712261751868594,1
95,759,8,0.0697434420817893,1
95,760,8,0.0729122132682259,1
96,757,8,0.074001915242849,1
96,758,8,0.0713862579396877,1
97,756,8,0.0703087271898549,1
97,757,8,0.0808961294259293,1
97,758,8,0.075997840374291,1
98,757,8,0.0762305132222148,1
98,758,8,0.0710278417246261,1
101,739,8,0.0685213780375711,1
102,739,8,0.0756181245158464,1
102,740,8,0.06813361192021,1
61,755,9,0.0822779108466409,1
61,756,9,0.0749501566781642,1
62,753,9,0.0845012378231448,1
62,754,9,0.09760804166239,1
62,755,9,0.109667059979317,1
62,756,9,0.0962543822399021,1
62,757,9,0.0831293395327994,1
62,758,9,0.0816447735562795,1
63,752,9,0.0731241974299165,1
63,753,9,0.0880730610352422,1
63,754,9,0.116798487260513,1
63,755,9,0.142152514167737,1
63,756,9,0.122390458258114,1
63,757,9,0.100701754966027,1
63,758,9,0.0932419681656345,1
63,759,9,0.0890323895458954,1
64,750,9,0.0713242757378518,1
64,751,9,0.0919290272402553,1
64,752,9,0.0875151852800632,1
64,753,9,0.0855802360680925,1
64,754,9,0.108722412409589,1
64,755,9,0.132472592941437,1
64,756,9,0.117246558442436,1
64,757,9,0.100036350752464,1
64,758,9,0.0927275781840667,1
64,759,9,0.085529832103225,1
64,760,9,0.0780596171028517,1
64,762,9,0.0731655268841751,1
65,750,9,0.08578027661648,1
65,751,9,0.115629510600801,1
65,752,9,0.101532596792144,1
65,753,9,0.0798872355190457,1
65,754,9,0.0852675098642027,1
65,755,9,0.0982158961083419,1
65,756,9,0.092363669344432,1
65,757,9,0.0856371928478816,1
65,758,9,0.0850631986055418,1
65,759,9,0.083194927579775,1
65,760,9,0.0774730682900589,1
65,761,9,0.0750265981992146,1
65,762,9,0.0753558921234638,1
65,763,9,0.0734430990928412,1
66,750,9,0.0757989618424436,1
66,751,9,0.100839459915796,1
66,752,9,0.0858913749813478,1
66,755,9,0.0725886156209332,1
66,756,9,0.0733039925354933,1
66,757,9,0.0717400081192611,1
66,758,9,0.0768188050598177,1
66,759,9,0.0835624961725332,1
66,760,9,0.0823491113137093,1
66,761,9,0.0770759281732899,1
66,762,9,0.0758971881787315,1
66,763,9,0.0766821303515174,1
67,738,9,0.0876366998653594,1
67,739,9,0.081701898049796,1
67,740,9,0.0716446808345473,1
67,758,9,0.0720865645778832,1
67,759,9,0.0834332847251033,1
67,760,9,0.0864720358443528,1
67,761,9,0.0803057172076297,1
67,762,9,0.0782700858512195,1
67,763,9,0.0818793271938609,1
67,764,9,0.0700206549038967,1
68,737,9,0.082082093090319,1
68,738,9,0.0994509040584518,1
68,739,9,0.0911583826627324,1
68,740,9,0.0766163027135027,1
68,759,9,0.0759275323838436,1
68,760,9,0.0808403646115601,1
68,761,9,0.0786297958578926,1
68,762,9,0.0855440099029685,1
68,763,9,0.0960511551306936,1
68,764,9,0.0780017199282339,1
68,767,9,0.0757762006937215,1
69,736,9,0.0681491793479808,1
69,737,9,0.0809576683843427,1
69,738,9,0.0942390202854066,1
69,739,9,0.0875791201488685,1
69,740,9,0.0766435142657776,1
69,741,9,0.0685176583866879,1
69,759,9,0.0706520192205682,1
69,760,9,0.0751528686666385,1
69,761,9,0.0755182450013882,1
69,762,9,0.0893939264342423,1
69,763,9,0.103493577570522,1
69,764,9,0.0846453338638837,1
69,765,9,0.0716116412302444,1
69,766,9,0.0802414828500255,1
69,767,9,0.088873247187896,1
69,768,9,0.0836033943629212,1
70,734,9,0.0686147346859877,1
70,735,9,0.0715583082649229,1
70,736,9,0.0731805312730037,1
70,737,9,0.0749102527905887,1
70,738,9,0.0751887594043077,1
70,739,9,0.0683362759904765,1
70,762,9,0.0764199878057745,1
70,763,9,0.0872223151835454,1
70,764,9,0.0758791709325851,1
70,765,9,0.0704681330979974,1
70,766,9,0.0805992521692812,1
70,767,9,0.0877976511357046,1
70,768,9,0.0791372616584281,1
71,735,9,0.0683096813851276,1
71,736,9,0.0695095413297897,1
71,763,9,0.0692069138882013,1
71,766,9,0.0757188186398378,1
71,767,9,0.0803654831923532,1
71,768,9,0.0717550604262976,1
72,767,9,0.0774966620176421,1
74,763,9,0.072315757365963,1
74,764,9,0.0738169150219461,1
74,765,9,0.068645324471915,1
75,763,9,0.0770231941855663,1
75,764,9,0.0809919658416014,1
75,765,9,0.0749398243145995,1
76,729,9,0.0678329611046949,1
76,763,9,0.0744568207591643,1
76,764,9,0.083434836077082,1
76,765,9,0.0826958774144907,1
77,728,9,0.070226876901095,1
77,729,9,0.0678879232890828,1
77,764,9,0.0773419640734195,1
81,727,9,0.0680580988144364,1
82,727,9,0.070225996404026,1
82,759,9,0.0689783799754793,1
83,727,9,0.0704113200728318,1
83,758,9,0.0698576012221826,1
83,759,9,0.0698701498028597,1
84,725,9,0.0685242231811614,1
84,726,9,0.0719908479577308,1
84,727,9,0.0733212430903142,1
85,723,9,0.0730057795588017,1
85,724,9,0.0871834295578865,1
85,725,9,0.0905388840922763,1
85,726,9,0.0826356861556727,1
85,727,9,0.0762028943651734,1
86,723,9,0.0807433062815883,1
86,724,9,0.11135405642484,1
86,725,9,0.115871018368295,1
86,726,9,0.0927164072518649,1
86,727,9,0.0740369135038972,1
86,758,9,0.0709684351264614,1
86,759,9,0.068144153925934,1
87,723,9,0.0737815933129949,1
87,724,9,0.103107656304163,1
87,725,9,0.110143343006103,1
87,726,9,0.089495417198439,1
87,727,9,0.0691645781515781,1
88,724,9,0.0736192823635023,1
88,725,9,0.0823818753883172,1
88,726,9,0.0768778283123198,1
89,725,9,0.0695587892678932,1
89,726,9,0.0718225771811386,1
92,756,9,0.0704890314263899,1
92,757,9,0.0736087583271064,1
94,725,9,0.0684440859683316,1
94,760,9,0.0749039455564823,1
94,761,9,0.0689621237234709,1
95,759,9,0.0723185965197772,1
95,760,9,0.0812141146531292,1
95,761,9,0.0740506360806663,1
96,757,9,0.0685621803915435,1
96,758,9,0.0693463438934521,1
96,759,9,0.0694901464351681,1
96,760,9,0.0700432183900115,1
97,757,9,0.0743733831797699,1
97,758,9,0.073671680923771,1
98,757,9,0.070449570782237,1
98,758,9,0.0683540236967038,1
101,739,9,0.069362761869412,1
102,738,9,0.0678047432700554,1
62,754,10,0.0899214639740851,1
62,755,10,0.0926188697398147,1
62,756,10,0.0839341258334055,1
62,757,10,0.0759855972721889,1
63,751,10,0.0687708701764454,1
63,752,10,0.072181592373798,1
63,753,10,0.0858583473565969,1
63,754,10,0.110524316717503,1
63,755,10,0.119219087508902,1
63,756,10,0.103061642845088,1
63,757,10,0.0940049697890075,1
63,758,10,0.0912430481462027,1
64,750,10,0.0814538853855887,1
64,751,10,0.109635841266911,1
64,752,10,0.0973702954742115,1
64,753,10,0.0908416912271441,1
64,754,10,0.11307937545708,1
64,755,10,0.121385337910097,1
64,756,10,0.103888639235026,1
64,757,10,0.0964252286201655,1
64,758,10,0.0965173214258504,1
64,759,10,0.0858020494521655,1
64,760,10,0.0789685955566213,1
65,750,10,0.109935929043485,1
65,751,10,0.155337963765593,1
65,752,10,0.128410734176905,1
65,753,10,0.0900718672489304,1
65,754,10,0.092379446414362,1
65,755,10,0.096535266794685,1
65,756,10,0.0871850587769529,1
65,757,10,0.0858844268412116,1
65,758,10,0.0894359387229625,1
65,759,10,0.0843616700530464,1
65,760,10,0.0771095727449667,1
65,761,10,0.0813469618945786,1
65,762,10,0.0862404591254333,1
65,763,10,0.0813641166129839,1
66,739,10,0.0709411516968748,1
66,750,10,0.0937881818269813,1
66,751,10,0.128617656977893,1
66,752,10,0.102571607292653,1
66,753,10,0.0692519629933431,1
66,754,10,0.0678243537966123,1
66,755,10,0.0719984609630007,1
66,756,10,0.0718278481840006,1
66,757,10,0.0743813675511505,1
66,758,10,0.0812231771841862,1
66,759,10,0.0847147793265901,1
66,760,10,0.080144322693862,1
66,761,10,0.0762586292306626,1
66,762,10,0.0775358171832202,1
66,763,10,0.0784361224413714,1
66,764,10,0.069038080072667,1
67,738,10,0.0892507647985562,1
67,739,10,0.083551726555322,1
67,740,10,0.0734728443203555,1
67,758,10,0.0754766999151944,1
67,759,10,0.0853339604389193,1
67,760,10,0.0847489749576571,1
67,761,10,0.0764935182956989,1
67,762,10,0.0730897023100505,1
67,763,10,0.075480898748156,1
67,764,10,0.0678496905490056,1
68,737,10,0.0833381371336689,1
68,738,10,0.0941297847408684,1
68,739,10,0.0855040640869612,1
68,740,10,0.0745283147252557,1
68,741,10,0.0694914881449875,1
68,758,10,0.0715073891793211,1
68,759,10,0.0810520193355719,1
68,760,10,0.0828782780726185,1
68,761,10,0.077020936040022,1
68,762,10,0.0791867491875708,1
68,763,10,0.0858505606478235,1
68,764,10,0.0723961701084878,1
68,766,10,0.0682434524321222,1
68,767,10,0.0773700920614193,1
69,736,10,0.070827705339823,1
69,737,10,0.0804229491031005,1
69,738,10,0.0847557434045139,1
69,739,10,0.0754235945613601,1
69,740,10,0.0684184377475874,1
69,758,10,0.0697568352208795,1
69,759,10,0.0779950533075687,1
69,760,10,0.0801000762187014,1
69,761,10,0.0768560914152902,1
69,762,10,0.0873580794458968,1
69,763,10,0.100497611421094,1
69,764,10,0.0825107573980682,1
69,765,10,0.0698530849310941,1
69,766,10,0.0834420297980334,1
69,767,10,0.095531146739257,1
69,768,10,0.0916151869380332,1
70,734,10,0.0692348082749378,1
70,735,10,0.0731584649382952,1
70,736,10,0.0743890344644043,1
70,737,10,0.0767221779937164,1
70,738,10,0.0736748555050402,1
70,759,10,0.0680870533915214,1
70,760,10,0.0706764275576847,1
70,762,10,0.0780110699685379,1
70,763,10,0.0925312692661144,1
70,764,10,0.0792310675400431,1
70,765,10,0.0711799700549536,1
70,766,10,0.0851887502998482,1
70,767,10,0.0959968997398712,1
70,768,10,0.0883698604248026,1
71,735,10,0.0694184548064694,1
71,736,10,0.068301062097493,1
71,763,10,0.070534889151289,1
71,766,10,0.0773421856951308,1
71,767,10,0.0850095002638856,1
71,768,10,0.0766286955600043,1
72,767,10,0.0820373195148722,1
74,762,10,0.0684243496564792,1
74,763,10,0.0752445781266607,1
74,764,10,0.0753960056531985,1
74,765,10,0.0702538668316586,1
75,729,10,0.0678930625168732,1
75,762,10,0.0691413078718978,1
75,763,10,0.0807373764033686,1
75,764,10,0.0832598807104967,1
75,765,10,0.0755963876188168,1
76,728,10,0.072104474008062,1
76,729,10,0.0700472854479015,1
76,763,10,0.0765159440169661,1
76,764,10,0.0854642021278176,1
76,765,10,0.0843850002304866,1
77,727,10,0.0741734744064539,1
77,728,10,0.0768833329164449,1
77,729,10,0.0706738100255816,1
77,764,10,0.0797872481886199,1
78,727,10,0.0714715403700838,1
78,728,10,0.0716916406782266,1
79,730,10,0.0678395558480483,1
80,728,10,0.0698192846252418,1
80,729,10,0.07012955502098,1
80,730,10,0.0686740095090808,1
81,727,10,0.072066480859024,1
81,728,10,0.0734153125220723,1
81,729,10,0.0689543669635775,1
82,726,10,0.0703764655664071,1
82,727,10,0.0755705177763613,1
82,728,10,0.0728442592597384,1
82,758,10,0.0695219521456192,1
82,759,10,0.0697040533149481,1
83,726,10,0.0696298759292179,1
83,727,10,0.0757249761295448,1
83,728,10,0.071581063423869,1
83,758,10,0.0726300648707114,1
83,759,10,0.0718872308230614,1
84,726,10,0.0706392490181799,1
84,727,10,0.0757854848464897,1
84,728,10,0.070202324809355,1
85,724,10,0.0826044614534915,1
85,725,10,0.0849597312152719,1
85,726,10,0.0788559338602228,1
85,727,10,0.0767469576969436,1
86,723,10,0.0760225841388624,1
86,724,10,0.106112798790391,1
86,725,10,0.110507916710871,1
86,726,10,0.0901749932219695,1
86,727,10,0.0753625767134569,1
86,758,10,0.0709736941497714,1
87,723,10,0.0683111967984504,1
87,724,10,0.0931057067518767,1
87,725,10,0.0997022709972076,1
87,726,10,0.0844677609651954,1
87,727,10,0.0707393022361415,1
88,724,10,0.0679429094325746,1
88,725,10,0.0757823342243245,1
88,726,10,0.0735160545642716,1
89,726,10,0.0700691002120189,1
92,756,10,0.0687938110184469,1
94,760,10,0.0737594790600786,1
94,761,10,0.068146196439543,1
95,759,10,0.0720274874173974,1
95,760,10,0.0844471621256019,1
95,761,10,0.077360520399404,1
96,759,10,0.0695372380539189,1
96,760,10,0.0726466745195026,1
97,758,10,0.0693695662549247,1
62,754,11,0.082347721685682,1
62,755,11,0.0804258481546746,1
63,751,11,0.0690554564127835,1
63,752,11,0.071599763504477,1
63,753,11,0.0831611991512344,1
63,754,11,0.102474812512824,1
63,755,11,0.100321092722978,1
63,756,11,0.0900816844917608,1
63,757,11,0.089191495965239,1
63,758,11,0.0873350727163596,1
64,750,11,0.0869580462673297,1
64,751,11,0.114733763562171,1
64,752,11,0.0983854606765457,1
64,753,11,0.0935627625977687,1
64,754,11,0.114167945364043,1
64,755,11,0.112614496963759,1
64,756,11,0.0978208164745099,1
64,757,11,0.09616325378815,1
64,758,11,0.0968258188478987,1
64,759,11,0.0853644963168628,1
65,749,11,0.0735070639105264,1
65,750,11,0.128207788587167,1
65,751,11,0.17509783939676,1
65,752,11,0.137905020266048,1
65,753,11,0.0951055491968094,1
65,754,11,0.0972378854864086,1
65,755,11,0.0972200119948858,1
65,756,11,0.0900494295481112,1
65,757,11,0.0930739489596334,1
65,758,11,0.0946914041060346,1
65,759,11,0.0858383235354974,1
65,760,11,0.0806122380036048,1
65,761,11,0.0878949370771637,1
66,750,11,0.107722119821012,1
66,751,11,0.14201322791711,1
66,752,11,0.107057482298774,1
66,753,11,0.0724056219749834,1
66,754,11,0.0711776879503054,1
66,755,11,0.0751379720937775,1
66,756,11,0.078807069267782,1
66,757,11,0.0863453281232824,1
66,758,11,0.090015000315781,1
66,759,11,0.0853877066987834,1
66,760,11,0.0781845338809043,1
66,761,11,0.0744065246102644,1
66,762,11,0.0763052356775591,1
66,763,11,0.0738121232011625,1
67,739,11,0.0800305648684592,1
67,740,11,0.0710137477817464,1
67,751,11,0.0748885877708708,1
67,757,11,0.0738304219667798,1
67,758,11,0.0818492465388918,1
67,759,11,0.0857904173072133,1
67,760,11,0.0817064862181963,1
67,761,11,0.072631640181794,1
67,762,11,0.0682826135874762,1
67,763,11,0.0678491334998395,1
68,738,11,0.0848971021176302,1
68,739,11,0.0798134594483062,1
68,740,11,0.072615875091416,1
68,741,11,0.0683367911112108,1
68,757,11,0.0680771403122753,1
68,758,11,0.078302664242772,1
68,759,11,0.084843667326117,1
68,760,11,0.0836212379055641,1
68,761,11,0.0763036423971486,1
68,762,11,0.0733231059106439,1
68,763,11,0.0741994999830849,1
69,737,11,0.0774230237117501,1
69,738,11,0.0782248211141424,1
69,739,11,0.0712568667989784,1
69,758,11,0.0769049140792991,1
69,759,11,0.0843132427142521,1
69,760,11,0.0842965432188213,1
69,761,11,0.0792979733377341,1
69,762,11,0.0826618315278232,1
69,763,11,0.0898106171798084,1
69,764,11,0.0748358418035953,1
69,766,11,0.0784342476414898,1
69,767,11,0.0886498944313963,1
70,736,11,0.0706390693249005,1
70,737,11,0.0736461524985464,1
70,738,11,0.0721949136355765,1
70,759,11,0.0729376698161388,1
70,760,11,0.0737114170976191,1
70,761,11,0.0693879908058376,1
70,762,11,0.0777215721158965,1
70,763,11,0.0906886344815398,1
70,764,11,0.0782773754085866,1
70,765,11,0.0706337623833827,1
70,766,11,0.0844564163294902,1
70,767,11,0.0938324582510218,1
70,768,11,0.0874850087886785,1
71,763,11,0.0711863551561477,1
71,767,11,0.0841476793164027,1
73,761,11,0.0704695766340085,1
74,761,11,0.0677908889182148,1
74,762,11,0.0699600383709841,1
74,763,11,0.0725438959534703,1
74,764,11,0.0729915179021945,1
75,731,11,0.0689792664623243,1
75,732,11,0.0683532090871706,1
75,762,11,0.0708459621770085,1
75,763,11,0.0783607171515654,1
75,764,11,0.0801617229930824,1
75,765,11,0.0761787076497681,1
76,729,11,0.071480824522852,1
76,762,11,0.0695788011094407,1
76,763,11,0.0761380490504193,1
76,764,11,0.0827200102219121,1
77,728,11,0.0811599670782745,1
77,729,11,0.0727896864107892,1
78,727,11,0.0758921747362366,1
78,728,11,0.0739900674659615,1
78,729,11,0.0698069097480681,1
78,730,11,0.0685115847538446,1
79,727,11,0.0682140606013908,1
79,728,11,0.06926515248005,1
79,729,11,0.071290894716318,1
79,730,11,0.0735929033900886,1
80,727,11,0.0689849627392808,1
80,728,11,0.0711718059902935,1
80,729,11,0.0721211974625967,1
80,730,11,0.0715288864853116,1
81,726,11,0.0716144384556268,1
81,727,11,0.0773492775898905,1
81,728,11,0.0760530481394941,1
81,729,11,0.0713653416419672,1
81,730,11,0.0677600894901282,1
82,726,11,0.0764533748170842,1
82,727,11,0.0853196508641042,1
82,728,11,0.0787124308073058,1
82,729,11,0.0677804487386826,1
82,758,11,0.0723119119297841,1
82,759,11,0.071726016002573,1
83,726,11,0.0736978262959216,1
83,727,11,0.0835719779879087,1
83,728,11,0.0777911373741225,1
83,758,11,0.074025862367215,1
83,759,11,0.0730863240763981,1
84,726,11,0.0698801706980734,1
84,727,11,0.0758824413502699,1
84,728,11,0.0731596628934911,1
84,758,11,0.0712076368302029,1
84,759,11,0.0689812251190696,1
85,724,11,0.0770575156019289,1
85,725,11,0.0785514795369606,1
85,726,11,0.0733926831484218,1
85,727,11,0.0708003859715805,1
85,757,11,0.0704323501762959,1
85,758,11,0.071436134804269,1
86,724,11,0.091451025147763,1
86,725,11,0.0954159453778432,1
86,726,11,0.0829127192845007,1
86,727,11,0.0702231572502117,1
86,757,11,0.0692190671436637,1
86,758,11,0.0699304249185414,1
87,724,11,0.0794069573116812,1
87,725,11,0.0845186740610211,1
87,726,11,0.0771785030869389,1
88,725,11,0.0696136196772095,1
88,726,11,0.0690057472619297,1
94,760,11,0.0709202114400504,1
95,759,11,0.0714128705143646,1
95,760,11,0.0812838835637384,1
95,761,11,0.0754671162736271,1
96,759,11,0.0680447595833301,1
96,760,11,0.0717287653097476,1
63,751,12,0.0689549180229676,1
63,754,12,0.0839138923701467,1
63,755,12,0.0805896984765939,1
63,756,12,0.0770189594139488,1
63,757,12,0.079060149282468,1
64,750,12,0.0880046278446764,1
64,751,12,0.107295300364265,1
64,752,12,0.0888103844889911,1
64,753,12,0.0842091643668323,1
64,754,12,0.0971249302909871,1
64,755,12,0.0950693949089971,1
64,756,12,0.0885268883918812,1
64,757,12,0.0899584208918786,1
64,758,12,0.0895615862536845,1
64,759,12,0.0855551748453943,1
65,749,12,0.0802166911672463,1
65,750,12,0.130895616701105,1
65,751,12,0.163845925423743,1
65,752,12,0.122338838368722,1
65,753,12,0.0863799071000121,1
65,754,12,0.0879993808009183,1
65,755,12,0.0897342834747256,1
65,756,12,0.0896508938135389,1
65,757,12,0.0951346834671737,1
65,758,12,0.0928341662476219,1
65,759,12,0.0832239540341716,1
65,760,12,0.0818264195026339,1
66,749,12,0.073886773779195,1
66,750,12,0.111621296269941,1
66,751,12,0.135132305046928,1
66,752,12,0.0979275962108965,1
66,753,12,0.0698074068994744,1
66,754,12,0.0692465841745135,1
66,755,12,0.0744678299674147,1
66,756,12,0.0827416033643182,1
66,757,12,0.0941983616860577,1
66,758,12,0.0947016406331835,1
66,759,12,0.0839486390606038,1
66,760,12,0.0761335507286586,1
66,761,12,0.0740317563067789,1
67,740,12,0.070289691681792,1
67,750,12,0.0715561459557943,1
67,751,12,0.0774413823751273,1
67,756,12,0.070118761444665,1
67,757,12,0.0814752269574037,1
67,758,12,0.088118427598511,1
67,759,12,0.0854794221485815,1
67,760,12,0.0781229230451791,1
67,761,12,0.0698654538184918,1
68,739,12,0.0780440856137369,1
68,740,12,0.0721339197467772,1
68,757,12,0.0739518107667805,1
68,758,12,0.0841530281863524,1
68,759,12,0.0873960666051589,1
68,760,12,0.0825547463128616,1
68,761,12,0.0741675505180102,1
68,762,12,0.0680475208700567,1
69,738,12,0.0754243193242536,1
69,739,12,0.0722709957700681,1
69,757,12,0.0714057187218451,1
69,758,12,0.0817201608767575,1
69,759,12,0.0868070080762306,1
69,760,12,0.0833923206471795,1
69,761,12,0.0769142221911712,1
69,762,12,0.0751636622429536,1
69,763,12,0.0751058369456474,1
70,737,12,0.0696188247925357,1
70,738,12,0.0710633311473047,1
70,739,12,0.0679072283370647,1
70,758,12,0.0688512409905384,1
70,759,12,0.0743866864722203,1
70,760,12,0.0721257437025652,1
70,761,12,0.068056493554474,1
70,762,12,0.0734345996007263,1
70,763,12,0.0801539842025169,1
70,764,12,0.0706820040391216,1
70,767,12,0.0826712893840948,1
71,763,12,0.0683927116597554,1
73,761,12,0.0718406363557168,1
74,761,12,0.0700744311126407,1
74,762,12,0.0712782323298973,1
74,763,12,0.0699318924136564,1
75,732,12,0.0678676718564961,1
75,733,12,0.0679919896569507,1
75,763,12,0.0759920662302468,1
75,764,12,0.0781110033909799,1
77,729,12,0.0688684376373755,1
77,761,12,0.0677476127867629,1
78,728,12,0.0709831520060431,1
78,729,12,0.0682033988001472,1
79,729,12,0.0709074112887822,1
79,730,12,0.0729335847889208,1
79,731,12,0.0678864318348639,1
80,727,12,0.0684178687188693,1
80,728,12,0.069025220023639,1
80,729,12,0.071076975856986,1
80,730,12,0.0711301231392521,1
81,727,12,0.0772430129742381,1
81,728,12,0.0739479593408256,1
81,729,12,0.0707812725964299,1
81,730,12,0.068365356352857,1
82,726,12,0.0772276252397468,1
82,727,12,0.087477269998113,1
82,728,12,0.079284268730293,1
82,729,12,0.0700995522330987,1
82,758,12,0.07477545288217,1
82,759,12,0.0749311690883091,1
82,760,12,0.0700884292191048,1
83,726,12,0.0731003102033102,1
83,727,12,0.0841164186755657,1
83,728,12,0.0780208572624884,1
83,729,12,0.0704702534786942,1
83,758,12,0.0757413042588649,1
83,759,12,0.0748888153823581,1
84,727,12,0.071273344672698,1
84,728,12,0.0705514688512003,1
84,729,12,0.0693648223523489,1
84,757,12,0.0773091640601558,1
84,758,12,0.0758675807160648,1
84,759,12,0.0714376981357996,1
85,725,12,0.0684388209552456,1
85,756,12,0.0749830944562754,1
85,757,12,0.0846279515339912,1
85,758,12,0.0767261671845187,1
86,725,12,0.0763450736775988,1
86,726,12,0.0711590357879052,1
86,756,12,0.0692173480779576,1
86,757,12,0.0756996393771515,1
87,725,12,0.0700628289165684,1
87,726,12,0.0678493191828949,1
94,760,12,0.0683360244198854,1
95,758,12,0.0680621658723265,1
95,759,12,0.0708729341382442,1
95,760,12,0.0755639709512157,1
95,761,12,0.0713508164352169,1
96,759,12,0.0680460114465098,1
96,760,12,0.0701828101192138,1
64,749,13,0.0686238930534603,1
64,750,13,0.0865749042570248,1
64,751,13,0.0939726190089422,1
64,752,13,0.0786066214146279,1
64,754,13,0.0787601333832066,1
64,755,13,0.07963932468103,1
64,756,13,0.0806418155173916,1
64,757,13,0.0819396681970784,1
64,758,13,0.0802763673053301,1
65,749,13,0.0819823872793642,1
65,750,13,0.117133363655975,1
65,751,13,0.130263659396612,1
65,752,13,0.098257656826471,1
65,753,13,0.0765170161868664,1
65,754,13,0.0774400766039638,1
65,755,13,0.0811228903649614,1
65,756,13,0.0860096311285112,1
65,757,13,0.0903226891180721,1
65,758,13,0.0863534682288386,1
65,759,13,0.0789582811623846,1
65,760,13,0.0792761226349609,1
66,749,13,0.0771031337357888,1
66,750,13,0.10350469459474,1
66,751,13,0.112230312732433,1
66,752,13,0.0846371757889997,1
66,754,13,0.0677628986950626,1
66,755,13,0.0727451883650375,1
66,756,13,0.0813229668520047,1
66,757,13,0.0917237456378857,1
66,758,13,0.091187151556762,1
66,759,13,0.0817649584113082,1
66,760,13,0.0762394140293204,1
66,761,13,0.0752914541134763,1
67,750,13,0.0706893834431283,1
67,751,13,0.072614413586077,1
67,756,13,0.0722678511376789,1
67,757,13,0.0848743050302522,1
67,758,13,0.0890689211895944,1
67,759,13,0.0838500353684292,1
67,760,13,0.0764048037236664,1
67,761,13,0.0701915971205757,1
68,740,13,0.0756317512561998,1
68,757,13,0.0760885735008286,1
68,758,13,0.0830846558039923,1
68,759,13,0.0831043801362928,1
68,760,13,0.0764693136109657,1
68,761,13,0.0685508956535981,1
69,739,13,0.0743685194816745,1
69,740,13,0.0738408262076562,1
69,757,13,0.0708311794098911,1
69,758,13,0.0776527196410121,1
69,759,13,0.0801097197580284,1
69,760,13,0.0755389456671734,1
69,761,13,0.0693694105207492,1
70,759,13,0.0713761112591784,1
70,760,13,0.0693996828485496,1
70,763,13,0.0677434379129052,1
73,761,13,0.0685989156876258,1
74,761,13,0.0702007794471523,1
78,729,13,0.0681211951146045,1
79,729,13,0.0709855718755388,1
79,730,13,0.0705298457599143,1
79,761,13,0.0708835659906078,1
80,728,13,0.0682010807568432,1
80,729,13,0.069810168186201,1
80,730,13,0.0701329691932883,1
80,760,13,0.0689861606944767,1
81,728,13,0.0708565101725084,1
81,729,13,0.0688664370521984,1
81,730,13,0.0680448733890737,1
81,759,13,0.070581926862056,1
81,760,13,0.0722887614456233,1
82,727,13,0.0796938076833396,1
82,728,13,0.0748995370813614,1
82,729,13,0.069370045437003,1
82,758,13,0.0722527748715385,1
82,759,13,0.0749784344105634,1
83,727,13,0.0761474949271389,1
83,728,13,0.0734061301954957,1
83,729,13,0.070264882029685,1
83,757,13,0.0681043099361183,1
83,758,13,0.0734007034584583,1
83,759,13,0.074145693825461,1
84,729,13,0.0693044993184593,1
84,730,13,0.0678610351847108,1
84,756,13,0.0744619719665067,1
84,757,13,0.0832453315446425,1
84,758,13,0.0768910118092506,1
85,756,13,0.0858535495460373,1
85,757,13,0.0923082519370696,1
85,758,13,0.0793761818426985,1
86,756,13,0.0763597845674045,1
86,757,13,0.0795594989365512,1
95,759,13,0.0691602535333209,1
95,760,13,0.0677564716654366,1
97,744,13,0.0703843121729403,1
97,745,13,0.0835086780353573,1
98,744,13,0.0773071814443065,1
98,745,13,0.0895358421965246,1
64,749,14,0.069746436969779,1
64,750,14,0.0817984951670175,1
64,751,14,0.0813886806842758,1
65,749,14,0.0794349475348334,1
65,750,14,0.0985397033977939,1
65,751,14,0.0989203955897232,1
65,752,14,0.0795441411509398,1
65,753,14,0.068619328844164,1
65,755,14,0.0717025540500613,1
65,756,14,0.0768608413076419,1
65,757,14,0.0800388966468467,1
65,758,14,0.0808052285856644,1
65,759,14,0.0835731400044487,1
66,749,14,0.0764300027112122,1
66,750,14,0.0903696789106313,1
66,751,14,0.089863638676779,1
66,752,14,0.0737707877571279,1
66,755,14,0.0680848671232889,1
66,756,14,0.0746297815303485,1
66,757,14,0.0830287951532074,1
66,758,14,0.0856606188617375,1
66,759,14,0.08500821246205,1
66,760,14,0.0829497061511741,1
67,756,14,0.0700909269556882,1
67,757,14,0.0829912632169199,1
67,758,14,0.0867497038894347,1
67,759,14,0.0822526759204393,1
67,760,14,0.0759216624033837,1
68,741,14,0.0715633696256256,1
68,757,14,0.0759308926481681,1
68,758,14,0.0807850430406135,1
68,759,14,0.0784996020872021,1
68,760,14,0.0712595562083932,1
69,740,14,0.0826508822173326,1
69,741,14,0.0717343178320806,1
69,758,14,0.0713134941410886,1
69,759,14,0.072797916362985,1
69,760,14,0.0698094853517393,1
70,739,14,0.0684356044455446,1
70,740,14,0.0696498638116615,1
70,759,14,0.0687292891515957,1
70,760,14,0.0705242153704935,1
70,761,14,0.0688377220661526,1
73,736,14,0.0682530360736894,1
74,736,14,0.068491620830505,1
77,740,14,0.0736099682618542,1
78,739,14,0.0729529617142145,1
78,740,14,0.0848925858265416,1
78,741,14,0.0705047006803523,1
79,730,14,0.0704175314705226,1
79,740,14,0.0749643105188037,1
79,759,14,0.0689009441516163,1
79,760,14,0.0740152664535073,1
80,729,14,0.0712138841665495,1
80,730,14,0.071557397818974,1
80,731,14,0.0696968955326526,1
80,759,14,0.071841157466227,1
81,729,14,0.0697157154087802,1
81,730,14,0.0699695321659116,1
81,731,14,0.0682334614857884,1
81,758,14,0.0689033999597679,1
81,759,14,0.0744632897172222,1
82,728,14,0.0718737118986756,1
82,729,14,0.0704989265363081,1
82,730,14,0.0689505634558305,1
82,758,14,0.0701667635093647,1
83,728,14,0.0709267942038519,1
83,729,14,0.0721025632695245,1
83,730,14,0.0710769279387782,1
83,757,14,0.0698016507247581,1
83,758,14,0.0731303189809676,1
84,729,14,0.0713276180328483,1
84,730,14,0.0716012190200401,1
84,756,14,0.0790228928758755,1
84,757,14,0.084751903958111,1
85,755,14,0.0703190296045397,1
85,756,14,0.0890751026384053,1
85,757,14,0.0929970222667287,1
86,755,14,0.0683924061811805,1
86,756,14,0.0792937505456686,1
97,744,14,0.0833663130398765,1
97,745,14,0.101618442261483,1
65,749,15,0.0728390900830681,1
65,750,15,0.0792727983092923,1
65,751,15,0.0756267557830329,1
65,758,15,0.0735428468322279,1
66,749,15,0.0697369192157476,1
66,750,15,0.0738281338723557,1
66,751,15,0.0709779409009409,1
66,757,15,0.0716109524060068,1
66,758,15,0.0761664106396822,1
66,759,15,0.080738424614165,1
67,757,15,0.0757319721878888,1
67,758,15,0.0794106170648047,1
67,759,15,0.0754634445409517,1
67,760,15,0.0700245063298515,1
68,757,15,0.0725695142253346,1
68,758,15,0.0774298280972628,1
68,759,15,0.0734704484099637,1
69,741,15,0.0726031288481316,1
69,758,15,0.0677601733469919,1
69,759,15,0.068188274615799,1
70,740,15,0.0699311796303149,1
70,760,15,0.0688662873077989,1
77,739,15,0.076342671777431,1
77,740,15,0.0901747356616024,1
77,741,15,0.0760158037124536,1
78,739,15,0.0922677550616722,1
78,740,15,0.113433023810462,1
78,741,15,0.0873631707554794,1
78,758,15,0.0690914250175405,1
78,759,15,0.0693485481310126,1
79,739,15,0.081621850683606,1
79,740,15,0.0949462511046345,1
79,741,15,0.0721575194641364,1
79,757,15,0.0691711070073958,1
79,758,15,0.0755760463395904,1
79,759,15,0.0760999121467578,1
80,731,15,0.0694132616706952,1
80,758,15,0.0739625923635436,1
81,758,15,0.0697342118370049,1
82,730,15,0.0695914335469815,1
83,729,15,0.0719887994543458,1
83,730,15,0.0718942568302853,1
83,756,15,0.0684456792487422,1
83,757,15,0.070167254670995,1
84,729,15,0.0718591567430454,1
84,730,15,0.0729745548566206,1
84,756,15,0.0776106474545321,1
85,729,15,0.0680490782118113,1
85,730,15,0.0693837260853402,1
85,733,15,0.0706006688710959,1
85,734,15,0.0691677527328473,1
85,755,15,0.070404539646423,1
86,733,15,0.0691338685701312,1
86,734,15,0.0685128246374724,1
86,755,15,0.0683349103215532,1
87,734,15,0.068370345836248,1
87,751,15,0.068421480553785,1
87,752,15,0.0680464966183641,1
88,751,15,0.0773752971767454,1
88,752,15,0.0764162322162353,1
89,751,15,0.0750899101313179,1
66,758,16,0.0717326946027902,1
67,757,16,0.0700880279041141,1
67,758,16,0.0756497325636902,1
67,759,16,0.072617312637651,1
68,743,16,0.0692916632285352,1
68,757,16,0.0689089824309808,1
68,758,16,0.0755935784138824,1
68,759,16,0.0717486573557755,1
69,742,16,0.068028712973481,1
69,743,16,0.068529596010215,1
77,738,16,0.0688245565385497,1
77,739,16,0.081952342563051,1
77,740,16,0.0950316952589821,1
77,741,16,0.0760896456707289,1
77,758,16,0.0688585964354412,1
78,738,16,0.0741189973939203,1
78,739,16,0.104604968523967,1
78,740,16,0.126850289718276,1
78,741,16,0.0929597538805842,1
78,757,16,0.0738828744350323,1
78,758,16,0.0764290203879516,1
79,738,16,0.0686163279663982,1
79,739,16,0.0916746234850778,1
79,740,16,0.106389646236164,1
79,741,16,0.0772130521147886,1
79,756,16,0.0736277698760653,1
79,757,16,0.0837552172146737,1
79,758,16,0.0859681040116453,1
80,739,16,0.0740152544739553,1
80,740,16,0.0754700273047532,1
80,756,16,0.0713632392305984,1
80,757,16,0.0803318925286601,1
81,751,16,0.068806641118595,1
81,752,16,0.0715477962080789,1
81,753,16,0.0714372728617051,1
81,754,16,0.0683243323771734,1
82,737,16,0.0712468638730926,1
82,738,16,0.0694806945686724,1
82,751,16,0.0720607606229635,1
82,752,16,0.0744502439851388,1
82,753,16,0.0768132645170367,1
82,754,16,0.073612663661045,1
82,755,16,0.0690540847540842,1
83,736,16,0.0689759361468797,1
83,737,16,0.0725078375020737,1
83,739,16,0.06780574955242,1
83,753,16,0.0701164314218089,1
83,754,16,0.0697516480748812,1
84,731,16,0.0704212331520779,1
84,733,16,0.0704119370197577,1
84,734,16,0.0726720711696557,1
84,735,16,0.069884076032012,1
84,737,16,0.0690815598565022,1
84,738,16,0.0681386193729289,1
85,730,16,0.0746723089398029,1
85,731,16,0.0696664854400046,1
85,732,16,0.0678506489131623,1
85,733,16,0.0726405050502437,1
85,734,16,0.0749181952335375,1
85,735,16,0.0716106229683279,1
85,736,16,0.0679300613630986,1
85,737,16,0.0683943229094939,1
86,733,16,0.0695843895704296,1
86,734,16,0.0733397754571948,1
86,735,16,0.0719286860626155,1
86,736,16,0.0688595667791499,1
86,737,16,0.0688377999332404,1
86,751,16,0.0689070058049075,1
87,734,16,0.0719858704538918,1
87,735,16,0.0709128859440275,1
87,750,16,0.0713212089725502,1
87,751,16,0.0847514307658087,1
88,750,16,0.0865626012571629,1
88,751,16,0.115477921350312,1
72,741,17,0.0685917698848823,1
72,742,17,0.069154671062108,1
74,742,17,0.0681107729044002,1
75,741,17,0.0688328403987293,1
75,742,17,0.069818625749884,1
76,740,17,0.070068764784564,1
77,738,17,0.071482603486318,1
77,739,17,0.0825092300051934,1
77,740,17,0.0902231989390525,1
77,741,17,0.0746105423699023,1
78,737,17,0.0678106551789472,1
78,738,17,0.0797272605821851,1
78,739,17,0.10385606683325,1
78,740,17,0.118735293303038,1
78,741,17,0.0904515112300633,1
78,757,17,0.0870615795451355,1
79,738,17,0.0757757993787309,1
79,739,17,0.0951852251968887,1
79,740,17,0.106269503309567,1
79,741,17,0.0807134352687785,1
79,757,17,0.0995217750878413,1
80,738,17,0.0727122026687183,1
80,739,17,0.0817399630761458,1
80,740,17,0.0842714460574672,1
81,737,17,0.0732762838318121,1
81,738,17,0.0767954209743937,1
81,740,17,0.0748694144979605,1
82,736,17,0.0722970752546829,1
82,737,17,0.0841626297972475,1
82,740,17,0.0712721227583982,1
83,735,17,0.0724634293029616,1
83,736,17,0.0776604404622497,1
83,740,17,0.0741888681307213,1
84,733,17,0.0730961952272123,1
84,734,17,0.0784550681027945,1
84,735,17,0.0771478174645959,1
84,736,17,0.075467170181611,1
84,737,17,0.0810579911422235,1
84,739,17,0.0780824740879895,1
84,740,17,0.0793332531182534,1
84,741,17,0.0789784307687796,1
85,732,17,0.0706072276757935,1
85,733,17,0.075756458392093,1
85,734,17,0.0826792438065956,1
85,735,17,0.0824251455299931,1
85,736,17,0.0791892828628101,1
85,737,17,0.0799102542281349,1
85,738,17,0.0776502398737566,1
85,739,17,0.0758367872777542,1
85,740,17,0.081552273445828,1
85,741,17,0.0843388130679086,1
85,742,17,0.0696362191019802,1
86,733,17,0.0726079985360029,1
86,734,17,0.0810117081432298,1
86,735,17,0.0842037675786747,1
86,736,17,0.0825992263892854,1
86,737,17,0.0800567581588176,1
86,738,17,0.074725773680196,1
86,739,17,0.0720847796246413,1
86,740,17,0.0757593274947872,1
86,741,17,0.0763481224735724,1
87,733,17,0.068389926413925,1
87,734,17,0.0762748255849112,1
87,735,17,0.0794437884441792,1
87,736,17,0.0758523547055249,1
87,737,17,0.0709191033314942,1
87,739,17,0.0688255927697941,1
87,740,17,0.0720648576297335,1
87,741,17,0.0708627874577349,1
88,740,17,0.0701718727882752,1
88,741,17,0.068803700138589,1
79,740,18,0.103654259300948,1
