x,y,z,signal,cytoplasm.p
139,698,1,0.0723897909970696,1
139,699,1,0.0689982899908352,1
140,696,1,0.0691977195820727,1
140,697,1,0.0770982700376934,1
140,698,1,0.0868801911591482,1
140,699,1,0.0827235022613081,1
141,695,1,0.0729105960287114,1
141,696,1,0.0752932210973902,1
141,697,1,0.0829761989303314,1
141,698,1,0.0950295269600775,1
141,699,1,0.0938089064518704,1
141,700,1,0.0755673312155402,1
142,693,1,0.0855834166391377,1
142,694,1,0.0761247397681928,1
142,695,1,0.0749528580671309,1
142,696,1,0.0771096745711584,1
142,697,1,0.0799431380982624,1
142,698,1,0.0861894861318477,1
142,699,1,0.0891826850047731,1
142,700,1,0.0812603916623468,1
143,692,1,0.132153864982016,1
143,693,1,0.110195394159365,1
143,694,1,0.0820270769979473,1
143,695,1,0.0749874190745327,1
143,696,1,0.0769674473405251,1
143,697,1,0.0756391426397585,1
143,698,1,0.0733917846820248,1
143,699,1,0.0765247789365359,1
143,700,1,0.0781718475353797,1
144,691,1,0.139117123312812,1
144,692,1,0.153238475407465,1
144,693,1,0.12404622401168,1
144,694,1,0.0843441679276343,1
144,695,1,0.0715091082450273,1
144,696,1,0.070887890608865,1
145,690,1,0.099913740038164,1
145,691,1,0.12979675635901,1
145,692,1,0.141794696930273,1
145,693,1,0.116725975032505,1
145,694,1,0.0791436168107423,1
146,689,1,0.083428397067904,1
146,690,1,0.0943525145606662,1
146,691,1,0.108884855134153,1
146,692,1,0.112452162055162,1
146,693,1,0.0934000982514933,1
147,688,1,0.076596632289186,1
147,689,1,0.0821801037946716,1
147,690,1,0.083925494566219,1
147,691,1,0.0845382007307143,1
147,692,1,0.0794179126119477,1
148,688,1,0.074942016572608,1
148,689,1,0.0763676251841617,1
148,690,1,0.0721176634947688,1
149,688,1,0.0682629731120394,1
149,689,1,0.0678093793566636,1
139,698,2,0.068855721342971,1
140,697,2,0.070565850303327,1
140,698,2,0.0769910590374363,1
140,699,2,0.0715846213508009,1
141,695,2,0.0687500317458127,1
141,696,2,0.0698004048513544,1
141,697,2,0.0743443267764933,1
141,698,2,0.0828242502932834,1
141,699,2,0.0792048323212529,1
142,693,2,0.0865218288520705,1
142,694,2,0.073568548960956,1
142,695,2,0.067848121227699,1
142,696,2,0.0686962375677408,1
142,697,2,0.0699447404831325,1
142,698,2,0.0741996916559162,1
142,699,2,0.0728202881762685,1
143,691,2,0.140963435819838,1
143,692,2,0.1645354444754,1
143,693,2,0.129236939916413,1
143,694,2,0.085272679040873,1
144,690,2,0.116563544287493,1
144,691,2,0.188931011389487,1
144,692,2,0.219889875333115,1
144,693,2,0.160086682121247,1
144,694,2,0.0912611432594368,1
145,690,2,0.118347898551787,1
145,691,2,0.18005151590688,1
145,692,2,0.20182236298675,1
145,693,2,0.143390517005837,1
145,694,2,0.0819004291746367,1
146,689,2,0.0845159427231745,1
146,690,2,0.104398369170882,1
146,691,2,0.132336684924462,1
146,692,2,0.138332869964264,1
146,693,2,0.100940699109402,1
147,688,2,0.0794380442490148,1
147,689,2,0.0863040346076797,1
147,690,2,0.0869625925072982,1
147,691,2,0.0858476436269215,1
147,692,2,0.0802266881033561,1
148,688,2,0.0785015667337234,1
148,689,2,0.083023074917147,1
148,690,2,0.0773705532741697,1
149,688,2,0.0707773912215952,1
149,689,2,0.0723155117851478,1
140,698,3,0.068829420236645,1
141,697,3,0.0695692174678735,1
141,698,3,0.0722428258536365,1
142,693,3,0.0829467771507201,1
142,694,3,0.0701728850604158,1
142,698,3,0.0684826840847435,1
143,691,3,0.148619363824456,1
143,692,3,0.172935913613822,1
143,693,3,0.129434123341659,1
143,694,3,0.0811119710033507,1
144,690,3,0.143303425663095,1
144,691,3,0.267777535311646,1
144,692,3,0.29659614448183,2
144,693,3,0.188576548426572,1
144,694,3,0.0900368749776581,1
145,690,3,0.163965493331846,1
145,691,3,0.294871065040629,2
145,692,3,0.306750611699882,2
145,693,3,0.178655047555467,1
145,694,3,0.0800041619359416,1
146,689,3,0.0888115225464272,1
146,690,3,0.131793064836114,1
146,691,3,0.196726237624284,1
146,692,3,0.19261929980573,1
146,693,3,0.114592093380703,1
147,688,3,0.0832170358429153,1
147,689,3,0.0950021057656434,1
147,690,3,0.094863987521332,1
147,691,3,0.0935170426377172,1
147,692,3,0.0826441437193557,1
148,688,3,0.0828520129049484,1
148,689,3,0.09467520176201,1
148,690,3,0.0865029251190791,1
148,691,3,0.0698132229719505,1
149,688,3,0.0720262894622015,1
149,689,3,0.0784419744525033,1
149,690,3,0.0720975198781497,1
142,693,4,0.0793907369983287,1
143,691,4,0.151398739674465,1
143,692,4,0.181643538464473,2
143,693,4,0.13383945981996,1
143,694,4,0.0784482517377298,1
144,690,4,0.151830291054236,1
144,691,4,0.329370377749774,2
144,692,4,0.372407612976519,2
144,693,4,0.228403143932783,2
144,694,4,0.0936811026017958,1
145,689,4,0.0813148387260005,1
145,690,4,0.193256611969949,2
145,691,4,0.400221257532862,2
145,692,4,0.422279062800357,2
145,693,4,0.234964224745212,2
145,694,4,0.0854600392335119,1
146,688,4,0.0760037762422867,1
146,689,4,0.0903339379173616,1
146,690,4,0.141458550702304,1
146,691,4,0.243772070527552,2
146,692,4,0.238943304805707,2
146,693,4,0.132303058322113,1
147,688,4,0.0862264849780731,1
147,689,4,0.101176217100916,1
147,690,4,0.0975282698258949,1
147,691,4,0.0977999480949973,1
147,692,4,0.0806876672525147,1
148,687,4,0.0678116854204157,1
148,688,4,0.0854872867244426,1
148,689,4,0.102598956609775,1
148,690,4,0.0906664962695196,1
148,691,4,0.068294353548396,1
149,688,4,0.0722586688111023,1
149,689,4,0.0828085630699931,1
149,690,4,0.0745272485451313,1
142,692,5,0.0788112141927598,1
142,693,5,0.0742904966597655,1
143,691,5,0.137667190221005,1
143,692,5,0.17372493482405,2
143,693,5,0.126295624483022,1
143,694,5,0.0759455915584218,1
144,690,5,0.139549872647779,1
144,691,5,0.31567995409819,2
144,692,5,0.379559812800813,2
144,693,5,0.232484768958048,2
144,694,5,0.0972732431340156,1
145,689,5,0.0795326347912831,1
145,690,5,0.188232327980582,2
145,691,5,0.401415451149448,2
145,692,5,0.449938650318508,2
145,693,5,0.253413573330719,2
145,694,5,0.095228381532821,1
146,688,5,0.0764752255198574,1
146,689,5,0.0892498124241754,1
146,690,5,0.133325405265847,1
146,691,5,0.231445686580228,2
146,692,5,0.238839250417392,2
146,693,5,0.133434251474946,1
146,694,5,0.0681056516459377,1
147,688,5,0.0851636471487181,1
147,689,5,0.099749799869605,1
147,690,5,0.0975228370990815,1
147,691,5,0.0963922069851905,1
147,692,5,0.0787423137996676,1
148,688,5,0.0818385847376483,1
148,689,5,0.0978805225614735,1
148,690,5,0.0879847717373043,1
149,688,5,0.068047700563336,1
149,689,5,0.0776304077254885,1
149,690,5,0.0703682356142113,1
136,709,6,0.0686932127308711,1
137,708,6,0.0732608661484408,1
137,709,6,0.0725788522860867,1
142,692,6,0.074705306615674,1
142,693,6,0.0723045325257774,1
143,691,6,0.120323386567587,1
143,692,6,0.164228288763171,2
143,693,6,0.126091492917641,1
143,694,6,0.0762114956834799,1
144,690,6,0.11482622174419,1
144,691,6,0.257148893467953,2
144,692,6,0.345353088668714,2
144,693,6,0.233388841785291,2
144,694,6,0.105091697720061,1
145,689,6,0.075402881916023,1
145,690,6,0.151464088130401,1
145,691,6,0.317734662891095,2
145,692,6,0.398409661767413,2
145,693,6,0.253244230384226,2
145,694,6,0.107047778861688,1
146,688,6,0.0733292394412469,1
146,689,6,0.0842113146964089,1
146,690,6,0.11436220577861,1
146,691,6,0.183609550654673,1
146,692,6,0.208899331224741,2
146,693,6,0.132492335243066,1
146,694,6,0.0719654153689218,1
147,688,6,0.0780445468264873,1
147,689,6,0.0893816533832603,1
147,690,6,0.0914225856914123,1
147,691,6,0.0897748102990029,1
147,692,6,0.076824297684391,1
148,688,6,0.0732392490469308,1
148,689,6,0.0837585894585501,1
148,690,6,0.0795135034468046,1
149,689,6,0.0680617945062158,1
136,709,7,0.0702562627420504,1
137,708,7,0.0749285575459821,1
137,709,7,0.075806736571665,1
142,692,7,0.0755269122072305,1
142,693,7,0.075713811187119,1
143,691,7,0.110004907303664,1
143,692,7,0.154910784922287,1
143,693,7,0.135601352424331,1
143,694,7,0.0874670095118601,1
144,690,7,0.0979778025131567,1
144,691,7,0.199034445716194,1
144,692,7,0.293834450450513,2
144,693,7,0.239007970427182,1
144,694,7,0.124693826611032,1
145,689,7,0.0750125761336466,1
145,690,7,0.118155542885981,1
145,691,7,0.226731900598086,1
145,692,7,0.318500994829913,2
145,693,7,0.250429898201601,1
145,694,7,0.126841832154593,1
146,688,7,0.0691860455086887,1
146,689,7,0.0819351638855418,1
146,690,7,0.103210908062497,1
146,691,7,0.144833777487202,1
146,692,7,0.17723030746143,1
146,693,7,0.139100184226342,1
146,694,7,0.0818187525893802,1
147,688,7,0.0711281884416108,1
147,689,7,0.083191118082252,1
147,690,7,0.091382358355934,1
147,691,7,0.0900197382285808,1
147,692,7,0.0792383091792023,1
148,689,7,0.0750481613927408,1
148,690,7,0.0764653843179231,1
137,708,8,0.0750040407028758,1
137,709,8,0.0738062831695824,1
142,692,8,0.0734068729277172,1
142,693,8,0.0778825533351216,1
142,694,8,0.0708732575861471,1
143,691,8,0.09264418852288,1
143,692,8,0.141285721706191,1
143,693,8,0.144980886385258,1
143,694,8,0.101602988639455,1
144,690,8,0.0789564602704868,1
144,691,8,0.14573507105839,1
144,692,8,0.246210388533288,1
144,693,8,0.248082121649571,1
144,694,8,0.149815378332939,1
144,695,8,0.072174895804253,1
145,689,8,0.0708655846831174,1
145,690,8,0.090759601347345,1
145,691,8,0.156308067883233,1
145,692,8,0.254133089180481,1
145,693,8,0.253423085094974,1
145,694,8,0.150190865409542,1
145,695,8,0.0677948242010334,1
146,689,8,0.077328085762475,1
146,690,8,0.0912446234572853,1
146,691,8,0.113500013465016,1
146,692,8,0.148612032338657,1
146,693,8,0.142863009414874,1
146,694,8,0.0895897681496681,1
147,689,8,0.0781620123232213,1
147,690,8,0.0884569517675446,1
147,691,8,0.0857582042919955,1
147,692,8,0.0754841272374089,1
148,689,8,0.0707371519065649,1
148,690,8,0.0741690120233492,1
137,708,9,0.0704271570405216,1
142,692,9,0.0697101509068952,1
142,693,9,0.0768174034522385,1
142,694,9,0.0731788361664015,1
143,691,9,0.0778405170872975,1
143,692,9,0.121099613616323,1
143,693,9,0.14054144412253,1
143,694,9,0.109203032034184,1
143,695,9,0.0729801493073854,1
144,691,9,0.109472967278477,1
144,692,9,0.201337430723449,1
144,693,9,0.236059946444694,1
144,694,9,0.160742778222938,1
144,695,9,0.0789749507089355,1
145,690,9,0.0717098436074284,1
145,691,9,0.116452697493216,1
145,692,9,0.209542010228237,1
145,693,9,0.243149948435217,1
145,694,9,0.160527637449306,1
145,695,9,0.0719442534903862,1
146,690,9,0.0762940707351333,1
146,691,9,0.0916873996772421,1
146,692,9,0.127281313997761,1
146,693,9,0.137574396611531,1
146,694,9,0.0916371334772221,1
147,689,9,0.0715787094419091,1
147,690,9,0.079531520692951,1
147,691,9,0.0770579528555754,1
147,692,9,0.0699379840158276,1
148,689,9,0.070938755786483,1
148,690,9,0.0723457421845163,1
149,688,9,0.0689724740563635,1
149,689,9,0.0718008762227648,1
142,693,10,0.0728604436344351,1
142,694,10,0.0752597023110089,1
142,695,10,0.0702367720110131,1
143,692,10,0.097800043931413,1
143,693,10,0.124758911516825,1
143,694,10,0.111632712782958,1
143,695,10,0.080637892214125,1
144,691,10,0.08489716201539,1
144,692,10,0.15763276673886,1
144,693,10,0.204842240321888,1
144,694,10,0.157602147004053,1
144,695,10,0.0843502176013736,1
145,691,10,0.0925385887723614,1
145,692,10,0.171226455508375,1
145,693,10,0.215114346740177,1
145,694,10,0.154184836053123,1
145,695,10,0.0721787891586397,1
146,691,10,0.0772151904648133,1
146,692,10,0.111510641148496,1
146,693,10,0.126143663866422,1
146,694,10,0.0874352636991687,1
147,690,10,0.07133530291543,1
147,691,10,0.0699289634132024,1
147,692,10,0.0680402013638097,1
148,688,10,0.0680464786490362,1
148,689,10,0.0743420267025171,1
148,690,10,0.0735418645089673,1
149,688,10,0.0760474417091773,1
149,689,10,0.081145783288755,1
149,690,10,0.0743460757910793,1
150,688,10,0.0701058175387733,1
150,689,10,0.073653561851433,1
137,715,11,0.0698448609686742,1
137,716,11,0.0756220957373208,1
137,717,11,0.077262617511019,1
137,718,11,0.0721234017001572,1
138,717,11,0.0735993783379225,1
138,718,11,0.0715777989959602,1
142,693,11,0.0727874222754689,1
142,694,11,0.0786288494732879,1
142,695,11,0.073153553321992,1
143,692,11,0.0850461397235522,1
143,693,11,0.108345763316446,1
143,694,11,0.110758984160828,1
143,695,11,0.0852047370119375,1
144,691,11,0.0756405202882338,1
144,692,11,0.122290800365367,1
144,693,11,0.161014270808985,1
144,694,11,0.142329547986587,1
144,695,11,0.0867207612919017,1
145,691,11,0.0831757183682087,1
145,692,11,0.137008350801916,1
145,693,11,0.170210002504206,1
145,694,11,0.133790607207071,1
145,695,11,0.0710306808784404,1
146,691,11,0.0752225357510561,1
146,692,11,0.103216514492814,1
146,693,11,0.112748332518245,1
146,694,11,0.0816172625152057,1
147,691,11,0.0699930180775273,1
147,692,11,0.0735672372000164,1
148,689,11,0.0738919788945212,1
148,690,11,0.0743975519258472,1
149,688,11,0.0733343247610535,1
149,689,11,0.0800218197955292,1
149,690,11,0.0764065587280284,1
150,688,11,0.0688558950464744,1
150,689,11,0.0732174522521414,1
150,690,11,0.0684510940062276,1
136,716,12,0.0710942922993427,1
136,717,12,0.0710055597579824,1
136,718,12,0.0687598250295392,1
137,715,12,0.080737843605895,1
137,716,12,0.0947217243520428,1
137,717,12,0.100301470216869,1
137,718,12,0.0950882986419884,1
137,719,12,0.0772470321139204,1
138,715,12,0.0708809125198489,1
138,716,12,0.0892555865682197,1
138,717,12,0.102108549691229,1
138,718,12,0.0987971020409611,1
138,719,12,0.0791082411938074,1
139,717,12,0.0761715438776966,1
139,718,12,0.0757664732975308,1
142,693,12,0.0703888823720126,1
142,694,12,0.0758902699874751,1
142,695,12,0.0703201616721998,1
143,692,12,0.0745232773236569,1
143,693,12,0.090577236627873,1
143,694,12,0.0996075187309878,1
143,695,12,0.0803860460932908,1
144,691,12,0.0681191286418916,1
144,692,12,0.0923159308298753,1
144,693,12,0.11660375964342,1
144,694,12,0.116030538082181,1
144,695,12,0.0794118030404486,1
145,691,12,0.0745082310063964,1
145,692,12,0.103977934815328,1
145,693,12,0.121795038587095,1
145,694,12,0.104299753499155,1
146,691,12,0.0717837634327914,1
146,692,12,0.0914619924275814,1
146,693,12,0.0950318090647257,1
146,694,12,0.0712975493574312,1
147,691,12,0.0678345663646574,1
147,692,12,0.0736991081079812,1
147,693,12,0.0677505477769929,1
148,689,12,0.06987005995622,1
148,690,12,0.0714096420251116,1
149,689,12,0.0740345535321613,1
149,690,12,0.0735084535385536,1
150,689,12,0.0682094245147826,1
136,715,13,0.0683242006021019,1
136,716,13,0.0729623357136224,1
136,717,13,0.0747383641893049,1
136,718,13,0.073892044782057,1
137,704,13,0.0679816033854022,1
137,705,13,0.0686589332429404,1
137,706,13,0.070022619550418,1
137,707,13,0.0678169684028296,1
137,714,13,0.068351340277065,1
137,715,13,0.0869389448717311,1
137,716,13,0.105877328717085,1
137,717,13,0.11822310755903,1
137,718,13,0.114171299638591,1
137,719,13,0.0899100594406201,1
138,701,13,0.0834860965799146,1
138,702,13,0.0976510841925787,1
138,703,13,0.0886692414078101,1
138,704,13,0.0745877153336444,1
138,705,13,0.0769061479731509,1
138,706,13,0.0792801297950912,1
138,707,13,0.0727010377262925,1
138,715,13,0.0787095437352837,1
138,716,13,0.106611735149932,1
138,717,13,0.128409512262605,1
138,718,13,0.124627555729594,1
138,719,13,0.0947685164819947,1
138,720,13,0.0686961057926692,1
139,701,13,0.0940389138494833,1
139,702,13,0.113687804921526,1
139,703,13,0.0982199212378001,1
139,704,13,0.0744208701237354,1
139,705,13,0.075117954262454,1
139,706,13,0.0764499726243279,1
139,716,13,0.0782695946895892,1
139,717,13,0.0978020085779342,1
139,718,13,0.0956922178051218,1
139,719,13,0.0768513654820423,1
140,701,13,0.0784629266888796,1
140,702,13,0.0914060359403809,1
140,703,13,0.0780894761361096,1
142,693,13,0.0708123056257797,1
142,694,13,0.0722823284262213,1
143,692,13,0.0712293258090247,1
143,693,13,0.0801921270959544,1
143,694,13,0.086554970282565,1
143,695,13,0.0735768088620317,1
144,692,13,0.076834815731011,1
144,693,13,0.0885807963756968,1
144,694,13,0.0924840937904999,1
144,695,13,0.0720309435181376,1
145,691,13,0.0713944399736757,1
145,692,13,0.0836159908618061,1
145,693,13,0.0904347278777687,1
145,694,13,0.0831788630005979,1
146,691,13,0.070869789505855,1
146,692,13,0.0827125170121617,1
146,693,13,0.0829732100321177,1
147,692,13,0.0727673864748175,1
147,693,13,0.0677691640007372,1
148,690,13,0.0685500990133928,1
149,689,13,0.0686733206848432,1
149,690,13,0.0705915105036232,1
136,715,14,0.0682460280357934,1
136,716,14,0.0709780127782526,1
136,717,14,0.0756488700359492,1
136,718,14,0.0761788573941676,1
137,702,14,0.0848575755859415,1
137,704,14,0.0743159352383504,1
137,705,14,0.0825583761171052,1
137,706,14,0.0832953821127272,1
137,707,14,0.0719438342060676,1
137,710,14,0.0702500333750318,1
137,715,14,0.087755483112809,1
137,716,14,0.105839916576317,1
137,717,14,0.125554545439734,1
137,718,14,0.123416722515338,1
137,719,14,0.0993264125544938,1
137,720,14,0.0702758552992794,1
138,701,14,0.11662057893437,1
138,702,14,0.174359276059383,1
138,703,14,0.143645501769284,1
138,704,14,0.107177852836859,1
138,705,14,0.127442858255929,1
138,706,14,0.125077531660279,1
138,707,14,0.08421743624746,1
138,715,14,0.0840028225741144,1
138,716,14,0.115260468523152,1
138,717,14,0.145904965064272,1
138,718,14,0.141681514123365,1
138,719,14,0.108586720024549,1
138,720,14,0.0732153977589804,1
139,701,14,0.149420136975155,1
139,702,14,0.231229311912744,1
139,703,14,0.185211120915176,1
139,704,14,0.121777728134514,1
139,705,14,0.136882050385612,1
139,706,14,0.130903008084664,1
139,707,14,0.0802430401917802,1
139,716,14,0.0884922015991839,1
139,717,14,0.113201710641685,1
139,718,14,0.110069752618419,1
139,719,14,0.0875391144351014,1
140,701,14,0.1075936271467,1
140,702,14,0.16145238698323,1
140,703,14,0.127712637766045,1
140,704,14,0.0836116662435489,1
140,705,14,0.0904956918176881,1
140,706,14,0.0845647773667354,1
141,694,14,0.069047723611994,1
142,693,14,0.0741323426148027,1
142,694,14,0.0715795719696501,1
143,692,14,0.0735502202464587,1
143,693,14,0.0770666200614177,1
143,694,14,0.0783286179420912,1
143,695,14,0.0688999797976836,1
144,692,14,0.0729381370186652,1
144,693,14,0.0769007991032012,1
144,694,14,0.0785285446847351,1
145,691,14,0.0709807081774434,1
145,692,14,0.0745690991099001,1
145,693,14,0.0757793333465588,1
145,694,14,0.0718799352759183,1
146,691,14,0.0695109668964728,1
146,692,14,0.0749207947963126,1
146,693,14,0.0737287335399758,1
147,692,14,0.068971449804671,1
149,690,14,0.068545978047519,1
168,727,14,0.0735731251498043,1
136,716,15,0.0684725613633382,1
136,717,15,0.0728469666384812,1
137,702,15,0.101664431761453,1
137,703,15,0.0913304749163995,1
137,704,15,0.0866263803917927,1
137,705,15,0.102583191519397,1
137,706,15,0.10173265530986,1
137,707,15,0.0792680903453724,1
137,708,15,0.0678977465216892,1
137,709,15,0.070764285591752,1
137,710,15,0.0733293113185586,1
137,715,15,0.0826619273642389,1
137,716,15,0.0996876619335936,1
137,717,15,0.118564105505543,1
137,718,15,0.117423232874727,1
137,719,15,0.0974837298517114,1
138,701,15,0.135664736233746,1
138,702,15,0.234758895224634,1
138,703,15,0.189368241076887,1
138,704,15,0.141610127973241,1
138,705,15,0.185188779050773,1
138,706,15,0.178177063432303,1
138,707,15,0.101251388789459,1
138,715,15,0.0854971399059289,1
138,716,15,0.117049542730918,1
138,717,15,0.146537653121435,1
138,718,15,0.142648012395865,1
138,719,15,0.111878485270949,1
138,720,15,0.0764625751129887,1
139,700,15,0.0707067537934689,1
139,701,15,0.186264698550867,1
139,702,15,0.328636941660636,1
139,703,15,0.261958324192935,1
139,704,15,0.173762023516915,1
139,705,15,0.207790983077493,1
139,706,15,0.196466413121845,1
139,707,15,0.103032520554276,1
139,716,15,0.0909195343557737,1
139,717,15,0.114313269308857,1
139,718,15,0.113063730162221,1
139,719,15,0.092525836539301,1
139,720,15,0.0684101598771837,1
140,701,15,0.120841681883094,1
140,702,15,0.208542484330986,1
140,703,15,0.162148506768016,1
140,704,15,0.103291590344941,1
140,705,15,0.119474850943227,1
140,706,15,0.109926201647294,1
140,723,15,0.0694598441584877,1
141,694,15,0.0716066337775255,1
141,702,15,0.0706809558283252,1
141,723,15,0.0758297612705302,1
141,724,15,0.0705214001757831,1
142,693,15,0.0751827336896723,1
142,694,15,0.0696688214526366,1
142,724,15,0.068148813971646,1
143,693,15,0.0732948221884686,1
143,694,15,0.0699947311534574,1
144,692,15,0.07021021334432,1
144,693,15,0.0690106468986809,1
144,725,15,0.06845976121207,1
145,691,15,0.0687807592965875,1
145,692,15,0.068187100619707,1
168,727,15,0.0851610595654949,1
168,728,15,0.0721783039867853,1
169,727,15,0.0752897949455299,1
137,702,16,0.109728227571619,1
137,703,16,0.0982329190516757,1
137,704,16,0.0939122480568448,1
137,705,16,0.117236483639238,1
137,706,16,0.115213604515889,1
137,707,16,0.0833575320282905,1
137,708,16,0.0698641240882243,1
137,709,16,0.0734973425041116,1
137,710,16,0.0753688480089074,1
137,711,16,0.0716677175129645,1
137,715,16,0.0751973427532863,1
137,716,16,0.0910211209563861,1
137,717,16,0.102679854524154,1
137,718,16,0.103712839310028,1
137,719,16,0.0897831181182865,1
138,700,16,0.0711782390096955,1
138,701,16,0.135291633087983,1
138,702,16,0.245930570158629,1
138,703,16,0.206688169483251,1
138,704,16,0.159827073250743,1
138,705,16,0.221098156902805,1
138,706,16,0.212920100126054,1
138,707,16,0.11273692798478,1
138,710,16,0.0707630516979002,1
138,715,16,0.0825553153415797,1
138,716,16,0.110379304241039,1
138,717,16,0.129766472051657,1
138,718,16,0.130021396917345,1
138,719,16,0.107090270332486,1
138,720,16,0.0783151169870334,1
139,700,16,0.0735841523273826,1
139,701,16,0.187271280404223,1
139,702,16,0.350945958132712,1
139,703,16,0.294335698863581,1
139,704,16,0.203651257225227,1
139,705,16,0.251210797275601,1
139,706,16,0.239461995446429,1
139,707,16,0.119545973543207,1
139,716,16,0.0862056165985605,1
139,717,16,0.101785485133999,1
139,718,16,0.105205659197847,1
139,719,16,0.0908666685929786,1
139,720,16,0.0693232712763791,1
140,701,16,0.115389931541173,1
140,702,16,0.21140212317912,1
140,703,16,0.174026711717449,1
140,704,16,0.112049984536794,1
140,705,16,0.133855332726305,1
140,706,16,0.124576103553931,1
140,707,16,0.0689484071364779,1
140,722,16,0.0695367349127366,1
140,723,16,0.0787782943839765,1
141,702,16,0.073495785162357,1
141,722,16,0.0770759221835139,1
141,723,16,0.0953398812126795,1
141,724,16,0.0865872072568867,1
142,694,16,0.0700105621313712,1
142,723,16,0.087219236438692,1
142,724,16,0.0867332260157151,1
142,725,16,0.0724765169634768,1
143,724,16,0.0739745239972947,1
143,725,16,0.0771104352727078,1
144,725,16,0.0812800920355434,1
144,726,16,0.0769038119605188,1
145,725,16,0.0696765063352183,1
145,726,16,0.0717934848392061,1
168,727,16,0.0795359231782959,1
136,708,17,0.0785293652840443,1
136,709,17,0.0806019954866798,1
137,702,17,0.117624872693301,1
137,703,17,0.110877869234469,1
137,704,17,0.106023623005608,1
137,705,17,0.127983591272254,1
137,706,17,0.125348161718585,1
137,707,17,0.0918071951968322,1
137,708,17,0.0780100097781895,1
137,709,17,0.0782671089325577,1
137,710,17,0.0761578692191354,1
137,711,17,0.0739938410248286,1
137,712,17,0.0715086530220528,1
137,716,17,0.0769362945156557,1
137,717,17,0.0828767506797437,1
137,718,17,0.0835324814050999,1
137,719,17,0.0785375652873602,1
138,701,17,0.131882695843872,1
138,702,17,0.220489260235832,1
138,703,17,0.20631428766661,1
138,704,17,0.168961062335167,1
138,705,17,0.220696099179957,1
138,706,17,0.216298118146558,1
138,707,17,0.122852497597621,1
138,708,17,0.0751870702874815,1
138,709,17,0.0749055747755487,1
138,710,17,0.0743813915102545,1
138,711,17,0.0708546174032989,1
138,712,17,0.0685622283097514,1
138,715,17,0.0733929826372207,1
138,716,17,0.0911452410942334,1
138,717,17,0.101689001822521,1
138,718,17,0.1043648503845,1
138,719,17,0.0958577452643154,1
138,720,17,0.0761058659840814,1
139,699,17,0.0724791225160279,1
139,700,17,0.080531519782505,1
139,701,17,0.166158841479572,1
139,702,17,0.302276177165881,1
139,703,17,0.284705840184918,1
139,704,17,0.210189505011622,1
139,705,17,0.247278197876706,1
139,706,17,0.243807074778376,1
139,707,17,0.133905634864981,1
139,708,17,0.0735581746689595,1
139,709,17,0.0747835031410864,1
139,710,17,0.073030822812172,1
139,716,17,0.0743735209446174,1
139,717,17,0.0828403568008923,1
139,718,17,0.0880102163056653,1
139,719,17,0.0839959463112899,1
139,720,17,0.0684651699797795,1
140,700,17,0.0693833666987815,1
140,701,17,0.111982120374947,1
140,702,17,0.194531787357778,1
140,703,17,0.184278357060992,1
140,704,17,0.127576214628336,1
140,705,17,0.141939098449587,1
140,706,17,0.141188268051005,1
140,707,17,0.0865005232189114,1
140,722,17,0.073368658156968,1
140,723,17,0.083788741990831,1
141,701,17,0.0692108491710198,1
141,702,17,0.0847400022732398,1
141,703,17,0.0807722428893453,1
141,722,17,0.080616263133063,1
141,723,17,0.101655087710925,1
141,724,17,0.100677927637181,1
142,694,17,0.0721398855636528,1
142,723,17,0.095575848437392,1
142,724,17,0.108591979047859,1
142,725,17,0.0977044171579002,1
143,693,17,0.0749500009439887,1
143,694,17,0.0685798322613551,1
143,723,17,0.0720599040849985,1
143,724,17,0.0990582862225473,1
143,725,17,0.102937019566058,1
144,693,17,0.0682533175931604,1
144,724,17,0.0756292295605124,1
144,725,17,0.0929256480961569,1
144,726,17,0.0789162089759045,1
145,725,17,0.0708369236050554,1
145,726,17,0.0698412311644307,1
136,708,18,0.0814028764533473,1
136,709,18,0.0835196453151758,1
137,702,18,0.115863111864002,1
137,703,18,0.112499409408088,1
137,704,18,0.107195175268991,1
137,705,18,0.122871065903157,1
137,706,18,0.120905976138458,1
137,707,18,0.0934946648346578,1
137,708,18,0.0833645101173067,1
137,709,18,0.0826038265372377,1
137,710,18,0.077191333187087,1
137,711,18,0.0747736619391521,1
137,712,18,0.0758146790146138,1
138,701,18,0.118787344456299,1
138,702,18,0.173873589084309,1
138,703,18,0.178807786842944,1
138,704,18,0.156133346117911,1
138,705,18,0.18755133836992,1
138,706,18,0.187076289236986,1
138,707,18,0.118960245329724,1
138,708,18,0.0829459086332031,1
138,709,18,0.082184392474273,1
138,710,18,0.0776857292964352,1
138,711,18,0.0745047509465523,1
138,712,18,0.0759436688403324,1
138,713,18,0.0681775169781398,1
138,716,18,0.0748204900077599,1
138,717,18,0.0800326553002761,1
138,718,18,0.0844533795130686,1
138,719,18,0.0865632541427447,1
138,720,18,0.0735614390968683,1
139,699,18,0.0780032772699885,1
139,700,18,0.0837571399327631,1
139,701,18,0.132798556550242,1
139,702,18,0.2212338852265,1
139,703,18,0.235027644493283,1
139,704,18,0.187124267342582,1
139,705,18,0.206391987040617,1
139,706,18,0.211545853843524,1
139,707,18,0.131789542847839,1
139,708,18,0.0842171008200051,1
139,709,18,0.0853391715440214,1
139,710,18,0.0798650913172495,1
139,711,18,0.0679351706420091,1
139,717,18,0.0700368033399374,1
139,718,18,0.0743769890249095,1
139,719,18,0.0774713791732327,1
140,697,18,0.0738967407664249,1
140,698,18,0.071797629764184,1
140,699,18,0.0722417057655284,1
140,700,18,0.0738472053190744,1
140,701,18,0.102793827981492,1
140,702,18,0.164486244455504,1
140,703,18,0.176473103941206,1
140,704,18,0.131562123033449,1
140,705,18,0.135413453151854,1
140,706,18,0.144472725770709,1
140,707,18,0.0986799000943701,1
140,708,18,0.0693310879340324,1
140,709,18,0.070412446150716,1
140,722,18,0.0800941702995856,1
140,724,18,0.117822056118547,1
141,696,18,0.0730465160252383,1
141,697,18,0.0696164708105758,1
141,701,18,0.0725128509445685,1
141,702,18,0.0895603942882646,1
141,703,18,0.0922722414038808,1
141,704,18,0.0731604775030244,1
141,705,18,0.0692311485218143,1
141,706,18,0.0733846688281612,1
141,722,18,0.0893987661732337,1
141,723,18,0.14404008425171,1
141,724,18,0.174655805909024,1
141,725,18,0.143317621432166,1
142,695,18,0.0728393236843313,1
142,696,18,0.0701481892140523,1
142,722,18,0.0748028021992924,1
142,723,18,0.137212111001187,1
142,724,18,0.183754443335617,1
142,725,18,0.15872743423777,1
143,694,18,0.0739976684916795,1
143,695,18,0.0699813200450393,1
143,696,18,0.0693717704924851,1
143,723,18,0.0971799403935829,1
143,724,18,0.141732702748885,1
143,725,18,0.134945975095757,1
144,693,18,0.0737519618912243,1
144,694,18,0.0684809111110536,1
144,696,18,0.0698318631547987,1
144,697,18,0.0679219032882145,1
144,724,18,0.085786991155353,1
144,725,18,0.0943794026650382,1
144,726,18,0.0719703449545529,1
145,695,18,0.0679979494840503,1
145,696,18,0.0714573086623565,1
150,692,18,0.0685870918698423,1
151,691,18,0.0682884775781601,1
151,692,18,0.0693514471825867,1
152,691,18,0.067898369458391,1
136,708,19,0.0818287615050419,1
136,709,19,0.0828062929448968,1
137,703,19,0.102183397931869,1
137,704,19,0.0997358017631409,1
137,705,19,0.108112461542044,1
137,706,19,0.107642288086757,1
137,707,19,0.0910796650268098,1
137,708,19,0.0870294983049892,1
137,709,19,0.0869204604230584,1
137,710,19,0.0808997951688288,1
137,711,19,0.0762870567074614,1
137,712,19,0.0758209562998403,1
137,713,19,0.0681826502161542,1
138,702,19,0.12759384852882,1
138,703,19,0.136010442144179,1
138,704,19,0.127717729075628,1
138,705,19,0.140514981292252,1
138,706,19,0.142546605488532,1
138,707,19,0.106292504049328,1
138,708,19,0.0888404112359764,1
138,709,19,0.0892209357141782,1
138,710,19,0.0832849539127469,1
138,711,19,0.0784533250779845,1
138,712,19,0.0792090790724223,1
138,713,19,0.0718479199233079,1
139,699,19,0.079842731483518,1
139,700,19,0.0839364438767095,1
139,701,19,0.104388150613061,1
139,702,19,0.150349306963752,1
139,703,19,0.170025337710757,1
139,704,19,0.146742431582622,1
139,705,19,0.151804870444979,1
139,706,19,0.160854415667644,1
139,707,19,0.116291141255497,1
139,708,19,0.0882553838262823,1
139,709,19,0.088325901458889,1
139,710,19,0.0814398393609168,1
139,711,19,0.0709096095365667,1
139,719,19,0.0679308939419597,1
140,698,19,0.0762919862930925,1
140,699,19,0.0750604524130507,1
140,700,19,0.0770949996200086,1
140,701,19,0.0927547597874617,1
140,702,19,0.132684343501865,1
140,703,19,0.149636044440113,1
140,704,19,0.119784989563894,1
140,705,19,0.116789562494304,1
140,706,19,0.129890951576063,1
140,707,19,0.0993253284050415,1
140,708,19,0.0740376382667908,1
140,709,19,0.0715145289922887,1
140,722,19,0.0819904135791767,1
140,724,19,0.16615845813391,1
140,725,19,0.134041722575236,1
141,697,19,0.0774353027525081,1
141,698,19,0.0751364327213507,1
141,699,19,0.0711456186897111,1
141,700,19,0.0682126649835875,1
141,701,19,0.0724903593357655,1
141,702,19,0.0877981962053188,1
141,703,19,0.0930816218626632,1
141,704,19,0.0750593023760627,1
141,705,19,0.0694974359925351,1
141,706,19,0.0757230653910073,1
141,722,19,0.0944204925282576,1
141,723,19,0.195174526259034,1
141,724,19,0.272592979771712,3
141,725,19,0.214094048299828,1
141,726,19,0.104583513146408,1
142,696,19,0.0783489532315416,1
142,697,19,0.0871619202723441,1
142,698,19,0.0896575244955483,1
142,699,19,0.0762261945937336,1
142,722,19,0.0833318418791144,1
142,723,19,0.185495323805852,1
142,724,19,0.271837549225177,1
142,725,19,0.218074254438208,1
142,726,19,0.105221388349569,1
143,695,19,0.0765235450426841,1
143,696,19,0.0797012050566743,1
143,697,19,0.100236714748755,1
143,698,19,0.10595422546111,1
143,699,19,0.0811440821923768,1
143,723,19,0.115045040240273,1
143,724,19,0.170336913877659,1
143,725,19,0.146533196728106,1
144,694,19,0.074111516163722,1
144,695,19,0.073503967196345,1
144,696,19,0.0799907268684196,1
144,697,19,0.0990205805827563,1
144,698,19,0.0994615299210394,1
144,699,19,0.0715452086248557,1
144,724,19,0.083755690406976,1
144,725,19,0.083369954823672,1
145,693,19,0.0690549412920493,1
145,694,19,0.0688234604095454,1
145,695,19,0.0732684851434868,1
145,696,19,0.0816500265898135,1
145,697,19,0.0862350204088439,1
145,698,19,0.0736374014358403,1
146,695,19,0.0697614413586077,1
146,696,19,0.0762903271251462,1
146,697,19,0.0704284867707891,1
149,693,19,0.0686925059373055,1
150,692,19,0.0716983552170997,1
150,693,19,0.0712616885686419,1
151,691,19,0.0703087691182868,1
151,692,19,0.0738231863173966,1
151,693,19,0.0714891143728077,1
152,691,19,0.0688561705761695,1
152,692,19,0.0695867495421655,1
158,692,19,0.0682063577494811,1
136,708,20,0.0817749373780901,1
136,709,20,0.0822020203849806,1
137,703,20,0.0901682127955607,1
137,704,20,0.0905054491627587,1
137,705,20,0.0957428433917006,1
137,706,20,0.0966172847971723,1
137,707,20,0.0891683754299581,1
137,708,20,0.0893538248840595,1
137,709,20,0.0906165235685226,1
137,710,20,0.0847445724723121,1
137,711,20,0.0753176474038346,1
137,712,20,0.0702050202085458,1
138,701,20,0.0894992626346178,1
138,702,20,0.0997506384382421,1
138,703,20,0.103992609766478,1
138,704,20,0.103356016375377,1
138,705,20,0.108543497801081,1
138,706,20,0.110815168259516,1
138,707,20,0.0966800935880934,1
138,708,20,0.0925581933091423,1
138,709,20,0.0938517273603479,1
138,710,20,0.0872627461714071,1
138,711,20,0.0777531382353085,1
138,712,20,0.0747094754997558,1
138,713,20,0.0707674302241413,1
139,700,20,0.0826959013735946,1
139,701,20,0.0913690370941555,1
139,702,20,0.110356423296798,1
139,703,20,0.12220618878988,1
139,704,20,0.114738926749065,1
139,705,20,0.11617882097633,1
139,706,20,0.122962781352955,1
139,707,20,0.103541915062677,1
139,708,20,0.0896043652337302,1
139,709,20,0.0870344219008444,1
139,710,20,0.0795001522361463,1
139,711,20,0.0701195401155423,1
140,699,20,0.0750896286118469,1
140,700,20,0.0774018258945587,1
140,701,20,0.0871635674607385,1
140,702,20,0.109480107091444,1
140,703,20,0.121630319747659,1
140,704,20,0.105473258429508,1
140,705,20,0.101496718034027,1
140,706,20,0.110476829773538,1
140,707,20,0.094529386655565,1
140,708,20,0.0758093241548881,1
140,709,20,0.0689583441748279,1
140,724,20,0.202415302890513,3
140,725,20,0.160998349984431,1
141,697,20,0.0821991992004943,1
141,698,20,0.0819090424724952,1
141,699,20,0.0724559540625392,1
141,701,20,0.0714569732349017,1
141,702,20,0.0847316165868685,1
141,703,20,0.0900271475814674,1
141,704,20,0.0761453445975623,1
141,705,20,0.0698337080058004,1
141,706,20,0.0734984386331159,1
141,722,20,0.0979221395249791,1
141,723,20,0.236503309662697,3
141,724,20,0.35945347654744,3
141,725,20,0.277076926069968,3
141,726,20,0.127206956918752,1
142,696,20,0.0844252694943968,1
142,697,20,0.1170641098661,1
142,698,20,0.136883487931847,1
142,699,20,0.0998612097028237,1
142,722,20,0.0912957342157184,1
142,723,20,0.22513183976113,1
142,724,20,0.34880547574778,3
142,725,20,0.269844630961277,1
142,726,20,0.123018677942396,1
143,695,20,0.0789289492294129,1
143,696,20,0.0903959380885254,1
143,697,20,0.161180439174208,1
143,698,20,0.199866305804227,1
143,699,20,0.134095858170538,1
143,723,20,0.123957443552112,1
143,724,20,0.187162649827058,1
143,725,20,0.151481757969541,1
144,694,20,0.0753362875866828,1
144,695,20,0.0744063089783292,1
144,696,20,0.087210173907635,1
144,697,20,0.150769417871402,1
144,698,20,0.181281983606798,1
144,699,20,0.118501931630876,1
144,724,20,0.0756819755277879,1
144,725,20,0.0718860029189855,1
145,694,20,0.0696917742741901,1
145,695,20,0.0728413482286124,1
145,696,20,0.0835770573179393,1
145,697,20,0.106807493008494,1
145,698,20,0.106771662168584,1
145,699,20,0.0691841407599272,1
146,695,20,0.0711517342509862,1
146,696,20,0.0828282275045338,1
146,697,20,0.0836728937336114,1
147,696,20,0.0678233535040237,1
149,692,20,0.0687869048067425,1
149,693,20,0.0713635806478293,1
150,692,20,0.0736589825986945,1
150,693,20,0.0745841034987288,1
151,691,20,0.0713483486475134,1
151,692,20,0.0781126505793743,1
151,693,20,0.0770009541473544,1
152,691,20,0.0698567926024254,1
152,692,20,0.0745805875002288,1
152,693,20,0.0732747145105054,1
153,691,20,0.0678640480420285,1
153,692,20,0.0713902950486978,1
153,693,20,0.0702083864626463,1
154,692,20,0.0711493682894743,1
154,693,20,0.0679345716644112,1
155,692,20,0.069484024884117,1
157,692,20,0.0706297073050445,1
158,691,20,0.0700086094644019,1
158,692,20,0.0740151646273157,1
158,693,20,0.0713281032047027,1
159,692,20,0.072428263328186,1
159,693,20,0.069939601255342,1
137,704,21,0.0862105701432956,1
137,705,21,0.0895226227609379,1
137,706,21,0.0899922271875069,1
137,707,21,0.0879199264225502,1
137,708,21,0.0907995651326802,1
137,709,21,0.0926232063376238,1
137,710,21,0.0864578820037133,1
138,702,21,0.0874908009020507,1
138,703,21,0.0890059566644979,1
138,704,21,0.0913498877803491,1
138,705,21,0.0949537143655049,1
138,706,21,0.0964048154636273,1
138,707,21,0.0929690799617843,1
138,708,21,0.0940569370854057,1
138,709,21,0.0948625799239768,1
138,710,21,0.087305417335485,1
138,711,21,0.0746806107693105,1
138,712,21,0.0685252534226299,1
139,701,21,0.0861604956161069,1
139,702,21,0.0921791423158314,1
139,703,21,0.096393536715458,1
139,704,21,0.096579381494774,1
139,705,21,0.0994540127521851,1
139,706,21,0.103066254972592,1
139,707,21,0.0973208977917086,1
139,708,21,0.090010334280293,1
139,709,21,0.0843123202887513,1
139,710,21,0.0760994090055755,1
139,711,21,0.0682784087647386,1
140,699,21,0.0747765370316223,1
140,700,21,0.0763565980065834,1
140,701,21,0.0845128579885451,1
140,702,21,0.0947586093925246,1
140,703,21,0.100475994319584,1
140,704,21,0.0945974484800201,1
140,705,21,0.0930906364755123,1
140,706,21,0.0966644842318908,1
140,707,21,0.0907042737866223,1
140,708,21,0.0781186822837856,1
140,709,21,0.0683147667049342,1
140,724,21,0.193219966520507,3
140,725,21,0.158454683798768,1
141,698,21,0.0886419999066553,1
141,699,21,0.0747230183832454,1
141,701,21,0.07352644083582,1
141,702,21,0.084001468884743,1
141,703,21,0.0875748374590431,1
141,704,21,0.0787031286852097,1
141,705,21,0.0731564703428941,1
141,706,21,0.0726422780239336,1
141,707,21,0.0678123442957734,1
141,722,21,0.0966878743070907,1
141,723,21,0.221074173839783,3
141,724,21,0.347124984198971,3
141,725,21,0.274273040056651,3
141,726,21,0.135904027784127,1
142,697,21,0.140719807671648,1
142,698,21,0.181426085637313,1
142,699,21,0.119514766810354,1
142,722,21,0.0924985770688183,1
142,723,21,0.210538493319291,1
142,724,21,0.335747308889489,3
142,725,21,0.26699666019675,1
142,726,21,0.132726667258936,1
143,696,21,0.105045816036058,1
143,697,21,0.220662005375081,1
143,698,21,0.302146869882036,4
143,699,21,0.189469695902428,1
143,700,21,0.0697983743172973,1
143,723,21,0.113488632890655,1
143,724,21,0.173146777687404,1
143,725,21,0.145024647688565,1
144,695,21,0.0781350703108655,1
144,696,21,0.0978680458581082,1
144,697,21,0.198759395203215,1
144,698,21,0.269417200547379,1
144,699,21,0.167189813700716,1
144,724,21,0.0698908744277488,1
144,725,21,0.068756674407374,1
145,694,21,0.0730343867288798,1
145,695,21,0.0746402816076405,1
145,696,21,0.08576391853828,1
145,697,21,0.12333962211893,1
145,698,21,0.144294997137845,1
145,699,21,0.0916997925237437,1
146,695,21,0.0720058343772315,1
146,696,21,0.0838248303911075,1
146,697,21,0.0915935219183154,1
146,698,21,0.0780918301180695,1
147,696,21,0.07015704210295,1
147,697,21,0.0682279449021112,1
149,692,21,0.0685191558306827,1
149,693,21,0.0725720718596779,1
149,694,21,0.0698076824291695,1
150,692,21,0.0718736460111398,1
150,693,21,0.0748015862747686,1
151,692,21,0.0769413678559103,1
151,693,21,0.0785566726727348,1
151,694,21,0.067854266737854,1
152,692,21,0.0755182390116122,1
152,693,21,0.0772176402831889,1
152,694,21,0.0680442264932679,1
153,692,21,0.0738264926737373,1
153,693,21,0.0761488965347181,1
154,692,21,0.0724538816000503,1
154,693,21,0.0726212239613657,1
155,692,21,0.0712835153123112,1
155,693,21,0.0696953322011219,1
156,692,21,0.0701677398428494,1
156,693,21,0.0682399783620541,1
157,692,21,0.0740265272323488,1
157,693,21,0.0715108333005094,1
158,692,21,0.0779132988552244,1
158,693,21,0.0752651170684944,1
159,692,21,0.0760283582829066,1
159,693,21,0.0740572727524516,1
169,717,21,0.0731762665525063,1
170,716,21,0.0850083382473455,1
170,717,21,0.093395528052421,1
170,718,21,0.0696456470093719,1
137,705,22,0.0881864115558783,1
137,706,22,0.0896980992380334,1
137,707,22,0.0922648560100981,1
137,708,22,0.0959569000158801,1
137,709,22,0.0959052681469368,1
138,702,22,0.0822002114726348,1
138,703,22,0.08432322767081,1
138,704,22,0.0876213780184038,1
138,705,22,0.0913629694510883,1
138,706,22,0.0948407352109796,1
138,707,22,0.0981694633649488,1
138,708,22,0.0995832661280468,1
138,709,22,0.0968983071168026,1
138,710,22,0.0854297189875036,1
138,711,22,0.071618475564637,1
139,701,22,0.0834790406238107,1
139,702,22,0.0852365786610445,1
139,703,22,0.0866730107977931,1
139,704,22,0.0891753056007664,1
139,705,22,0.0936066796352504,1
139,706,22,0.0985333242863757,1
139,707,22,0.101565384825856,1
139,708,22,0.0965756498643388,1
139,709,22,0.086785265189425,1
139,710,22,0.0753360060672118,1
140,699,22,0.0763036064584927,1
140,700,22,0.0767128399329643,1
140,701,22,0.0825043123991142,1
140,702,22,0.0863510483593429,1
140,703,22,0.0884692427878545,1
140,704,22,0.0883096871353125,1
140,705,22,0.089969418120577,1
140,706,22,0.0927171799329663,1
140,707,22,0.0931633643354554,1
140,708,22,0.0842541056560065,1
140,709,22,0.0721647251646398,1
140,724,22,0.16044479884751,1
140,725,22,0.141473285551213,1
141,698,22,0.0935666619419314,1
141,699,22,0.0781403532932795,1
141,700,22,0.0696928823827463,1
141,701,22,0.074755291296223,1
141,702,22,0.0820482328867069,1
141,703,22,0.0844359971831761,1
141,704,22,0.0803062622772438,1
141,705,22,0.077539950128646,1
141,706,22,0.0755509551680123,1
141,707,22,0.0722938946836378,1
141,722,22,0.091106487243646,1
141,723,22,0.174409793829994,1
141,724,22,0.269548065172979,3
141,725,22,0.227966896568644,1
141,726,22,0.129768376800419,1
142,697,22,0.147904040817879,1
142,698,22,0.201306523479395,4
142,699,22,0.128972982468549,1
142,700,22,0.0709260814205104,1
142,702,22,0.0720060440193908,1
142,703,22,0.071237118507574,1
142,722,22,0.0871934504531002,1
142,723,22,0.166634836997112,1
142,724,22,0.262836784738089,1
142,725,22,0.225168521149228,1
142,726,22,0.12805437844478,1
143,696,22,0.114542917319912,1
143,697,22,0.247386708658351,4
143,698,22,0.358780297604655,4
143,699,22,0.223889464386565,4
143,700,22,0.0858170179023383,1
143,723,22,0.0968368939436848,1
143,724,22,0.144141395322627,1
143,725,22,0.132550663681554,1
144,695,22,0.0813339640807031,1
144,696,22,0.10506765475928,1
144,697,22,0.221485719367782,1
144,698,22,0.32379006285623,4
144,699,22,0.20300814695786,1
144,700,22,0.0795143120665618,1
144,724,22,0.0679991654085741,1
144,725,22,0.0718155332045867,1
145,695,22,0.0764638988534802,1
145,696,22,0.0858268411349447,1
145,697,22,0.131295841552504,1
145,698,22,0.173411621622114,1
145,699,22,0.114703634988994,1
146,694,22,0.0711969989880633,1
146,695,22,0.071697678372414,1
146,696,22,0.0792941219117793,1
146,697,22,0.0940132536491872,1
146,698,22,0.0932035078140701,1
146,699,22,0.0681065021941268,1
147,696,22,0.068986370336636,1
147,697,22,0.0721213112683403,1
148,694,22,0.0677735065883223,1
148,695,22,0.0687294149368912,1
149,693,22,0.0732571704566615,1
149,694,22,0.0741926896077962,1
149,695,22,0.0716331445260108,1
150,692,22,0.0719141488763132,1
150,693,22,0.0756590586448903,1
150,694,22,0.0724272510560454,1
151,692,22,0.0760911131658439,1
151,693,22,0.08015599077747,1
151,694,22,0.0730506369911122,1
152,692,22,0.0773532727704688,1
152,693,22,0.0824577718397535,1
152,694,22,0.0755280083362348,1
153,692,22,0.077807357687475,1
153,693,22,0.0834857371933558,1
153,694,22,0.0768629976269945,1
154,692,22,0.0750315816928295,1
154,693,22,0.0785146603840146,1
154,694,22,0.0703811316018951,1
155,692,22,0.0733992479428953,1
155,693,22,0.0747437190490306,1
156,692,22,0.0730142191531569,1
156,693,22,0.0731757454419961,1
157,692,22,0.0768644711118855,1
157,693,22,0.0749801414967176,1
158,693,22,0.0780702309858874,1
159,693,22,0.0776306712756316,1
169,716,22,0.0996022477281259,1
169,717,22,0.130482298199416,1
169,718,22,0.0858990658537055,1
170,715,22,0.0732194109088867,1
170,716,22,0.13991366768167,1
170,717,22,0.173362361704458,1
170,718,22,0.110958635373777,1
171,717,22,0.154651511479238,1
137,707,23,0.101859267194514,1
137,708,23,0.105637390270898,1
137,709,23,0.0992892819331968,1
138,703,23,0.0852353866956246,1
138,704,23,0.0888193451938565,1
138,705,23,0.0913867608412789,1
138,706,23,0.0984871251442458,1
138,707,23,0.112087193025179,1
138,708,23,0.114116972370457,1
138,709,23,0.101844436509189,1
138,710,23,0.0820363791200435,1
138,711,23,0.0693366524359173,1
139,701,23,0.0834060252546206,1
139,702,23,0.0863726834301808,1
139,703,23,0.0880721086608615,1
139,704,23,0.0899637098640685,1
139,705,23,0.09330465117126,1
139,706,23,0.102282432887914,1
139,707,23,0.115227908100928,1
139,708,23,0.111703643710107,1
139,709,23,0.0940433462837082,1
139,710,23,0.0757112176141198,1
139,711,23,0.0679076775702632,1
140,700,23,0.0778944849688728,1
140,701,23,0.082678548992582,1
140,702,23,0.0863139117482699,1
140,703,23,0.0877931827628239,1
140,704,23,0.0885229351397348,1
140,705,23,0.0906795719504829,1
140,706,23,0.0950895385256162,1
140,707,23,0.100238595538412,1
140,708,23,0.0930499539170595,1
140,709,23,0.0787528078871837,1
140,712,23,0.0704803762000995,1
140,713,23,0.0739349136087423,1
140,714,23,0.0698704013734508,1
141,698,23,0.0990719249424526,1
141,699,23,0.0848030266960961,1
141,700,23,0.075240672792722,1
141,701,23,0.077651887062151,1
141,702,23,0.082751887809675,1
141,703,23,0.0852634727551925,1
141,704,23,0.0838885616075294,1
141,705,23,0.0829879808196831,1
141,706,23,0.0820230219196092,1
141,707,23,0.0806618333487151,1
141,708,23,0.0737604973219951,1
141,712,23,0.0685831625767997,1
141,713,23,0.0730870009210838,1
141,721,23,0.0708650875317111,1
141,722,23,0.0853824896039052,1
141,724,23,0.18098743038323,1
141,725,23,0.168265050366349,1
142,697,23,0.148070748262941,1
142,698,23,0.196458782147247,1
142,699,23,0.134695494643846,1
142,700,23,0.0815074040339656,1
142,701,23,0.0714937145207599,1
142,702,23,0.0762856670794341,1
142,703,23,0.0767536482767127,1
142,704,23,0.0717371030779111,1
142,705,23,0.0683727117977599,1
142,721,23,0.0710067577131783,1
142,722,23,0.0823247568845766,1
142,723,23,0.121959469917285,1
142,724,23,0.176127326153461,1
142,725,23,0.165215343946833,1
143,696,23,0.122724280453003,1
143,697,23,0.242690197190134,1
143,698,23,0.34878755433805,4
143,699,23,0.231351766892869,1
143,700,23,0.102337682581549,1
143,723,23,0.0833540160297906,1
143,724,23,0.111910171185881,1
144,696,23,0.114073043353424,1
144,697,23,0.225170270163814,1
144,698,23,0.329597318382086,1
144,699,23,0.222947224706781,1
144,700,23,0.101342732873146,1
145,695,23,0.0818609565509317,1
145,696,23,0.0906029207872732,1
145,697,23,0.138476684485531,1
145,698,23,0.190281262629443,1
145,699,23,0.139210408083917,1
145,700,23,0.0818311693949857,1
146,694,23,0.0755187241834666,1
146,695,23,0.0748330385884369,1
146,696,23,0.0787694235257508,1
146,697,23,0.0973743325832217,1
146,698,23,0.108966364005682,1
146,699,23,0.0884169999617613,1
147,694,23,0.0697371228681309,1
147,695,23,0.069534878082183,1
147,696,23,0.0706642683124463,1
147,697,23,0.0763100694267746,1
147,698,23,0.0772461995350592,1
148,693,23,0.068042453519578,1
148,694,23,0.0694986698863869,1
148,695,23,0.0719975924454837,1
148,696,23,0.0684473324269125,1
149,693,23,0.0722754401838449,1
149,694,23,0.0747170345970419,1
149,695,23,0.0756949553723355,1
150,693,23,0.0736935256367683,1
150,694,23,0.0733724856238189,1
150,695,23,0.0691048481055105,1
151,692,23,0.0747992083337047,1
151,693,23,0.0785169245193349,1
151,694,23,0.0748771173498701,1
152,692,23,0.0785098146552472,1
152,693,23,0.0845098331516754,1
152,694,23,0.0796401033519074,1
153,692,23,0.0810219686294827,1
153,693,23,0.0878885699452975,1
153,694,23,0.0829285802112944,1
153,695,23,0.0687681687874786,1
154,692,23,0.0766255389480631,1
154,693,23,0.0814857150551438,1
154,694,23,0.0766408248563628,1
155,693,23,0.0769314308175603,1
155,694,23,0.0721004488786037,1
156,693,23,0.0751281548509471,1
156,694,23,0.0699197990559538,1
157,693,23,0.0755355075357611,1
157,694,23,0.0683335506424059,1
158,694,23,0.0683567670141024,1
159,694,23,0.0691394091129123,1
168,717,23,0.077036443570033,1
169,715,23,0.0690422489567487,1
169,716,23,0.141027310790883,1
169,717,23,0.189852825933181,1
169,718,23,0.108524246661083,1
170,715,23,0.0944149400059246,1
170,716,23,0.199857201344738,1
170,717,23,0.252047856489184,1
170,718,23,0.144497331770433,1
171,716,23,0.222472762571893,1
171,717,23,0.195252141776177,1
137,708,24,0.139138171385604,1
138,703,24,0.0875363651279268,1
138,704,24,0.0903845455346124,1
138,705,24,0.0889904790833669,1
138,706,24,0.110757570573697,1
138,707,24,0.163143264803588,1
138,708,24,0.175197161862052,1
138,709,24,0.126114146250395,1
138,710,24,0.0776519469599108,1
139,701,24,0.0843813404773631,1
139,702,24,0.0891351261834959,1
139,703,24,0.0927468592729447,1
139,704,24,0.0931094024436561,1
139,705,24,0.0918414627052109,1
139,706,24,0.110758828426653,1
139,707,24,0.152468968887379,1
139,708,24,0.157457410057284,1
139,709,24,0.114146849373043,1
139,710,24,0.0757302471324067,1
140,700,24,0.0801316842665452,1
140,701,24,0.0846973311091618,1
140,702,24,0.0898471068950755,1
140,703,24,0.0926778510638848,1
140,704,24,0.0923796440769693,1
140,705,24,0.0916220572110817,1
140,706,24,0.09760278263908,1
140,707,24,0.108772175468427,1
140,708,24,0.105306802555037,1
140,709,24,0.0868640606924354,1
140,710,24,0.0715419921151547,1
140,711,24,0.0680301265606122,1
140,712,24,0.074292383439199,1
140,713,24,0.0800058750118717,1
140,714,24,0.0742751867923619,1
141,699,24,0.0869557282240257,1
141,700,24,0.0795600619754933,1
141,701,24,0.0811929407950416,1
141,702,24,0.0853267727077439,1
141,703,24,0.0887680188034881,1
141,704,24,0.0884470566576264,1
141,705,24,0.087369142562131,1
141,706,24,0.0873298256726015,1
141,707,24,0.0863316474749452,1
141,708,24,0.0806777601630446,1
141,709,24,0.0748808190314254,1
141,710,24,0.0688759667857817,1
141,712,24,0.0752764736837515,1
141,713,24,0.0814740829101916,1
141,714,24,0.0723395846948094,1
141,721,24,0.0695917510051084,1
142,698,24,0.163803230300561,1
142,699,24,0.124880384173689,1
142,700,24,0.0870163207978343,1
142,701,24,0.0784161704975836,1
142,702,24,0.079619474563434,1
142,703,24,0.0813780128932563,1
142,704,24,0.0784083179012745,1
142,705,24,0.0748524274932826,1
142,706,24,0.0728009411998547,1
142,707,24,0.0690367982606074,1
142,721,24,0.0690887176387977,1
142,722,24,0.0767403509740382,1
143,697,24,0.202440004726652,1
143,698,24,0.276354870555191,1
143,699,24,0.199570434829944,1
143,700,24,0.106088959481993,1
143,701,24,0.0763436600904677,1
143,702,24,0.0711450257018891,1
143,703,24,0.0690769297596701,1
143,723,24,0.074813140552633,1
144,696,24,0.112200831055062,1
144,697,24,0.199098644135142,1
144,698,24,0.280456717064163,1
144,699,24,0.207499784128474,1
144,700,24,0.110718217745512,1
144,701,24,0.0731599623822901,1
145,695,24,0.0843726972306247,1
145,696,24,0.090714019152141,1
145,697,24,0.133753770084797,1
145,698,24,0.182544209098958,1
145,699,24,0.146776884774057,1
145,700,24,0.0945731299895433,1
146,695,24,0.0772700448332336,1
146,696,24,0.0781624915052997,1
146,697,24,0.0955171845714488,1
146,698,24,0.115132598785542,1
146,699,24,0.101690079982197,1
146,700,24,0.0761788993225995,1
147,694,24,0.0728211686733375,1
147,695,24,0.0737379817540882,1
147,696,24,0.0738800173118901,1
147,697,24,0.0784446399028142,1
147,698,24,0.0839188519046577,1
147,699,24,0.0753194682957324,1
148,694,24,0.071474996470824,1
148,695,24,0.0756096609623874,1
148,696,24,0.0744220501096033,1
148,697,24,0.0687808311738993,1
149,693,24,0.072381501147114,1
149,694,24,0.0756276422698778,1
149,695,24,0.0792459161946963,1
149,696,24,0.0735800972490444,1
150,693,24,0.0734944614218655,1
150,694,24,0.0756861563914216,1
150,695,24,0.0749977933665291,1
151,693,24,0.0783665991115773,1
151,694,24,0.0782062048903981,1
151,695,24,0.0719690032447335,1
152,693,24,0.0865855840275963,1
152,694,24,0.0845794343485572,1
152,695,24,0.0739575190232889,1
153,692,24,0.0843219099200945,1
153,693,24,0.0923063112496522,1
153,694,24,0.0896506063042919,1
153,695,24,0.0766047005174304,1
154,692,24,0.0795286875289127,1
154,693,24,0.0858218157128979,1
154,694,24,0.0843196338052223,1
154,695,24,0.0720571008698401,1
155,693,24,0.0802750016364068,1
155,694,24,0.080107491561364,1
155,695,24,0.069165794076102,1
156,693,24,0.0773011557296712,1
156,694,24,0.0765164231990445,1
157,694,24,0.0728165445662813,1
168,716,24,0.0693371196384437,1
168,717,24,0.0845963075474915,1
169,715,24,0.0774261563645874,1
169,716,24,0.16503272765677,1
169,717,24,0.216646363722007,1
169,718,24,0.114819381420022,1
170,715,24,0.109761279155474,1
170,716,24,0.239520359823573,1
170,717,24,0.294829016813253,1
170,718,24,0.15837911678501,1
171,716,24,0.230622930951683,1
171,717,24,0.209583603232639,1
137,707,25,0.163899725591591,1
137,708,25,0.179207053330186,1
138,704,25,0.0886181066902731,1
138,705,25,0.0857150719151671,1
138,706,25,0.130579224754316,1
138,707,25,0.236501177302448,1
138,708,25,0.261682698661462,1
138,709,25,0.156071399854731,1
139,702,25,0.0897932168805879,1
139,703,25,0.0942998404707025,1
139,704,25,0.0932817043394825,1
139,705,25,0.0889979243749094,1
139,706,25,0.118133464571721,1
139,707,25,0.194515159739658,1
139,708,25,0.210695353572643,1
139,709,25,0.131299710947787,1
139,710,25,0.0728193118427838,1
140,701,25,0.0868138424106232,1
140,702,25,0.0922405554889492,1
140,703,25,0.096516848233548,1
140,704,25,0.0953880989093145,1
140,705,25,0.0925897714081062,1
140,706,25,0.0981258997242499,1
140,707,25,0.114224153421834,1
140,708,25,0.114822807571882,1
140,709,25,0.0917236917299019,1
140,710,25,0.0738758544175844,1
140,711,25,0.0692617442975176,1
140,712,25,0.0738453904169526,1
140,713,25,0.078775790657617,1
140,714,25,0.0730215266798518,1
141,699,25,0.0856440751004821,1
141,700,25,0.0819802429395635,1
141,701,25,0.084373200371807,1
141,702,25,0.0881683104528683,1
141,703,25,0.0924494549160104,1
141,704,25,0.0923213575669127,1
141,705,25,0.0906143013616342,1
141,706,25,0.0897293179504386,1
141,707,25,0.0887056412764376,1
141,708,25,0.0844579796610209,1
141,709,25,0.0800115952479322,1
141,710,25,0.074448734561592,1
141,711,25,0.070593037896498,1
141,712,25,0.076880098437416,1
141,713,25,0.0825161961146575,1
141,714,25,0.0740839512146643,1
142,698,25,0.126956452507737,1
142,699,25,0.107423793038577,1
142,700,25,0.0887894082935109,1
142,701,25,0.0836234181840207,1
142,702,25,0.0826401305694494,1
142,703,25,0.0848806841416704,1
142,704,25,0.0838172533244934,1
142,705,25,0.0808568305057278,1
142,706,25,0.0792320378837518,1
142,707,25,0.0774325534453335,1
142,708,25,0.0737303268203864,1
142,709,25,0.0727662544071574,1
142,710,25,0.0686487027055674,1
142,713,25,0.0693882303968768,1
143,697,25,0.155840541908929,1
143,698,25,0.193499149978911,1
143,699,25,0.153374694892791,1
143,700,25,0.103105344250634,1
143,701,25,0.083161306967202,1
143,702,25,0.0757328227360779,1
143,703,25,0.0739780340060187,1
143,704,25,0.0705278391849611,1
143,705,25,0.067905982463661,1
143,706,25,0.0683360064505575,1
144,696,25,0.107215564466425,1
144,697,25,0.163111183563441,1
144,698,25,0.212159063149202,1
144,699,25,0.16993093884132,1
144,700,25,0.109825130167416,1
144,701,25,0.0810570387678427,1
144,702,25,0.0679484140366998,1
145,695,25,0.0857706869851368,1
145,696,25,0.0913273063249063,1
145,697,25,0.125275026553875,1
145,698,25,0.161494770638061,1
145,699,25,0.140938710024594,1
145,700,25,0.102488397324746,1
145,701,25,0.0767430104345731,1
146,695,25,0.0800291572711041,1
146,696,25,0.0802398296718552,1
146,697,25,0.0937860314974047,1
146,698,25,0.114103603190471,1
146,699,25,0.114258031594775,1
146,700,25,0.0965771892367655,1
146,701,25,0.0727336879951568,1
147,695,25,0.0784097075293018,1
147,696,25,0.0776678857537922,1
147,697,25,0.0811362355858437,1
147,698,25,0.0898917427056748,1
147,699,25,0.0963658938993125,1
147,700,25,0.0873052556115336,1
148,694,25,0.0751469088395389,1
148,695,25,0.0790874985995904,1
148,696,25,0.0785538035700407,1
148,697,25,0.0753746580916075,1
148,698,25,0.0745355503746389,1
148,699,25,0.076535554543523,1
148,700,25,0.0706557328816755,1
149,693,25,0.07356618898922,1
149,694,25,0.0775019270307281,1
149,695,25,0.0808626705373078,1
149,696,25,0.07735233237564,1
149,697,25,0.0683846913497189,1
150,693,25,0.0743212481696442,1
150,694,25,0.0775453349372516,1
150,695,25,0.0781059480200532,1
150,696,25,0.0715799792744167,1
151,693,25,0.0785719286321546,1
151,694,25,0.0793407103893479,1
151,695,25,0.07528511693049,1
152,693,25,0.0865789054273791,1
152,694,25,0.0849296385807509,1
152,695,25,0.0760442132199244,1
153,694,25,0.090233878709624,1
153,695,25,0.0785718627446189,1
154,693,25,0.0878048029282242,1
154,694,25,0.0862086054967743,1
154,695,25,0.0767026034058154,1
155,693,25,0.0814982037380611,1
155,694,25,0.0827485574942304,1
155,695,25,0.0764105059903989,1
156,693,25,0.0775351762771904,1
156,694,25,0.0792347153136146,1
156,695,25,0.0744631220034948,1
157,694,25,0.0746121596094168,1
157,695,25,0.0697254308254189,1
160,695,25,0.0680222200563192,1
168,716,25,0.0723523129687659,1
168,717,25,0.0834785913906123,1
169,715,25,0.0826903788001415,1
169,716,25,0.164207863627081,1
169,717,25,0.204104515553148,1
169,718,25,0.110677547166611,1
170,715,25,0.116804369220525,1
170,716,25,0.240680507553491,1
170,717,25,0.286059098292415,1
170,718,25,0.155612139771279,1
171,716,25,0.20522151293691,1
137,707,26,0.180066406489965,1
137,708,26,0.20181160534909,1
138,706,26,0.139880041079321,1
138,707,26,0.289141868275338,1
138,708,26,0.330594879632816,5
138,709,26,0.178882778838208,1
139,703,26,0.0936814320394746,1
139,704,26,0.0920255105517331,1
139,705,26,0.0830344075733002,1
139,706,26,0.114892420748316,1
139,707,26,0.217824792248214,1
139,708,26,0.249711077165853,1
139,709,26,0.141566007283376,1
139,710,26,0.0691593191282681,1
140,702,26,0.0930186693171186,1
140,703,26,0.0989400959629197,1
140,704,26,0.0971453733964052,1
140,705,26,0.0895547579090679,1
140,706,26,0.0938108052108559,1
140,707,26,0.116379945674169,1
140,708,26,0.124635594008959,1
140,709,26,0.0953410072905636,1
140,710,26,0.0735041828282802,1
140,711,26,0.0684266557202313,1
140,712,26,0.0711165622864345,1
140,713,26,0.0760557555182369,1
140,714,26,0.0712799513956034,1
141,700,26,0.0830487650663231,1
141,701,26,0.0852286481976477,1
141,702,26,0.0896159554502505,1
141,703,26,0.0944941248443736,1
141,704,26,0.0938604185252942,1
141,705,26,0.090108201230022,1
141,706,26,0.0892372818128263,1
141,707,26,0.0912397956978458,1
141,708,26,0.0909715615499317,1
141,709,26,0.0859393411073917,1
141,710,26,0.0777866390523619,1
141,711,26,0.0721876779861932,1
141,712,26,0.0752019129523587,1
141,713,26,0.0811094552974393,1
141,714,26,0.074655651372804,1
142,699,26,0.0966703482225747,1
142,700,26,0.0894519074657239,1
142,701,26,0.0853553080005102,1
142,702,26,0.0835193637957048,1
142,703,26,0.085242292907329,1
142,704,26,0.0847503585959083,1
142,705,26,0.0819922524404025,1
142,706,26,0.0829952464179463,1
142,707,26,0.0911940338093624,1
142,708,26,0.0960227516129988,1
142,709,26,0.0904081153030918,1
142,710,26,0.0764055644252158,1
142,711,26,0.0684521781556799,1
142,712,26,0.0677980646698383,1
142,713,26,0.0697973380860529,1
143,698,26,0.141813277215362,1
143,699,26,0.122945830286933,1
143,700,26,0.10200771780239,1
143,701,26,0.0875233253856194,1
143,702,26,0.0786324193797716,1
143,703,26,0.0758494616437268,1
143,704,26,0.0732404050736949,1
143,705,26,0.0702511774222438,1
143,706,26,0.0737845522623288,1
143,707,26,0.092921826619082,1
143,708,26,0.104764871583516,1
143,709,26,0.0948179800520334,1
143,710,26,0.0709885787430805,1
144,697,26,0.140193773565576,1
144,698,26,0.164871794355753,1
144,699,26,0.141533782288606,1
144,700,26,0.109733726185968,1
144,701,26,0.0865411518693803,1
144,702,26,0.0720721232279967,1
144,707,26,0.0878787646820191,1
144,708,26,0.0996444816385574,1
144,709,26,0.0868780767682274,1
145,696,26,0.0934901485435692,1
145,697,26,0.120485565742008,1
145,698,26,0.145158902527369,1
145,699,26,0.140577370798855,1
145,700,26,0.119935285022771,1
145,701,26,0.0893441454060766,1
145,708,26,0.0714455627116607,1
146,695,26,0.0823522200074427,1
146,696,26,0.0833157832897134,1
146,697,26,0.0930931701507516,1
146,698,26,0.114561329891273,1
146,699,26,0.148911892503743,1
146,700,26,0.155361455666985,1
146,701,26,0.108794936617149,1
147,695,26,0.0828220460557229,1
147,696,26,0.0813075791175134,1
147,697,26,0.0819982781550378,1
147,698,26,0.0972069243343706,1
147,699,26,0.147937607522469,1
147,700,26,0.165875477157534,1
147,701,26,0.112890290208959,1
148,694,26,0.0801025559859569,1
148,695,26,0.0833759565792035,1
148,696,26,0.0826823105718971,1
148,697,26,0.0803926168775403,1
148,698,26,0.0835064857773488,1
148,699,26,0.107807629862895,1
148,700,26,0.116523868011405,1
148,701,26,0.0803635065662799,1
149,694,26,0.0812561748600573,1
149,695,26,0.0830428651369833,1
149,696,26,0.0806940403741569,1
149,697,26,0.0765679292826922,1
149,698,26,0.0701379646664552,1
150,693,26,0.0771834027236901,1
150,694,26,0.081285470854373,1
150,695,26,0.0814552330851841,1
150,696,26,0.0765315174345128,1
150,697,26,0.0698885204457888,1
151,693,26,0.0802297908073135,1
151,694,26,0.08136699769523,1
151,695,26,0.0784363380733066,1
151,696,26,0.0714800099133188,1
152,694,26,0.0860696127451699,1
152,695,26,0.0782689897222153,1
152,696,26,0.0690023510589493,1
153,695,26,0.0809209330882605,1
153,696,26,0.0702604256363562,1
154,694,26,0.0898139954134608,1
154,695,26,0.0817734279545433,1
154,696,26,0.071540734262199,1
155,693,26,0.0842630663608718,1
155,694,26,0.0862645559941988,1
155,695,26,0.083486851291688,1
155,696,26,0.0733985830777616,1
156,693,26,0.0795662434243041,1
156,694,26,0.0825388254883081,1
156,695,26,0.0819971700464816,1
156,696,26,0.0732782963965412,1
157,694,26,0.076200648199181,1
157,695,26,0.0743027996596274,1
157,696,26,0.0696261203396788,1
158,694,26,0.072582254478843,1
158,695,26,0.068491309362154,1
159,695,26,0.0683204689716666,1
160,695,26,0.0702143283204179,1
168,716,26,0.0704546860509234,1
168,717,26,0.0767219384026772,1
169,715,26,0.0790422278727373,1
169,716,26,0.136741242731886,1
169,717,26,0.161560107114445,1
169,718,26,0.0969752278199314,1
170,715,26,0.109257814525293,1
170,716,26,0.200676542800974,1
137,707,27,0.187976145261939,1
137,708,27,0.212315851525241,5
138,706,27,0.150274111316105,1
138,707,27,0.309067960189936,5
138,708,27,0.360220431422959,5
138,709,27,0.199452663854635,5
139,706,27,0.121724275373673,1
139,707,27,0.231550723291805,1
139,708,27,0.274424533470724,5
139,709,27,0.158624865313897,1
139,710,27,0.0775183030782561,1
140,703,27,0.100989072540212,1
140,704,27,0.100999398914001,1
140,705,27,0.0933553426453745,1
140,706,27,0.0983772546834538,1
140,707,27,0.126164532245935,1
140,708,27,0.141862357439738,1
140,709,27,0.107038350954296,1
140,710,27,0.0781005931603275,1
140,711,27,0.068274772970719,1
140,712,27,0.0678439583333932,1
140,713,27,0.0708403856955716,1
141,702,27,0.0885994904665288,1
141,703,27,0.0946884152078208,1
141,704,27,0.095211729955598,1
141,705,27,0.0927439961600265,1
141,706,27,0.0938264624852664,1
141,707,27,0.0984232681425283,1
141,708,27,0.101533291606158,1
141,709,27,0.0940300130423778,1
141,710,27,0.0813823854297214,1
141,711,27,0.072202927955837,1
141,712,27,0.0706871971748958,1
141,713,27,0.0744868954243574,1
141,714,27,0.0703505298364159,1
142,700,27,0.0868675647113834,1
142,701,27,0.0851509128849857,1
142,702,27,0.0832328368719492,1
142,703,27,0.084691994218764,1
142,704,27,0.0851161003069928,1
142,705,27,0.0851658933147104,1
142,706,27,0.0898249686830553,1
142,707,27,0.105375289653587,1
142,708,27,0.120178098561428,1
142,709,27,0.107423805018129,1
142,710,27,0.0831503816158154,1
142,711,27,0.0716237106288431,1
143,699,27,0.103991483688594,1
143,700,27,0.0984559064318406,1
143,701,27,0.0892078360741111,1
143,702,27,0.0796465782997412,1
143,703,27,0.0763056669414297,1
143,704,27,0.0752714003434969,1
143,705,27,0.0738401373834186,1
143,706,27,0.0813464347942924,1
143,707,27,0.122853491900433,1
143,708,27,0.163188930855655,1
143,709,27,0.137060138405035,1
143,710,27,0.0851389632819066,1
144,698,27,0.132509382145503,1
144,699,27,0.121118816838113,1
144,700,27,0.107983369890134,1
144,701,27,0.0903801849776993,1
144,702,27,0.0754090573750578,1
144,703,27,0.0687497382467897,1
144,706,27,0.071243551526976,1
144,707,27,0.120135906579429,1
144,708,27,0.163839552302101,1
144,709,27,0.134018793712786,1
144,710,27,0.0759253041871793,1
145,697,27,0.115094695483143,1
145,698,27,0.131005804620024,1
145,699,27,0.142227338449273,1
145,700,27,0.144039161826209,1
145,701,27,0.104613797453761,1
145,702,27,0.069243798928683,1
145,707,27,0.0806765142896408,1
145,708,27,0.102081248292315,1
145,709,27,0.0840404144081617,1
146,696,27,0.0870563504707054,1
146,697,27,0.0923866461250893,1
146,698,27,0.117834886218695,1
146,699,27,0.198256613407495,1
146,700,27,0.24850154972276,1
146,701,27,0.161939451606779,1
146,702,27,0.0691550364384428,1
147,695,27,0.0875537115191634,1
147,696,27,0.0857082735194304,1
147,697,27,0.0826827118868877,1
147,698,27,0.108924567348897,1
147,699,27,0.222403233252323,1
147,700,27,0.292447913147673,6
147,701,27,0.187159678898173,1
148,695,27,0.087870013619313,1
148,696,27,0.0870203039988607,1
148,697,27,0.0832575387080887,1
148,698,27,0.0899517303121095,1
148,699,27,0.144516666767295,1
148,700,27,0.183334799630493,1
148,701,27,0.116684681516903,1
149,694,27,0.0844738525673665,1
149,695,27,0.0856909870259536,1
149,696,27,0.0836058441812968,1
149,697,27,0.0815223125863786,1
149,698,27,0.0754520040688309,1
149,699,27,0.0729284096224745,1
149,700,27,0.0715358705641037,1
150,694,27,0.0845632679431886,1
150,695,27,0.0841750825415089,1
150,696,27,0.0799982979452577,1
150,697,27,0.0753746940302634,1
151,694,27,0.0843466956130977,1
151,695,27,0.0820730066001581,1
151,696,27,0.0773697985623963,1
151,697,27,0.06996649534949,1
152,695,27,0.0820217460973255,1
152,696,27,0.076288620038992,1
152,697,27,0.0694992748537608,1
153,695,27,0.0845875984132173,1
153,696,27,0.0771893805201176,1
153,697,27,0.071862792537065,1
154,695,27,0.0862051553858101,1
154,696,27,0.0787460753789827,1
154,697,27,0.0729630844356198,1
155,694,27,0.0903103142408984,1
155,695,27,0.0882736825918997,1
155,696,27,0.0813240090730251,1
155,697,27,0.0733003387721458,1
156,693,27,0.0834692233809803,1
156,694,27,0.0862061137499668,1
156,695,27,0.0871811893816702,1
156,696,27,0.0805348021797418,1
156,697,27,0.0739448865857481,1
156,698,27,0.0715256340369547,1
157,693,27,0.0783062700879117,1
157,694,27,0.0787249194902231,1
157,695,27,0.0783611783643158,1
157,696,27,0.073917758890337,1
157,697,27,0.0768063223666764,1
157,698,27,0.0966422801323348,1
157,699,27,0.102237150181509,1
157,700,27,0.0747113323303094,1
158,694,27,0.07418806550074,1
158,695,27,0.0719538551012814,1
158,696,27,0.0678827900510684,1
158,697,27,0.0763516684209523,1
158,698,27,0.111080012194226,1
158,699,27,0.124367455697461,1
158,700,27,0.0892697883270671,1
159,694,27,0.0748122121373562,1
159,695,27,0.0715108752289412,1
159,697,27,0.0731034188970436,1
159,698,27,0.0965602681196234,1
159,699,27,0.105812435484123,1
159,700,27,0.0782878155881189,1
160,695,27,0.0737127887563184,1
160,696,27,0.0698952289948859,1
160,697,27,0.069569349242945,1
160,698,27,0.0730748716247253,1
160,699,27,0.0718083095347554,1
161,696,27,0.0730282531982768,1
161,697,27,0.0719327471307296,1
161,698,27,0.0689196442322243,1
162,696,27,0.0743743415439266,1
162,697,27,0.0742236747189381,1
162,698,27,0.0698674064854611,1
163,697,27,0.0742263701181289,1
163,698,27,0.069484030873893,1
164,698,27,0.0681994635173287,1
169,715,27,0.0697749962216493,1
169,716,27,0.0981925299922459,1
136,707,28,0.104495870744276,1
137,706,28,0.111111422579462,1
137,707,28,0.176838108909844,1
137,708,28,0.1978811742491,1
138,706,28,0.14254438927142,1
138,707,28,0.272676908512737,1
138,708,28,0.321753251513952,5
138,709,28,0.191798269232668,1
139,706,28,0.119586991529115,1
139,707,28,0.212434497007843,1
139,708,28,0.256006906738805,1
139,709,28,0.1603282497865,1
140,704,28,0.101857134834266,1
140,705,28,0.0952571025086428,1
140,706,28,0.098769069889377,1
140,707,28,0.125445819026154,1
140,708,28,0.143534439343072,1
140,709,28,0.111325365397898,1
140,710,28,0.0802729770921257,1
140,711,28,0.0689845494447382,1
140,712,28,0.0680164758611549,1
140,713,28,0.0683368929374024,1
141,703,28,0.0935975212677778,1
141,704,28,0.0952006548598119,1
141,705,28,0.0941969121602707,1
141,706,28,0.0961314540674748,1
141,707,28,0.101919440484005,1
141,708,28,0.106232857860124,1
141,709,28,0.0981649111352044,1
141,710,28,0.0829361213392526,1
141,711,28,0.073766085782984,1
141,712,28,0.0699107724635527,1
141,713,28,0.0693012768189824,1
142,701,28,0.0845220642742256,1
142,702,28,0.0822186000848919,1
142,703,28,0.0843802443483588,1
142,704,28,0.0859177419752096,1
142,705,28,0.0887604716857539,1
142,706,28,0.0956572075645216,1
142,707,28,0.117170799755847,1
142,708,28,0.141746239642599,1
142,709,28,0.122350458534123,1
142,710,28,0.088728594097991,1
142,711,28,0.0770440745446309,1
142,712,28,0.0708274777283358,1
143,699,28,0.0944333945057175,1
143,700,28,0.0955870972366815,1
143,701,28,0.0904792558724003,1
143,702,28,0.0800909777489885,1
143,703,28,0.0768928925989082,1
143,704,28,0.0778229370947977,1
143,705,28,0.0778427392941859,1
143,706,28,0.0879432805590943,1
143,707,28,0.150754647083837,1
143,708,28,0.22599101322763,1
143,709,28,0.18368744170151,1
143,710,28,0.100841029237103,1
143,711,28,0.071438464827125,1
144,698,28,0.111137478104973,1
144,699,28,0.108426421639786,1
144,700,28,0.106384818476724,1
144,701,28,0.0935749038736792,1
144,702,28,0.0774352728036282,1
144,703,28,0.0714427774658302,1
144,704,28,0.0717845061650129,1
144,705,28,0.0682158156057528,1
144,706,28,0.0754762926104278,1
144,707,28,0.150070255280419,1
144,708,28,0.2354912771132,1
144,709,28,0.189906458387301,1
144,710,28,0.0941292815996861,1
145,697,28,0.110174753391339,1
145,698,28,0.120150485694163,1
145,699,28,0.143935981945186,1
145,700,28,0.165091092033914,1
145,701,28,0.117489563653924,1
145,702,28,0.0734861536025819,1
145,707,28,0.0895955902119202,1
145,708,28,0.131684518115814,1
145,709,28,0.106426675031269,1
146,696,28,0.0920083498435518,1
146,697,28,0.0930374832034702,1
146,698,28,0.124518481909008,1
146,699,28,0.24053416534676,1
146,700,28,0.332528570991831,6
146,701,28,0.20668565377734,1
146,702,28,0.0804795405065549,1
147,696,28,0.0896069647965053,1
147,697,28,0.0828249151584171,1
147,698,28,0.122939481124395,1
147,699,28,0.291141782597583,6
147,700,28,0.414665817939369,6
147,701,28,0.255517637877695,6
147,702,28,0.0809451078241137,1
148,695,28,0.0917188400113585,1
148,696,28,0.090745585271553,1
148,697,28,0.0834306731827762,1
148,698,28,0.0947207240594542,1
148,699,28,0.176599955416899,1
148,700,28,0.248256328294159,6
148,701,28,0.149267170076191,1
149,694,28,0.0873443508793518,1
149,695,28,0.0893449959542657,1
149,696,28,0.087299870802928,1
149,697,28,0.0841201622855528,1
149,698,28,0.0777512933843068,1
149,699,28,0.0803742222755073,1
149,700,28,0.0860416584606736,1
150,694,28,0.0878214604952232,1
150,695,28,0.0869983394903439,1
150,696,28,0.0828119353138695,1
150,697,28,0.0792294383209767,1
150,698,28,0.0716046990798842,1
151,695,28,0.085279687078769,1
151,696,28,0.0816632939436081,1
151,697,28,0.0760647282026542,1
152,695,28,0.0852057912125099,1
152,696,28,0.0818013283310558,1
152,697,28,0.07624421183988,1
152,698,28,0.0677771304027899,1
153,696,28,0.0827550444216162,1
153,697,28,0.0773433237525669,1
153,698,28,0.0712837009953666,1
154,696,28,0.0830238955164562,1
154,697,28,0.0768000091427941,1
154,698,28,0.0721463844705905,1
155,695,28,0.0892480753891414,1
155,696,28,0.0851075349273421,1
155,697,28,0.0769677228702201,1
155,698,28,0.0705468986521279,1
156,693,28,0.0837706289082689,1
156,694,28,0.0855648123949453,1
156,695,28,0.0863292335952255,1
156,696,28,0.0825593883892457,1
156,697,28,0.0765535657998934,1
156,698,28,0.0821395410317384,1
156,699,28,0.0844236642344343,1
157,693,28,0.0780051041516623,1
157,694,28,0.0776671909397786,1
157,695,28,0.0782881390360217,1
157,696,28,0.0739719603731755,1
157,697,28,0.0843066300015708,1
157,698,28,0.149599914111404,1
157,699,28,0.191842054495078,1
157,700,28,0.125330288227062,1
158,694,28,0.0727962811541426,1
158,695,28,0.0720551302335428,1
158,697,28,0.0895487980819683,1
158,698,28,0.20019733676351,1
158,699,28,0.265796213254042,7
158,700,28,0.171116710832879,1
159,694,28,0.073344681083722,1
159,695,28,0.0712287567803066,1
159,697,28,0.0804333713133049,1
159,698,28,0.151718521834458,1
159,699,28,0.197065187067412,1
159,700,28,0.127697627387441,1
160,694,28,0.0768544262575678,1
160,695,28,0.0735983061680221,1
160,696,28,0.070219293844705,1
160,697,28,0.0719140350705696,1
160,698,28,0.0846597272955625,1
160,699,28,0.0908208048783036,1
161,695,28,0.0761692797423764,1
161,696,28,0.0753835409293851,1
161,697,28,0.0767500723804529,1
161,698,28,0.0745572094045808,1
162,696,28,0.0768160677321951,1
162,697,28,0.0796389233660394,1
162,698,28,0.0761038833682322,1
163,696,28,0.0773889898046346,1
163,697,28,0.0796631040916687,1
163,698,28,0.0747387295656396,1
164,697,28,0.0746557891376515,1
164,698,28,0.0707240043482898,1
165,698,28,0.0703154776673838,1
165,699,28,0.0677862528316067,1
166,705,28,0.0695745723275992,1
166,709,28,0.0779439545286875,1
166,710,28,0.0765936374011962,1
167,709,28,0.0898188710911081,1
167,710,28,0.0891433920743476,1
168,709,28,0.0781724285436497,1
168,710,28,0.0784067425901919,1
137,707,29,0.148953401651281,1
137,708,29,0.160138817131373,1
138,706,29,0.121335215464701,1
138,707,29,0.199104214626803,1
138,708,29,0.231571711466837,1
138,709,29,0.156042145788847,1
139,707,29,0.167156043343744,1
139,708,29,0.199214138995579,1
139,709,29,0.142939379058612,1
140,706,29,0.0960695796816065,1
140,707,29,0.114602910916122,1
140,708,29,0.129985110854461,1
140,709,29,0.109266188232112,1
140,710,29,0.0817947455672543,1
140,711,29,0.0701509984189867,1
140,712,29,0.0682312812073318,1
141,704,29,0.0940644842031399,1
141,705,29,0.094221356436043,1
141,706,29,0.0963716800229087,1
141,707,29,0.102359018163588,1
141,708,29,0.108965501477941,1
141,709,29,0.101968221219582,1
141,710,29,0.0851146088527739,1
141,711,29,0.0755126984688312,1
141,712,29,0.0706984040457534,1
142,702,29,0.0817166568578095,1
142,703,29,0.0836663349289138,1
142,704,29,0.0869269832891,1
142,705,29,0.0909685846312699,1
142,706,29,0.099818460671658,1
142,707,29,0.123884224530538,1
142,708,29,0.156719014433635,1
142,709,29,0.135322516372933,1
142,710,29,0.0967866397232168,1
142,711,29,0.0832225823754723,1
142,712,29,0.0759549296191739,1
143,701,29,0.0899013622858979,1
143,702,29,0.0819090125236153,1
143,703,29,0.078782217687243,1
143,704,29,0.0815511833065998,1
143,705,29,0.0826820949399618,1
143,706,29,0.0966836215661453,1
143,707,29,0.167715739990821,1
143,708,29,0.264795249810555,1
143,709,29,0.218473365191275,1
143,710,29,0.119779251358505,1
143,711,29,0.0822706272790499,1
143,712,29,0.0734414998226547,1
144,699,29,0.10103479849004,1
144,700,29,0.105513785253785,1
144,701,29,0.0968553424537017,1
144,702,29,0.0823175212351934,1
144,703,29,0.0759493052195291,1
144,704,29,0.0781651629453866,1
144,705,29,0.0752650931093905,1
144,706,29,0.0850038519051369,1
144,707,29,0.170292074414677,1
144,708,29,0.282782618954315,1
144,709,29,0.234705442463793,1
144,710,29,0.1170313937097,1
145,698,29,0.113241710365676,1
145,699,29,0.143700595728743,1
145,700,29,0.173096571385144,6
145,701,29,0.126185879807526,1
145,702,29,0.0819513961784463,1
145,703,29,0.0692285309897113,1
145,704,29,0.0721830119507052,1
145,707,29,0.0992131638600493,1
145,708,29,0.154239474789608,1
145,709,29,0.128982757782947,1
145,710,29,0.0765129850676322,1
146,697,29,0.0978459915029517,1
146,698,29,0.132723888002881,1
146,699,29,0.254799319983129,6
146,700,29,0.356596473200736,6
146,701,29,0.222911190214489,6
146,702,29,0.0942325573171247,1
146,708,29,0.0696472462795585,1
147,697,29,0.0883085251187725,1
147,698,29,0.138910404164207,1
147,699,29,0.319526252804772,6
147,700,29,0.458009178636875,6
147,701,29,0.282111979676546,6
147,702,29,0.0983277252258793,1
148,696,29,0.0924941745834734,1
148,697,29,0.0866544305127047,1
148,698,29,0.105443908527208,1
148,699,29,0.198658156009609,1
148,700,29,0.28261234160277,6
148,701,29,0.171186479743488,1
148,702,29,0.0707104974034561,1
149,695,29,0.0914249336835963,1
149,696,29,0.0896486596270986,1
149,697,29,0.0870111875598199,1
149,698,29,0.0841734712917704,1
149,699,29,0.0937977954174284,1
149,700,29,0.106622420910279,1
149,701,29,0.075023836912488,1
150,695,29,0.090441658048577,1
150,696,29,0.0858377365374514,1
150,697,29,0.0839508672572682,1
150,698,29,0.0765732841424179,1
151,696,29,0.0854730729860432,1
151,697,29,0.0820546778856608,1
151,698,29,0.0733995414419183,1
152,696,29,0.0875591322664249,1
152,697,29,0.0829169121276863,1
152,698,29,0.0728290212696466,1
153,696,29,0.0882187982745995,1
153,697,29,0.0818959188733241,1
153,698,29,0.0734164565692844,1
154,696,29,0.0880882511071262,1
154,697,29,0.0808477859439988,1
154,698,29,0.0741089944680346,1
155,696,29,0.0898638543087142,1
155,697,29,0.0814272907802397,1
155,698,29,0.072545159796202,1
156,695,29,0.0904760333729234,1
156,696,29,0.087043011239599,1
156,697,29,0.0818104926883044,1
156,698,29,0.0907556061667667,1
156,699,29,0.102342103036222,1
156,700,29,0.0754584490677848,1
157,694,29,0.0806828694419551,1
157,695,29,0.0830170671718396,1
157,696,29,0.0772553459229799,1
157,697,29,0.0924006562111054,1
157,698,29,0.191848954717006,1
157,699,29,0.276862060826031,7
157,700,29,0.169547317648937,1
157,701,29,0.0683044403311455,1
158,694,29,0.075457209184157,1
158,695,29,0.0760500412719524,1
158,696,29,0.0677648633415839,1
158,697,29,0.10421233870851,1
158,698,29,0.285470566863773,7
158,699,29,0.418103182660279,7
158,700,29,0.257837142687102,7
158,701,29,0.0788651880641111,1
159,695,29,0.0740598543458987,1
159,697,29,0.0870205675490038,1
159,698,29,0.199653848450234,1
159,699,29,0.292064256016634,7
159,700,29,0.177408515276373,1
160,695,29,0.0760619070181678,1
160,696,29,0.0729423897596106,1
160,697,29,0.0754611804056315,1
160,698,29,0.0964863303249324,1
160,699,29,0.114732745300254,1
160,700,29,0.0799359743261909,1
161,695,29,0.0789939622578945,1
161,696,29,0.0794512277459457,1
161,697,29,0.0816632400356243,1
161,698,29,0.0800905644544459,1
161,699,29,0.0723484495632591,1
162,696,29,0.0811378648049101,1
162,697,29,0.0857256977777548,1
162,698,29,0.0841709376165311,1
162,699,29,0.0727201690707711,1
163,697,29,0.0851894151649819,1
163,698,29,0.0815061461810099,1
163,699,29,0.0701317412892126,1
164,698,29,0.0757802677516116,1
164,699,29,0.0696849159806936,1
165,699,29,0.071053885270585,1
165,700,29,0.0699428537036989,1
165,701,29,0.068638591963714,1
165,705,29,0.0738406525041528,1
165,706,29,0.0762015885940098,1
165,709,29,0.0693376527285059,1
166,700,29,0.0710518247876481,1
166,701,29,0.0715925218653178,1
166,705,29,0.0817213408626255,1
166,706,29,0.0873889208024153,1
166,707,29,0.0738712003616483,1
166,708,29,0.0879823219189287,1
166,709,29,0.139113421631257,1
166,710,29,0.1403608643563,1
166,711,29,0.0833111711622092,1
167,701,29,0.0710328252182411,1
167,702,29,0.0685188803009877,1
167,705,29,0.0733727012557541,1
167,706,29,0.0767890358731996,1
167,707,29,0.0678173637280442,1
167,708,29,0.102809916519773,1
167,709,29,0.179616274825106,1
167,710,29,0.182666771895051,1
167,711,29,0.103869244340404,1
168,708,29,0.0801519836173398,1
168,709,29,0.130507479217634,1
168,710,29,0.133138045073208,1
168,711,29,0.0845127262134735,1
138,707,30,0.135855726230628,1
138,708,30,0.150594252862658,1
139,708,30,0.141002453220568,1
140,708,30,0.112831554465704,1
140,709,30,0.102487990019979,1
140,710,30,0.0825937038158323,1
140,711,30,0.0720922428855118,1
140,712,30,0.069203793214916,1
141,705,30,0.0928535072342598,1
141,706,30,0.0944024453332314,1
141,707,30,0.0996337060315702,1
141,708,30,0.108048538652791,1
141,709,30,0.101723598768579,1
141,710,30,0.0861279950916421,1
141,711,30,0.0778306339569313,1
141,712,30,0.0729907032926613,1
142,703,30,0.0838813019990422,1
142,704,30,0.0879199743407581,1
142,705,30,0.0915215547599216,1
142,706,30,0.0988065539074567,1
142,707,30,0.121138331528254,1
142,708,30,0.156068452884949,1
142,709,30,0.137744997410979,1
142,710,30,0.101291364554346,1
142,711,30,0.0883784497635572,1
142,712,30,0.0812928861970356,1
142,713,30,0.0680541216031861,1
143,702,30,0.0844223285143908,1
143,703,30,0.082184092985474,1
143,704,30,0.0853468684061551,1
143,705,30,0.0871809198417511,1
143,706,30,0.0997521658311169,1
143,707,30,0.16386853083829,1
143,708,30,0.256676372020482,1
143,709,30,0.22023522185699,1
143,710,30,0.128299480077861,1
143,711,30,0.0926720709300646,1
143,712,30,0.0826290434941114,1
144,700,30,0.104025757186749,1
144,701,30,0.0985691072080773,1
144,702,30,0.0869143748106632,1
144,703,30,0.0809306005866914,1
144,704,30,0.0830962879489445,1
144,705,30,0.0814487221986944,1
144,706,30,0.0904121104836701,1
144,707,30,0.168802285353503,1
144,708,30,0.278508314815342,1
144,709,30,0.240936750169894,1
144,710,30,0.128048843891775,1
144,711,30,0.0758986257249665,1
145,699,30,0.139606284357954,1
145,700,30,0.166872810796777,1
145,701,30,0.12881589460371,1
145,702,30,0.0895865396604152,1
145,703,30,0.0768660883513999,1
145,704,30,0.0787478543424486,1
145,705,30,0.0749577577038821,1
145,706,30,0.0736893747220145,1
145,707,30,0.105864965819463,1
145,708,30,0.161021302805985,1
145,709,30,0.140689954628166,1
145,710,30,0.0840703572982833,1
146,698,30,0.134466050285176,1
146,699,30,0.238562139421476,1
146,700,30,0.315359860469846,6
146,701,30,0.207462312089946,1
146,702,30,0.102409655729719,1
146,703,30,0.07050829454594,1
146,704,30,0.0698767086075573,1
146,707,30,0.0717183790381992,1
146,708,30,0.0810474671058275,1
146,709,30,0.0733491614361547,1
147,697,30,0.0942584091902522,1
147,698,30,0.146974271851685,1
147,699,30,0.297872110520088,6
147,700,30,0.402386825099596,6
147,701,30,0.255256220094845,6
147,702,30,0.106432616889041,1
148,696,30,0.0906793263696677,1
148,697,30,0.0902982628116277,1
148,698,30,0.115513596456046,1
148,699,30,0.201753121176426,1
148,700,30,0.267395267808634,6
148,701,30,0.169333901930788,1
148,702,30,0.0814934837945892,1
149,696,30,0.0904099601540935,1
149,697,30,0.088746138151835,1
149,698,30,0.0899856444237054,1
149,699,30,0.104440237704979,1
149,700,30,0.11798125238453,1
149,701,30,0.0852125656491427,1
150,696,30,0.0894649412182553,1
150,697,30,0.0873184810368964,1
150,698,30,0.0802099646488214,1
150,699,30,0.0725857045898072,1
151,696,30,0.0896871319582149,1
151,697,30,0.0851549679633238,1
151,698,30,0.0774916006569395,1
151,699,30,0.0697616809496469,1
152,696,30,0.0941497905926399,1
152,697,30,0.0869921161131011,1
152,698,30,0.0771851098098443,1
152,699,30,0.0694110274842548,1
153,697,30,0.0858671643068387,1
153,698,30,0.0765606097764453,1
153,699,30,0.0696819510415837,1
154,697,30,0.0861509119745397,1
154,698,30,0.0785419438136012,1
154,699,30,0.0732739418294041,1
155,697,30,0.0854177873537524,1
155,698,30,0.0763748967722008,1
155,699,30,0.0712440726374862,1
155,702,30,0.0677864804430939,1
156,696,30,0.0903483433285923,1
156,697,30,0.0859599698958651,1
156,698,30,0.097469797632783,1
156,699,30,0.117145223412415,1
156,700,30,0.0865928076974276,1
156,701,30,0.0703779330615221,1
156,702,30,0.0726181811551681,1
156,703,30,0.0684245712781904,1
157,694,30,0.0831139338289801,1
157,695,30,0.0866325498610516,1
157,696,30,0.0799200115732056,1
157,697,30,0.0972814910555394,1
157,698,30,0.205446704554635,1
157,699,30,0.318450369243334,7
157,700,30,0.196485173100213,1
157,701,30,0.0849444333274202,1
158,694,30,0.0783360692234097,1
158,695,30,0.0798216055436383,1
158,696,30,0.0704257135045106,1
158,697,30,0.114227016534753,1
158,698,30,0.322606123736121,7
158,699,30,0.505962893864907,7
158,700,30,0.318476340911981,7
158,701,30,0.108054145083108,1
158,703,30,0.0684112739755159,1
159,695,30,0.0759685443799753,1
159,696,30,0.068966771789631,1
159,697,30,0.0920696192620462,1
159,698,30,0.221465617679595,7
159,699,30,0.352084135364337,7
159,700,30,0.218660342038251,7
159,701,30,0.0864284123058941,1
159,703,30,0.0789640313473249,1
160,696,30,0.0743446502243962,1
160,697,30,0.0776016568007869,1
160,698,30,0.10488628434262,1
160,699,30,0.137914112745985,7
160,700,30,0.0959685800790401,1
160,703,30,0.0737527345723257,1
161,696,30,0.0806151310654029,1
161,697,30,0.0831102501167527,1
161,698,30,0.0828053525500681,1
161,699,30,0.078015412556123,1
162,697,30,0.0889809912782153,1
162,698,30,0.0888282220418581,1
162,699,30,0.0806781974166911,1
163,698,30,0.0844882939172531,1
163,699,30,0.0759967083066309,1
164,699,30,0.0727503156132759,1
164,700,30,0.0691074536580616,1
165,700,30,0.0731001664486867,1
165,701,30,0.0730897142896025,1
165,702,30,0.0678844671883426,1
165,705,30,0.0830099033997681,1
165,706,30,0.0933922157063043,1
165,707,30,0.080393892699824,1
165,708,30,0.0700875247629319,1
165,709,30,0.0855331624186696,1
165,710,30,0.087925239353844,1
166,701,30,0.0781194310057831,1
166,702,30,0.0736936334527359,1
166,704,30,0.0709740475465542,1
166,705,30,0.0939999683260646,1
166,706,30,0.109539166282602,1
166,707,30,0.0923272215575967,1
166,708,30,0.108535591296788,1
166,709,30,0.203681254023333,1
166,710,30,0.21879444114288,1
166,711,30,0.117835209666598,1
167,704,30,0.0677614132306197,1
167,705,30,0.081992965223744,1
167,706,30,0.0908166479737738,1
167,707,30,0.0782687621107281,1
167,708,30,0.133586655334969,1
167,709,30,0.284541624486664,1
167,710,30,0.306769299800938,8
167,711,30,0.159890888324029,1
168,708,30,0.0913985966386144,1
168,709,30,0.186810702570055,1
168,710,30,0.201940577205481,1
168,711,30,0.112203897820364,1
169,709,30,0.0736501716382287,1
169,710,30,0.0773277802839,1
141,708,31,0.101343547482679,1
141,709,31,0.0963025220694494,1
141,710,31,0.0833280084224876,1
141,711,31,0.0769001102789635,1
141,712,31,0.0732969006407335,1
142,705,31,0.0899815953351433,1
142,706,31,0.0935370365099367,1
142,707,31,0.108582179774357,1
142,708,31,0.134183692245502,1
142,709,31,0.123659344381164,1
142,710,31,0.0966634300313184,1
142,711,31,0.0861778240380156,1
142,712,31,0.0809720977546774,1
142,713,31,0.0708932574481427,1
143,703,31,0.0853898091101522,1
143,704,31,0.0876611082024759,1
143,705,31,0.0904342486956903,1
143,706,31,0.0979886979156634,1
143,707,31,0.13795744278542,1
143,708,31,0.198521157853406,1
143,709,31,0.179903676256154,1
143,710,31,0.118438703555636,1
143,711,31,0.0929889360691563,1
143,712,31,0.0846205661402085,1
143,713,31,0.0715412913113651,1
144,701,31,0.0962130348163156,1
144,702,31,0.0893610066254589,1
144,703,31,0.0848411156815498,1
144,704,31,0.0860066961382812,1
144,705,31,0.0868424196318214,1
144,706,31,0.0936766162595871,1
144,707,31,0.142986662350194,1
144,708,31,0.215246864543948,1
144,709,31,0.195372356580085,1
144,710,31,0.11985376417169,1
144,711,31,0.0815304107635028,1
144,712,31,0.0708827214321947,1
145,699,31,0.125341680780975,1
145,700,31,0.142860841115969,1
145,701,31,0.121020824103089,1
145,702,31,0.094504253555555,1
145,703,31,0.0838285680113187,1
145,704,31,0.0830246681975576,1
145,705,31,0.0808109847603807,1
145,706,31,0.0807555673530183,1
145,707,31,0.103299772378929,1
145,708,31,0.141676830118549,1
145,709,31,0.129782860078737,1
145,710,31,0.086812159283573,1
146,698,31,0.125112248401856,1
146,699,31,0.19109902278482,1
146,700,31,0.228469318977805,1
146,701,31,0.166015050917408,1
146,702,31,0.10326553481943,1
146,703,31,0.0807599219201554,1
146,704,31,0.0763589759476472,1
146,705,31,0.0717592832183632,1
146,706,31,0.0688968651141742,1
146,707,31,0.0752673272958308,1
146,708,31,0.0845890539287803,1
146,709,31,0.0792031671635306,1
147,698,31,0.140624378560742,1
147,699,31,0.234406864110767,1
147,700,31,0.282892950627858,6
147,701,31,0.191994302620925,1
147,702,31,0.1042575255785,1
147,703,31,0.0744652124353116,1
148,697,31,0.0945319802285641,1
148,698,31,0.12124770483764,1
148,699,31,0.182746843220345,1
148,700,31,0.213200972701284,1
148,701,31,0.145169192962502,1
148,702,31,0.0865349105228097,1
149,697,31,0.0915284430022981,1
149,698,31,0.0969471118114836,1
149,699,31,0.111060509483636,1
149,700,31,0.117629724411845,1
149,701,31,0.089186512471624,1
149,702,31,0.0698384039901683,1
150,696,31,0.0932130375476535,1
150,697,31,0.090117856748901,1
150,698,31,0.0845795241951969,1
150,699,31,0.0800404479988254,1
150,700,31,0.0756300262007177,1
151,696,31,0.0951349889457486,1
151,697,31,0.0882662612594611,1
151,698,31,0.0810774459346049,1
151,699,31,0.0759752529290723,1
151,700,31,0.071669610282174,1
152,697,31,0.089777403872002,1
152,698,31,0.0808382562104154,1
152,699,31,0.0765105352492566,1
152,700,31,0.0722400286282541,1
153,697,31,0.0900013915447556,1
153,698,31,0.0805037871197199,1
153,699,31,0.075699765162447,1
153,700,31,0.0716826859631373,1
154,697,31,0.0913578242335219,1
154,698,31,0.0833241450169808,1
154,699,31,0.0787335747165135,1
154,700,31,0.0750718569465157,1
154,701,31,0.0702629293627156,1
155,697,31,0.0921580822634875,1
155,698,31,0.0851303380044961,1
155,699,31,0.0812812899907393,1
155,700,31,0.0777046330294265,1
155,701,31,0.0767302582015127,1
155,702,31,0.0786234466953543,1
155,703,31,0.0754244091708933,1
156,696,31,0.0966450653781652,1
156,697,31,0.0942776064222666,1
156,698,31,0.106468303974327,1
156,699,31,0.125040598701589,1
156,700,31,0.0998766812941788,1
156,701,31,0.0840021337498767,1
156,702,31,0.0845556070197108,1
156,703,31,0.0804938740404738,1
157,695,31,0.0928188144517865,1
157,696,31,0.088498011681884,1
157,697,31,0.103619159213708,1
157,698,31,0.192082735673486,1
157,699,31,0.291431591918575,7
157,700,31,0.196237687536292,1
157,701,31,0.100101178097891,1
157,702,31,0.077322239741119,1
157,703,31,0.074569434537355,1
158,695,31,0.0860440783301693,1
158,696,31,0.0812284481870481,1
158,697,31,0.119353066818012,1
158,698,31,0.29367806937924,7
158,699,31,0.463494998824566,7
158,700,31,0.314740134287902,7
158,701,31,0.128675925518621,1
158,702,31,0.0795593971103596,1
158,703,31,0.0891664587016447,1
158,704,31,0.0742770915411234,1
159,696,31,0.0786284900867291,1
159,697,31,0.10030893347774,1
159,698,31,0.213572147139182,7
159,699,31,0.340103145859095,7
159,700,31,0.232609859439604,7
159,701,31,0.107607116122206,1
159,702,31,0.0894398440569011,1
159,703,31,0.112055351376072,1
159,704,31,0.0938551595019842,1
160,697,31,0.0859519196369487,1
160,698,31,0.113691758173672,1
160,699,31,0.151606740635129,7
160,700,31,0.114865311022232,1
160,701,31,0.0794273045806836,1
160,702,31,0.08327292644258,1
160,703,31,0.100280955234139,1
160,704,31,0.084182054640749,1
161,697,31,0.0869090498998174,1
161,698,31,0.0882247461221472,1
161,699,31,0.0875018879773887,1
161,700,31,0.0763450497184949,1
161,701,31,0.0695571780181547,1
161,702,31,0.0712474448813627,1
161,703,31,0.0724287544898163,1
162,698,31,0.0907816377331736,1
162,699,31,0.0865786179181321,1
162,700,31,0.0752470638836922,1
162,701,31,0.0696823523565743,1
163,699,31,0.0811819974743271,1
163,700,31,0.0735290344088192,1
163,701,31,0.0701056318557179,1
164,700,31,0.0726184566848631,1
164,701,31,0.0711613418516573,1
164,706,31,0.0715769484477711,1
164,707,31,0.0698297787127578,1
165,701,31,0.0749093183855359,1
165,702,31,0.0718043982110408,1
165,704,31,0.0691351204333109,1
165,705,31,0.086820047818538,1
165,706,31,0.101548266046107,1
165,707,31,0.0925951262678319,1
165,708,31,0.0832955019082468,1
165,709,31,0.102825358162249,1
165,710,31,0.111330732237176,1
165,711,31,0.081513399799721,1
166,703,31,0.069911545144654,1
166,704,31,0.0741257897998811,1
166,705,31,0.0986221466743757,1
166,706,31,0.119014560618306,1
166,707,31,0.10595991574829,1
166,708,31,0.126744869661037,1
166,709,31,0.242233943974223,1
166,710,31,0.27601565756192,8
166,711,31,0.150838731559037,1
166,712,31,0.0683593905359814,1
167,705,31,0.0862081622533518,1
167,706,31,0.0976257174913055,1
167,707,31,0.088295814814144,1
167,708,31,0.157782187690445,1
167,709,31,0.34715689772539,8
167,710,31,0.396579761246571,8
167,711,31,0.210541416329969,8
167,712,31,0.0747200175054797,1
168,708,31,0.104654599807733,1
168,709,31,0.221674612943072,1
168,710,31,0.255445353261174,8
168,711,31,0.141376251180345,1
142,708,32,0.107854433972399,1
142,709,32,0.103348061952876,1
142,710,32,0.087655226242464,1
142,711,32,0.0803858424409075,1
142,712,32,0.0778418947357728,1
142,713,32,0.0715156910088287,1
143,707,32,0.110164199406063,1
143,708,32,0.137531449917758,1
143,709,32,0.131534989348262,1
143,710,32,0.101771648751486,1
143,711,32,0.0868669896928893,1
143,712,32,0.081144333762968,1
143,713,32,0.0719249125037484,1
144,707,32,0.114572530772354,1
144,708,32,0.147009168286542,1
144,709,32,0.139597000205186,1
144,710,32,0.103367085481387,1
144,711,32,0.0811865616836235,1
144,712,32,0.0719600485296442,1
145,701,32,0.104823020328725,1
145,705,32,0.0839676206606828,1
145,706,32,0.0850302308785506,1
145,707,32,0.09480612628537,1
145,708,32,0.113992816293954,1
145,709,32,0.108435286508236,1
145,710,32,0.0841292068472819,1
145,711,32,0.0677527340452254,1
146,699,32,0.140793350141124,1
146,700,32,0.150009099667668,1
146,701,32,0.124528197325646,1
146,704,32,0.0795646561336696,1
146,705,32,0.0756270253229519,1
146,706,32,0.0728603897264512,1
146,707,32,0.0746633901633695,1
146,708,32,0.0804532693491088,1
146,709,32,0.0778056925297527,1
147,698,32,0.126685810469879,1
147,699,32,0.167626600144694,1
147,700,32,0.175831970299911,1
147,701,32,0.133336666044688,1
147,703,32,0.0800465276214446,1
148,698,32,0.120712111049105,1
148,699,32,0.152951481281183,1
148,700,32,0.154847664663015,1
148,701,32,0.11412127302961,1
148,702,32,0.084035071527988,1
148,703,32,0.0708992292547942,1
149,698,32,0.101615099966486,1
149,699,32,0.111751274408697,1
149,700,32,0.109050532337746,1
149,701,32,0.086338158361435,1
149,702,32,0.0719910036919062,1
150,697,32,0.0930622089987136,1
150,698,32,0.0887362130930369,1
150,699,32,0.0863762892753205,1
150,700,32,0.0828838126256236,1
150,701,32,0.0732483295473157,1
151,697,32,0.0932461550190441,1
151,698,32,0.085456187807557,1
151,700,32,0.0802204347772335,1
151,701,32,0.0719508063053078,1
152,697,32,0.0942707900572019,1
152,698,32,0.085007625464004,1
152,700,32,0.0816214613481673,1
152,701,32,0.0729724524452518,1
153,697,32,0.0947058334763692,1
153,699,32,0.0806836301435045,1
153,700,32,0.0801288870411628,1
153,701,32,0.07477719590698,1
154,697,32,0.0962578503201943,1
154,698,32,0.0866512080132277,1
154,699,32,0.0824534711806002,1
154,700,32,0.0814123642584988,1
154,701,32,0.07949323404489,1
154,702,32,0.0744373180485751,1
154,703,32,0.0700610799019823,1
155,696,32,0.104773628635998,1
155,697,32,0.0993942827061175,1
155,698,32,0.0931934030619926,1
155,699,32,0.0895321824434012,1
155,700,32,0.0858003064273555,1
155,701,32,0.0843012811316211,1
155,702,32,0.0841020971211987,1
155,703,32,0.081185525452379,1
155,704,32,0.0710274583789634,1
156,696,32,0.102874821732287,1
156,697,32,0.102258809211451,1
156,698,32,0.111145276793298,1
156,699,32,0.12191926654091,1
156,700,32,0.105078256662763,1
156,701,32,0.0915858250561817,1
156,702,32,0.0891130239101315,1
156,703,32,0.0851322727021375,1
156,704,32,0.0711137171428443,1
157,696,32,0.0978076569366829,1
157,697,32,0.108948598330127,1
157,698,32,0.163171919891874,1
157,699,32,0.223600661347937,1
157,700,32,0.171710968487357,1
157,701,32,0.106958339526762,1
157,702,32,0.0872528929899208,1
157,703,32,0.0819351878446457,1
157,704,32,0.0685530399933988,1
158,696,32,0.0934990253915708,1
158,697,32,0.120768474841072,1
158,698,32,0.22859189375345,1
158,699,32,0.339046645212727,7
158,700,32,0.257639360284258,1
158,701,32,0.133127766617627,1
158,702,32,0.0964543209620979,1
158,703,32,0.105676934771915,1
158,704,32,0.089975246172605,1
159,698,32,0.187590271913787,1
159,699,32,0.275958059876101,7
159,700,32,0.213726156259167,1
159,701,32,0.119486986229361,1
159,702,32,0.109878774601088,1
159,703,32,0.139117470719819,1
159,704,32,0.12008301685753,1
159,705,32,0.0728253255778672,1
160,699,32,0.150757282585268,1
160,701,32,0.0913263000425418,1
160,702,32,0.0968564385827059,1
160,703,32,0.119608638579505,1
160,704,32,0.103253076085393,1
160,705,32,0.0686268340334663,1
161,698,32,0.095829233930653,1
161,699,32,0.0974006097304438,1
162,699,32,0.0895981837849193,1
162,700,32,0.0814973052716641,1
163,700,32,0.0790696670364994,1
163,701,32,0.0748730862306359,1
164,706,32,0.0770763953758163,1
164,707,32,0.0773018565334608,1
164,708,32,0.0719738130348451,1
164,709,32,0.0681410632015285,1
165,704,32,0.0718346166308574,1
165,705,32,0.086784971690402,1
165,706,32,0.100366447306695,1
165,707,32,0.0957210705560151,1
165,708,32,0.0908009787198114,1
165,709,32,0.109346247577854,1
165,710,32,0.120423847090315,1
165,711,32,0.0920335787799775,1
166,705,32,0.0963870078596403,1
166,706,32,0.114436095655093,1
166,707,32,0.107390322170403,1
166,708,32,0.131576522454903,1
166,709,32,0.235267139696047,1
166,710,32,0.276415798556454,8
166,711,32,0.162545592976801,1
167,707,32,0.0923202374788046,1
167,708,32,0.161804825401864,1
167,709,32,0.33630153088132,8
167,710,32,0.39705410358594,8
167,711,32,0.222765494903563,8
168,710,32,0.262911177755755,8
144,711,33,0.0769101251844012,1
144,712,33,0.068219535256636,1
145,711,33,0.0684284227041452,1
146,709,33,0.074018285300601,1
147,699,33,0.124742092225875,1
154,704,33,0.0721457375747847,1
155,699,33,0.093757292552255,1
155,702,33,0.0851856835345467,1
155,703,33,0.08166743287881,1
155,704,33,0.074160590398322,1
156,699,33,0.113207987926912,1
156,700,33,0.104116801781637,1
156,701,33,0.0947134225225352,1
156,702,33,0.0896113313431943,1
156,703,33,0.0844679346686988,1
156,704,33,0.0748107386524653,1
157,699,33,0.154754152280423,1
157,700,33,0.137489042303823,1
157,701,33,0.10879512828998,1
157,702,33,0.0950362115500707,1
157,703,33,0.0880167032330511,1
157,704,33,0.0764095176773623,1
158,699,33,0.208295370133175,1
158,700,33,0.181474267395292,1
158,701,33,0.127128442935213,1
158,702,33,0.108011150471127,1
158,703,33,0.112747170501705,1
158,704,33,0.0966964516662934,1
159,701,33,0.121522755350619,1
159,703,33,0.144315985312878,1
159,704,33,0.126251527752261,1
164,707,33,0.0793441006025523,1
167,710,33,0.293669563897349,8
