x,y,z,signal,cytoplasm.p
625,573,1,0.0935345208040254,1
625,574,1,0.0960252313802543,1
626,572,1,0.0951710414073693,1
626,573,1,0.117949219062591,1
626,574,1,0.120806018756912,1
626,575,1,0.1038997921979,1
627,572,1,0.104040899340425,1
627,573,1,0.136767753480371,1
627,574,1,0.134718962586134,1
628,572,1,0.101167016805011,1
628,573,1,0.132191720366206,1
628,574,1,0.127668936360499,1
628,575,1,0.102276239459552,1
629,572,1,0.0926206307339526,1
629,573,1,0.11499004211723,1
629,574,1,0.113595682166961,1
629,575,1,0.102247752084993,1
630,573,1,0.100621515927006,1
630,574,1,0.102466378908245,1
630,575,1,0.102033821246109,1
630,576,1,0.092993410431813,1
631,574,1,0.0847864290268569,1
631,575,1,0.086692345794655,1
636,597,1,0.0830947365969658,1
636,598,1,0.0893637679121855,1
636,599,1,0.0964557465287811,1
637,596,1,0.118674700729229,1
637,597,1,0.13046642529307,1
637,598,1,0.139846690006667,1
637,599,1,0.132834375410599,1
637,600,1,0.110816593826199,1
638,595,1,0.116044374464694,1
638,596,1,0.1505012556008,1
638,597,1,0.17310932960798,1
638,598,1,0.188958720093168,1
638,599,1,0.168770886947818,1
638,600,1,0.124675054653112,1
638,601,1,0.0954128187147819,1
638,602,1,0.0841807548593615,1
639,595,1,0.112512275446892,1
639,596,1,0.142999851836901,1
639,597,1,0.167261846746646,1
639,598,1,0.182408959957341,1
639,599,1,0.16251892649414,1
639,600,1,0.122585868709669,1
639,601,1,0.0953790363782575,1
639,602,1,0.0812551506083648,1
640,583,1,0.0770778508913793,1
640,595,1,0.0972955790086432,1
640,596,1,0.12612517941775,1
640,597,1,0.15000678761414,1
640,598,1,0.151558187511039,1
640,599,1,0.131743122083997,1
640,600,1,0.108177582386494,1
640,601,1,0.0909709206439019,1
640,602,1,0.0765206340115581,1
641,583,1,0.0801629089687264,1
641,584,1,0.077090812766599,1
641,596,1,0.130613606068438,1
641,597,1,0.155633032109895,1
641,598,1,0.139581414808087,1
641,599,1,0.111698983664395,1
641,600,1,0.0961579408568561,1
641,601,1,0.0843973810974362,1
641,602,1,0.0708597506413133,1
642,583,1,0.0792407709771299,1
642,584,1,0.0786012665549022,1
642,597,1,0.145296583518034,1
642,598,1,0.123750736383059,1
642,599,1,0.0979374913208146,1
642,600,1,0.0871382247185692,1
642,601,1,0.0782415745175571,1
643,584,1,0.0829464477130412,1
643,598,1,0.0926162941361435,1
643,599,1,0.0818677968751003,1
643,600,1,0.0775239873756606,1
644,584,1,0.0868162562903429,1
645,597,1,0.0692652063880338,1
645,598,1,0.0734056390338654,1
646,597,1,0.0741030046920551,1
646,598,1,0.080942112936124,1
646,599,1,0.0745406656433254,1
647,585,1,0.145496019099048,1
647,597,1,0.0785991581537575,1
647,598,1,0.0862188540034752,1
647,599,1,0.075277497935444,1
648,590,1,0.0719492429737771,1
648,591,1,0.0713632512101504,1
648,597,1,0.0751979417308842,1
648,598,1,0.0796330174469236,1
648,599,1,0.0691811638412654,1
649,590,1,0.0744953709573684,1
649,591,1,0.0699496700687636,1
624,573,2,0.0788422472221096,1
624,574,2,0.0768798348872729,1
624,594,2,0.0810810038615367,1
624,595,2,0.0695621375526657,1
625,572,2,0.0890029378174042,1
625,573,2,0.096655056324499,1
625,574,2,0.0957136252644726,1
625,575,2,0.0893172333426007,1
625,594,2,0.145060179039675,1
625,595,2,0.11700992635259,1
626,571,2,0.0831190131590107,1
626,572,2,0.100951612481236,1
626,573,2,0.121122207051318,1
626,574,2,0.116640405092862,1
626,575,2,0.0985214166117284,1
626,576,2,0.0773833893640938,1
626,594,2,0.210385131095112,1
626,595,2,0.172463392166351,1
627,571,2,0.083315603596434,1
627,572,2,0.109283103359478,1
627,573,2,0.140943310172547,1
627,574,2,0.129556051221497,1
627,575,2,0.099315828620338,1
627,594,2,0.165996183123073,1
628,571,2,0.0778968629099367,1
628,572,2,0.107454005468618,1
628,573,2,0.146432879960002,1
628,574,2,0.135736685422812,1
628,575,2,0.103327409205299,1
628,576,2,0.0800836582427416,1
629,571,2,0.0711779994186563,1
629,572,2,0.10035954109499,1
629,573,2,0.138532533156764,1
629,574,2,0.138239968538821,1
629,575,2,0.122382168408158,1
629,576,2,0.0989089431380503,1
630,572,2,0.0895015207801621,1
630,573,2,0.117907458344462,1
630,574,2,0.130788495547488,1
630,575,2,0.142303145054069,1
630,576,2,0.125324022921387,1
630,577,2,0.0835456529224788,1
631,573,2,0.0863115278174301,1
631,574,2,0.0994157081347962,1
631,575,2,0.121104357518899,1
631,576,2,0.114386140923424,1
632,574,2,0.0698728212429466,1
632,575,2,0.0783945174574177,1
635,599,2,0.0704769560380152,1
635,600,2,0.0772593470933342,1
636,596,2,0.0800955659173888,1
636,597,2,0.0783295822960239,1
636,598,2,0.0786993371570146,1
636,599,2,0.087100297457067,1
636,600,2,0.0895842934944228,1
636,601,2,0.0786811881357967,1
637,595,2,0.0950108148999176,1
637,596,2,0.120290586554323,1
637,597,2,0.124053495599719,1
637,598,2,0.124474768523909,1
637,599,2,0.116455332994647,1
637,600,2,0.0973217423501217,1
637,601,2,0.0803834165816358,1
638,595,2,0.115313118654012,1
638,596,2,0.150336980004786,1
638,597,2,0.168116539860713,1
638,598,2,0.177651736119796,1
638,599,2,0.152528087976296,1
638,600,2,0.108700106483841,1
638,601,2,0.0837467117327828,1
638,602,2,0.0756888997088202,1
639,583,2,0.0714922829643008,1
639,595,2,0.106639336037645,1
639,596,2,0.134090778840508,1
639,597,2,0.156795384077374,1
639,598,2,0.169382706625469,1
639,599,2,0.144592665044923,1
639,600,2,0.106101190604543,1
639,601,2,0.0878368302603866,1
639,602,2,0.0793476046215003,1
640,582,2,0.0774640476874337,1
640,583,2,0.0821332996851678,1
640,584,2,0.0756252044310542,1
640,595,2,0.0881950248537369,1
640,596,2,0.111554258697179,1
640,597,2,0.134156941905977,1
640,598,2,0.134989580664888,1
640,599,2,0.115571158203209,1
640,600,2,0.0971451996929018,1
640,601,2,0.0882862611214567,1
640,602,2,0.0786037583017097,1
641,582,2,0.0796143652845235,1
641,583,2,0.0857225351760376,1
641,584,2,0.0817312299827676,1
641,595,2,0.0811800687664617,1
641,596,2,0.111398416705744,1
641,597,2,0.133572675197833,1
641,598,2,0.119198758209228,1
641,599,2,0.100300338149209,1
641,600,2,0.0923417108256911,1
641,601,2,0.0826004782524651,1
641,602,2,0.0698090900265246,1
642,582,2,0.0762708723327647,1
642,583,2,0.0826237006139377,1
642,584,2,0.0823280752204693,1
642,585,2,0.0698270653442391,1
642,596,2,0.105630298376138,1
642,597,2,0.122854078898479,1
642,598,2,0.104978323240321,1
642,599,2,0.0901763828499968,1
642,600,2,0.085516990023525,1
642,601,2,0.075059212529423,1
643,583,2,0.0808406101923753,1
643,584,2,0.088598861540051,1
643,585,2,0.0780605634874565,1
643,597,2,0.0891037098084834,1
643,598,2,0.0812326530097858,1
643,599,2,0.0759436868096603,1
643,600,2,0.0731844605660463,1
644,583,2,0.0801610760972766,1
644,584,2,0.0929014374216477,1
644,585,2,0.0852512895508502,1
644,598,2,0.070259886556518,1
644,599,2,0.0688951580280201,1
645,584,2,0.086360356471215,1
645,598,2,0.0709321370840256,1
646,585,2,0.137180257372528,1
646,597,2,0.0758620701221636,1
646,598,2,0.0857361319675111,1
646,599,2,0.0727927172374348,1
647,584,2,0.125555671517619,1
647,585,2,0.176903277672501,1
647,586,2,0.133457659519474,1
647,597,2,0.0910894343514323,1
647,598,2,0.106975446326959,1
647,599,2,0.0823379463712835,1
648,585,2,0.134287363288155,1
648,589,2,0.0686797776633491,1
648,590,2,0.0686476185561151,1
648,591,2,0.0717683457494202,1
648,597,2,0.0890233569637183,1
648,598,2,0.10177986672413,1
648,599,2,0.0777712273587666,1
649,589,2,0.0721441862228061,1
649,590,2,0.0691860574882406,1
649,591,2,0.0698500001964646,1
649,597,2,0.0717177680810492,1
649,598,2,0.0735415590303923,1
650,590,2,0.0751838298186765,1
650,591,2,0.069570828717612,1
650,595,2,0.0700464947974723,1
650,596,2,0.0687772852265194,1
651,595,2,0.0729388857406626,1
651,596,2,0.0710817796573216,1
652,595,2,0.0685958249632204,1
624,573,3,0.0765539970637639,1
624,574,3,0.075757919897432,1
624,594,3,0.0733869389532574,1
625,572,3,0.0861877311274857,1
625,573,3,0.0903128539059137,1
625,574,3,0.087632159615167,1
625,575,3,0.079536474237686,1
625,593,3,0.0957649636343929,1
625,594,3,0.119597377800664,1
625,595,3,0.092858987879281,1
626,571,3,0.0874460692550357,1
626,572,3,0.104335320788922,1
626,573,3,0.11535114175193,1
626,574,3,0.104579260405463,1
626,575,3,0.0861767818169952,1
626,576,3,0.0705845084555032,1
626,592,3,0.0719892367079923,1
626,593,3,0.130957515046078,1
626,594,3,0.170510102260331,1
626,595,3,0.133432478501256,1
626,596,3,0.0788105972458339,1
627,571,3,0.0890454053290989,1
627,572,3,0.111675875108667,1
627,573,3,0.131433498584065,1
627,574,3,0.115056911976265,1
627,575,3,0.0875816658036597,1
627,593,3,0.104636199215924,1
627,594,3,0.132571304449579,1
627,595,3,0.107727091335075,1
627,596,3,0.0708321976718076,1
628,572,3,0.107389711213254,1
628,573,3,0.140705623882128,1
628,574,3,0.13067917015631,1
628,575,3,0.0993841120665043,1
628,576,3,0.0757829631508023,1
628,593,3,0.0688326726850019,1
628,594,3,0.0798743934393457,1
628,595,3,0.0729403352664497,1
629,572,3,0.100588859668366,1
629,573,3,0.144107301517752,1
629,574,3,0.153322727596393,1
629,575,3,0.139370682509576,1
629,576,3,0.10783737509041,1
630,572,3,0.0869588908257428,1
630,573,3,0.122983781507539,1
630,574,3,0.152454868954723,1
630,575,3,0.17765126891727,1
630,576,3,0.154498508641618,1
630,577,3,0.09248813089951,1
631,573,3,0.0889908923779094,1
631,574,3,0.113982154492711,1
631,575,3,0.151182592618468,1
631,576,3,0.143235309930656,1
631,577,3,0.0909581264824097,1
631,591,3,0.0726459317872811,1
631,592,3,0.0698644714952311,1
632,574,3,0.0738129198413677,1
632,575,3,0.0871664545327606,1
632,576,3,0.0852885279881147,1
635,599,3,0.0684075902632885,1
635,600,3,0.0756326976408045,1
635,601,3,0.068707276724871,1
636,595,3,0.0699697657671748,1
636,596,3,0.0840975029630224,1
636,597,3,0.0802677599972476,1
636,598,3,0.074181943949689,1
636,599,3,0.0817224310018538,1
636,600,3,0.0855110721248572,1
636,601,3,0.0755962258948653,1
637,595,3,0.0921638384382038,1
637,596,3,0.117701434009871,1
637,597,3,0.118360644795072,1
637,598,3,0.109623574205705,1
637,599,3,0.102489140056967,1
637,600,3,0.089458592055717,1
637,601,3,0.0750526537247254,1
638,594,3,0.0708582531973185,1
638,595,3,0.105719677813304,1
638,596,3,0.13792955438846,1
638,597,3,0.155440832178265,1
638,598,3,0.156637433684794,1
638,599,3,0.132566704301627,1
638,600,3,0.098248881804661,1
638,601,3,0.079079723870369,1
638,602,3,0.0708529702149045,1
639,583,3,0.0771687697009722,1
639,594,3,0.0713925531942421,1
639,595,3,0.0960069805328447,1
639,596,3,0.122375951020691,1
639,597,3,0.149869370173618,1
639,598,3,0.157278339714601,1
639,599,3,0.128967004672121,1
639,600,3,0.096839757056603,1
639,601,3,0.0861077855874873,1
639,602,3,0.0801528341655288,1
640,582,3,0.0837941447687645,1
640,583,3,0.0890563067213816,1
640,584,3,0.081035607349388,1
640,595,3,0.0810262333499801,1
640,596,3,0.103011831868042,1
640,597,3,0.128412710802978,1
640,598,3,0.129440628238372,1
640,599,3,0.107864065532174,1
640,600,3,0.0927379764351671,1
640,601,3,0.0879896773638316,1
640,602,3,0.0819830761036019,1
641,582,3,0.0858710097430175,1
641,583,3,0.0946716138861983,1
641,584,3,0.0906953550101889,1
641,585,3,0.0687306069023112,1
641,595,3,0.0728526748949896,1
641,596,3,0.0937982865790588,1
641,597,3,0.111693473070494,1
641,598,3,0.105168630402742,1
641,599,3,0.095112096021955,1
641,600,3,0.0922139548938243,1
641,601,3,0.0807770347101289,1
641,602,3,0.0694149927159532,1
642,582,3,0.07862121849869,1
642,583,3,0.0901814681698033,1
642,584,3,0.0927344664264431,1
642,585,3,0.073435851463906,1
642,596,3,0.0834028746324554,1
642,597,3,0.0955482056212466,1
642,598,3,0.0887265995025898,1
642,599,3,0.0851958961025917,1
642,600,3,0.0850117524196539,1
642,601,3,0.0708475255085392,1
643,582,3,0.0686562558130776,1
643,583,3,0.0863036931904489,1
643,584,3,0.099277553951829,1
643,585,3,0.0846651600223759,1
643,597,3,0.075215827201959,1
643,598,3,0.0739064382137357,1
643,599,3,0.0716347857246292,1
643,600,3,0.0691159531501765,1
644,583,3,0.0867533396834542,1
644,584,3,0.104911848706501,1
644,585,3,0.09349168192622,1
644,586,3,0.0736241041331658,1
645,584,3,0.0910563647982495,1
645,585,3,0.094742119539253,1
646,584,3,0.103853706861514,1
646,585,3,0.147813427486862,1
646,586,3,0.110375997884699,1
646,597,3,0.0773837906790844,1
646,598,3,0.088068754386313,1
646,599,3,0.0686396461642864,1
647,584,3,0.130965158000228,1
647,585,3,0.199492364089827,1
647,586,3,0.148194425157366,1
647,597,3,0.102247560412162,1
647,598,3,0.124459698247545,1
647,599,3,0.0863753369009397,1
648,585,3,0.134981266855829,1
648,589,3,0.0683489383768972,1
648,590,3,0.0698827403119686,1
648,591,3,0.0780591259412214,1
648,592,3,0.0712802508844024,1
648,597,3,0.100601138709124,1
648,598,3,0.121869371707001,1
648,599,3,0.0849963347362826,1
649,589,3,0.0731875752495556,1
649,590,3,0.0731869822617337,1
649,591,3,0.0816703019815041,1
649,592,3,0.0753830437779788,1
649,595,3,0.0709659673387579,1
649,596,3,0.0705990696009094,1
649,597,3,0.0744711842419632,1
649,598,3,0.0795044049770917,1
650,590,3,0.0746533453090518,1
650,591,3,0.0746549026508065,1
650,592,3,0.0695706550141086,1
650,595,3,0.0798047982322398,1
650,596,3,0.0783184892309099,1
651,595,3,0.0803102514680462,1
651,596,3,0.0820752707354784,1
652,595,3,0.0736556942116817,1
652,596,3,0.0757110319310645,1
623,574,4,0.0741750317482086,1
624,573,4,0.0774713612039047,1
624,574,4,0.0759006622487996,1
624,575,4,0.0685704223232913,1
625,572,4,0.0861357099231037,1
625,573,4,0.0883482253539646,1
625,574,4,0.0829902389652274,1
625,575,4,0.0709742871375934,1
625,593,4,0.0761745926736702,1
625,594,4,0.0885681160199482,1
625,595,4,0.0691357134211329,1
626,572,4,0.106502397779202,1
626,573,4,0.109243391144734,1
626,574,4,0.0954161669995544,1
626,575,4,0.0762776228102936,1
626,593,4,0.0996859308883355,1
626,594,4,0.119908498744591,1
626,595,4,0.0926712443409795,1
627,572,4,0.112064479794665,1
627,573,4,0.116350296283071,1
627,574,4,0.100126622666251,1
627,575,4,0.0785174396400691,1
627,593,4,0.0792093246532375,1
627,594,4,0.092889967000647,1
627,595,4,0.0754389942754034,1
628,572,4,0.10177001953242,1
628,573,4,0.12004541304393,1
628,574,4,0.116861571581129,1
628,575,4,0.0960902863371677,1
628,576,4,0.0751814398980607,1
628,585,4,0.11751118674521,1
629,572,4,0.0943842483938056,1
629,573,4,0.130889459211399,1
629,574,4,0.154634692188288,1
629,575,4,0.152546428670345,1
629,576,4,0.118923887389528,1
630,573,4,0.115970316874483,1
630,574,4,0.16287831305291,1
630,575,4,0.200693374071477,1
630,576,4,0.17513912093281,1
630,577,4,0.0988080154127957,1
631,574,4,0.12174449685738,1
631,575,4,0.165211666224382,1
631,576,4,0.157173794164655,1
631,577,4,0.095520047684367,1
632,575,4,0.0878919661482779,1
632,576,4,0.0869665876878765,1
635,600,4,0.068750534886995,1
636,595,4,0.0693429896189036,1
636,596,4,0.0845227530984632,1
636,597,4,0.0781742015173396,1
636,599,4,0.0718146946359496,1
636,600,4,0.0753735559728273,1
636,601,4,0.0681639740946502,1
637,595,4,0.0813700704503075,1
637,596,4,0.104170625908589,1
637,597,4,0.102071161509565,1
637,598,4,0.0886498644825164,1
637,599,4,0.0826430595699034,1
637,600,4,0.076038163546185,1
638,595,4,0.0862354037545066,1
638,596,4,0.113630578601818,1
638,597,4,0.129617422466183,1
638,598,4,0.124453828267085,1
638,599,4,0.10275131255159,1
638,600,4,0.0809482824053829,1
638,601,4,0.0715501681593668,1
639,582,4,0.0786286877493364,1
639,583,4,0.0846106291018585,1
639,584,4,0.0709502681359156,1
639,595,4,0.0785266698848535,1
639,596,4,0.104820576500125,1
639,597,4,0.134260996294293,1
639,598,4,0.135547025156197,1
639,599,4,0.105398937289154,1
639,600,4,0.0820978402113691,1
639,601,4,0.0803738209605166,1
639,602,4,0.0760984087129869,1
640,582,4,0.0902885593745409,1
640,583,4,0.101536214616836,1
640,584,4,0.0884280690677714,1
640,595,4,0.0689289643236484,1
640,596,4,0.0903267022679784,1
640,597,4,0.116144044336993,1
640,598,4,0.116588365919152,1
640,599,4,0.0949739358492118,1
640,600,4,0.0834539374726806,1
640,601,4,0.0836582607108935,1
640,602,4,0.0792971108099931,1
641,582,4,0.0922647122554746,1
641,583,4,0.10857651344628,1
641,584,4,0.101403073876364,1
641,585,4,0.071099173966766,1
641,596,4,0.0736776826793025,1
641,597,4,0.0870329603955054,1
641,598,4,0.0874291661072216,1
641,599,4,0.0849647626270947,1
641,600,4,0.085624530461461,1
641,601,4,0.076271375473947,1
642,582,4,0.0794550791719005,1
642,583,4,0.0986733472794485,1
642,584,4,0.103446761481466,1
642,585,4,0.0787520531754103,1
642,597,4,0.0699216798456114,1
642,598,4,0.0716979958305409,1
642,599,4,0.0763332618393672,1
642,600,4,0.0792593872008742,1
643,583,4,0.0888251313174527,1
643,584,4,0.106985425293741,1
643,585,4,0.0901166108754973,1
643,586,4,0.0682967195099079,1
644,583,4,0.0908897172509477,1
644,584,4,0.115251064574864,1
644,585,4,0.101975408950757,1
644,586,4,0.0755658936693051,1
645,583,4,0.0770245239158338,1
645,584,4,0.099051655540538,1
645,585,4,0.10145668237138,1
645,586,4,0.0775834239227052,1
646,584,4,0.106166563019583,1
646,585,4,0.149584747998624,1
646,586,4,0.112581541216319,1
646,587,4,0.069732121405188,1
646,597,4,0.0773899900972232,1
646,598,4,0.0853915820838421,1
647,584,4,0.12804862825984,1
647,585,4,0.196468449645678,1
647,586,4,0.150858030617243,1
647,587,4,0.0827446880989477,1
647,597,4,0.105994045491821,1
647,598,4,0.127240343930062,1
647,599,4,0.0820034712908121,1
648,585,4,0.122090705908995,1
648,586,4,0.0968668787622382,1
648,588,4,0.0682453452013317,1
648,590,4,0.068155558459399,1
648,591,4,0.0797658527088211,1
648,592,4,0.0767925219228197,1
648,597,4,0.10258633016201,1
648,598,4,0.125324178655563,1
648,599,4,0.082464905662945,1
649,588,4,0.0770654580448777,1
649,589,4,0.0733398413447306,1
649,590,4,0.0745802880114298,1
649,591,4,0.0907313655433776,1
649,592,4,0.0885336568387381,1
649,595,4,0.0718535922411605,1
649,596,4,0.0709821457236785,1
649,597,4,0.0720543036444576,1
649,598,4,0.07777898411866,1
650,589,4,0.0734816792399252,1
650,590,4,0.0706974217224928,1
650,591,4,0.0760592954758407,1
650,592,4,0.0738561899830437,1
650,595,4,0.0838582413615211,1
650,596,4,0.0837815123312237,1
651,595,4,0.0818155480592311,1
651,596,4,0.0890717902922886,1
651,597,4,0.0690519883324914,1
652,595,4,0.0718603546982413,1
652,596,4,0.0791478336130319,1
623,573,5,0.0708886393308625,1
623,574,5,0.0727148920781331,1
624,572,5,0.0766275215639123,1
624,573,5,0.0793350919794791,1
624,574,5,0.077640464559358,1
624,575,5,0.0680666222656553,1
625,572,5,0.0830324129778991,1
625,573,5,0.0869967222508294,1
625,574,5,0.0826518585508173,1
625,575,5,0.0687950449122987,1
626,572,5,0.0964746322924444,1
626,573,5,0.0981743090937162,1
626,574,5,0.089114940638445,1
626,575,5,0.0724057118216231,1
626,586,5,0.0832458047369448,1
626,593,5,0.0723791771140339,1
626,594,5,0.080601366560202,1
627,572,5,0.101368896214624,1
627,573,5,0.0991504868441998,1
627,574,5,0.0895730027667015,1
627,575,5,0.0749023043578639,1
627,585,5,0.118569400467509,1
627,586,5,0.0789209768375842,1
628,573,5,0.100236103791605,1
628,574,5,0.1034919124128,1
628,575,5,0.0927256614557532,1
628,584,5,0.0921642397531944,1
628,585,5,0.116551984019853,1
628,586,5,0.0763956513459697,1
629,573,5,0.11017756858605,1
629,574,5,0.136920792256648,1
629,575,5,0.142846681285554,1
629,576,5,0.11294270074878,1
629,585,5,0.0727848646411257,1
630,573,5,0.101615782800948,1
630,574,5,0.146339068088611,1
630,575,5,0.181921835436032,1
630,576,5,0.159397151090039,1
630,577,5,0.0952259496837734,1
631,574,5,0.110956526972632,1
631,575,5,0.14526904252808,1
631,576,5,0.138042114258666,1
631,577,5,0.0893769214602365,1
632,575,5,0.0821194393435512,1
632,576,5,0.0807394788147374,1
636,596,5,0.0757324633495191,1
636,597,5,0.0704757041748355,1
637,596,5,0.0837252383858963,1
637,597,5,0.0824440792118643,1
637,598,5,0.0734005956424907,1
637,599,5,0.0692009959895335,1
638,595,5,0.068149694468715,1
638,596,5,0.0890204399428163,1
638,597,5,0.101307417153971,1
638,598,5,0.0957095701861344,1
638,599,5,0.0793617644519159,1
638,600,5,0.0684843312731379,1
639,582,5,0.0755992806806149,1
639,583,5,0.0847173968586931,1
639,584,5,0.0703306797188198,1
639,596,5,0.0889445734402599,1
639,597,5,0.113087210084061,1
639,598,5,0.111064678367718,1
639,599,5,0.0855278794362557,1
639,600,5,0.0709791388561368,1
639,601,5,0.0716559356236128,1
639,602,5,0.0680261074209299,1
640,582,5,0.0881389365914648,1
640,583,5,0.104387671430982,1
640,584,5,0.0870302769758666,1
640,596,5,0.0760942338391292,1
640,597,5,0.0965297562007838,1
640,598,5,0.0972050794833689,1
640,599,5,0.080525961270396,1
640,600,5,0.0731237961149259,1
640,601,5,0.0744298727570325,1
640,602,5,0.0708614996558993,1
641,582,5,0.0882759946454278,1
641,583,5,0.108662933934113,1
641,584,5,0.0979095550056462,1
641,585,5,0.071043660722988,1
641,597,5,0.067951558669089,1
641,598,5,0.0718161920799444,1
641,599,5,0.0723751160459198,1
641,600,5,0.0731607350633915,1
642,582,5,0.0749266947256524,1
642,583,5,0.0956806215988255,1
642,584,5,0.0999245695531349,1
642,585,5,0.0796123167811385,1
643,583,5,0.0848077945577758,1
643,584,5,0.103265295228391,1
643,585,5,0.0895806097821955,1
643,586,5,0.0694686790780575,1
644,583,5,0.0894234500400452,1
644,584,5,0.114179397815716,1
644,585,5,0.103073778131222,1
644,586,5,0.0779051946883242,1
645,583,5,0.0797245232545625,1
645,584,5,0.102685868259238,1
645,585,5,0.104438129303834,1
645,586,5,0.0826832809156058,1
646,583,5,0.072110320029418,1
646,584,5,0.105408508951169,1
646,585,5,0.137516559334673,1
646,586,5,0.109963026790016,1
646,587,5,0.0732609500053045,1
646,597,5,0.0690431114844898,1
646,598,5,0.0717953536493117,1
647,584,5,0.116608910850762,1
647,585,5,0.166905131627963,1
647,586,5,0.136974137201521,1
647,587,5,0.0835255512342916,1
647,597,5,0.0910979098844433,1
647,598,5,0.102690300693463,1
648,585,5,0.104737678000569,1
648,586,5,0.090134813804699,1
648,587,5,0.0701971137042528,1
648,588,5,0.0717078010938193,1
648,589,5,0.0703567472238826,1
648,590,5,0.0688918876103353,1
648,591,5,0.0742501076003357,1
648,592,5,0.0737455408513743,1
648,597,5,0.0873565999712299,1
648,598,5,0.101281433505772,1
648,599,5,0.0685068588205968,1
649,587,5,0.0681761932376483,1
649,588,5,0.0771560054883599,1
649,589,5,0.0751301434565722,1
649,590,5,0.0758821059228151,1
649,591,5,0.0892442898507223,1
649,592,5,0.0898843153834602,1
650,588,5,0.0712598137687603,1
650,589,5,0.0686510327284235,1
650,591,5,0.0712723084414536,1
650,592,5,0.0707333304294899,1
650,595,5,0.0762206300918487,1
650,596,5,0.0768056694810947,1
651,595,5,0.0744128258545949,1
651,596,5,0.0824327225966072,1
652,596,5,0.0726510590355196,1
623,573,6,0.0699880226043604,1
623,574,6,0.069523785017069,1
623,585,6,0.0901443495280584,1
623,586,6,0.0854037592984084,1
624,572,6,0.0783190882085078,1
624,573,6,0.0804982405871629,1
624,574,6,0.0796521128527463,1
624,575,6,0.0683617445179414,1
624,584,6,0.0911893617840984,1
624,585,6,0.154943932342557,1
624,586,6,0.149317076889652,1
624,587,6,0.0753841998047429,1
625,571,6,0.0787447156998354,1
625,572,6,0.0799038571473888,1
625,573,6,0.0876542918374112,1
625,574,6,0.0877497389176446,1
625,575,6,0.0724226389285412,1
625,584,6,0.078637876065689,1
625,585,6,0.126303938292082,1
625,586,6,0.122264924533135,1
626,572,6,0.0827632623942601,1
626,573,6,0.0888292343139986,1
626,574,6,0.0881080173678586,1
626,575,6,0.0740408967049236,1
626,584,6,0.0698809313996228,1
626,585,6,0.0894786877541282,1
626,586,6,0.0737999340070442,1
627,573,6,0.0848514660144424,1
627,574,6,0.082537106422602,1
627,584,6,0.0874933645261699,1
627,585,6,0.10671280662981,1
627,586,6,0.0746405331782317,1
628,584,6,0.0838378881027428,1
628,585,6,0.104288612515833,1
628,586,6,0.0728613600701599,1
629,574,6,0.10395525752347,1
629,575,6,0.11082326643664,1
630,574,6,0.108621161236432,1
630,575,6,0.135892180007239,1
630,576,6,0.12467027481188,1
630,577,6,0.084335776251487,1
631,575,6,0.111918305301661,1
631,576,6,0.110975969785462,1
631,577,6,0.0798955133894494,1
632,576,6,0.0752755812071306,1
637,596,6,0.0693482905706455,1
637,597,6,0.0711948007402788,1
638,596,6,0.0741329236230727,1
638,597,6,0.0831892492721464,1
638,598,6,0.0780901230319153,1
639,582,6,0.0716407874801607,1
639,583,6,0.0809617114831289,1
639,584,6,0.0683757426244055,1
639,596,6,0.0769349348365083,1
639,597,6,0.0931619088198924,1
639,598,6,0.0896206095061866,1
639,599,6,0.07223829159322,1
640,582,6,0.0856970546690208,1
640,583,6,0.103937803316266,1
640,584,6,0.0850687391483229,1
640,597,6,0.0780558615133126,1
640,598,6,0.0784507794231932,1
640,599,6,0.0684516690247217,1
641,582,6,0.0848544549126561,1
641,583,6,0.106180411381648,1
641,584,6,0.0931007651866936,1
641,585,6,0.0698098866667299,1
642,582,6,0.0715718930768444,1
642,583,6,0.0907670166900076,1
642,584,6,0.0933750190594672,1
642,585,6,0.0781041331179314,1
643,583,6,0.0795633982807139,1
643,584,6,0.0956545241448828,1
643,585,6,0.08681593284244,1
643,586,6,0.0705806390602204,1
644,583,6,0.0833411200421067,1
644,584,6,0.104366323869391,1
644,585,6,0.0982817417156846,1
644,586,6,0.079500829080832,1
645,583,6,0.0795370133175242,1
645,584,6,0.0989558730328498,1
645,585,6,0.100861322598121,1
645,586,6,0.0861215680620161,1
645,587,6,0.07229439782482,1
646,583,6,0.0750294313632529,1
646,584,6,0.0979167307572696,1
646,585,6,0.115947064564131,1
646,586,6,0.101258720275258,1
646,587,6,0.0771330826156863,1
647,584,6,0.0989232886515213,1
647,585,6,0.126950941913836,1
647,586,6,0.112750237267006,1
647,587,6,0.0819858793187603,1
647,588,6,0.0744538498302785,1
647,589,6,0.0735221042380109,1
647,597,6,0.07137798605906,1
647,598,6,0.0736818875020401,1
648,585,6,0.0880466820618285,1
648,586,6,0.081561042477862,1
648,587,6,0.0704665637766908,1
648,588,6,0.0803595772732374,1
648,589,6,0.0843583397376018,1
648,590,6,0.0736254218838813,1
648,597,6,0.0680695153274534,1
648,598,6,0.0722198610525311,1
649,588,6,0.0768554205603804,1
649,589,6,0.0799327937551458,1
649,590,6,0.0747648988968941,1
649,591,6,0.0775067128617357,1
649,592,6,0.0775996262667298,1
651,596,6,0.0686001915099094,1
623,585,7,0.0773682711695215,1
623,586,7,0.0743916699658353,1
624,573,7,0.0746782028793668,1
624,574,7,0.0748420591910621,1
624,584,7,0.0792075516795476,1
624,585,7,0.117356674484043,1
624,586,7,0.114043046555318,1
624,587,7,0.0679793512296339,1
625,572,7,0.0749762301730029,1
625,573,7,0.0814299143021187,1
625,574,7,0.0854116418435975,1
625,575,7,0.0708679506446293,1
625,584,7,0.0718848708513254,1
625,585,7,0.100932301443479,1
625,586,7,0.0987654101362535,1
626,573,7,0.0776430701119091,1
626,574,7,0.0816410119769644,1
626,575,7,0.0698338697297518,1
626,585,7,0.0775512827847992,1
626,586,7,0.067983124788501,1
627,574,7,0.0745239062501348,1
627,584,7,0.0792054852068346,1
627,585,7,0.0896827833808538,1
627,586,7,0.0685500211463051,1
628,584,7,0.0789855645919712,1
628,585,7,0.090281814886788,1
628,586,7,0.068109652816292,1
630,577,7,0.0747007244370497,1
631,576,7,0.0944520406783416,1
631,577,7,0.0769313110220407,1
638,597,7,0.070988734477256,1
639,582,7,0.0714224361866038,1
639,583,7,0.0792177522680406,1
639,584,7,0.0685824198445782,1
639,597,7,0.0754825219774464,1
639,598,7,0.0715503298833182,1
640,582,7,0.0881077118892836,1
640,583,7,0.106888091434074,1
640,584,7,0.087267148656752,1
641,582,7,0.088106442056776,1
641,583,7,0.110708861715432,1
641,584,7,0.0945517944075043,1
641,585,7,0.0696275998143457,1
642,582,7,0.0726730175542604,1
642,583,7,0.0911384247291687,1
642,584,7,0.0904510799661927,1
642,585,7,0.0768806195479262,1
643,583,7,0.077007512952052,1
643,584,7,0.0893145439331859,1
643,585,7,0.0844140805928671,1
643,586,7,0.0715391769204444,1
644,583,7,0.0779142572193812,1
644,584,7,0.093704402830356,1
644,585,7,0.0917606426579195,1
644,586,7,0.0795696216579566,1
645,583,7,0.0776782420764608,1
645,584,7,0.0925833563580322,1
645,585,7,0.0951697895441895,1
645,586,7,0.0873275375781774,1
645,587,7,0.0739398252250455,1
646,583,7,0.0748922355444424,1
646,584,7,0.0892143349810488,1
646,585,7,0.0977584868656672,1
646,586,7,0.0919426959090405,1
646,587,7,0.0769863570632924,1
647,583,7,0.0702981372659232,1
647,584,7,0.0838270765570998,1
647,585,7,0.0961521667128119,1
647,586,7,0.0903993043426259,1
647,587,7,0.0766341642254736,1
647,588,7,0.0776234476058003,1
647,589,7,0.0839906154106681,1
648,584,7,0.0686784419433057,1
648,585,7,0.0758111390570099,1
648,586,7,0.0721822272900519,1
648,587,7,0.0687080014877645,1
648,588,7,0.0872956839495184,1
648,589,7,0.102116288481795,1
648,590,7,0.0814729987607393,1
649,588,7,0.0752583066932057,1
649,589,7,0.0863332766940117,1
649,590,7,0.0743027816902994,1
649,591,7,0.0683866440166882,1
623,585,8,0.068196450660011,1
623,586,8,0.0678469771804869,1
624,584,8,0.068613458863704,1
624,585,8,0.0929357109198025,1
624,586,8,0.0935869193642941,1
625,573,8,0.0714491505874724,1
625,574,8,0.0765102118013537,1
625,585,8,0.0858131724661594,1
625,586,8,0.0860213531201031,1
626,574,8,0.0724134685815166,1
626,585,8,0.0704611430294294,1
627,584,8,0.070877366572469,1
627,585,8,0.0765494927522273,1
628,584,8,0.0736376170677756,1
628,585,8,0.0788887937712463,1
630,577,8,0.067863317289359,1
631,576,8,0.0870246405966699,1
631,577,8,0.0783347993909021,1
632,577,8,0.0707970796152398,1
639,582,8,0.0697074315486005,1
639,583,8,0.0759850581923508,1
640,582,8,0.0879135473111321,1
640,583,8,0.107194109088867,1
640,584,8,0.0853279586833878,1
641,582,8,0.0903182447042953,1
641,583,8,0.115083865968173,1
641,584,8,0.0941803085012555,1
641,585,8,0.0680970143889753,1
642,582,8,0.0716237226083951,1
642,583,8,0.0904879829760025,1
642,584,8,0.0852084746321487,1
642,585,8,0.0729509850881412,1
643,583,8,0.0743880102127118,1
643,584,8,0.081935385507253,1
643,585,8,0.0792213221745244,1
643,586,8,0.068636842949128,1
644,583,8,0.0736302676126488,1
644,584,8,0.0849340171069919,1
644,585,8,0.0856789236171308,1
644,586,8,0.0767165895327275,1
645,583,8,0.0753681591846698,1
645,584,8,0.0896097380627838,1
645,585,8,0.0952302084144948,1
645,586,8,0.0889442859310129,1
645,587,8,0.0726089808592636,1
646,583,8,0.073648320797451,1
646,584,8,0.0873597026751873,1
646,585,8,0.0952787675283606,1
646,586,8,0.090794360017354,1
646,587,8,0.0752407506598098,1
647,583,8,0.0682017995299607,1
647,584,8,0.0777727966800732,1
647,585,8,0.0851176875976274,1
647,586,8,0.0809190702679308,1
647,587,8,0.0717753118588843,1
647,588,8,0.0726284955494048,1
647,589,8,0.0830836674909557,1
648,585,8,0.0701169405527672,1
648,588,8,0.0838275617289541,1
648,589,8,0.104581057338257,1
648,590,8,0.0792425738996997,1
649,588,8,0.0677629945314783,1
649,589,8,0.083003799818045,1
649,590,8,0.0679116428019616,1
624,585,9,0.0747211375935879,1
624,586,9,0.0772398743316249,1
625,585,9,0.0721069537753175,1
625,586,9,0.073806396975326,1
631,577,9,0.0740574704150589,1
631,578,9,0.0683874107080136,1
632,577,9,0.072223688519382,1
632,580,9,0.0677699786102704,1
632,581,9,0.0702645406124541,1
633,580,9,0.0780795810261914,1
633,581,9,0.083279676920109,1
634,580,9,0.0753494171756299,1
634,581,9,0.080192522421169,1
635,581,9,0.0680920728237922,1
639,582,9,0.0704280315478147,1
639,583,9,0.0740011425617476,1
640,582,9,0.0867980413815893,1
640,583,9,0.103544310973068,1
640,584,9,0.0822645296871027,1
641,582,9,0.0899792233838554,1
641,583,9,0.113937650457183,1
641,584,9,0.0932182007345478,1
641,585,9,0.0691758748690755,1
642,582,9,0.0710186234593937,1
642,583,9,0.0896451975365824,1
642,584,9,0.0831223674335592,1
642,585,9,0.0727373717073842,1
643,583,9,0.0744193307513086,1
643,584,9,0.0787798097972993,1
643,585,9,0.0780865531254316,1
643,586,9,0.0697482518719008,1
644,583,9,0.0722739966478338,1
644,584,9,0.0811106233037553,1
644,585,9,0.0844641910587116,1
644,586,9,0.0765574471747281,1
645,583,9,0.0742055137181683,1
645,584,9,0.089709318088443,1
645,585,9,0.0981141477837781,1
645,586,9,0.0892514236739139,1
645,587,9,0.0700366715648659,1
646,583,9,0.0723930134965466,1
646,584,9,0.0890910414322867,1
646,585,9,0.0984123547706936,1
646,586,9,0.0903526919059534,1
646,587,9,0.0716718205095105,1
647,584,9,0.0766674494105917,1
647,585,9,0.0824968371586918,1
647,586,9,0.0766967454049074,1
647,589,9,0.0741961996165202,1
648,588,9,0.0752416790750866,1
648,589,9,0.0936132683888279,1
648,590,9,0.0734905680674788,1
649,589,9,0.0739794655624778,1
632,577,10,0.070021715094245,1
632,580,10,0.10061163279664,1
632,581,10,0.119290904922896,1
632,582,10,0.0796477642753852,1
633,577,10,0.06963276300124,1
633,579,10,0.0722264378265566,1
633,580,10,0.130575391297689,1
633,581,10,0.158181633870966,1
633,582,10,0.101726629595224,1
634,579,10,0.0706182788124756,1
634,580,10,0.109287631630119,1
634,581,10,0.126565571706867,1
634,582,10,0.0843487381267067,1
635,579,10,0.0694709791520336,1
635,580,10,0.0798952797881862,1
635,581,10,0.0791228023392136,1
636,580,10,0.0736948134386039,1
636,581,10,0.0694112191570861,1
639,582,10,0.0693816596126273,1
639,583,10,0.0684226605396529,1
640,582,10,0.0797474161783562,1
640,583,10,0.0901305610637535,1
640,584,10,0.0746789695706921,1
641,582,10,0.0815481105515223,1
641,583,10,0.100064340975617,1
641,584,10,0.0860628263289851,1
641,585,10,0.0679590339095115,1
642,582,10,0.067772727917445,1
642,583,10,0.0838066214721298,1
642,584,10,0.0795277531238598,1
642,585,10,0.0709780786657884,1
643,583,10,0.0723585543153365,1
643,584,10,0.0751251719425093,1
643,585,10,0.0751278194234922,1
643,586,10,0.0682668484970981,1
644,583,10,0.0698535281745166,1
644,584,10,0.0775268205396989,1
644,585,10,0.0812632068570572,1
644,586,10,0.0733149418459838,1
645,583,10,0.0719005580746157,1
645,584,10,0.0870799142494087,1
645,585,10,0.0948533137405365,1
645,586,10,0.0828295931734571,1
646,583,10,0.0700075492740535,1
646,584,10,0.086748733545726,1
646,585,10,0.0947720624293746,1
646,586,10,0.0829611586028469,1
647,584,10,0.0739159260188872,1
647,585,10,0.0777251300428283,1
647,586,10,0.070315411779848,1
648,589,10,0.0744067642013036,1
631,581,11,0.07268949542798,1
632,579,11,0.0729254686424685,1
632,580,11,0.127104555708606,1
632,581,11,0.163100114457431,1
632,582,11,0.0957290129989639,1
633,577,11,0.0685560827995964,1
633,579,11,0.087990420096053,1
633,580,11,0.177311217355362,1
633,581,11,0.227061170563232,1
633,582,11,0.131913291619575,1
634,579,11,0.0850741778649123,1
634,580,11,0.140293215826387,1
634,581,11,0.165360428300609,1
634,582,11,0.0939216460153566,1
635,579,11,0.0843082891695171,1
635,580,11,0.101012935807715,1
635,581,11,0.0937854624686866,1
636,579,11,0.0720485055413095,1
636,580,11,0.0808563153849936,1
636,581,11,0.0727154131886433,1
640,582,11,0.0687064740948897,1
640,583,11,0.073499858210023,1
641,582,11,0.0698107911229028,1
641,583,11,0.0821848476972474,1
641,584,11,0.0763820425749443,1
642,583,11,0.0773999510946771,1
642,584,11,0.07555629205841,1
642,585,11,0.0678261327600782,1
643,583,11,0.0701338676596853,1
643,584,11,0.0716791879339653,1
643,585,11,0.0704159801185439,1
644,583,11,0.0680927496684779,1
644,584,11,0.0742008357031283,1
644,585,11,0.0752235300538687,1
645,583,11,0.0707880110944068,1
645,584,11,0.0821194093946713,1
645,585,11,0.0843572495983735,1
645,586,11,0.0715556128657321,1
646,583,11,0.0690320902966875,1
646,584,11,0.0819989310406196,1
646,585,11,0.0839036977714296,1
646,586,11,0.0706739118517733,1
647,584,11,0.0715591228744561,1
647,585,11,0.0719872421125911,1
631,581,12,0.0739339492548096,1
632,579,12,0.0728380358824957,1
632,580,12,0.130582075887682,1
632,581,12,0.172651291438828,1
632,582,12,0.0945086680204519,1
633,579,12,0.0938604904026059,1
633,580,12,0.192920501680635,1
633,581,12,0.248472487329707,1
633,582,12,0.137609101373556,1
634,579,12,0.0936550770251648,1
634,580,12,0.158334445035755,1
634,581,12,0.177196093861035,1
634,582,12,0.0923006449215756,1
635,579,12,0.095643946200503,1
635,580,12,0.125174170705932,1
635,581,12,0.106330227658447,1
636,579,12,0.0731865569876391,1
636,580,12,0.0881167205123568,1
636,581,12,0.0742796431856906,1
642,583,12,0.0690627220110467,1
642,584,12,0.0694783166276085,1
644,584,12,0.0697081922501499,1
644,585,12,0.0688337029264704,1
645,583,12,0.0712542911953072,1
645,584,12,0.0775489647414952,1
645,585,12,0.0740345774912652,1
646,583,12,0.0707333424090419,1
646,584,12,0.0790168551816881,1
646,585,12,0.0737138729057707,1
647,584,12,0.0700932270296643,1
631,581,13,0.0711850134463283,1
632,579,13,0.0722643650880588,1
632,580,13,0.118031674318725,1
632,581,13,0.148952131818773,1
632,582,13,0.0868785559503057,1
633,579,13,0.0939669167422097,1
633,580,13,0.174575722604178,1
633,581,13,0.21201650648089,1
633,582,13,0.123215130614972,1
634,579,13,0.0967952290619714,1
634,580,13,0.15733832133126,1
634,581,13,0.160229310666871,1
634,582,13,0.087130096592565,1
635,579,13,0.0984689821128039,1
635,580,13,0.136372248572445,1
635,581,13,0.111223814735941,1
636,579,13,0.0693419234387793,1
636,580,13,0.088031623765016,1
636,581,13,0.0732454185161897,1
645,583,13,0.0686492777240615,1
645,584,13,0.0700905196509216,1
646,583,13,0.0689011597835515,1
646,584,13,0.0727037331254833,1
632,580,14,0.0957538825488308,1
632,581,14,0.109861691759995,1
632,582,14,0.0719141249172093,1
633,579,14,0.0851840063972724,1
633,580,14,0.135110322569083,1
633,581,14,0.149290793752654,1
633,582,14,0.0939361712221069,1
634,579,14,0.0911223481704397,1
634,580,14,0.136594660934116,1
634,581,14,0.128516501641151,1
634,582,14,0.0745827258502535,1
635,579,14,0.0898415603625185,1
635,580,14,0.123919180863155,1
635,581,14,0.103284402613766,1
636,580,14,0.0792048862292367,1
636,581,14,0.0689687364361523,1
632,580,15,0.0725481007762079,1
632,581,15,0.0725673878548619,1
633,579,15,0.0713122782165648,1
633,580,15,0.0949891798290796,1
633,581,15,0.0925794330547656,1
634,579,15,0.0777191342770729,1
634,580,15,0.10569525150686,1
634,581,15,0.0943891300612289,1
635,579,15,0.0744167731169654,1
635,580,15,0.0981810595712451,1
635,581,15,0.0861379021811122,1
633,580,16,0.0707115156653726,1
634,580,16,0.0800507683828381,1
634,581,16,0.0704988486692203,1
635,580,16,0.0750914854424005,1
635,581,16,0.0679843347232489,1
627,575,19,0.0741599015740844,1
628,575,19,0.0686355910859483,1
621,576,20,0.0710113878100104,1
621,577,20,0.0762019240214647,1
622,576,20,0.0745581138607537,1
622,577,20,0.0822543290986096,1
622,578,20,0.068917092587657,1
623,577,20,0.0715568527493599,1
627,575,20,0.072986127103813,1
628,575,20,0.0682170674689325,1
621,576,21,0.0734584029704689,1
621,577,21,0.0850085299201769,1
621,578,21,0.0713053899741884,1
622,576,21,0.084047638077993,1
622,577,21,0.103480999040965,1
622,578,21,0.085677995201854,1
623,576,21,0.0754927285557155,1
623,577,21,0.0921913075508458,1
623,578,21,0.0789554060699144,1
621,576,22,0.0701805699429975,1
621,577,22,0.085745224447448,1
621,578,22,0.0732026395361441,1
622,576,22,0.0860746800956486,1
622,577,22,0.116270811955823,1
622,578,22,0.0987061233336084,1
623,576,22,0.0778259978703232,1
623,577,22,0.106374875448598,1
623,578,22,0.0933488077997809,1
624,577,22,0.0698822551401143,1
621,577,23,0.0808479895963821,1
621,578,23,0.0744356349215248,1
622,576,23,0.0812302990278258,1
622,577,23,0.112838850012847,1
622,578,23,0.103292800279689,1
622,579,23,0.069538388090907,1
623,576,23,0.0758549243194201,1
623,577,23,0.108208741201139,1
623,578,23,0.101436556724089,1
624,577,23,0.0736969817375085,1
624,578,23,0.0701392824171707,1
643,581,23,0.0695790586698078,1
644,581,23,0.0765724755226607,1
644,582,23,0.0721952610425833,1
645,581,23,0.0724040286945729,1
645,582,23,0.0721970100571693,1
621,577,24,0.071617595067568,1
621,578,24,0.0697540739341529,1
622,576,24,0.0707374693646918,1
622,577,24,0.0939404179732764,1
622,578,24,0.0913919479872771,1
623,577,24,0.094561515813919,1
623,578,24,0.0937797062939704,1
624,577,24,0.0710973590646442,1
624,578,24,0.0702416956068683,1
642,581,24,0.0729702062792595,1
643,580,24,0.0797431514578588,1
643,581,24,0.111056747904321,1
643,582,24,0.0974039340561124,1
644,580,24,0.0795918257575126,1
644,581,24,0.118155914252092,1
644,582,24,0.108306769874819,1
645,581,24,0.0939958952783986,1
645,582,24,0.0948963682502772,1
646,581,24,0.0709059018652354,1
646,582,24,0.0840703692778352,1
646,583,24,0.069562065675354,1
647,582,24,0.0828955226376635,1
647,583,24,0.074373347241114,1
648,582,24,0.0708196850297864,1
622,577,25,0.0705994170079162,1
622,578,25,0.0720995743713107,1
623,577,25,0.0728640554693507,1
623,578,25,0.0751970492542633,1
642,581,25,0.0796652604110213,1
643,580,25,0.0894115842938299,1
643,581,25,0.14650405047819,1
643,582,25,0.133088030443779,1
644,580,25,0.0944422653639431,1
644,581,25,0.165296397595388,1
644,582,25,0.156623154058859,1
644,583,25,0.0829140969329759,1
645,580,25,0.0708118803516851,1
645,581,25,0.115415364129982,1
645,582,25,0.120598676671605,1
645,583,25,0.0758262332924783,1
646,581,25,0.0776089523479299,1
646,582,25,0.109950520137771,1
646,583,25,0.0952356291617562,1
647,581,25,0.0766932174268555,1
647,582,25,0.121361151194692,1
647,583,25,0.112610986955035,1
648,582,25,0.0889062568433191,1
648,583,25,0.0827127685827529,1
642,581,26,0.0738972618769351,1
643,580,26,0.0875291594274234,1
643,581,26,0.149939019288708,1
643,582,26,0.145334462861328,1
643,583,26,0.0702278951630115,1
644,580,26,0.101311394365221,1
644,581,26,0.189720260211202,1
644,582,26,0.191620959884122,1
644,583,26,0.0975317079573072,1
645,580,26,0.0716476218145533,1
645,581,26,0.124278136158054,1
645,582,26,0.137556139774345,1
645,583,26,0.0822614988604571,1
646,581,26,0.0782801486748651,1
646,582,26,0.125268006536427,1
646,583,26,0.112866594655184,1
647,581,26,0.0815561308615588,1
647,582,26,0.150034508297373,1
647,583,26,0.145543661777189,1
647,584,26,0.0715753371980326,1
648,582,26,0.0976484127524918,1
648,583,26,0.0933039024492625,1
643,580,27,0.0805909862784295,1
643,581,27,0.128668174748504,1
643,582,27,0.134641323109888,1
644,580,27,0.100814985691144,1
644,581,27,0.182769736144139,1
644,582,27,0.196864864999554,1
644,583,27,0.104227900146505,1
645,580,27,0.0728096683034568,1
645,581,27,0.122110304456,1
645,582,27,0.140569500233218,1
645,583,27,0.0859779751624595,1
646,581,27,0.0808115597788747,1
646,582,27,0.127481456372341,1
646,583,27,0.119718383255001,1
647,581,27,0.0859069963171024,1
647,582,27,0.159211096668563,1
647,583,27,0.162036473998095,1
647,584,27,0.0795316404884705,1
648,582,27,0.101438605227474,1
648,583,27,0.101884280499005,1
643,580,28,0.0705197529873888,1
643,581,28,0.0994103532750705,1
643,582,28,0.104370325039746,1
644,580,28,0.0902459900366546,1
644,581,28,0.148246955492706,1
644,582,28,0.161744580235062,1
644,583,28,0.0920933986726848,1
645,580,28,0.0701929987281549,1
645,581,28,0.107228957605516,1
645,582,28,0.122981577269979,1
645,583,28,0.0800130867021511,1
646,581,28,0.0792139128216378,1
646,582,28,0.115455136242486,1
646,583,28,0.109300258077884,1
647,581,28,0.0834869111894478,1
647,582,28,0.143809873201714,1
647,583,28,0.148215736780301,1
647,584,28,0.075230466214453,1
648,582,28,0.0962193899686299,1
648,583,28,0.0981710386760314,1
643,581,29,0.0730600409394,1
643,582,29,0.070782991662136,1
644,580,29,0.0725138991553649,1
644,581,29,0.103053484770204,1
644,582,29,0.107113318990455,1
645,581,29,0.080813536404948,1
645,582,29,0.0877852463096511,1
646,582,29,0.0850333036336281,1
646,583,29,0.0794258909935524,1
647,581,29,0.0683609598572881,1
647,582,29,0.103462742203779,1
647,583,29,0.10463837949438,1
648,582,29,0.0766523791342272,1
648,583,29,0.0762393780906645,1
639,575,44,0.067929636089004,1
