x,y,z,signal,cytoplasm.p
154,798,23,0.0815120940285575,1
154,799,23,0.0734411044974401,1
155,797,23,0.0724302339644832,1
155,798,23,0.0845181828993908,1
155,799,23,0.0779132808858965,1
157,817,23,0.0862955171462369,1
158,816,23,0.127862274349565,1
158,817,23,0.121371261936545,1
158,818,23,0.0769181874228697,1
159,817,23,0.105283813794828,1
159,818,23,0.0713908820467438,1
173,802,23,0.0812243392007262,1
174,801,23,0.0748716726435047,1
174,802,23,0.115820632372755,1
174,803,23,0.120313539375877,1
175,801,23,0.0772193054409112,1
175,802,23,0.119830943125208,1
175,803,23,0.119940639882497,1
175,804,23,0.093449573801084,1
176,802,23,0.0880357627002178,1
176,803,23,0.0928151247497831,1
176,804,23,0.0808502058134945,1
154,797,24,0.0767397160577844,1
154,798,24,0.0915966006631688,1
154,799,24,0.0788672245879441,1
155,794,24,0.107589901506041,1
155,795,24,0.0893875533126001,1
155,796,24,0.0704221136491469,1
155,797,24,0.0753480874453625,1
155,798,24,0.0881381040126036,1
155,799,24,0.0760139528716759,1
156,794,24,0.123657966732688,1
156,795,24,0.10442331059806,1
156,796,24,0.0702358495855123,1
157,794,24,0.110272314862493,1
157,795,24,0.0975254246823047,1
157,816,24,0.0715575236042696,1
157,817,24,0.0738249293422066,1
158,794,24,0.078318171772783,1
158,795,24,0.0715421718084341,1
158,816,24,0.0950622251471496,1
158,817,24,0.0987214930987718,1
158,818,24,0.0705316367029321,1
159,816,24,0.0825042045831466,1
159,817,24,0.0875359817822641,1
170,815,24,0.0739289178429868,1
170,816,24,0.0932679458240576,1
170,817,24,0.0777890229832017,1
171,815,24,0.0931252573806738,1
171,816,24,0.128113138147139,1
171,817,24,0.103716301400544,1
172,815,24,0.0757768835281831,1
172,816,24,0.104378219564487,1
172,817,24,0.085858604916964,1
173,802,24,0.0896163208265853,1
173,803,24,0.0956756740438664,1
173,804,24,0.0801600638251361,1
173,805,24,0.0728819409404255,1
173,806,24,0.0723467724259848,1
174,801,24,0.0842241028681252,1
174,802,24,0.152992834694546,1
174,803,24,0.159894122803058,1
174,804,24,0.108858188651493,1
174,805,24,0.0782112961999807,1
174,806,24,0.0761691958855127,1
175,801,24,0.0893839714265643,1
175,802,24,0.163902924131964,1
175,803,24,0.168650516409734,1
175,804,24,0.108770558228912,1
176,802,24,0.106487842623572,1
176,803,24,0.117701481928079,1
176,804,24,0.0947330869570759,1
177,803,24,0.0787088069928382,1
177,804,24,0.0809523015450651,1
178,807,24,0.0770867816473647,1
178,808,24,0.0939356561013727,1
178,809,24,0.0726259259355096,1
179,807,24,0.0849335439146895,1
179,808,24,0.107483091820774,1
179,809,24,0.0835399686250742,1
180,808,24,0.0696265456137733,1
154,794,25,0.118563075264075,1
154,795,25,0.0847745812499694,1
154,796,25,0.0743522512501142,1
154,797,25,0.0801872274592032,1
154,798,25,0.095420988769218,1
154,799,25,0.08653246669421,1
155,793,25,0.177922713585109,1
155,794,25,0.17167619184802,1
155,795,25,0.11013525680853,1
155,796,25,0.0780603119168654,1
155,797,25,0.078026823079364,1
155,798,25,0.0927169163828232,1
155,799,25,0.0844630350319475,1
156,793,25,0.173813415794819,1
156,794,25,0.200447086462752,1
156,795,25,0.134622694906592,1
156,796,25,0.0726260756799091,1
156,798,25,0.0679519000863199,1
157,793,25,0.141268722721961,1
157,794,25,0.19533991595338,1
157,795,25,0.146729074382188,1
157,796,25,0.0685755136328739,1
158,793,25,0.0973561476233479,1
158,794,25,0.135589073383573,1
158,795,25,0.10408685290174,1
158,817,25,0.0752096277838203,1
159,817,25,0.0696186091606005,1
171,816,25,0.0769961383674669,1
172,816,25,0.0723957328548413,1
173,802,25,0.0935244579803798,1
173,803,25,0.097437938014348,1
173,804,25,0.0714898810641331,1
174,801,25,0.0932766070401239,1
174,802,25,0.17453384209053,1
174,803,25,0.179694800788197,1
174,804,25,0.106126707050215,1
175,801,25,0.101115756302179,1
175,802,25,0.193072258644852,1
175,803,25,0.200318366176952,1
175,804,25,0.117328247007244,1
176,801,25,0.068571979665046,1
176,802,25,0.1174615914001,1
176,803,25,0.132512436931253,1
176,804,25,0.0994305687690014,1
177,803,25,0.0879307140090893,1
177,804,25,0.088411237797269,1
179,808,25,0.074072343028816,1
153,794,26,0.0712988910672506,1
154,793,26,0.182989249454236,1
154,794,26,0.149144104138916,1
154,795,26,0.090389918363666,1
154,796,26,0.0809986204827146,1
154,797,26,0.0833089309859928,1
154,798,26,0.0925000924821411,1
154,799,26,0.0905841428395774,1
155,792,26,0.179004562963423,1
155,793,26,0.289265497251555,2
155,794,26,0.24908358823424,1
155,795,26,0.129684052734179,1
155,796,26,0.0867095304619401,1
155,797,26,0.085003246937763,1
155,798,26,0.0979484586006331,1
155,799,26,0.0976301199766504,1
155,800,26,0.0722470306763741,1
156,792,26,0.144366646838112,1
156,793,26,0.265659095302319,2
156,794,26,0.281087895697779,2
156,795,26,0.156034694507529,1
156,796,26,0.0770823012949321,1
156,798,26,0.0727460269336746,1
156,799,26,0.0729824853200174,1
157,792,26,0.0935934901485436,1
157,793,26,0.210823486860396,1
157,794,26,0.290094362451599,2
157,795,26,0.189468306274401,1
157,796,26,0.0736223251696999,1
158,793,26,0.133794991723088,1
158,794,26,0.200089592673191,1
158,795,26,0.13473422453533,1
159,794,26,0.0830458121067652,1
173,802,26,0.0907182239748786,1
173,803,26,0.0881168702567563,1
174,801,26,0.0972894334984882,1
174,802,26,0.172285723431247,1
174,803,26,0.169426983049509,1
174,804,26,0.096763495228832,1
175,801,26,0.105600109905201,1
175,802,26,0.195196999898509,1
175,803,26,0.198558174668959,1
175,804,26,0.114509793858745,1
176,801,26,0.0705550806861159,1
176,802,26,0.119466345461336,1
176,803,26,0.133950462348412,1
176,804,26,0.0966592431779087,1
177,803,26,0.0884884220505409,1
177,804,26,0.085427850177398,1
153,793,27,0.0871688624227043,1
153,794,27,0.076246553842288,1
154,792,27,0.132763839808665,1
154,793,27,0.213703083642094,2
154,794,27,0.165774848921078,1
154,795,27,0.0939673060776484,1
154,796,27,0.0813210680930192,1
154,797,27,0.0793103542046838,1
154,798,27,0.0809117687310118,1
154,799,27,0.0820056755283725,1
155,791,27,0.0810456162650498,1
155,792,27,0.220075175042817,2
155,793,27,0.370862801833197,2
155,794,27,0.30339645694688,2
155,795,27,0.147141841824488,1
155,796,27,0.092583416255792,1
155,797,27,0.0878255095837853,1
155,798,27,0.0939194657369001,1
155,799,27,0.097051633402326,1
155,800,27,0.0753026010865741,1
156,791,27,0.0729999455169977,1
156,792,27,0.177870818166023,2
156,793,27,0.335104581967784,2
156,794,27,0.333810191378614,2
156,795,27,0.173795901689855,2
156,796,27,0.0870236942120651,1
156,797,27,0.0687280672372959,1
156,798,27,0.0746128843723103,1
156,799,27,0.0767431422096446,1
157,792,27,0.120402511508276,1
157,793,27,0.265731907019126,2
157,794,27,0.352849868325557,2
157,795,27,0.219397300115665,2
157,796,27,0.0859568252634759,1
158,792,27,0.0772933330822419,1
158,793,27,0.166448171618486,1
158,794,27,0.252141776176543,2
158,795,27,0.16574354635181,1
158,796,27,0.0692701958714247,1
159,793,27,0.0781547167760783,1
159,794,27,0.109842632292828,1
159,795,27,0.0787588815200269,1
173,802,27,0.077704201765556,1
173,803,27,0.0709685129935492,1
174,801,27,0.0896775303473198,1
174,802,27,0.137798042867054,1
174,803,27,0.130431816367461,1
174,804,27,0.0782119371060105,1
175,801,27,0.0974842329928936,1
175,802,27,0.159174487157777,1
175,803,27,0.158937399844956,1
175,804,27,0.0961617503543791,1
176,801,27,0.069105015819238,1
176,802,27,0.106133798944975,1
176,803,27,0.116679985532535,1
176,804,27,0.0843338355640697,1
177,803,27,0.0790315241430619,1
177,804,27,0.0725013925031197,1
150,807,28,0.068171922527375,1
151,806,28,0.0682944553745877,1
151,807,28,0.0731008253240445,1
151,808,28,0.0704209815814868,1
152,807,28,0.0692485787699147,1
153,792,28,0.074619682768047,1
153,793,28,0.0893825219007773,1
153,794,28,0.0789987480889021,1
154,791,28,0.0718351676902475,1
154,792,28,0.130115196809184,1
154,793,28,0.210193386386456,2
154,794,28,0.166983286224943,1
154,795,28,0.0941856573712052,1
154,796,28,0.0732926538895641,1
154,797,28,0.0700528319804586,1
154,798,28,0.0691052314511732,1
154,799,28,0.0685075416550585,1
155,790,28,0.083407660463463,1
155,791,28,0.0861251319787239,1
155,792,28,0.221150004403683,2
155,793,28,0.384848473522363,2
155,794,28,0.324560156374363,2
155,795,28,0.161274119270528,1
155,796,28,0.0912007663175634,1
155,797,28,0.0818626935859658,1
155,798,28,0.0826598848506298,1
155,799,28,0.0834216645597031,1
155,800,28,0.0703866421957963,1
156,790,28,0.0862791530782609,1
156,791,28,0.0820256035130563,1
156,792,28,0.193050383982975,2
156,793,28,0.370930150874311,2
156,794,28,0.368335835142964,2
156,795,28,0.196819702088668,2
156,796,28,0.0944615404630451,1
156,797,28,0.0700929395204173,1
156,798,28,0.0717432366085141,1
156,799,28,0.0724734202492954,1
157,789,28,0.0896957512458494,1
157,790,28,0.0815945552744674,1
157,791,28,0.0783799083938037,1
157,792,28,0.139315420836389,1
157,793,28,0.290610537386409,2
157,794,28,0.366711096428972,2
157,795,28,0.227898469367854,2
157,796,28,0.0946458877983663,1
158,790,28,0.0745264878435819,1
158,791,28,0.0719801801667113,1
158,792,28,0.0921052404597963,1
158,793,28,0.183608412597237,1
158,794,28,0.266076055587805,2
158,795,28,0.179639563074114,1
158,796,28,0.0794128272921411,1
159,793,28,0.0907903528572238,1
159,794,28,0.126619839077241,1
159,795,28,0.0925712450310016,1
174,801,28,0.0743668842728321,1
174,802,28,0.0947001970971725,1
174,803,28,0.0873333596404294,1
175,801,28,0.0813639788481364,1
175,802,28,0.111666674812762,1
175,803,28,0.110046069044196,1
175,804,28,0.0731315888134752,1
176,802,28,0.0850439354859917,1
176,803,28,0.0908823797753729,1
176,804,28,0.0683147307662783,1
150,806,29,0.0707906046674059,1
150,807,29,0.076084338729211,1
150,808,29,0.0715623393841571,1
151,805,29,0.067917968005396,1
151,806,29,0.0828412552672892,1
151,807,29,0.090183330990133,1
151,808,29,0.0803530663867477,1
152,806,29,0.0808511222492193,1
152,807,29,0.0857502977877026,1
152,808,29,0.0739728169111406,1
153,790,29,0.0862777095422498,1
153,791,29,0.0696345539442579,1
153,792,29,0.0740022746294078,1
153,793,29,0.0848505316093896,1
153,794,29,0.0776572958298605,1
154,790,29,0.0987391389788074,1
154,791,29,0.0779721843428789,1
154,792,29,0.115877559203665,1
154,793,29,0.171871817931511,1
154,794,29,0.145749925702819,1
154,795,29,0.0899907776617199,1
155,789,29,0.161226272940003,1
155,790,29,0.104776276116981,1
155,791,29,0.0905485096622753,1
155,792,29,0.184339596530607,1
155,793,29,0.310250845109472,2
155,794,29,0.278204800886909,2
155,795,29,0.150682961444914,1
155,796,29,0.0844866826675146,1
155,797,29,0.0714384947760049,1
155,798,29,0.0690567022861873,1
156,789,29,0.144641337964532,1
156,790,29,0.105513497744538,1
156,791,29,0.0942699395090128,1
156,792,29,0.181652978351416,2
156,793,29,0.330989486074346,2
156,794,29,0.334590227924872,2
156,795,29,0.190075202356196,2
156,796,29,0.0942213204973872,1
157,789,29,0.104707896834399,1
157,790,29,0.108246524708018,1
157,791,29,0.103499579326053,1
157,792,29,0.146093523212107,1
157,793,29,0.264617736809627,2
157,794,29,0.313125697988595,2
157,795,29,0.198668913647269,1
157,796,29,0.0936153228819889,1
158,789,29,0.0890259205878376,1
158,790,29,0.112050487677977,1
158,791,29,0.10454560984401,1
158,792,29,0.108541149808897,1
158,793,29,0.176664429365543,1
158,794,29,0.23291852457538,1
158,795,29,0.163360370223741,1
158,796,29,0.0824263973931728,1
159,790,29,0.0839455004179905,1
159,791,29,0.0780829892087238,1
159,792,29,0.073851122632565,1
159,793,29,0.0985529767413644,1
159,794,29,0.12703804523613,1
159,795,29,0.0963301529060428,1
175,802,29,0.0706339840050939,1
175,803,29,0.0681127135918176,1
150,806,30,0.0762057095598837,1
150,807,30,0.081649583346391,1
150,808,30,0.0729635216892663,1
151,805,30,0.0736738013044678,1
151,806,30,0.0980608986753203,1
151,807,30,0.105542907544597,1
151,808,30,0.0861951644394763,1
151,809,30,0.0678008439258928,1
152,805,30,0.0706717136039888,1
152,806,30,0.0944547240979805,1
152,807,30,0.100322212811086,1
152,808,30,0.0808330271359853,1
153,789,30,0.0983813636697757,1
153,790,30,0.0823314594438977,1
153,791,30,0.0699581156528947,1
153,792,30,0.0702685597521364,1
153,793,30,0.0770724421236698,1
153,794,30,0.072310779862124,1
153,806,30,0.0693260565222096,1
153,807,30,0.0730239525391235,1
154,789,30,0.152972014233241,1
154,790,30,0.111075507882689,1
154,791,30,0.0846052862216848,1
154,792,30,0.0949601054564751,1
154,793,30,0.122465474212481,1
154,794,30,0.110261425449763,1
154,795,30,0.0791645390982387,1
155,788,30,0.161277090199414,1
155,789,30,0.182178233786611,1
155,790,30,0.130421094668457,1
155,791,30,0.0989039057364516,1
155,792,30,0.133089264337631,1
155,793,30,0.20177950014984,1
155,794,30,0.192503709108878,1
155,795,30,0.120364045166936,1
155,796,30,0.0733322163599087,1
156,788,30,0.1341690053148,1
156,789,30,0.156988254863914,1
156,790,30,0.129141906130723,1
156,791,30,0.105433929560426,1
156,792,30,0.146068821375967,1
156,793,30,0.239898362606087,2
156,794,30,0.247791809187396,2
156,795,30,0.155297185370724,1
156,796,30,0.0841021869678383,1
157,788,30,0.0878007897783179,1
157,789,30,0.11992628837925,1
157,790,30,0.136548755291009,1
157,791,30,0.120145753771139,1
157,792,30,0.1339292944801,1
157,793,30,0.204458439436225,1
157,794,30,0.224771710470138,1
157,795,30,0.14885891892498,1
157,796,30,0.0811764569315461,1
158,789,30,0.108810426177832,1
158,790,30,0.146873559758366,1
158,791,30,0.129534440109763,1
158,792,30,0.114945322449767,1
158,793,30,0.148276377272317,1
158,794,30,0.17101654979895,1
158,795,30,0.123872987710801,1
158,796,30,0.0734076935270264,1
159,789,30,0.0793530972460735,1
159,790,30,0.106852116839541,1
159,791,30,0.0963027916093685,1
159,792,30,0.0844866227697548,1
159,793,30,0.0972854622770138,1
159,794,30,0.110235765249467,1
159,795,30,0.085522231077507,1
166,823,30,0.0738233899697799,1
167,823,30,0.0832565024768442,1
167,824,30,0.0729629826094282,1
168,823,30,0.0705308220933989,1
181,796,30,0.0685608207123962,1
150,806,31,0.0800485821146056,1
150,807,31,0.0822024037306433,1
150,808,31,0.071095663958042,1
151,805,31,0.0786519340699129,1
151,806,31,0.107519761229321,1
151,807,31,0.111205965203523,1
151,808,31,0.0864566780587414,1
151,809,31,0.0681233035157493,1
152,805,31,0.0723619445285409,1
152,806,31,0.0987851763969859,1
152,807,31,0.103468767918415,1
152,808,31,0.0817655214502503,1
152,823,31,0.0944631756718875,1
153,788,31,0.0743463692901023,1
153,789,31,0.0850153043568097,1
153,790,31,0.0778533771363255,1
153,791,31,0.0698539234997312,1
153,793,31,0.0695634373340533,1
153,806,31,0.0697534270383471,1
153,807,31,0.0745893924709187,1
154,788,31,0.113668985045398,1
154,789,31,0.135262187349267,1
154,790,31,0.110508240158774,1
154,791,31,0.0866244996021351,1
154,792,31,0.0796947001599606,1
154,793,31,0.0878750210720319,1
154,794,31,0.0838268788944924,1
154,795,31,0.0715388175338856,1
155,787,31,0.0771073086096465,1
155,788,31,0.134842974908014,1
155,789,31,0.167085124396147,1
155,790,31,0.135793001296571,1
155,791,31,0.10047768343641,1
155,792,31,0.0952279203200706,1
155,793,31,0.119645499660883,1
155,794,31,0.120120177427707,1
155,795,31,0.0929876722264247,1
156,788,31,0.112281165930499,1
156,789,31,0.151774430403451,1
156,790,31,0.14040746481342,1
156,791,31,0.107528769852394,1
156,792,31,0.107756824583037,1
156,793,31,0.149851604498063,1
156,794,31,0.156842763205372,1
156,795,31,0.115466001696113,1
156,796,31,0.0732839447552899,1
157,788,31,0.0849710159532173,1
157,789,31,0.133287466024793,1
157,790,31,0.151515492387857,1
157,791,31,0.120238319769126,1
157,792,31,0.108907448569148,1
157,793,31,0.141452345294389,1
157,794,31,0.144739174965381,1
157,795,31,0.105370773362498,1
157,796,31,0.0682096641058218,1
158,788,31,0.0711724289269954,1
158,789,31,0.123585478463784,1
158,790,31,0.158509538167188,1
158,791,31,0.131701205631693,1
158,792,31,0.106537114520779,1
158,793,31,0.116382748889328,1
158,794,31,0.114834631389665,1
158,795,31,0.0867448821197712,1
159,789,31,0.087427584806363,1
159,790,31,0.112958070513943,1
159,791,31,0.101503151053429,1
159,792,31,0.0873318022986748,1
159,793,31,0.0896759789953411,1
159,794,31,0.0858652535683012,1
159,795,31,0.0678927869871781,1
160,790,31,0.0735522927089476,1
160,791,31,0.073666715399484,1
160,792,31,0.0685726684892836,1
166,823,31,0.0858884879093257,1
166,824,31,0.0730859646898393,1
167,822,31,0.0795005595409129,1
167,823,31,0.103904260570781,1
167,824,31,0.0864463456951768,1
168,822,31,0.0689167092419943,1
168,823,31,0.0853966494343208,1
168,824,31,0.0723608843381925,1
180,796,31,0.0795085079736377,1
181,795,31,0.0706627409195715,1
181,796,31,0.08848049757692,1
181,797,31,0.0696589922302543,1
185,809,31,0.0965857007084324,1
150,806,32,0.0795463214293963,1
150,807,32,0.0782192506224815,1
151,805,32,0.0780705364644624,1
151,806,32,0.103960863953787,1
151,807,32,0.103487515917231,1
151,808,32,0.0805207741243978,1
151,823,32,0.0855097423945898,1
152,805,32,0.069666365644485,1
152,806,32,0.0938669653504397,1
152,807,32,0.0963636417435442,1
152,808,32,0.0770272013456966,1
152,822,32,0.0761380071219874,1
152,823,32,0.119513856364405,1
152,824,32,0.103515512130159,1
153,789,32,0.0754323635933941,1
153,790,32,0.0742337734812396,1
153,791,32,0.0680911384187394,1
153,807,32,0.0699550069591613,1
153,823,32,0.0913133441570981,1
153,824,32,0.0826997587893254,1
154,788,32,0.0918324540821377,1
154,789,32,0.11448016842675,1
154,790,32,0.105134392843243,1
154,791,32,0.0837777088234767,1
154,792,32,0.0710482009731805,1
154,793,32,0.0709574738364189,1
154,794,32,0.069511200497736,1
155,788,32,0.110537350470034,1
155,789,32,0.1505981821557,1
155,790,32,0.136227152239117,1
155,791,32,0.0974254373518788,1
155,792,32,0.0758118757994554,1
155,793,32,0.0782293733438868,1
155,794,32,0.0801184768105104,1
155,795,32,0.0735363059968583,1
156,788,32,0.103847297801216,1
156,789,32,0.15952349942455,1
156,790,32,0.155773384540647,1
156,791,32,0.108829701276934,1
156,792,32,0.0841258465829574,1
156,793,32,0.093017099995812,1
156,794,32,0.0975522708582448,1
156,795,32,0.0849248228008633,1
157,788,32,0.0903948180004173,1
157,789,32,0.154977846454153,1
157,790,32,0.16743719144867,1
157,791,32,0.120711991253585,1
157,792,32,0.0913554942106659,1
157,793,32,0.0966980748955838,1
157,794,32,0.0942414760935582,1
157,795,32,0.0778461654460462,1
158,788,32,0.0750837107131792,1
158,789,32,0.133582174982536,1
158,790,32,0.156424389332755,1
158,791,32,0.12376792704012,1
158,792,32,0.0959810148539736,1
158,793,32,0.0916690410138649,1
158,794,32,0.0813728197574821,1
159,789,32,0.0922470244470071,1
159,790,32,0.109491427768046,1
159,791,32,0.0984153496586834,1
159,792,32,0.0855379901781091,1
159,793,32,0.0803461122568355,1
159,794,32,0.0688491505587215,1
160,790,32,0.0762065361489689,1
160,791,32,0.0774246349614886,1
160,792,32,0.0717211043862698,1
166,822,32,0.0693824981812644,1
166,823,32,0.0881565525226205,1
166,824,32,0.0725302093153571,1
167,822,32,0.0868719132887445,1
167,823,32,0.112953254734055,1
167,824,32,0.0906494972852898,1
168,822,32,0.0743045007560056,1
168,823,32,0.0941000754520101,1
168,824,32,0.0778109874917185,1
180,796,32,0.087716884996397,1
180,797,32,0.0710602763615551,1
181,795,32,0.0738163939114358,1
181,796,32,0.0959092034297553,1
181,797,32,0.075208549624144,1
184,805,32,0.0682327726615507,1
184,806,32,0.074901405891467,1
185,806,32,0.0896161591026338,1
185,807,32,0.0766683538667646,1
185,808,32,0.0731112894626807,1
185,809,32,0.0804411879709581,1
185,810,32,0.0818824358875942,1
186,809,32,0.0807307397315833,1
150,806,33,0.0718527237236434,1
150,807,33,0.0693310100669446,1
151,805,33,0.0677441626757987,1
151,806,33,0.083442443092576,1
151,807,33,0.0821780073730788,1
151,823,33,0.0870835919718601,1
151,824,33,0.0736226366380509,1
152,806,33,0.0767144511827028,1
152,807,33,0.0785573315480926,1
152,822,33,0.0756260729485712,1
152,823,33,0.117751604373476,1
152,824,33,0.10431525503939,1
153,823,33,0.0974274079881761,1
153,824,33,0.0907522399126662,1
154,788,33,0.0763332259007114,1
154,789,33,0.0971576404576112,1
154,790,33,0.0930290076704592,1
154,791,33,0.0756403765336103,1
155,788,33,0.0979468233917907,1
155,789,33,0.135867166702749,1
155,790,33,0.126280769838593,1
155,791,33,0.0890907119946079,1
156,788,33,0.103409576952185,1
156,789,33,0.155941313900008,1
156,790,33,0.150742056574728,1
156,791,33,0.102246518191141,1
156,792,33,0.0736417859518573,1
156,793,33,0.0682839672768475,1
156,794,33,0.0678240842566932,1
157,788,33,0.0905952059558116,1
157,789,33,0.147365500059562,1
157,790,33,0.15501672010026,1
157,791,33,0.111883241153077,1
157,792,33,0.0833289008991085,1
157,793,33,0.0743518858737794,1
158,788,33,0.0724910960782109,1
158,789,33,0.119892050819751,1
158,790,33,0.135187986004433,1
158,791,33,0.109760404648181,1
158,792,33,0.0877261571696133,1
158,793,33,0.075314335057718,1
159,789,33,0.0876776280046274,1
159,790,33,0.10178934254973,1
159,791,33,0.0926706633327094,1
159,792,33,0.080475713039704,1
159,793,33,0.0680564516260421,1
160,790,33,0.0768013508526135,1
160,791,33,0.075752966352697,1
160,792,33,0.0680765233653494,1
166,823,33,0.0787376118255237,1
167,822,33,0.0829027522972708,1
167,823,33,0.102613403949438,1
167,824,33,0.083665987521907,1
168,822,33,0.073672585379944,1
168,823,33,0.0909167790588231,1
168,824,33,0.0761623136329122,1
180,796,33,0.0791649643723333,1
180,797,33,0.068645917459737,1
181,796,33,0.0825124824535503,1
181,797,33,0.0710364969509165,1
184,805,33,0.0723550802452684,1
184,806,33,0.0709570845009803,1
185,805,33,0.0829962706696387,1
185,806,33,0.0837977506139041,1
185,807,33,0.0713828797060352,1
185,808,33,0.0685967713478251,1
185,809,33,0.0715829202544227,1
185,810,33,0.0681215664807153,1
186,809,33,0.0728689610958779,1
146,797,34,0.0740627893361287,1
146,799,34,0.0755907093111882,1
147,798,34,0.0715820936653375,1
147,799,34,0.0710151973075334,1
148,799,34,0.0682055730888278,1
151,823,34,0.0797768080090876,1
151,824,34,0.0696577882852824,1
152,822,34,0.0691270102766347,1
152,823,34,0.0988125436834362,1
152,824,34,0.0909582283086013,1
153,823,34,0.092290606057034,1
153,824,34,0.0888312289093998,1
154,788,34,0.075809641613015,1
154,789,34,0.094351112953087,1
154,790,34,0.087898944237294,1
154,791,34,0.071177789776497,1
154,823,34,0.0679002562378246,1
155,788,34,0.100565858928604,1
155,789,34,0.134186279828725,1
155,790,34,0.120380385275808,1
155,791,34,0.0840875180064646,1
156,788,34,0.101669031909405,1
156,789,34,0.143063175748557,1
156,790,34,0.13370908635599,1
156,791,34,0.09378331213911,1
156,792,34,0.0693792696920115,1
157,788,34,0.0809509897841256,1
157,789,34,0.119176596038103,1
157,790,34,0.125206251946078,1
157,791,34,0.0998637254087351,1
157,792,34,0.0798301170153052,1
158,789,34,0.0935275786536651,1
158,790,34,0.109745358330921,1
158,791,34,0.0988858166129935,1
158,792,34,0.0829840395470886,1
159,789,34,0.0766549786970023,1
159,790,34,0.0927368743163869,1
159,791,34,0.086762462112271,1
159,792,34,0.0731455689506114,1
160,790,34,0.0699953720594872,1
167,822,34,0.0725397749875964,1
167,823,34,0.084705159746367,1
167,824,34,0.0736036730072998,1
168,823,34,0.079998783117112,1
168,824,34,0.070635134042082,1
185,806,34,0.0703579691381824,1
185,807,34,0.0725066335571018,1
185,808,34,0.0712277445081661,1
186,807,34,0.0683541854206553,1
186,808,34,0.0692724959454008,1
146,797,35,0.0708827154424188,1
146,798,35,0.0745116331991528,1
146,799,35,0.0741040588926275,1
146,800,35,0.0689286229064176,1
147,798,35,0.0729398800434752,1
147,799,35,0.0759155708012126,1
147,800,35,0.0694180295323748,1
148,799,35,0.0709704716502945,1
151,823,35,0.0716180742496464,1
152,823,35,0.0799719968389317,1
152,824,35,0.0745012828662602,1
153,823,35,0.0817702174346182,1
153,824,35,0.0778709152003935,1
154,788,35,0.071159664714383,1
154,789,35,0.0842641205614442,1
154,790,35,0.0790918531667275,1
154,823,35,0.0703511527731177,1
155,788,35,0.089528432843638,1
155,789,35,0.113411520514695,1
155,790,35,0.102926214010191,1
155,791,35,0.0778460636198545,1
156,788,35,0.08628874869938,1
156,789,35,0.111793023147274,1
156,790,35,0.104582902189258,1
156,791,35,0.0812811881645477,1
157,788,35,0.0703277686876937,1
157,789,35,0.0890497239575801,1
157,790,35,0.0925051897814997,1
157,791,35,0.0818451555218978,1
157,792,35,0.0713517628198217,1
158,789,35,0.0714725885808802,1
158,790,35,0.0842810656376902,1
158,791,35,0.0804130240443025,1
158,792,35,0.0708748328972297,1
159,790,35,0.077489683928626,1
159,791,35,0.0724612130858492,1
167,823,35,0.0717178699072409,1
167,824,35,0.0698166730829147,1
168,823,35,0.0684877394556702,1
185,807,35,0.0727830796878838,1
185,808,35,0.0698588411058104,1
186,807,35,0.0729176160461594,1
186,808,35,0.0710489556849539,1
146,798,36,0.070957162368068,1
146,799,36,0.0732977092604908,1
146,800,36,0.070127512507371,1
147,798,36,0.073538725866354,1
147,799,36,0.0808910321265708,1
147,800,36,0.0767709707088454,1
148,798,36,0.0678745960375284,1
148,799,36,0.0742848423112408,1
148,800,36,0.0713053899741884,1
151,822,36,0.0678782737599798,1
152,823,36,0.0714889107204244,1
153,823,36,0.0746206710810836,1
153,824,36,0.0690393499051747,1
154,789,36,0.0711132319709899,1
154,790,36,0.0688533074632513,1
154,823,36,0.0695823051283887,1
155,788,36,0.0728558494762588,1
155,789,36,0.0867398387283964,1
155,790,36,0.0822848709663291,1
155,791,36,0.0689671371659658,1
156,788,36,0.0720259180960908,1
156,789,36,0.084453535247244,1
156,790,36,0.0800421910236355,1
157,789,36,0.0732528398486283,1
157,790,36,0.0724686583773917,1
167,824,36,0.068406272512573,1
172,784,36,0.0776679875799839,1
172,785,36,0.0695089423521917,1
173,784,36,0.0692166951923758,1
185,807,36,0.0692138799976654,1
186,807,36,0.0721678997459089,1
186,808,36,0.0688166440444807,1
146,799,37,0.0713949071762021,1
146,800,37,0.0725784809199759,1
147,798,37,0.0705713189687963,1
147,799,37,0.0807739200266195,1
147,800,37,0.0825357587230066,1
147,801,37,0.0706852624772544,1
148,799,37,0.074410741412554,1
148,800,37,0.0747568905664095,1
158,818,37,0.075816679599791,1
171,784,37,0.070412146661917,1
172,783,37,0.0700912623831431,1
172,784,37,0.0945965320442952,1
172,785,37,0.0809036825334395,1
173,784,37,0.0823007618420027,1
173,785,37,0.071669909770973,1
146,800,38,0.0710457691241328,1
147,799,38,0.0756612329335709,1
147,800,38,0.0811692692003707,1
147,801,38,0.0750143790562164,1
148,799,38,0.072355176081684,1
148,800,38,0.0740439335213452,1
148,801,38,0.0681210393804291,1
152,821,38,0.0706908389586913,1
153,821,38,0.0698701438130837,1
157,818,38,0.0839747544838744,1
158,817,38,0.0886477081631638,1
158,818,38,0.131266419772893,1
158,819,38,0.0947441440835341,1
159,817,38,0.0682860097904566,1
159,818,38,0.103793773163063,1
159,819,38,0.0756786931305511,1
171,784,38,0.0693518305282494,1
172,783,38,0.0691571208804836,1
172,784,38,0.0939117089770066,1
172,785,38,0.0791338474861198,1
173,784,38,0.0900580128970898,1
173,785,38,0.0756526555743682,1
174,784,38,0.0731147335838689,1
147,799,39,0.0685912907028039,1
147,800,39,0.0729064211548537,1
147,801,39,0.073411892359988,1
147,802,39,0.0710860922960268,1
148,799,39,0.0690046271738215,1
148,800,39,0.0701517231818802,1
148,801,39,0.0694253909670536,1
148,802,39,0.0686707690402759,1
152,821,39,0.0770740653529602,1
153,821,39,0.0759266938152065,1
157,817,39,0.0702450678507447,1
157,818,39,0.105019233410261,1
157,819,39,0.0724673765653321,1
158,817,39,0.115284846911389,1
158,818,39,0.176804542205255,1
158,819,39,0.119626212582229,1
159,817,39,0.0861523914492067,1
159,818,39,0.138165815112195,1
159,819,39,0.0937602934300208,1
172,784,39,0.0802551634983627,1
172,785,39,0.0687651858790408,1
173,784,39,0.0873727244481667,1
173,785,39,0.0736440920156095,1
174,784,39,0.0836666943154726,1
174,785,39,0.0725494844144591,1
147,801,40,0.068733859350668,1
147,802,40,0.0728105787494057,1
148,802,40,0.0723245683264288,1
152,821,40,0.0721195323048744,1
153,821,40,0.0706618065145187,1
155,781,40,0.0726498191518918,1
157,817,40,0.0723800037031191,1
157,818,40,0.10818728582358,1
157,819,40,0.0745407315308612,1
158,817,40,0.120025910333341,1
158,818,40,0.188614775176873,1
158,819,40,0.128721579591137,1
159,817,40,0.094673147268849,1
159,818,40,0.158162406690072,1
159,819,40,0.111322789794227,1
160,818,40,0.0765296126857513,1
164,823,40,0.0685621684119915,1
164,824,40,0.0743204635089909,1
164,825,40,0.0705843287622238,1
165,822,40,0.0679510135994749,1
165,823,40,0.0803266035564702,1
165,824,40,0.0860914454786152,1
165,825,40,0.0807884632026978,1
165,826,40,0.0718968084748526,1
166,822,40,0.0704948834375219,1
166,823,40,0.080553735861613,1
166,824,40,0.0862747086644841,1
166,825,40,0.0827034065628969,1
166,826,40,0.0751886216394601,1
167,823,40,0.0691565877904215,1
167,824,40,0.0735938976929012,1
167,825,40,0.0727854755982756,1
167,826,40,0.0683125504878217,1
173,784,40,0.0769306820955629,1
174,784,40,0.0804332994359931,1
174,785,40,0.071605333996138,1
147,802,41,0.0689958940804434,1
148,802,41,0.068282943025155,1
157,817,41,0.069712540827511,1
157,818,41,0.097335950098745,1
157,819,41,0.0738009762280646,1
158,817,41,0.105481308688424,1
158,818,41,0.160878889892296,1
158,819,41,0.119609153700239,1
159,817,41,0.0944976648019775,1
159,818,41,0.153574981021994,1
159,819,41,0.120994816495786,1
160,818,41,0.0897862926995556,1
160,819,41,0.0791614244147294,1
164,823,41,0.0834171003504067,1
164,824,41,0.0884947712130791,1
164,825,41,0.0783469406668125,1
165,822,41,0.090888177878521,1
165,823,41,0.126348753795961,1
165,824,41,0.123317220356766,1
165,825,41,0.104434906804357,1
165,826,41,0.0853514685541074,1
166,822,41,0.103219772930947,1
166,823,41,0.137580062939608,1
166,824,41,0.132912314375644,1
166,825,41,0.116715097599327,1
166,826,41,0.100737993110703,1
167,822,41,0.0812114671721463,1
167,823,41,0.0991818493112285,1
167,824,41,0.0958597997574764,1
167,825,41,0.0919473080365447,1
168,825,41,0.0695425869238686,1
152,789,42,0.0690409551651372,1
152,790,42,0.0708904302738804,1
153,784,42,0.0691918795504927,1
153,785,42,0.0696968476144447,1
154,784,42,0.0711570771311599,1
154,785,42,0.0696268271332443,1
157,818,42,0.0806367601464649,1
157,819,42,0.0681670947679355,1
158,817,42,0.0838695800074503,1
158,818,42,0.119193798674717,1
158,819,42,0.0988954541625445,1
159,817,42,0.0845830821221288,1
159,818,42,0.128912617506227,1
159,819,42,0.112836621816182,1
159,820,42,0.0705878447607238,1
160,818,42,0.0877057739619551,1
160,819,42,0.0823672303860473,1
163,824,42,0.0705870960387263,1
164,823,42,0.10183838683545,1
164,824,42,0.109250722630533,1
164,825,42,0.0934410563396412,1
164,826,42,0.070573744828068,1
165,822,42,0.115871018368295,1
165,823,42,0.183721870933841,1
165,824,42,0.168337131330486,1
165,825,42,0.135867046907229,1
166,821,42,0.0683977790102341,1
166,822,42,0.149267948747068,1
166,823,42,0.22353139557851,1
166,824,42,0.199980950116475,1
166,825,42,0.165794447468083,1
166,826,42,0.134747593715316,1
167,822,42,0.107835350546129,1
167,823,42,0.15026814549923,1
167,824,42,0.132101550278611,1
167,825,42,0.121181996995145,1
168,823,42,0.0764757586099196,1
168,824,42,0.0782759498419035,1
150,791,43,0.0696931758817693,1
151,790,43,0.0720436358534381,1
151,791,43,0.0757051439812766,1
151,792,43,0.0682114250999598,1
152,788,43,0.0707907544118054,1
152,789,43,0.0745533759479539,1
152,790,43,0.0758175720764119,1
152,791,43,0.069668707646893,1
153,785,43,0.0691886750203437,1
153,788,43,0.0699123897030672,1
153,789,43,0.0701203487352995,1
154,784,43,0.0680829563847514,1
154,785,43,0.0696536972682884,1
158,818,43,0.0853716301400544,1
158,819,43,0.0793356011104374,1
159,817,43,0.0720386823087031,1
159,818,43,0.0987634694488361,1
159,819,43,0.0945908597264426,1
159,820,43,0.0712468818424206,1
160,818,43,0.0782193284895692,1
160,819,43,0.077573546782115,1
163,824,43,0.0731584649382952,1
164,822,43,0.0732931630205223,1
164,823,43,0.113942765725869,1
164,824,43,0.124133578904565,1
164,825,43,0.111785859375202,1
165,822,43,0.12810702857564,1
165,823,43,0.215097072226252,1
165,824,43,0.193869689500555,1
165,825,43,0.162295028668026,1
166,785,43,0.0681981457666132,1
166,821,43,0.0762168565329816,1
166,822,43,0.17764527914129,1
166,823,43,0.283164646866288,1
166,824,43,0.246764227179457,1
166,825,43,0.201748353314747,1
166,826,43,0.158959274506833,1
167,821,43,0.0682737846576824,1
167,822,43,0.12597969973876,1
167,823,43,0.191984766897565,1
167,824,43,0.162964458011047,1
167,825,43,0.144647998595421,1
168,822,43,0.0744728074712536,1
168,823,43,0.0929876362877688,1
150,790,44,0.0742797749607622,1
150,791,44,0.089062032947218,1
150,792,44,0.078783703151686,1
151,790,44,0.0816405867028698,1
151,791,44,0.0928962143369936,1
151,792,44,0.0803907360878828,1
152,787,44,0.0827668562598478,1
152,788,44,0.0858253317113978,1
152,789,44,0.0810744390670632,1
152,790,44,0.0781598080856609,1
152,791,44,0.0763670741247715,1
153,786,44,0.0693301894676354,1
153,787,44,0.0877316617737385,1
153,788,44,0.0960670639756951,1
153,789,44,0.0878062284949073,1
153,790,44,0.0699133360876719,1
154,787,44,0.0738354713479306,1
154,788,44,0.0825726018350565,1
154,789,44,0.0777609309338578,1
159,818,44,0.0748617535744827,1
159,819,44,0.076638434935747,1
164,822,44,0.0776473108733026,1
164,823,44,0.117522914726578,1
164,824,44,0.128683832022914,1
165,822,44,0.12563303546417,1
165,823,44,0.209811502229107,1
165,824,44,0.194804861244683,1
165,825,44,0.172828588807821,1
166,785,44,0.0686591249157718,1
166,821,44,0.0763871877925107,1
166,822,44,0.172438798146179,1
166,823,44,0.279939296255949,1
166,824,44,0.246988723983168,1
166,825,44,0.199951779907455,1
166,826,44,0.161554620479648,1
167,821,44,0.0679977158827871,1
167,822,44,0.125584266708145,1
167,823,44,0.197221735852413,1
167,824,44,0.17142271650812,1
167,825,44,0.145053135063123,1
149,791,45,0.0688953736599553,1
150,790,45,0.0827820942499397,1
150,791,45,0.0983351765071978,1
150,792,45,0.0827051076592751,1
151,787,45,0.0681094192150288,1
151,789,45,0.069923249166918,1
151,790,45,0.0902241153747774,1
151,791,45,0.104659918728803,1
151,792,45,0.0872930664174153,1
152,786,45,0.068913888057508,1
152,787,45,0.0914952596433716,1
152,788,45,0.0967763073596521,1
152,789,45,0.0862293181421114,1
152,790,45,0.0811415185682576,1
152,791,45,0.0828209978449265,1
152,792,45,0.0710574791361727,1
153,786,45,0.070107057422401,1
153,787,45,0.10239174629954,1
153,788,45,0.120503271519804,1
153,789,45,0.103716253482336,1
153,790,45,0.0771001208784711,1
154,787,45,0.0837664899730671,1
154,788,45,0.103621782735587,1
154,789,45,0.0942050223169469,1
154,790,45,0.0712232042579736,1
155,788,45,0.070946949800023,1
155,789,45,0.0693283865450656,1
155,802,45,0.06893025811526,1
164,822,45,0.0799562317485536,1
164,823,45,0.113020675652481,1
165,822,45,0.115179163304006,1
165,824,45,0.174263894866685,1
166,821,45,0.0763002641634962,1
166,823,45,0.222473816772465,1
166,824,45,0.204019316979616,1
166,825,45,0.170260747886304,1
184,783,45,0.0795868003354658,1
185,784,45,0.0819150142791468,1
185,785,45,0.0780064159126018,1
186,784,45,0.087819160421247,1
150,790,46,0.0830271539545891,1
150,791,46,0.0948217116824687,1
150,792,46,0.0777763126785732,1
151,789,46,0.0716812364373502,1
151,790,46,0.0937061398653901,1
151,791,46,0.106682366588282,1
151,792,46,0.0864365763705542,1
151,803,46,0.0732246819117486,1
151,804,46,0.0686759801453781,1
152,787,46,0.0857788630293489,1
152,788,46,0.0961814627071277,1
152,789,46,0.0877046478840709,1
152,790,46,0.0845071018138288,1
152,791,46,0.0879845441258171,1
152,792,46,0.0743632065503807,1
152,798,46,0.0734535332825975,1
152,799,46,0.0741526180064933,1
152,803,46,0.0772025520374966,1
152,804,46,0.0732412136934521,1
153,786,46,0.0684943162296957,1
153,787,46,0.103226601275564,1
153,788,46,0.130639266268735,1
153,789,46,0.113068030821375,1
153,790,46,0.084203420171668,1
153,791,46,0.0756856412706874,1
153,798,46,0.0748878749875293,1
153,799,46,0.0754468888001444,1
154,787,46,0.0867795749022445,1
154,788,46,0.115134826982206,1
154,789,46,0.104770921257255,1
154,790,46,0.0787847633420343,1
154,791,46,0.0703875167030893,1
155,788,46,0.0748243773723706,1
155,789,46,0.0734079810362734,1
157,789,46,0.0698369664439333,1
157,800,46,0.0716145762204744,1
158,788,46,0.0819943848006511,1
158,789,46,0.0988310640707648,1
158,790,46,0.0732206208436346,1
158,800,46,0.0725548991719446,1
159,788,46,0.0806321240598567,1
159,789,46,0.098731963227184,1
159,790,46,0.0721720207117828,1
164,822,46,0.077590204349114,1
166,808,46,0.0689403029695776,1
166,809,46,0.0737349988456504,1
166,821,46,0.071412151741247,1
183,783,46,0.0711637138029452,1
184,782,46,0.0797131846086333,1
184,783,46,0.0794593918106058,1
184,784,46,0.0765526493641685,1
184,785,46,0.0737482961483249,1
185,783,46,0.0844220589744718,1
185,784,46,0.0843464021140747,1
186,783,46,0.0871370866611331,1
150,790,47,0.0728410607193654,1
150,791,47,0.0790119375756089,1
151,789,47,0.0693558436781556,1
151,790,47,0.0856257224268809,1
151,791,47,0.0938897744173697,1
151,792,47,0.078012495535221,1
151,803,47,0.0809070967057478,1
151,804,47,0.074096607611309,1
152,788,47,0.0859656062750618,1
152,789,47,0.0845586498259084,1
152,790,47,0.0848623494373971,1
152,791,47,0.0863210096328056,1
152,792,47,0.0734068489686133,1
152,798,47,0.0767452685801174,1
152,799,47,0.0788155747496729,1
152,803,47,0.0893945014527363,1
152,804,47,0.0833629168368961,1
153,787,47,0.0888622978774055,1
153,788,47,0.114860507221897,1
153,789,47,0.109725088929006,1
153,790,47,0.0912631678037178,1
153,791,47,0.0818054313276017,1
153,792,47,0.0703426173423469,1
153,798,47,0.0781348606687063,1
153,799,47,0.0802943725719245,1
153,803,47,0.0710925492745327,1
154,787,47,0.079094907952477,1
154,788,47,0.106106653280236,1
154,789,47,0.104848177387839,1
154,790,47,0.0866576290530778,1
154,791,47,0.0760443989029797,1
155,788,47,0.0727542508960944,1
155,789,47,0.0744990965980277,1
155,790,47,0.0679050181097283,1
157,788,47,0.0682503826029305,1
157,789,47,0.0801439932561831,1
157,800,47,0.0705536551194328,1
158,788,47,0.0992730077118605,1
158,789,47,0.126597233662694,1
158,790,47,0.0867918060247946,1
158,800,47,0.0714992790226449,1
158,808,47,0.0726374442747181,1
159,788,47,0.0978890819513483,1
159,789,47,0.127355179915141,1
159,790,47,0.0880528515310874,1
159,808,47,0.0695509067227041,1
160,789,47,0.0789218034266694,1
166,808,47,0.0702953639996446,1
166,809,47,0.076881841462226,1
167,808,47,0.0700183188912647,1
167,809,47,0.0792086777574317,1
182,783,47,0.0689133369981179,1
183,782,47,0.0763263975560947,1
183,783,47,0.0734706999805548,1
183,784,47,0.070501004988573,1
183,785,47,0.068086879688018,1
184,782,47,0.0784182369702966,1
184,783,47,0.0794188290476726,1
184,784,47,0.0781093861514654,1
184,785,47,0.0762415104509132,1
184,786,47,0.0730399152921089,1
184,787,47,0.0713294149656422,1
184,788,47,0.0686923262440262,1
185,782,47,0.0783632148881488,1
185,783,47,0.0852914929272246,1
185,785,47,0.0868112188887442,1
186,782,47,0.0784763138381938,1
151,790,48,0.0725296043479832,1
151,791,48,0.0773516914696102,1
151,792,48,0.0688907196040193,1
151,803,48,0.0768462921417877,1
151,804,48,0.0693803718107917,1
152,789,48,0.0762688358089317,1
152,790,48,0.0822855418212388,1
152,791,48,0.0821067649775786,1
152,792,48,0.0722317327885225,1
152,798,48,0.0721100804383788,1
152,799,48,0.074665294912131,1
152,802,48,0.0682923649427708,1
152,803,48,0.0850863670590305,1
152,804,48,0.0790284274288805,1
153,788,48,0.0874928853440915,1
153,789,48,0.0964357766156654,1
153,790,48,0.0981803228287997,1
153,791,48,0.0886445096227907,1
153,792,48,0.0747888639905881,1
153,798,48,0.07236105205192,1
153,799,48,0.0754770053937693,1
153,803,48,0.0698953727495094,1
154,788,48,0.0846690533767626,1
154,789,48,0.094673740256671,1
154,790,48,0.0941959118676821,1
154,791,48,0.0816835333966429,1
154,792,48,0.069550960630688,1
155,789,48,0.07030958372782,1
155,790,48,0.0704101820153957,1
157,788,48,0.0695315837053943,1
157,789,48,0.0809002803406831,1
158,785,48,0.0684026067696736,1
158,787,48,0.0693436245351574,1
158,788,48,0.104572084653839,1
158,789,48,0.131116627455197,1
158,790,48,0.0877225812733535,1
158,808,48,0.0708757074045227,1
159,785,48,0.0766084920456254,1
159,786,48,0.0708517063721729,1
159,787,48,0.069230381830489,1
159,788,48,0.101941434941401,1
159,789,48,0.131006834861493,1
159,790,48,0.0895616281821164,1
159,793,48,0.0695405863386915,1
159,808,48,0.0680635555003538,1
160,785,48,0.0766558532042954,1
160,786,48,0.0696153028042598,1
160,789,48,0.0811527074697873,1
160,793,48,0.0719508602132916,1
160,794,48,0.068662257568609,1
167,808,48,0.0694522611020977,1
167,809,48,0.0837215726429968,1
168,809,48,0.0849161855439009,1
168,810,48,0.0729076131202736,1
178,815,48,0.067986047799179,1
182,784,48,0.0689486886559489,1
183,783,48,0.0761777492856114,1
183,784,48,0.0738405506779612,1
183,785,48,0.071608826035534,1
183,786,48,0.0685543876929942,1
184,783,48,0.0794816917465775,1
184,784,48,0.0800425084817624,1
184,785,48,0.0788576948543608,1
184,786,48,0.0772031989333024,1
184,787,48,0.0763952380514272,1
184,788,48,0.0752413855760636,1
184,789,48,0.0737092428089385,1
184,790,48,0.0687551589940511,1
185,783,48,0.0847541022058955,1
185,784,48,0.0902338367811921,1
185,785,48,0.089551235920792,1
185,786,48,0.0860608916313438,1
185,787,48,0.0846125697892759,1
185,788,48,0.0833854683434589,1
185,789,48,0.0813840985056515,1
185,790,48,0.0772111353864752,1
185,791,48,0.0707559358440366,1
186,783,48,0.0901040982334761,1
186,785,48,0.100586547614838,1
186,787,48,0.0938667018002966,1
186,788,48,0.0928983826358982,1
186,789,48,0.0896043891928341,1
186,790,48,0.0848913938611217,1
186,791,48,0.0832197312421061,1
186,792,48,0.0791637724069134,1
186,793,48,0.0693212946503059,1
187,788,48,0.0975857656855222,1
187,789,48,0.0943694656266882,1
187,790,48,0.0886553331479857,1
187,791,48,0.0868794304575988,1
187,793,48,0.080910846305511,1
187,794,48,0.0717510892048232,1
188,793,48,0.0890788162995126,1
188,794,48,0.083381946355183,1
188,795,48,0.0774118168408925,1
188,796,48,0.0704696724704242,1
188,811,48,0.068642970489955,1
189,798,48,0.0709062852108981,1
190,804,48,0.0684102377442714,1
191,805,48,0.0715669515116613,1
152,790,49,0.0738624433091663,1
152,791,49,0.0736245593561403,1
152,803,49,0.0736468832512159,1
152,804,49,0.0692115679441373,1
153,789,49,0.0782288642129286,1
153,790,49,0.0932631659828259,1
153,791,49,0.0867271284237679,1
153,792,49,0.074096020613263,1
153,803,49,0.0680194108513848,1
154,789,49,0.0774136257532383,1
154,790,49,0.091386736882175,1
154,791,49,0.0824220607953637,1
154,792,49,0.0694507337092229,1
155,790,49,0.0693573231528226,1
157,789,49,0.0733702334680506,1
158,788,49,0.094389693100171,1
158,789,49,0.107856290802953,1
158,790,49,0.0772010306343978,1
159,788,49,0.0914602973209793,1
159,789,49,0.106668769796809,1
159,790,49,0.0782349318559958,1
159,793,49,0.0858435526099275,1
159,794,49,0.0802282993530946,1
160,789,49,0.0742760912485348,1
160,793,49,0.0852725412760255,1
160,794,49,0.0798754117012622,1
167,809,49,0.0758498929075973,1
167,810,49,0.0681071790388125,1
168,808,49,0.0682407210942755,1
168,809,49,0.0933362652088798,1
168,810,49,0.0848814628125477,1
169,795,49,0.072880341670239,1
169,809,49,0.0806438520412246,1
169,810,49,0.0766529361833933,1
170,794,49,0.0726972881265294,1
170,795,49,0.0795038419381497,1
186,784,49,0.103262216483538,1
186,785,49,0.103493086408892,1
186,786,49,0.0984853342012279,1
187,785,49,0.108514507285341,1
187,786,49,0.104157208810395,1
187,787,49,0.100683893454057,1
187,792,49,0.0913943498874449,1
187,793,49,0.0880183923498773,1
188,788,49,0.102560849654994,1
188,789,49,0.102816589130215,1
188,790,49,0.100010936132983,1
188,791,49,0.0974898454129864,1
188,792,49,0.0987527537396088,1
188,793,49,0.0970674823495677,1
189,791,49,0.101464576896121,1
189,792,49,0.0993734682345888,1
189,793,49,0.0977167081782101,1
189,802,49,0.0678263483920135,1
189,803,49,0.0695883068839201,1
189,808,49,0.0687202086512107,1
189,809,49,0.0714784286124602,1
190,802,49,0.076804992636409,1
190,803,49,0.0769106522846874,1
190,804,49,0.0741616745477743,1
190,806,49,0.072868649627527,1
190,807,49,0.0732994762444047,1
190,808,49,0.0737322076100439,1
190,809,49,0.0771110522196337,1
191,807,49,0.0778050755828268,1
191,808,49,0.0804935985107788,1
153,790,50,0.0811330789739025,1
153,791,50,0.0800353506994669,1
154,790,50,0.0812342702493002,1
168,809,50,0.0849975207119266,1
168,810,50,0.0831904232682384,1
169,809,50,0.0803749230792969,1
169,810,50,0.0812729462327999,1
168,809,51,0.0702218155403923,1
168,810,51,0.0714464851371616,1
169,809,51,0.0693178684984456,1
169,810,51,0.0724673585960042,1
