x,y,z,signal,cytoplasm.p
558,566,1,0.0689421777694592,1
559,565,1,0.0835560871122351,1
559,566,1,0.0995730415804498,1
559,567,1,0.0906876102298474,1
560,564,1,0.0697985300514728,1
560,565,1,0.0957757092925001,1
560,566,1,0.112706631697875,1
560,567,1,0.100174582802519,1
560,568,1,0.0802783798700592,1
561,564,1,0.0683970662268925,1
561,565,1,0.085810363261225,1
561,566,1,0.0950537675834666,1
561,567,1,0.0883936817638731,1
561,568,1,0.082349488669596,1
561,569,1,0.0861945534823264,1
562,565,1,0.0688839870958183,1
562,566,1,0.0715971220132701,1
562,567,1,0.0737820784848493,1
562,568,1,0.0832706623072598,1
562,569,1,0.0944100403691734,1
562,570,1,0.096362551604316,1
562,571,1,0.0881044294920469,1
562,572,1,0.0889285927179466,1
563,568,1,0.0779305973282532,1
563,569,1,0.0908337008659874,1
563,570,1,0.0955324704797485,1
563,571,1,0.0923581467709789,1
563,572,1,0.103111693413173,1
564,569,1,0.0745442295600332,1
564,570,1,0.0825373639829691,1
564,571,1,0.088222733557418,1
564,572,1,0.105602469876937,1
565,570,1,0.0677735005985463,1
565,571,1,0.0789297039411863,1
565,572,1,0.0966134154018895,1
565,573,1,0.124898521215355,1
565,577,1,0.106851326189112,1
566,572,1,0.0729996939464066,1
566,573,1,0.0905428014057669,1
566,574,1,0.140899824398936,1
566,576,1,0.156906817869696,1
566,577,1,0.0814697163635025,1
567,546,1,0.0710485364006353,1
567,547,1,0.0712221380778493,1
567,548,1,0.0681702034616688,1
567,575,1,0.078972458962128,1
567,576,1,0.0679962064592402,1
568,544,1,0.0685017255825824,1
568,545,1,0.0730170283580912,1
568,546,1,0.0760254772006605,1
568,547,1,0.074758801304947,1
568,548,1,0.0705481085868758,1
568,549,1,0.0692339756960767,1
568,550,1,0.0701007681576225,1
568,551,1,0.0711562505420747,1
569,543,1,0.0706228250524441,1
569,544,1,0.0732547805360457,1
569,545,1,0.0764821257417858,1
569,546,1,0.0773260911670738,1
569,547,1,0.0733197037178875,1
569,548,1,0.0687906723758336,1
569,549,1,0.0707307787849227,1
569,550,1,0.0765272646935674,1
569,551,1,0.0795588280816415,1
569,552,1,0.0725715627287196,1
570,542,1,0.0743510353255903,1
570,543,1,0.0771693866478981,1
570,544,1,0.0790985497362726,1
570,545,1,0.0807114047347215,1
570,546,1,0.0782739911851582,1
570,547,1,0.0715707789785122,1
570,549,1,0.0706162362988666,1
570,550,1,0.0804072019820504,1
570,551,1,0.083930741609977,1
570,552,1,0.0718721665364729,1
571,541,1,0.0769061599527028,1
571,542,1,0.0810361224701223,1
571,543,1,0.0858682185074111,1
571,544,1,0.0931132059514031,1
571,545,1,0.0967496408769914,1
571,546,1,0.0887526729974286,1
571,547,1,0.0755959863038262,1
571,550,1,0.0743520655670588,1
571,551,1,0.0775720373585682,1
572,541,1,0.0831479078383359,1
572,542,1,0.093537539651119,1
572,543,1,0.105886073790015,1
572,544,1,0.121081093228994,1
572,545,1,0.126309520763295,1
572,546,1,0.108189717672628,1
572,547,1,0.0832740764795681,1
573,541,1,0.0994864354095622,1
573,542,1,0.126275618631251,1
573,543,1,0.145502799525456,1
573,544,1,0.151742468958825,1
573,545,1,0.142536794235478,1
573,546,1,0.114648349356703,1
573,547,1,0.0839492320484258,1
574,541,1,0.132394474283112,1
574,542,1,0.173824832307836,1
574,543,1,0.186950336227689,1
574,544,1,0.165078249954214,1
574,545,1,0.128393315908356,1
574,546,1,0.0951779536088496,1
574,547,1,0.0708164685200854,1
575,540,1,0.116070957090491,1
575,541,1,0.179088096379233,1
575,542,1,0.214021955356139,1
575,543,1,0.205325830875369,1
575,544,1,0.162420358740621,1
575,545,1,0.109320982702773,1
575,546,1,0.0725909456437893,1
576,539,1,0.0830161986543226,1
576,540,1,0.13836599342543,1
576,541,1,0.2016172011799,1
576,542,1,0.211264502086215,1
576,543,1,0.180116564874018,1
576,544,1,0.138355247767323,1
576,545,1,0.0929420061743569,1
577,539,1,0.0902161070442928,1
577,540,1,0.13960289414475,1
577,541,1,0.184056459820056,1
577,542,1,0.173242662021284,1
577,543,1,0.133597736420531,1
577,544,1,0.101744047863773,1
577,545,1,0.0730095291585649,1
578,538,1,0.0812807329415732,1
578,539,1,0.092670783128229,1
578,540,1,0.123590665609783,1
578,541,1,0.147010090712043,1
578,542,1,0.132328862277033,1
578,543,1,0.0982900555247442,1
578,544,1,0.0718941490143177,1
579,538,1,0.0926812772157451,1
579,539,1,0.0917009485505078,1
579,540,1,0.103067740437035,1
579,541,1,0.111119221267787,1
579,542,1,0.0988865952838708,1
579,543,1,0.0754820248260401,1
580,537,1,0.0917750061407183,1
580,538,1,0.0907211589651085,1
580,539,1,0.0849665535701125,1
580,540,1,0.0853297196775258,1
580,541,1,0.0835187887772107,1
580,542,1,0.0725841412582766,1
581,537,1,0.0828122288128925,1
581,538,1,0.0815516804580061,1
581,539,1,0.0786902566566297,1
581,540,1,0.0761633199152768,1
581,541,1,0.0697894794999677,1
582,536,1,0.0756210115878685,1
582,537,1,0.0781978251938028,1
582,538,1,0.0775613995164286,1
582,539,1,0.0756262107134187,1
582,540,1,0.0709038893005063,1
583,536,1,0.0737860317369957,1
583,537,1,0.0758551339615794,1
583,538,1,0.0753145986078611,1
583,539,1,0.07202612773825,1
584,536,1,0.0743707297090109,1
584,537,1,0.0754036605869003,1
584,538,1,0.0737388682409331,1
584,539,1,0.0687518825865904,1
585,535,1,0.0749099113733579,1
585,536,1,0.0774828376146814,1
585,537,1,0.0772626594394509,1
585,538,1,0.0732797818609841,1
586,534,1,0.0814042181631667,1
586,535,1,0.0879312710582554,1
586,536,1,0.0896790936788504,1
586,537,1,0.0858434747428398,1
586,538,1,0.0770034938123697,1
587,534,1,0.103186194246806,1
587,535,1,0.113934523794122,1
587,536,1,0.110444053719378,1
587,537,1,0.0981658155913773,1
587,538,1,0.0828474906240839,1
587,539,1,0.0696971111645878,1
588,534,1,0.111503681028808,1
588,535,1,0.123775941360381,1
588,536,1,0.115976450405086,1
588,537,1,0.0975275390732254,1
588,538,1,0.0790823653615759,1
589,534,1,0.0988857387459058,1
589,535,1,0.107979943738274,1
589,536,1,0.102030562807976,1
589,537,1,0.0872020457816308,1
589,538,1,0.0713253538975281,1
590,535,1,0.084338992761188,1
590,536,1,0.0830971564664615,1
590,537,1,0.0770487645392228,1
591,535,1,0.0717309276188762,1
591,536,1,0.0736906325749702,1
591,537,1,0.0757172732776351,1
591,538,1,0.0705396150845368,1
592,536,1,0.0726332035133247,1
592,537,1,0.0827190818066353,1
592,538,1,0.0838442013266252,1
592,539,1,0.0697346131519955,1
593,536,1,0.0754730940700547,1
593,537,1,0.0901390246172126,1
593,538,1,0.0953927409856986,1
593,539,1,0.0820574870905952,1
594,536,1,0.0788557901055993,1
594,537,1,0.0908118861018701,1
594,538,1,0.0934638414474672,1
594,539,1,0.0837727133503098,1
594,540,1,0.0695878576507217,1
595,537,1,0.0858494166006114,1
595,538,1,0.0837730667470926,1
595,539,1,0.0797272665719611,1
595,540,1,0.0783993691759611,1
595,541,1,0.0844051079084498,1
595,542,1,0.0876285238211474,1
595,543,1,0.0703674210046781,1
596,538,1,0.0769940898640819,1
596,539,1,0.0791709122198809,1
596,540,1,0.088443672434198,1
596,541,1,0.113381391941518,1
596,542,1,0.140029054726139,1
596,543,1,0.1204050990915,1
596,544,1,0.0708072861935089,1
597,539,1,0.0810437294856163,1
597,540,1,0.0970857930947371,1
597,541,1,0.13892063470158,1
597,542,1,0.186505571402107,1
597,543,1,0.16550621944795,1
597,544,1,0.0949824892493105,1
598,540,1,0.0898000032967727,1
598,541,1,0.12113793620304,1
598,542,1,0.156014281350991,1
598,543,1,0.138386119072721,1
598,544,1,0.0848219064699835,1
599,541,1,0.084559638138945,1
599,542,1,0.0926001516898787,1
599,543,1,0.0818793870916207,1
558,566,2,0.068621347398669,1
559,565,2,0.0877010779775871,1
559,566,2,0.10683681895169,1
559,567,2,0.0910503510631661,1
560,564,2,0.0684437265817728,1
560,565,2,0.101850150755474,1
560,566,2,0.123951908999107,1
560,567,2,0.103526305706474,1
560,568,2,0.076640483439132,1
560,569,2,0.0733511560315559,1
561,565,2,0.0849260087765073,1
561,566,2,0.100204783253008,1
561,567,2,0.0925165104581009,1
561,568,2,0.0812461060466357,1
561,569,2,0.0789473019030141,1
561,570,2,0.0781280203445377,1
562,566,2,0.0765332544695469,1
562,567,2,0.0833910687839998,1
562,568,2,0.0868798796907972,1
562,569,2,0.0864356898837092,1
562,570,2,0.084203989200386,1
562,571,2,0.0806215940336848,1
563,567,2,0.0741903296360603,1
563,568,2,0.0813603370643408,1
563,569,2,0.0834716073118202,1
563,570,2,0.084906218556671,1
563,571,2,0.0888710010219037,1
564,569,2,0.0694392273495663,1
564,570,2,0.0770257817687895,1
564,571,2,0.0894941114272755,1
565,571,2,0.0812809725326124,1
565,572,2,0.0973443417748923,1
566,572,2,0.0691156356920496,1
566,573,2,0.089975845150203,1
566,577,2,0.0762900156567952,1
567,547,2,0.0705262998125344,1
567,548,2,0.0693815877353155,1
567,575,2,0.0806508660688966,1
568,545,2,0.0692170425993826,1
568,546,2,0.0721670551874958,1
568,547,2,0.073612951170292,1
568,548,2,0.0706859513014921,1
568,549,2,0.0698743007176135,1
568,550,2,0.0693673021196044,1
568,551,2,0.0686016649948004,1
569,544,2,0.0691463153246166,1
569,545,2,0.0724699042507955,1
569,546,2,0.0734578998292866,1
569,547,2,0.070533715155197,1
569,549,2,0.0695701458831503,1
569,550,2,0.0757649938228638,1
569,551,2,0.0777537911208903,1
569,552,2,0.0693664994896232,1
570,541,2,0.0689631359956115,1
570,542,2,0.0715957204056909,1
570,543,2,0.0730780581855464,1
570,544,2,0.0748341287276652,1
570,545,2,0.0767192070648306,1
570,546,2,0.0747301701757649,1
570,547,2,0.0686775973848926,1
570,550,2,0.0774663537511859,1
570,551,2,0.0820582657614726,1
570,552,2,0.0700666264345394,1
571,540,2,0.0684856430340774,1
571,541,2,0.0781417549008587,1
571,542,2,0.082210388102024,1
571,543,2,0.0813814390451166,1
571,544,2,0.0838703107601198,1
571,545,2,0.0875890871360984,1
571,546,2,0.0829049625246072,1
571,547,2,0.0728179222147566,1
571,550,2,0.0691617809261957,1
571,551,2,0.0736450623593181,1
572,540,2,0.0690767560561667,1
572,541,2,0.0831729510917062,1
572,542,2,0.0915713178187594,1
572,543,2,0.0958183145690423,1
572,544,2,0.103391895133494,1
572,545,2,0.111084887871873,1
572,546,2,0.0998519195602795,1
572,547,2,0.0807143277453994,1
573,541,2,0.0898700716961809,1
573,542,2,0.115448846977708,1
573,543,2,0.134028005988243,1
573,544,2,0.131757413689484,1
573,545,2,0.123738169833054,1
573,546,2,0.102653691182676,1
573,547,2,0.0778509932054856,1
574,541,2,0.115846364450363,1
574,542,2,0.167494178177339,1
574,543,2,0.194860913568299,1
574,544,2,0.161927879359587,1
574,545,2,0.114493657402256,1
574,546,2,0.0822091362388443,1
575,540,2,0.103200809300196,1
575,541,2,0.18221002751751,1
575,542,2,0.231940921258213,1
575,543,2,0.232493466112771,1
575,544,2,0.172673094223393,1
575,545,2,0.100467680510524,1
576,539,2,0.0731585068667271,1
576,540,2,0.147137421369815,1
576,541,2,0.248415824048941,1
576,542,2,0.259784850121909,2
576,543,2,0.207516124237346,1
576,544,2,0.144305718836849,1
576,545,2,0.0848955747247554,1
577,539,2,0.0817503972659021,1
577,540,2,0.158764259380492,1
577,541,2,0.24288591911004,2
577,542,2,0.218602361006769,1
577,543,2,0.141952491588677,1
577,544,2,0.0940351522701682,1
578,538,2,0.0698862563104686,1
578,539,2,0.0854805602060176,1
578,540,2,0.135967794939205,1
578,541,2,0.181690630083223,1
578,542,2,0.153605480961281,1
578,543,2,0.0959773131724182,1
579,538,2,0.0806494584715414,1
579,539,2,0.0852828676498141,1
579,540,2,0.10345387733533,1
579,541,2,0.115332896894296,1
579,542,2,0.0966175483473154,1
579,543,2,0.0681920361951141,1
580,537,2,0.080101370010313,1
580,538,2,0.0806432291045227,1
580,539,2,0.0802582182841122,1
580,540,2,0.083455303141604,1
580,541,2,0.0799913438153455,1
581,536,2,0.0703608861590844,1
581,537,2,0.0756044857959411,1
581,538,2,0.0747764352054306,1
581,539,2,0.0737413539979646,1
581,540,2,0.0714325289591293,1
582,535,2,0.0699217277638192,1
582,536,2,0.0724632376301303,1
582,537,2,0.0743896334420023,1
582,538,2,0.0729935065078197,1
582,539,2,0.0711999639271731,1
583,535,2,0.0695716553066971,1
583,536,2,0.0709809896969145,1
583,537,2,0.071609436992684,1
583,538,2,0.0700385104260916,1
584,535,2,0.0704482710008494,1
584,536,2,0.0713117690856065,1
584,537,2,0.070947812327764,1
584,538,2,0.0685300212843096,1
585,534,2,0.0696705225490148,1
585,535,2,0.0719076978875833,1
585,536,2,0.0732437952868993,1
585,537,2,0.072027589243589,1
586,533,2,0.0711861335344365,1
586,534,2,0.0756138058873652,1
586,535,2,0.0791823706613297,1
586,536,2,0.0805286806286907,1
586,537,2,0.0772191916351676,1
586,538,2,0.0688930196779954,1
587,534,2,0.0913837419941852,1
587,535,2,0.0973552910853829,1
587,536,2,0.0952472373476045,1
587,537,2,0.0867070267355807,1
587,538,2,0.0740704981778143,1
588,534,2,0.0971219533723253,1
588,535,2,0.10323183633977,1
588,536,2,0.0977923949874871,1
588,537,2,0.0855589663735893,1
588,538,2,0.0716043876115332,1
589,534,2,0.0875990301642243,1
589,535,2,0.0917212898297342,1
589,536,2,0.0880521567170737,1
589,537,2,0.0783416576843986,1
590,534,2,0.0751803916872643,1
590,535,2,0.0762549035900034,1
590,536,2,0.0756431138612329,1
590,537,2,0.0709889141705353,1
591,535,2,0.0701576889987558,1
591,536,2,0.070143894544675,1
591,537,2,0.069393423532651,1
592,535,2,0.0687401665847745,1
592,536,2,0.0702492606939304,1
592,537,2,0.0752348028122621,1
592,538,2,0.0734988519276585,1
593,535,2,0.0688403695471356,1
593,536,2,0.0736019060233858,1
593,537,2,0.082973994692771,1
593,538,2,0.0836658138184036,1
593,539,2,0.069932024188728,1
594,535,2,0.0693450620813925,1
594,536,2,0.0764909426920277,1
594,537,2,0.0848110589856846,1
594,538,2,0.0817167167555693,1
594,539,2,0.0704839820452392,1
595,536,2,0.0772855763223485,1
595,537,2,0.0804696873250686,1
595,538,2,0.0731016938415615,1
595,541,2,0.070365683969644,1
595,542,2,0.0739458569294568,1
596,537,2,0.0732819681292166,1
596,540,2,0.0718360242282126,1
596,541,2,0.0892669791221327,1
596,542,2,0.114045885709132,1
596,543,2,0.0949700005663932,1
597,539,2,0.069714319790977,1
597,540,2,0.0804880819271016,1
597,541,2,0.11400618547394,1
597,542,2,0.160764724762127,1
597,543,2,0.141797008983801,1
597,544,2,0.0795080826995432,1
598,540,2,0.0761485970459192,1
598,541,2,0.100256540907247,1
598,542,2,0.133035512087991,1
598,543,2,0.117349091427653,1
598,544,2,0.0704177590820098,1
599,541,2,0.0712416108395586,1
599,542,2,0.0782377650200341,1
599,543,2,0.0690922875452815,1
559,565,3,0.0829362650938761,1
559,566,3,0.0982041082292143,1
559,567,3,0.0812133958800117,1
560,565,3,0.0967037472134364,1
560,566,3,0.116248985212154,1
560,567,3,0.0971225763090272,1
560,568,3,0.0743964617866189,1
560,569,3,0.0704659887581968,1
561,565,3,0.0778113289089494,1
561,566,3,0.0977670282862139,1
561,567,3,0.100170545693509,1
561,568,3,0.090331787587785,1
561,569,3,0.0800408013956082,1
561,570,3,0.0754746214629295,1
562,566,3,0.0864038003163943,1
562,567,3,0.110008345435077,1
562,568,3,0.10870566499595,1
562,569,3,0.0895117513175351,1
562,570,3,0.0771339571229793,1
562,571,3,0.078388875088445,1
563,566,3,0.0757027959890927,1
563,567,3,0.0990649348738845,1
563,568,3,0.0994580139225394,1
563,569,3,0.0841400124031489,1
563,570,3,0.0764998794377891,1
563,571,3,0.0869421733609841,1
563,572,3,0.107642539657348,1
564,567,3,0.0690504489600647,1
564,568,3,0.0703185444326853,1
564,570,3,0.071662326714583,1
564,571,3,0.0911923327129842,1
565,571,3,0.0843435270216045,1
565,572,3,0.104355254763381,1
566,572,3,0.0739336737251145,1
566,573,3,0.0928112613442763,1
567,547,3,0.0693316330036465,1
567,548,3,0.0696183575900093,1
567,575,3,0.0782162078162839,1
568,546,3,0.0698277302093729,1
568,547,3,0.0727067040543691,1
568,548,3,0.070334986367749,1
568,549,3,0.0701429002418624,1
568,550,3,0.0705709535924616,1
569,545,3,0.0706676405563227,1
569,546,3,0.0721236892094042,1
569,547,3,0.0710908661474825,1
569,549,3,0.0715931208429158,1
569,550,3,0.0790051571492001,1
569,551,3,0.077515416006234,1
570,542,3,0.0690070051148853,1
570,543,3,0.069515866533224,1
570,544,3,0.073000430688852,1
570,545,3,0.076257928426873,1
570,546,3,0.0745235828022319,1
570,547,3,0.0693030138540164,1
570,550,3,0.0769378039392025,1
570,551,3,0.0805538436775806,1
570,552,3,0.0696726728785915,1
571,541,3,0.0832294466587448,1
571,542,3,0.0884183177124768,1
571,543,3,0.0833893856569495,1
571,544,3,0.0834125660899902,1
571,545,3,0.0873725507446633,1
571,546,3,0.084392187961662,1
571,547,3,0.0740164524291513,1
571,551,3,0.069722765375108,1
572,540,3,0.0688526186390136,1
572,541,3,0.0903394844499186,1
572,542,3,0.0997088238121292,1
572,543,3,0.0962406057551493,1
572,544,3,0.0968553184945977,1
572,545,3,0.104081150635007,1
572,546,3,0.0991818013930206,1
572,547,3,0.0814765327285672,1
573,541,3,0.0871431483144243,1
573,542,3,0.112907504825124,1
573,543,3,0.129206260283846,1
573,544,3,0.120946455044527,1
573,545,3,0.112575946765555,1
573,546,3,0.0998217670279987,1
573,547,3,0.0764661569990245,1
574,541,3,0.104680990760699,1
574,542,3,0.168571655019188,1
574,543,3,0.210086840251333,1
574,544,3,0.169468839604054,1
574,545,3,0.109795959958396,1
574,546,3,0.0801017353866477,1
575,540,3,0.0980391198498588,1
575,541,3,0.186866215813833,1
575,542,3,0.253764813794157,2
575,543,3,0.265925328865056,1
575,544,3,0.192244160136134,1
575,545,3,0.0988091714395598,1
576,539,3,0.0684096866848813,1
576,540,3,0.173494412305702,1
576,541,3,0.320151345825993,2
576,542,3,0.327511127326633,2
576,543,3,0.239926706226022,2
576,544,3,0.151006541122879,1
576,545,3,0.077073861700577,1
577,539,3,0.0789019892477292,1
577,540,3,0.206195785938632,2
577,541,3,0.353456968059735,2
577,542,3,0.304732320744933,2
577,543,3,0.162891921823936,1
577,544,3,0.0880892813485947,1
578,539,3,0.084121006843966,1
578,540,3,0.166700149514392,1
578,541,3,0.252895841054155,2
578,542,3,0.202801308013736,1
578,543,3,0.103378777524099,1
579,538,3,0.0719196235315585,1
579,539,3,0.0852583035785222,1
579,540,3,0.11282028170731,1
579,541,3,0.132349479085954,1
579,542,3,0.102247704166785,1
580,537,3,0.0720982206819393,1
580,538,3,0.0746609942529777,1
580,539,3,0.0824184789093279,1
580,540,3,0.0890496940087002,1
580,541,3,0.0840449067401464,1
581,537,3,0.0729081222512319,1
581,538,3,0.0726180074516647,1
581,539,3,0.0740207590780805,1
581,540,3,0.0720867802098185,1
582,536,3,0.0697713484480778,1
582,537,3,0.0718934482105281,1
582,538,3,0.0699088617250152,1
582,539,3,0.0686979446538949,1
583,536,3,0.0694822938388589,1
583,537,3,0.0693644270271343,1
584,536,3,0.0679729781079917,1
585,534,3,0.0680000219465392,1
585,535,3,0.0701413788387636,1
585,536,3,0.0709240928148852,1
585,537,3,0.0696106068198918,1
586,533,3,0.0706346189213477,1
586,534,3,0.0727150058838767,1
586,535,3,0.0760542880231219,1
586,536,3,0.0763379278748553,1
586,537,3,0.0725908078789417,1
587,533,3,0.0774174651996412,1
587,534,3,0.0820940486831741,1
587,535,3,0.0855504189632666,1
587,536,3,0.083874072339435,1
587,537,3,0.0777619971139822,1
588,534,3,0.086649087632531,1
588,535,3,0.0881194877888593,1
588,536,3,0.0843857789013639,1
588,537,3,0.0777253876031955,1
589,534,3,0.0824686193240523,1
589,535,3,0.081967239135912,1
589,536,3,0.0794584933442088,1
589,537,3,0.0739619634370657,1
590,534,3,0.0754638398661664,1
590,535,3,0.0740307380448624,1
590,536,3,0.0732282578080084,1
590,537,3,0.0688260959109764,1
591,535,3,0.0710919502969348,1
591,536,3,0.0702051519836173,1
592,535,3,0.0711597485712468,1
592,536,3,0.0715665142580148,1
592,537,3,0.0721959618463729,1
593,535,3,0.0724977746784281,1
593,536,3,0.0756193763790261,1
593,537,3,0.0797250503548487,1
593,538,3,0.0739253898649349,1
594,535,3,0.0722086961101053,1
594,536,3,0.0771365626755304,1
594,537,3,0.081165357876656,1
594,538,3,0.0727565689393985,1
595,536,3,0.0756824127814344,1
595,537,3,0.0764524823404633,1
596,541,3,0.0752264530645467,1
596,542,3,0.087099422949774,1
596,543,3,0.0685616413117053,1
597,540,3,0.0699988341500034,1
597,541,3,0.0940409264142125,1
597,542,3,0.12082105309462,1
597,543,3,0.103479944840393,1
598,540,3,0.069134239936242,1
598,541,3,0.0887211547962245,1
598,542,3,0.107319199570423,1
598,543,3,0.0927871345266309,1
599,541,3,0.0690117609970131,1
599,542,3,0.0733478137365593,1
559,565,4,0.0738281578314596,1
559,566,4,0.081024208805699,1
560,565,4,0.0840900516817039,1
560,566,4,0.0958138821348175,1
560,567,4,0.0849518846087387,1
560,568,4,0.0720015097589743,1
560,569,4,0.0677563997881249,1
561,565,4,0.068490446834413,1
561,566,4,0.0900248175586114,1
561,567,4,0.106206586702678,1
561,568,4,0.100623456614423,1
561,569,4,0.0808669472373572,1
561,570,4,0.0720047382482272,1
562,558,4,0.0699975223890638,1
562,559,4,0.0764990288896,1
562,566,4,0.0942373910663402,1
562,567,4,0.13653200787737,1
562,568,4,0.132082598627412,1
562,569,4,0.0920734886573289,1
562,570,4,0.0697740857757004,1
563,566,4,0.0854034478300575,1
563,567,4,0.122648318114031,1
563,568,4,0.116472679385884,1
563,569,4,0.081903262338675,1
563,571,4,0.080019537690881,1
563,572,4,0.104563914599403,1
564,567,4,0.0763696976466506,1
564,568,4,0.073117638625219,1
564,571,4,0.0862099232474898,1
565,571,4,0.081293640908809,1
565,572,4,0.104238849456996,1
566,572,4,0.0750267958618219,1
566,573,4,0.0891924363600678,1
567,548,4,0.0693143045817378,1
567,575,4,0.0725379600854746,1
568,547,4,0.0694618806823208,1
568,548,4,0.0687776446130782,1
568,549,4,0.0712473190960671,1
568,550,4,0.0734735091854892,1
569,545,4,0.0685559570143008,1
569,546,4,0.0690723475810457,1
569,547,4,0.0686427189193639,1
569,549,4,0.0726381510682837,1
569,550,4,0.0811541749649023,1
569,551,4,0.0771417438317527,1
570,544,4,0.0721357765773308,1
570,545,4,0.0757677491198144,1
570,546,4,0.0718131912021787,1
570,550,4,0.0734081966682087,1
570,551,4,0.0760805292316881,1
571,541,4,0.0828324982148072,1
571,542,4,0.0895114398491842,1
571,543,4,0.0830131258992451,1
571,544,4,0.0826745478222277,1
571,545,4,0.0868733508349796,1
571,546,4,0.082153682892826,1
571,547,4,0.0709059557732192,1
572,541,4,0.0900376117201036,1
572,542,4,0.10070873904482,1
572,543,4,0.0927604440848662,1
572,544,4,0.0904004184409581,1
572,545,4,0.0968476156426881,1
572,546,4,0.0937390836332774,1
572,547,4,0.0779963111605244,1
573,541,4,0.079257979603519,1
573,542,4,0.105868775316986,1
573,543,4,0.118862528124394,1
573,544,4,0.107679256984103,1
573,545,4,0.0992413816946888,1
573,546,4,0.0915130852166866,1
573,547,4,0.0725139949917806,1
574,541,4,0.0919576943080932,1
574,542,4,0.165900694114408,1
574,543,4,0.213954246928467,1
574,544,4,0.164140658340591,1
574,545,4,0.0986178460152225,1
574,546,4,0.0729578853100696,1
575,540,4,0.0868629286247752,1
575,541,4,0.184851374969847,2
575,542,4,0.269109086470994,2
575,543,4,0.292951222043679,1
575,544,4,0.201702519548952,1
575,545,4,0.0921065881593917,1
576,540,4,0.188041302045044,2
576,541,4,0.372188291339254,2
576,542,4,0.372790096111466,2
576,543,4,0.263015016512135,2
576,544,4,0.150462381954693,1
577,539,4,0.0774817414856772,1
577,540,4,0.252012876197464,2
577,541,4,0.460917670097898,2
577,542,4,0.384701532338034,2
577,543,4,0.184128696518368,2
577,544,4,0.0815899251776352,1
578,539,4,0.0773376154960584,1
578,540,4,0.189073699832871,1
578,541,4,0.317689476021106,2
578,542,4,0.246325871414173,2
578,543,4,0.107772206327753,1
579,539,4,0.0768853814198299,1
579,540,4,0.113164430275989,1
579,541,4,0.14317033284083,1
579,542,4,0.106350209551115,1
580,539,4,0.0764925239928863,1
580,540,4,0.0850965197293158,1
580,541,4,0.0791799687611619,1
581,537,4,0.0681484066668794,1
581,539,4,0.0706543911718561,1
581,540,4,0.0701813905423067,1
582,537,4,0.0687149376483488,1
583,536,4,0.068018482436108,1
586,535,4,0.0699058848063534,1
586,536,4,0.0688175065722218,1
587,534,4,0.0693975624678529,1
587,535,4,0.0700130478884027,1
587,536,4,0.0679877429057812,1
588,535,4,0.069039829087253,1
589,535,4,0.0684884582287878,1
590,535,4,0.0683953830998423,1
591,535,4,0.0682404934827883,1
592,534,4,0.0712573340015048,1
592,535,4,0.0701779404313425,1
592,536,4,0.0696355602266225,1
593,534,4,0.0720324229928045,1
593,535,4,0.0734074778950911,1
593,536,4,0.0744270515725462,1
593,537,4,0.0722272704054178,1
594,535,4,0.0731539845858626,1
594,536,4,0.0747974593191187,1
594,537,4,0.0727308188924626,1
595,536,4,0.0708392955563433,1
595,537,4,0.0679843227436969,1
597,541,4,0.0708064296555438,1
597,542,4,0.0776255380376171,1
598,541,4,0.0724027648518412,1
598,542,4,0.0773792983470998,1
560,565,5,0.068388464908586,1
560,566,5,0.0727211693633597,1
560,567,5,0.0709690400938354,1
560,568,5,0.0684893686747367,1
561,566,5,0.0795695917090767,1
561,567,5,0.0997209351391597,1
561,568,5,0.0984117378237678,1
561,569,5,0.0776931087004419,1
561,570,5,0.070119641941734,1
562,558,5,0.0736768081720095,1
562,559,5,0.0802655437801352,1
562,566,5,0.0936260086423363,1
562,567,5,0.136445803021473,1
562,568,5,0.131001719592806,1
562,569,5,0.088021686726666,1
563,566,5,0.0866342629369817,1
563,567,5,0.123520645128582,1
563,568,5,0.11407772735824,1
563,569,5,0.0766941698012362,1
563,571,5,0.0754340646897722,1
563,572,5,0.0963848635198396,1
564,567,5,0.0748351110509258,1
564,568,5,0.0694964117408426,1
564,571,5,0.0791775908200981,1
564,572,5,0.102904339348314,1
565,571,5,0.0742263701181289,1
565,572,5,0.0956107628415766,1
566,572,5,0.073013889715478,1
566,573,5,0.0854273230771118,1
567,575,5,0.0678894207330777,1
568,549,5,0.0701333166002952,1
568,550,5,0.073665253894145,1
569,549,5,0.0703617067583936,1
569,550,5,0.0776820875126396,1
569,551,5,0.0729762739223267,1
570,544,5,0.0714234784076243,1
570,545,5,0.0750859389098435,1
570,546,5,0.0703531892969508,1
570,551,5,0.068451279689283,1
571,541,5,0.0764974475887414,1
571,542,5,0.0845123548473628,1
571,543,5,0.0802026451425744,1
571,544,5,0.0818321996364541,1
571,545,5,0.0853201959337184,1
571,546,5,0.078959904391675,1
571,547,5,0.068319468679078,1
572,541,5,0.0843859286457634,1
572,542,5,0.0963087095080362,1
572,543,5,0.0905449337660156,1
572,544,5,0.0894793106908301,1
572,545,5,0.0933749411923794,1
572,546,5,0.0873999000617857,1
572,547,5,0.0732326123751455,1
573,541,5,0.0750785355467329,1
573,542,5,0.101065202592912,1
573,543,5,0.11258081046365,1
573,544,5,0.102559843372629,1
573,545,5,0.0939346558087841,1
573,546,5,0.0844343859334376,1
573,547,5,0.0680668438873665,1
574,541,5,0.089969112642002,1
574,542,5,0.158900107499707,1
574,543,5,0.201506845547253,1
574,544,5,0.149235999281994,1
574,545,5,0.0912787052826086,1
575,540,5,0.0850216834682279,1
575,541,5,0.181132634532525,2
575,542,5,0.263347137610647,2
575,543,5,0.287998923182034,1
575,544,5,0.190318207567684,1
575,545,5,0.0865794265378894,1
576,540,5,0.185473329348455,2
576,541,5,0.371970503084639,2
576,542,5,0.363236834688029,2
576,543,5,0.25843017842728,2
576,544,5,0.140726372466121,1
577,539,5,0.0849070571253081,1
577,540,5,0.268670706746606,2
577,541,5,0.496320983756973,2
577,542,5,0.406311613830613,2
577,543,5,0.194299815313643,2
577,544,5,0.0799263427664159,1
578,539,5,0.0787074592932429,1
578,540,5,0.195338574243561,2
578,541,5,0.340217790171343,2
578,542,5,0.260074132342615,2
578,543,5,0.112866127452658,1
579,539,5,0.0741238371329118,1
579,540,5,0.112676311451867,1
579,541,5,0.148523455531472,2
579,542,5,0.11026868505825,1
580,539,5,0.0728693743904205,1
580,540,5,0.0814909441295739,1
580,541,5,0.0762190428012141,1
581,537,5,0.0678797053164389,1
581,539,5,0.0685729260496507,1
581,540,5,0.0680972060618066,1
582,536,5,0.068695584682159,1
582,537,5,0.0698611351900106,1
583,536,5,0.0683930590667622,1
583,537,5,0.0678018082798255,1
586,533,5,0.0683157669975227,1
587,533,5,0.0708533475707912,1
591,534,5,0.0718872847310452,1
591,535,5,0.0690382717454983,1
592,534,5,0.0747065345197498,1
592,535,5,0.0739811307202001,1
592,536,5,0.0696242395500212,1
593,534,5,0.0775809501452257,1
593,535,5,0.0793656158778707,1
593,536,5,0.0742946296051913,1
594,534,5,0.0740381953159568,1
594,535,5,0.0769024043631637,1
594,536,5,0.0727066741054893,1
595,535,5,0.0696208193879369,1
595,536,5,0.0678049828610946,1
560,568,6,0.0710809111398045,1
560,569,6,0.0686996098116172,1
561,566,6,0.069147675003764,1
561,567,6,0.0886705411891977,1
561,568,6,0.0934619426884817,1
561,569,6,0.0777038543585491,1
561,570,6,0.0685748727268441,1
562,558,6,0.071507155578058,1
562,559,6,0.0739164111907416,1
562,566,6,0.081895349844606,1
562,567,6,0.11508690877437,1
562,568,6,0.113452298909564,1
562,569,6,0.0824993289054993,1
563,566,6,0.0760699692566362,1
563,567,6,0.104103744070002,1
563,568,6,0.0974015081968407,1
563,569,6,0.0714946129871569,1
563,571,6,0.0738414072159262,1
563,572,6,0.0851351717537115,1
564,571,6,0.0738893613624182,1
564,572,6,0.0889360499890411,1
565,572,6,0.0818329663277795,1
565,573,6,0.10489264548471,1
566,573,6,0.0785513417721131,1
566,574,6,0.101917020614509,1
566,576,6,0.0999814963840441,1
568,549,6,0.0694530876911829,1
568,550,6,0.072254667640748,1
568,551,6,0.0679159614304428,1
569,549,6,0.0689875563122799,1
569,550,6,0.0734020331887258,1
569,551,6,0.0702505245366621,1
570,544,6,0.0696358357563175,1
570,545,6,0.073164658366658,1
570,546,6,0.0699832427631287,1
571,541,6,0.0693487398038439,1
571,542,6,0.0776705272449992,1
571,543,6,0.076938534691872,1
571,544,6,0.0806050442826534,1
571,545,6,0.0831183842325329,1
571,546,6,0.0772296857226837,1
571,547,6,0.0685236301933394,1
572,541,6,0.0764897327572798,1
572,542,6,0.0888668620867019,1
572,543,6,0.0887992255363413,1
572,544,6,0.0912184900646867,1
572,545,6,0.0927690753520527,1
572,546,6,0.0842547405722603,1
572,547,6,0.0707623029759028,1
573,541,6,0.0723189199676801,1
573,542,6,0.0971033790770129,1
573,543,6,0.108223823457055,1
573,544,6,0.10196466329265,1
573,545,6,0.0933877832720795,1
573,546,6,0.0818434604152956,1
574,541,6,0.0899804213390513,1
574,542,6,0.148445935850745,1
574,543,6,0.177058257136195,1
574,544,6,0.130463538221048,1
574,545,6,0.0851940213027101,1
575,540,6,0.0842608860824153,1
575,541,6,0.16911933617565,2
575,542,6,0.242856617125948,2
575,543,6,0.253921698006612,1
575,544,6,0.163425335334014,1
575,545,6,0.0783015920728717,1
576,540,6,0.167378922907941,2
576,541,6,0.327450247243577,2
576,542,6,0.327040594484787,2
576,543,6,0.236140784461314,2
576,544,6,0.126898627210431,1
577,539,6,0.0874560961400254,1
577,540,6,0.250149600644864,2
577,541,6,0.451783549238402,2
577,542,6,0.378147040279183,2
577,543,6,0.188881751471832,2
577,544,6,0.0777809667345093,1
578,539,6,0.0795677588376269,1
578,540,6,0.186827665615629,1
578,541,6,0.320745603480472,2
578,542,6,0.251363704276805,2
578,543,6,0.113315827853647,1
579,539,6,0.0725264657053699,1
579,540,6,0.109672067432035,1
579,541,6,0.146642354405557,1
579,542,6,0.112159813069154,1
580,539,6,0.0716558098383173,1
580,540,6,0.0797214864381409,1
580,541,6,0.0755046122712588,1
581,537,6,0.0691238416851415,1
581,538,6,0.0678203226773781,1
581,539,6,0.0693356281842248,1
581,540,6,0.0681731504314508,1
582,536,6,0.0698587452693947,1
582,537,6,0.071678666823455,1
583,536,6,0.0678228264037375,1
583,537,6,0.068173366063386,1
585,533,6,0.0683372403444092,1
586,532,6,0.077516877511573,1
586,533,6,0.07121141038907,1
587,532,6,0.0801188421868452,1
587,533,6,0.0734890826030359,1
587,534,6,0.0683617265486135,1
588,533,6,0.075161200445026,1
588,534,6,0.0691458421323142,1
591,534,6,0.0706152120471741,1
591,535,6,0.0690649442179351,1
592,534,6,0.0746158313420922,1
592,535,6,0.076011287421365,1
593,534,6,0.07923373898013,1
593,535,6,0.0822737239932313,1
593,536,6,0.0712514700108209,1
594,535,6,0.0766989316731399,1
559,568,7,0.0696877311754039,1
559,569,7,0.0692494772363116,1
560,567,7,0.0679607469854416,1
560,568,7,0.0827848555366662,1
560,569,7,0.0787473991194742,1
561,567,7,0.0831553770889823,1
561,568,7,0.0970536519568311,1
561,569,7,0.0856237338212557,1
561,570,7,0.0700828467478919,1
562,558,7,0.068960644248804,1
562,566,7,0.0684297164957568,1
562,567,7,0.0902649656469576,1
562,568,7,0.0967038909680599,1
562,569,7,0.0804901184509347,1
562,570,7,0.0688234663993214,1
563,567,7,0.0782751651812501,1
563,568,7,0.0783763684361998,1
563,569,7,0.0677439410540875,1
563,571,7,0.0733854654683665,1
564,554,7,0.0740986680942459,1
564,571,7,0.0723000222244648,1
564,572,7,0.0796538498877803,1
564,573,7,0.0947037370547764,1
565,553,7,0.0709953471899373,1
565,554,7,0.0760847640033056,1
565,572,7,0.0724953488191564,1
565,573,7,0.0905670540087079,1
565,574,7,0.128720932695331,1
566,573,7,0.073951637063277,1
566,574,7,0.0898903650571995,1
566,575,7,0.0984912341305677,1
566,576,7,0.0847497955569663,1
568,548,7,0.0691641588672596,1
568,549,7,0.069835864325153,1
568,550,7,0.0709188218120232,1
568,551,7,0.0702258346800746,1
569,548,7,0.0681755163929627,1
569,549,7,0.0695812509278163,1
569,550,7,0.0715469995678736,1
569,551,7,0.0701912557033449,1
570,544,7,0.070260773043363,1
570,545,7,0.0734503227626725,1
570,546,7,0.0725305507325879,1
570,547,7,0.0689310847043451,1
571,542,7,0.0744977189495524,1
571,543,7,0.0776891614380714,1
571,544,7,0.0809171715089453,1
571,545,7,0.0822389293845663,1
571,546,7,0.0781418147986185,1
571,547,7,0.0710986708255838,1
572,541,7,0.0701902973391882,1
572,542,7,0.0831389950516783,1
572,543,7,0.0888607944436346,1
572,544,7,0.0928657982545697,1
572,545,7,0.0923018428767715,1
572,546,7,0.0831561018518758,1
572,547,7,0.0708631588238457,1
573,541,7,0.0715735043265829,1
573,542,7,0.0933705506865865,1
573,543,7,0.105388503099398,1
573,544,7,0.103093843880754,1
573,545,7,0.0945393356734669,1
573,546,7,0.0809203580697664,1
574,541,7,0.0922201962403949,1
574,542,7,0.13560734220031,1
574,543,7,0.152628404744401,1
574,544,7,0.118965492373482,1
574,545,7,0.0856044826812576,1
575,540,7,0.0905066890463865,1
575,541,7,0.157450078571485,1
575,542,7,0.212767288961265,1
575,543,7,0.209997185284472,1
575,544,7,0.139227718536497,1
575,545,7,0.0769281484203236,1
576,540,7,0.155568019081414,1
576,541,7,0.278167760112251,2
576,542,7,0.286127525493205,2
576,543,7,0.208542077026219,1
576,544,7,0.115498118874915,1
577,539,7,0.0924179786432381,1
577,540,7,0.226134863687553,2
577,541,7,0.382362716490869,2
577,542,7,0.334511761859541,2
577,543,7,0.179413628724167,2
577,544,7,0.0785956721041374,1
578,539,7,0.0858001806420599,1
578,540,7,0.183111524741081,1
578,541,7,0.292456083202109,2
578,542,7,0.239815583902051,2
578,543,7,0.116644346365457,1
579,539,7,0.0782137999263401,1
579,540,7,0.115491290530298,1
579,541,7,0.147957817026623,1
579,542,7,0.116922619377912,1
580,538,7,0.0682135874090884,1
580,539,7,0.0776220220391172,1
580,540,7,0.0866629839128034,1
580,541,7,0.082116588210185,1
581,536,7,0.0682914485070459,1
581,537,7,0.0717899209224983,1
581,538,7,0.0729123929615053,1
581,539,7,0.0753266320678039,1
581,540,7,0.0742813502718448,1
582,533,7,0.0678891571829346,1
582,535,7,0.0681484905237431,1
582,536,7,0.0722452397333563,1
582,537,7,0.0747077384647217,1
582,538,7,0.0719345201044195,1
582,539,7,0.0685407968912967,1
583,536,7,0.0695068698897028,1
583,537,7,0.0710339752552291,1
584,533,7,0.0698748338076757,1
585,532,7,0.076405815995807,1
585,533,7,0.0708360970159703,1
586,532,7,0.0798278708493129,1
586,533,7,0.0740511512014005,1
586,534,7,0.0696401723541267,1
587,532,7,0.0815087936619928,1
587,533,7,0.0753900518158749,1
587,534,7,0.069895199046006,1
588,532,7,0.0815176046224587,1
588,533,7,0.0760907298201812,1
588,534,7,0.070162570666179,1
589,533,7,0.074728696690874,1
590,535,7,0.0701723579601296,1
591,534,7,0.073912775396722,1
591,535,7,0.0730466837389658,1
592,534,7,0.0774476716399058,1
592,535,7,0.0796150660883131,1
592,536,7,0.068580736717528,1
593,534,7,0.0801742715737595,1
593,535,7,0.083746346356448,1
593,536,7,0.0706547325890869,1
594,535,7,0.0750586854291368,1
559,568,8,0.0746808024421419,1
559,569,8,0.0703279124423173,1
560,567,8,0.0756111823654862,1
560,568,8,0.0929427069781465,1
560,569,8,0.0850298714919919,1
561,567,8,0.0827328043834043,1
561,568,8,0.100985742224768,1
561,569,8,0.0903113025539351,1
561,570,8,0.0691798880189817,1
562,567,8,0.0721427007583631,1
562,568,8,0.0827812796404064,1
562,569,8,0.0756909242531013,1
564,553,8,0.0778221105057125,1
564,554,8,0.087410927239364,1
564,555,8,0.0744781443616514,1
564,571,8,0.0712574238481445,1
564,572,8,0.0751371035762604,1
564,573,8,0.0858345320073024,1
565,553,8,0.084930465169836,1
565,554,8,0.0922933853130885,1
565,555,8,0.0749735108147082,1
565,572,8,0.0692875123137815,1
565,573,8,0.0828575115192976,1
565,574,8,0.105922874973633,1
566,553,8,0.0744736340603388,1
566,554,8,0.0751295324994223,1
566,573,8,0.0726184626746391,1
566,574,8,0.0830710290636389,1
566,575,8,0.0887187049778489,1
566,576,8,0.0789665889816681,1
567,548,8,0.0682429852295958,1
567,549,8,0.06958775582453,1
567,550,8,0.0710635048508081,1
567,551,8,0.0713970814648826,1
567,552,8,0.0686844137499572,1
568,548,8,0.0712338720489931,1
568,549,8,0.0732024358837608,1
568,550,8,0.0757039759749606,1
568,551,8,0.075942327130513,1
568,552,8,0.070323899292411,1
569,547,8,0.0685662115107777,1
569,548,8,0.0703958185325969,1
569,549,8,0.0717223263005696,1
569,550,8,0.0743615354028824,1
569,551,8,0.0731763923378019,1
569,552,8,0.0686915835118047,1
570,543,8,0.0695472529593566,1
570,544,8,0.0710650681823388,1
570,545,8,0.0728139150546263,1
570,546,8,0.0742042079470048,1
570,547,8,0.0715829561930786,1
570,548,8,0.0683868596486235,1
571,542,8,0.0732051911807114,1
571,543,8,0.0798528661844753,1
571,544,8,0.0820391044681141,1
571,545,8,0.0817327573756424,1
571,546,8,0.0788980240160307,1
571,547,8,0.0723452929513179,1
572,542,8,0.078337758340236,1
572,543,8,0.0887485520315547,1
572,544,8,0.0939640416497396,1
572,545,8,0.0918108130215238,1
572,546,8,0.0821404275185834,1
572,547,8,0.0705217595623419,1
573,541,8,0.0694652828750771,1
573,542,8,0.088381426682219,1
573,543,8,0.1024621261673,1
573,544,8,0.103232842622134,1
573,545,8,0.094715830412479,1
573,546,8,0.0793706892181253,1
574,541,8,0.0919392877265082,1
574,542,8,0.124186552483328,1
574,543,8,0.135507732225771,1
574,544,8,0.111320010538172,1
574,545,8,0.0856680821226079,1
575,540,8,0.0933995292227753,1
575,541,8,0.149639662264804,1
575,542,8,0.190260801554697,1
575,543,8,0.178895944365811,1
575,544,8,0.121052593874884,1
575,545,8,0.0747082715547839,1
576,539,8,0.0787720650169578,1
576,540,8,0.147905286691283,1
576,541,8,0.247692139315097,2
576,542,8,0.258018656858385,1
576,543,8,0.187695703950578,1
576,544,8,0.103953508508884,1
577,539,8,0.0958643400076688,1
577,540,8,0.207837200188951,2
577,541,8,0.333863284752896,2
577,542,8,0.300902290269911,2
577,543,8,0.169962085676414,1
577,544,8,0.0753789527609848,1
578,539,8,0.0906962834254657,1
578,540,8,0.178595221672984,1
578,541,8,0.269415978633079,2
578,542,8,0.225589889909834,1
578,543,8,0.114611392438909,1
579,539,8,0.0818656585250756,1
579,540,8,0.117109488408921,1
579,541,8,0.145198315253314,1
579,542,8,0.115133113906276,1
580,538,8,0.0723488388986977,1
580,539,8,0.0828496169945566,1
580,540,8,0.0916524912628336,1
580,541,8,0.0859647856757526,1
581,536,8,0.0705508698736023,1
581,537,8,0.0738611255584508,1
581,538,8,0.077166194097301,1
581,539,8,0.0809153266579436,1
581,540,8,0.0793393686795285,1
582,532,8,0.0707340851412634,1
582,533,8,0.0697551880324851,1
582,534,8,0.0694400359693235,1
582,535,8,0.069752288980911,1
582,536,8,0.0732141219366968,1
582,537,8,0.0759921980053183,1
582,538,8,0.0756353810604434,1
582,539,8,0.072450461437966,1
583,533,8,0.0691808403933625,1
583,536,8,0.0701348859216018,1
583,537,8,0.0727144967529185,1
583,538,8,0.0705348472228571,1
584,532,8,0.0756843115404199,1
584,533,8,0.0707379425569942,1
584,534,8,0.0680505876353582,1
585,532,8,0.0766775541626691,1
585,533,8,0.0727077762242695,1
585,534,8,0.0695176874251218,1
586,532,8,0.0789906798606577,1
586,533,8,0.0756135063985662,1
586,534,8,0.0716761930459755,1
587,531,8,0.0785928089912192,1
587,532,8,0.0792300372985746,1
587,533,8,0.0750707967561673,1
587,534,8,0.0698221716972639,1
588,532,8,0.0783311516173306,1
588,533,8,0.07422487866391,1
588,534,8,0.0689772598873711,1
589,533,8,0.0720167357695142,1
589,534,8,0.0713175132807709,1
590,535,8,0.079901485196101,1
591,534,8,0.0829690950560197,1
591,535,8,0.0883588691858802,1
591,536,8,0.0733523899254076,1
592,534,8,0.0858510518094538,1
592,535,8,0.0933658127737867,1
592,536,8,0.0763703804811122,1
593,534,8,0.08104613737556,1
593,535,8,0.0875802701858565,1
593,536,8,0.0729427551359454,1
594,535,8,0.0726665545859785,1
559,568,9,0.0736162395573048,1
560,567,9,0.0828147624881319,1
560,568,9,0.093501888504489,1
560,569,9,0.0824274815426251,1
561,567,9,0.0863962112702283,1
561,568,9,0.0988043915983281,1
561,569,9,0.0870645085455894,1
562,568,9,0.0737227437639963,1
562,569,9,0.069454213769067,1
564,553,9,0.0814531306738153,1
564,554,9,0.0899531379094647,1
564,555,9,0.0755359148405277,1
564,571,9,0.0680537322677474,1
564,572,9,0.0717354319304128,1
565,552,9,0.0720323331461648,1
565,553,9,0.09260269734467,1
565,554,9,0.0989737644937005,1
565,555,9,0.0784450112689249,1
565,573,9,0.0775914142838619,1
565,574,9,0.0893526269288636,1
566,552,9,0.070205529339504,1
566,553,9,0.0810339661507697,1
566,554,9,0.0822963952953137,1
566,555,9,0.0694647677543429,1
566,573,9,0.0701641100386058,1
566,574,9,0.075864597807627,1
566,575,9,0.0787665963514885,1
567,548,9,0.0682061720664257,1
567,549,9,0.0748261383665085,1
567,550,9,0.0801130261143691,1
567,551,9,0.0764829163922151,1
567,552,9,0.070924140733093,1
567,553,9,0.0713713493872747,1
567,554,9,0.0703982443918686,1
568,548,9,0.0708112094967754,1
568,549,9,0.07752942609225,1
568,550,9,0.083694924129664,1
568,551,9,0.0806191442153092,1
568,552,9,0.072459829447598,1
568,553,9,0.069212526308294,1
569,548,9,0.069238252396126,1
569,549,9,0.0730860365671511,1
569,550,9,0.0778302985294765,1
569,551,9,0.0753923698591789,1
569,552,9,0.0706002915152092,1
569,553,9,0.0685972325605756,1
570,543,9,0.0712919189680105,1
570,544,9,0.0707984213250592,1
570,545,9,0.070903098650077,1
570,546,9,0.0728231093607548,1
570,547,9,0.0707660046574581,1
570,550,9,0.0685128605761283,1
571,542,9,0.0730807835336171,1
571,543,9,0.0815164126570388,1
571,544,9,0.0821716402412126,1
571,545,9,0.080623570659758,1
571,546,9,0.0782178370353503,1
571,547,9,0.0715887483064507,1
572,542,9,0.076507516402163,1
572,543,9,0.0877898165087235,1
572,544,9,0.0916459564172399,1
572,545,9,0.0879520436013523,1
572,546,9,0.0788064223719762,1
572,547,9,0.0690533480116388,1
573,541,9,0.0695223834094897,1
573,542,9,0.0848081958727664,1
573,543,9,0.0983960506004774,1
573,544,9,0.0998869417804317,1
573,545,9,0.0907310660545786,1
573,546,9,0.0753977486780085,1
574,541,9,0.0911027735825387,1
574,542,9,0.113379367397237,1
574,543,9,0.121074480516313,1
574,544,9,0.104080875105312,1
574,545,9,0.0837316534359703,1
575,540,9,0.0957005136448534,1
575,541,9,0.143531851759849,1
575,542,9,0.169901780611852,1
575,543,9,0.154298462103454,1
575,544,9,0.108020901826422,1
575,545,9,0.0735227810826966,1
576,539,9,0.0831261350026504,1
576,540,9,0.14096803596779,1
576,541,9,0.222083858397096,1
576,542,9,0.226088478862368,1
576,543,9,0.163917443348938,1
576,544,9,0.0933716887440226,1
577,539,9,0.0992506119394732,1
577,540,9,0.190484184260076,1
577,541,9,0.29034612471557,2
577,542,9,0.261097880893928,1
577,543,9,0.153516365074258,1
577,544,9,0.0720344714961895,1
578,539,9,0.0950526954135662,1
578,540,9,0.167166453574396,1
578,541,9,0.237478876456031,1
578,542,9,0.198092062281786,1
578,543,9,0.106437564444,1
579,538,9,0.0685314767998726,1
579,539,9,0.0853579614712692,1
579,540,9,0.113929660096026,1
579,541,9,0.135186464601334,1
579,542,9,0.107028563660345,1
580,537,9,0.0707601646258781,1
580,538,9,0.0767939055610709,1
580,539,9,0.0867095304619401,1
580,540,9,0.0917450273119409,1
580,541,9,0.0851975133421062,1
581,535,9,0.0691863809361435,1
581,536,9,0.072733915606644,1
581,537,9,0.0763767895414103,1
581,538,9,0.0814873921924181,1
581,539,9,0.0849630974693724,1
581,540,9,0.0801383748463143,1
582,532,9,0.0693721478483718,1
582,533,9,0.0680562779225387,1
582,534,9,0.0688182972226511,1
582,535,9,0.0701533583907226,1
582,536,9,0.072669327852257,1
582,537,9,0.0761601752828875,1
582,538,9,0.078219106867858,1
582,539,9,0.0748035629008418,1
583,533,9,0.067743485831113,1
583,536,9,0.0694902842000156,1
583,537,9,0.0723352720561042,1
583,538,9,0.0713445930579742,1
584,532,9,0.0751852493955837,1
584,533,9,0.0703082420180006,1
585,531,9,0.0788028884041483,1
585,532,9,0.0764946084349271,1
585,533,9,0.0735823434150367,1
585,534,9,0.0702364785119901,1
586,531,9,0.0767429864754692,1
586,532,9,0.0766369015530962,1
586,533,9,0.0749739420785788,1
586,534,9,0.071335901893028,1
587,531,9,0.0752025778174924,1
587,532,9,0.0757605074806552,1
587,533,9,0.073194786939835,1
587,534,9,0.0687155965237065,1
588,532,9,0.0743324670200539,1
588,533,9,0.0720706617226577,1
588,534,9,0.0678555006317057,1
589,533,9,0.0693285063405852,1
589,534,9,0.0692410436317325,1
590,535,9,0.0970766886352482,1
590,536,9,0.080585865019967,1
591,534,9,0.0969657639738838,1
591,535,9,0.124762098077646,1
591,536,9,0.101377653267107,1
592,534,9,0.0993300243894094,1
592,535,9,0.12684639636389,1
592,536,9,0.101553884455975,1
593,535,9,0.0962387668939236,1
593,536,9,0.080031223743817,1
559,567,10,0.0714640950785413,1
559,568,10,0.0721868034789002,1
560,566,10,0.0719591620427992,1
560,567,10,0.0908476750133476,1
560,568,10,0.0899078192644038,1
560,569,10,0.0735860391068161,1
561,566,10,0.072467981532706,1
561,567,10,0.0905647838836117,1
561,568,10,0.0905690426143331,1
561,569,10,0.0756630837743486,1
564,553,10,0.0796299686509501,1
564,554,10,0.0843436348375721,1
564,555,10,0.0703132674400474,1
565,552,10,0.0751468489417791,1
565,553,10,0.0945358616033988,1
565,554,10,0.0995844940321226,1
565,555,10,0.0785092456265291,1
566,550,10,0.070287373638488,1
566,552,10,0.0721601789246713,1
566,553,10,0.0886109189590977,1
566,554,10,0.0947704332103081,1
566,555,10,0.0783447124701482,1
566,573,10,0.0683391091545149,1
566,574,10,0.070774504149573,1
567,548,10,0.071532276698516,1
567,549,10,0.0812046268479777,1
567,550,10,0.0882089870215451,1
567,551,10,0.0802744865156726,1
567,552,10,0.0742825781759206,1
567,553,10,0.0828428665170277,1
567,554,10,0.0877097451834295,1
567,555,10,0.0763448460661116,1
568,548,10,0.072309893375279,1
568,549,10,0.0823267814288577,1
568,550,10,0.0927787188913797,1
568,551,10,0.0915853638434313,1
568,552,10,0.0867271344135439,1
568,553,10,0.086687380270368,1
568,554,10,0.0805565810052032,1
569,548,10,0.0689433218166713,1
569,549,10,0.0751172414791124,1
569,550,10,0.0847801577314064,1
569,551,10,0.0914663110560627,1
569,552,10,0.0940876945850604,1
569,553,10,0.0901383837111828,1
569,554,10,0.0737717880497165,1
570,543,10,0.072096872982344,1
570,544,10,0.0705776022437988,1
570,545,10,0.0685034146994086,1
570,546,10,0.0702373110908513,1
570,547,10,0.0699280589570295,1
570,548,10,0.068506505423814,1
570,549,10,0.0699404038853233,1
570,550,10,0.0736240202763021,1
570,551,10,0.0788042420935197,1
570,552,10,0.0823215283953237,1
570,553,10,0.079368718581828,1
571,542,10,0.0733515393772186,1
571,543,10,0.082425181468649,1
571,544,10,0.0816689063637009,1
571,545,10,0.0781222462004934,1
571,546,10,0.0759847826626557,1
571,547,10,0.0703305299744203,1
572,542,10,0.0773449829205132,1
572,543,10,0.0873206972540088,1
572,544,10,0.08853950884987,1
572,545,10,0.0827056167902333,1
572,546,10,0.0746995085125259,1
573,541,10,0.0711857861274297,1
573,542,10,0.0844137751142921,1
573,543,10,0.0955519192823539,1
573,544,10,0.0960638654353221,1
573,545,10,0.0860979623548809,1
573,546,10,0.0719579401284994,1
574,541,10,0.0901961071822972,1
574,542,10,0.107649068513166,1
574,543,10,0.112171301459483,1
574,544,10,0.0997624203275938,1
574,545,10,0.0833189039629987,1
575,540,10,0.0955303081706199,1
575,541,10,0.137461573191181,1
575,542,10,0.156833874377818,1
575,543,10,0.137618996483474,1
575,544,10,0.0998036599352127,1
575,545,10,0.0736849542673416,1
576,539,10,0.0863567685954033,1
576,540,10,0.131806745484452,1
576,541,10,0.197049350099723,1
576,542,10,0.198123808094478,1
576,543,10,0.143300191184066,1
576,544,10,0.0851121530446223,1
577,538,10,0.0726867581003574,1
577,539,10,0.100385608600053,1
577,540,10,0.1687025915221,1
577,541,10,0.241995287340096,1
577,542,10,0.217689902493156,1
577,543,10,0.133357462546889,1
577,544,10,0.068060860101163,1
578,538,10,0.07191042922543,1
578,539,10,0.0962035949293719,1
578,540,10,0.148245074703048,1
578,541,10,0.196673443738801,1
578,542,10,0.164328593551723,1
578,543,10,0.0943445241995096,1
579,537,10,0.0677899964415939,1
579,538,10,0.0727400850759029,1
579,539,10,0.0862512886404042,1
579,540,10,0.106361602105028,1
579,541,10,0.120779639783498,1
579,542,10,0.0967766607564349,1
580,536,10,0.07098521248898,1
580,537,10,0.0745036188788922,1
580,538,10,0.0809615737182814,1
580,539,10,0.0881467472593421,1
580,540,10,0.0885435399691043,1
580,541,10,0.082470763663853,1
581,535,10,0.0707068256707806,1
581,536,10,0.0740879044668108,1
581,537,10,0.0796437571152549,1
581,538,10,0.0880229326000698,1
581,539,10,0.0890430753062429,1
581,540,10,0.0790967048852709,1
582,532,10,0.0683666920729005,1
582,534,10,0.0680365176515823,1
582,535,10,0.0701923698016771,1
582,536,10,0.0722813101643048,1
582,537,10,0.0784343015494736,1
582,538,10,0.084533043533596,1
582,539,10,0.0794194579741504,1
583,532,10,0.0698544865386733,1
583,536,10,0.0694127824886168,1
583,537,10,0.0732060956368843,1
583,538,10,0.0740913665573269,1
584,531,10,0.0761729874137077,1
584,532,10,0.0742056574727918,1
584,533,10,0.0696478212980525,1
585,531,10,0.0759031120671752,1
585,532,10,0.0754576104991477,1
585,533,10,0.0730046355115896,1
585,534,10,0.0696929123316262,1
586,531,10,0.0737154601964052,1
586,532,10,0.0738022879890041,1
586,533,10,0.0729428988905689,1
586,534,10,0.0698258973379231,1
587,531,10,0.0720490745700275,1
587,532,10,0.0717199184106259,1
587,533,10,0.0703806823686967,1
588,532,10,0.0697557211225473,1
588,533,10,0.0690458068836806,1
590,535,10,0.116318406715756,1
590,536,10,0.100656040995752,1
591,534,10,0.112460260232286,1
591,535,10,0.176390624725968,1
591,536,10,0.150719271466902,1
591,537,10,0.0836442805737573,1
592,534,10,0.110470384774584,1
592,535,10,0.168397256701769,1
592,536,10,0.140595376065449,1
592,537,10,0.0775646759238894,1
593,535,10,0.104301849920748,1
593,536,10,0.0896104508461253,1
594,535,10,0.0678866714259031,1
594,536,10,0.068210466735803,1
594,537,10,0.067889330886438,1
595,536,10,0.067936967574803,1
595,537,10,0.0765418018798696,1
595,538,10,0.0732466943384733,1
596,537,10,0.0748437183590084,1
596,538,10,0.0742924672960627,1
559,567,11,0.0724391826897966,1
559,568,11,0.0695607718837424,1
560,566,11,0.0743944671912177,1
560,567,11,0.0905566797167114,1
560,568,11,0.0823335618552665,1
561,566,11,0.0714998959695708,1
561,567,11,0.0852463240265632,1
561,568,11,0.0777411946220054,1
564,553,11,0.0724611951165213,1
564,554,11,0.0724666398228866,1
565,552,11,0.0729167714877463,1
565,553,11,0.0862750021635071,1
565,554,11,0.0914258141806653,1
565,555,11,0.0728389463284446,1
566,548,11,0.0686398797655496,1
566,549,11,0.0716712155421365,1
566,550,11,0.0744736340603388,1
566,551,11,0.0693937469805539,1
566,552,11,0.0718437210903462,1
566,553,11,0.0905048142465049,1
566,554,11,0.104977508630788,1
566,555,11,0.0855253337814644,1
567,548,11,0.0793180750259214,1
567,549,11,0.0868276787931359,1
567,550,11,0.091960090218485,1
567,551,11,0.0817616280958636,1
567,552,11,0.0768665016459425,1
567,553,11,0.0917652248365438,1
567,554,11,0.106338948772273,1
567,555,11,0.088495681659028,1
568,548,11,0.0764865342169068,1
568,549,11,0.0839932688814271,1
568,550,11,0.0941222316333582,1
568,551,11,0.0973001731668195,1
568,552,11,0.0984611894142545,1
568,553,11,0.0972177598391175,1
568,554,11,0.0909430022980614,1
568,555,11,0.0734457525636002,1
569,548,11,0.0708819188022135,1
569,549,11,0.0758652267341048,1
569,550,11,0.0892091538248266,1
569,551,11,0.108779830402129,1
569,552,11,0.1203265252102,1
569,553,11,0.105855214464169,1
569,554,11,0.0789506382082347,1
570,543,11,0.0708123655235395,1
570,544,11,0.0708689808860977,1
570,547,11,0.0686039171505687,1
570,548,11,0.0699189005895569,1
570,549,11,0.0711991612971919,1
570,550,11,0.0778843862065714,1
570,551,11,0.0930334820331159,1
570,552,11,0.101106615904034,1
570,553,11,0.0877114283104797,1
571,542,11,0.0731485578488252,1
571,543,11,0.0810583026105744,1
571,544,11,0.0811282871531189,1
571,545,11,0.0763512611161856,1
571,546,11,0.0731885156443844,1
571,547,11,0.0687282708896792,1
572,541,11,0.0689808597427348,1
572,542,11,0.0798250796137064,1
572,543,11,0.0876600420223515,1
572,544,11,0.0868325365014552,1
572,545,11,0.0790779329273511,1
572,546,11,0.0713959134585666,1
573,541,11,0.075353184744721,1
573,542,11,0.0873730239369657,1
573,543,11,0.0948748709442867,1
573,544,11,0.0930753865058685,1
573,545,11,0.0822622595620065,1
573,546,11,0.0693715728298778,1
574,541,11,0.091473804265813,1
574,542,11,0.105458391805526,1
574,543,11,0.10714166261039,1
574,544,11,0.097720260115366,1
574,545,11,0.0836960561973241,1
575,540,11,0.0956864736099575,1
575,541,11,0.12906147541887,1
575,542,11,0.142282899611259,1
575,543,11,0.123013167348495,1
575,544,11,0.0951499334368175,1
575,545,11,0.0752696752880148,1
576,539,11,0.0892805160158464,1
576,540,11,0.121779405271789,1
576,541,11,0.167916732913589,1
576,542,11,0.167149634283446,1
576,543,11,0.124200592518224,1
576,544,11,0.0813249794167338,1
577,539,11,0.0998198922281171,1
577,540,11,0.143148266506122,1
577,541,11,0.186879644891579,1
577,542,11,0.169769789908368,1
577,543,11,0.112740989052894,1
578,537,11,0.0696635444599987,1
578,538,11,0.077852921913351,1
578,539,11,0.0961312504150915,1
578,540,11,0.127693063178144,1
578,541,11,0.153940117765704,1
578,542,11,0.131521584229619,1
578,543,11,0.0849510160912217,1
579,537,11,0.0722098102084375,1
579,538,11,0.0770092859257419,1
579,539,11,0.0866899259251592,1
579,540,11,0.0994092391767384,1
579,541,11,0.106864575573579,1
579,542,11,0.0891303223831603,1
580,535,11,0.0678228982810493,1
580,536,11,0.0733433813023345,1
580,537,11,0.0769259501725391,1
580,538,11,0.0829309940910141,1
580,539,11,0.0860375674436796,1
580,540,11,0.0840942624942175,1
580,541,11,0.0793873407953483,1
581,532,11,0.069389332515657,1
581,535,11,0.0718102861608286,1
581,536,11,0.0749232745635681,1
581,537,11,0.0820081133671962,1
581,538,11,0.0918111185000988,1
581,539,11,0.088790857819298,1
581,540,11,0.0760268907877916,1
582,531,11,0.0723080425345013,1
582,532,11,0.0701618998112693,1
582,534,11,0.0678015087910265,1
582,535,11,0.0702045949344512,1
582,536,11,0.0723220406409655,1
582,537,11,0.080863497126393,1
582,538,11,0.0899189482681737,1
582,539,11,0.082560191019227,1
583,531,11,0.0725776423513388,1
583,532,11,0.0711281704722828,1
583,533,11,0.0680128400671353,1
583,535,11,0.068463846239288,1
583,536,11,0.0696293488289317,1
583,537,11,0.0743195410834901,1
583,538,11,0.0773727095935223,1
583,539,11,0.0699961986485724,1
584,531,11,0.0751988401972812,1
584,532,11,0.0747793701956606,1
584,533,11,0.070891987615635,1
584,534,11,0.0682825417101644,1
585,531,11,0.0745568200691421,1
585,532,11,0.0753114240265919,1
585,533,11,0.0727220139217728,1
585,534,11,0.069275065559296,1
586,531,11,0.0719798806779123,1
586,532,11,0.072877700179032,1
586,533,11,0.0715058557966704,1
586,534,11,0.0682055910581557,1
587,531,11,0.0697447298836249,1
587,532,11,0.069931718710153,1
587,533,11,0.068604396332647,1
588,532,11,0.06786537178252,1
590,535,11,0.126162519681206,1
590,536,11,0.11339846280306,1
590,537,11,0.0697626812422354,1
591,534,11,0.125561637334494,1
591,535,11,0.210320585269157,1
591,536,11,0.186901783103599,1
591,537,11,0.0950841956454424,1
592,534,11,0.116354836533263,1
592,535,11,0.188856067312432,1
592,536,11,0.16480359476645,1
592,537,11,0.0849438702884781,1
593,535,11,0.105512179993822,1
593,536,11,0.095752966113106,1
593,537,11,0.0686851564821787,1
594,536,11,0.0713578604117688,1
594,537,11,0.0744977488984323,1
595,536,11,0.073081957529709,1
595,537,11,0.0895120148676782,1
595,538,11,0.0881297063466804,1
595,539,11,0.0680069521173475,1
596,536,11,0.0701116815294572,1
596,537,11,0.0888093063293148,1
596,538,11,0.0914991649773103,1
596,539,11,0.073104772586415,1
597,537,11,0.0710418817595221,1
597,538,11,0.0723888266431369,1
560,567,12,0.0842196165259165,1
560,568,12,0.0734232190263653,1
561,567,12,0.0743400081480121,1
564,553,12,0.0678506249540584,1
565,552,12,0.0719089198018831,1
565,553,12,0.0807394907942893,1
565,554,12,0.0856588398982716,1
565,555,12,0.0693153468027582,1
566,547,12,0.0680515280301869,1
566,548,12,0.0739844250969889,1
566,549,12,0.0757894380986362,1
566,550,12,0.0806534296930158,1
566,551,12,0.0758497910814057,1
566,552,12,0.0756317692255277,1
566,553,12,0.0930507206083849,1
566,554,12,0.11315544561202,1
566,555,12,0.0916561090875252,1
567,547,12,0.07158605290726,1
567,548,12,0.0857651883707876,1
567,549,12,0.0902755675504413,1
567,550,12,0.094097182390212,1
567,551,12,0.0853607227579957,1
567,552,12,0.0812266392747023,1
567,553,12,0.0961083335321939,1
567,554,12,0.117526161185159,1
567,555,12,0.0963951898936283,1
568,547,12,0.067812476070845,1
568,548,12,0.0804043448589082,1
568,549,12,0.085402998596859,1
568,550,12,0.0942028480282664,1
568,551,12,0.101645803558157,1
568,552,12,0.104612168234694,1
568,553,12,0.0959116831970108,1
568,554,12,0.0908728200929096,1
568,555,12,0.0744631040341668,1
569,548,12,0.0724995117134622,1
569,549,12,0.0771678772243512,1
569,550,12,0.0941829619720144,1
569,551,12,0.122799739650793,1
569,552,12,0.13575355263197,1
569,553,12,0.106256241945548,1
569,554,12,0.0747394603183092,1
570,543,12,0.0688809083509648,1
570,544,12,0.0705028857782305,1
570,545,12,0.0680031306402726,1
570,548,12,0.0695771539210463,1
570,549,12,0.0709243623548042,1
570,550,12,0.0817520803929523,1
570,551,12,0.103917857362254,1
570,552,12,0.111956220583611,1
570,553,12,0.0856810919160354,1
571,542,12,0.0709647034960262,1
571,543,12,0.0787211758802359,1
571,544,12,0.0798125310330293,1
571,545,12,0.0748921337182507,1
571,546,12,0.0701551852723963,1
571,551,12,0.0679402919004716,1
571,552,12,0.0681322462512867,1
572,541,12,0.069229788842667,1
572,542,12,0.0792360091052262,1
572,543,12,0.0864741741943775,1
572,544,12,0.084375524404887,1
572,545,12,0.0763002941123761,1
572,546,12,0.0686635753193245,1
573,541,12,0.0769319159894147,1
573,542,12,0.0880024236071159,1
573,543,12,0.092531095562611,1
573,544,12,0.0880404467050338,1
573,545,12,0.0783434306580885,1
574,541,12,0.090056479514439,1
574,542,12,0.100793614170449,1
574,543,12,0.0996841938533015,1
574,544,12,0.0914928757125318,1
574,545,12,0.081600784641486,1
575,541,12,0.114860231692202,1
575,542,12,0.122811395754849,1
575,543,12,0.105757964461365,1
575,544,12,0.0864654590703273,1
575,545,12,0.0738807420747837,1
576,540,12,0.10932426510001,1
576,541,12,0.136726807371775,1
576,542,12,0.134435945671103,1
576,543,12,0.103068303475977,1
576,544,12,0.0737022467505944,1
577,538,12,0.0820092514246323,1
577,539,12,0.0962269191170361,1
577,540,12,0.118957825460228,1
577,541,12,0.138724493497355,1
577,542,12,0.1277845150778,1
577,543,12,0.0928704163718499,1
578,537,12,0.0743931674098302,1
578,538,12,0.0824007192235487,1
578,539,12,0.0944727413441268,1
578,540,12,0.110172093930804,1
578,541,12,0.119787696942636,1
578,542,12,0.105868296134908,1
578,543,12,0.0767858972305863,1
579,536,12,0.0697904857823323,1
579,537,12,0.075818698154296,1
579,538,12,0.0804847156730012,1
579,539,12,0.0865962877572717,1
579,540,12,0.0937201140127503,1
579,541,12,0.0958693175115078,1
579,542,12,0.0831225650961666,1
580,535,12,0.0688708515170953,1
580,536,12,0.0738232821538123,1
580,537,12,0.0775932471553116,1
580,538,12,0.0823578084684315,1
580,539,12,0.0828869213193569,1
580,540,12,0.0807639710087176,1
580,541,12,0.0770753471650199,1
581,532,12,0.071146804665355,1
581,535,12,0.0710969637394296,1
581,536,12,0.075301480998466,1
581,537,12,0.0832230196291188,1
581,538,12,0.091460387167619,1
581,539,12,0.0856862251540498,1
581,540,12,0.0725294366342557,1
582,531,12,0.0736113339307776,1
582,532,12,0.0728530881895322,1
582,533,12,0.0682582292094636,1
582,535,12,0.0690911794367253,1
582,536,12,0.0737654089382983,1
582,537,12,0.084632383968216,1
582,538,12,0.0935312443965646,1
582,539,12,0.0838650756959137,1
583,531,12,0.0726331735644448,1
583,532,12,0.0720545552150488,1
583,533,12,0.0686573699114098,1
583,535,12,0.0690758875386496,1
583,536,12,0.0710926690700523,1
583,537,12,0.077099575808857,1
583,538,12,0.0809249582177187,1
583,539,12,0.0729686070090729,1
584,531,12,0.0744185999986391,1
584,532,12,0.0742614402564889,1
584,533,12,0.0712536922177093,1
584,534,12,0.0697392791874835,1
584,535,12,0.0691091607442158,1
585,531,12,0.0752332394807315,1
585,532,12,0.0768196316489029,1
585,533,12,0.0737100154900399,1
585,534,12,0.0692178691884678,1
586,531,12,0.0738492957508913,1
586,532,12,0.0768231775962828,1
586,533,12,0.0737497756229918,1
587,531,12,0.0704356924712924,1
587,532,12,0.0726512866470068,1
587,533,12,0.070113783940826,1
588,532,12,0.0683108733505475,1
590,535,12,0.118061395587136,1
590,536,12,0.109262091225342,1
590,537,12,0.0684268713521665,1
591,534,12,0.118524620902286,1
591,535,12,0.204495791679233,1
591,536,12,0.189383958249057,1
591,537,12,0.0975159248976012,1
592,535,12,0.17894339537112,1
592,536,12,0.165748002745138,1
592,537,12,0.0877331053097495,1
593,536,12,0.0953680571188871,1
593,537,12,0.0692955026749381,1
594,536,12,0.0701849544590145,1
594,537,12,0.0762274823955692,1
594,538,12,0.0693150892423911,1
595,536,12,0.0733574692554383,1
595,537,12,0.0949537622837128,1
595,538,12,0.0939207954671675,1
595,539,12,0.0715461070912527,1
596,536,12,0.0687641496477964,1
596,537,12,0.0938521765935464,1
596,538,12,0.0984080780706443,1
596,539,12,0.0781613594376396,1
597,537,12,0.0716908739869013,1
597,538,12,0.075550733546301,1
565,547,13,0.0706632560403057,1
565,551,13,0.0687961470310789,1
565,552,13,0.0718042125279854,1
565,553,13,0.0770675844153504,1
565,554,13,0.0788546400686112,1
566,546,13,0.0737139807217383,1
566,547,13,0.0758428429412694,1
566,548,13,0.0742945756972075,1
566,549,13,0.075451950160847,1
566,550,13,0.0824084759834422,1
566,551,13,0.0820618596270603,1
566,552,13,0.0798635699141507,1
566,553,13,0.0919769095094354,1
566,554,13,0.106036405187549,1
566,555,13,0.0878551949135397,1
567,547,13,0.0750099765708715,1
567,548,13,0.0831676201910844,1
567,549,13,0.0863941567770673,1
567,550,13,0.090226577172705,1
567,551,13,0.0886709484939643,1
567,552,13,0.0847838414436338,1
567,553,13,0.0939518464658453,1
567,554,13,0.108186135786592,1
567,555,13,0.0907626082148867,1
568,547,13,0.0680140859405391,1
568,548,13,0.0792442150983181,1
568,549,13,0.0837543187482767,1
568,550,13,0.0892958678116818,1
568,551,13,0.0989190778390077,1
568,552,13,0.0990877978487983,1
568,553,13,0.0870295462231971,1
568,554,13,0.0813491421730351,1
568,555,13,0.070377651542051,1
569,548,13,0.0721868873357639,1
569,549,13,0.0772494160447602,1
569,550,13,0.091284449477773,1
569,551,13,0.11722261131807,1
569,552,13,0.123214483719166,1
569,553,13,0.0924889634783712,1
570,544,13,0.0701488181405301,1
570,545,13,0.0685526147193042,1
570,549,13,0.069398413016042,1
570,550,13,0.0787925680201356,1
570,551,13,0.0984770922694801,1
570,552,13,0.101975133421062,1
570,553,13,0.0759880051621327,1
571,542,13,0.0700870755297334,1
571,543,13,0.0779708186739556,1
571,544,13,0.0803997447109559,1
571,545,13,0.07537100432826,1
571,546,13,0.0685302129571409,1
571,551,13,0.0681647587553035,1
572,542,13,0.0800211189917396,1
572,543,13,0.0873217814034611,1
572,544,13,0.0853641249507521,1
572,545,13,0.0772975798334114,1
572,546,13,0.0685908893878133,1
573,541,13,0.0814020378847101,1
573,542,13,0.0910710157902954,1
573,543,13,0.0934552401291606,1
573,544,13,0.0878179564762752,1
573,545,13,0.078838934875993,1
573,546,13,0.0687254856438487,1
574,541,13,0.0937322672682127,1
574,542,13,0.100786989478216,1
574,543,13,0.0976552051584526,1
574,544,13,0.090932891556208,1
574,545,13,0.0829161813750168,1
574,546,13,0.0701373776684093,1
575,541,13,0.10709573300818,1
575,542,13,0.110568078020809,1
575,543,13,0.0982877853996479,1
575,544,13,0.087120752542037,1
575,545,13,0.0777491490445061,1
576,541,13,0.116716415350042,1
576,542,13,0.113033326059349,1
576,543,13,0.0929691757981999,1
576,544,13,0.0750944623610623,1
577,537,13,0.0764316319302786,1
577,538,13,0.0836813033790866,1
577,539,13,0.0934030152723954,1
577,540,13,0.104813736175956,1
577,541,13,0.111095621550428,1
577,542,13,0.103444221816451,1
577,543,13,0.0836556791174463,1
578,536,13,0.0694202277801593,1
578,537,13,0.0790372922973302,1
578,538,13,0.0858778620467381,1
578,539,13,0.093295283161628,1
578,540,13,0.100054020591604,1
578,541,13,0.100777202184265,1
578,542,13,0.0913565903396701,1
578,543,13,0.0736900455769242,1
579,536,13,0.0724386555895104,1
579,537,13,0.0797264459726519,1
579,538,13,0.0838738027995159,1
579,539,13,0.0870154702496452,1
579,540,13,0.0901840916916824,1
579,541,13,0.0888573922508783,1
579,542,13,0.0790008505002709,1
580,535,13,0.0692182165954746,1
580,536,13,0.0746186884652344,1
580,537,13,0.0792191958040517,1
580,538,13,0.0821170254638315,1
580,539,13,0.0816988612333744,1
580,540,13,0.0804473035322332,1
580,541,13,0.07640201248806,1
581,532,13,0.0718301782068566,1
581,535,13,0.0697780689767268,1
581,536,13,0.0765822448472832,1
581,537,13,0.084448593682061,1
581,538,13,0.0886788010902734,1
581,539,13,0.0830026677503849,1
581,540,13,0.0737988917860237,1
582,531,13,0.0751207155491805,1
582,532,13,0.0748808250212014,1
582,533,13,0.0687490973407599,1
582,535,13,0.0683337183561333,1
582,536,13,0.07725473496583,1
582,537,13,0.0891562581131516,1
582,538,13,0.0942677592305562,1
582,539,13,0.0847091189882895,1
582,540,13,0.0699271425213047,1
583,531,13,0.072337362487921,1
583,532,13,0.0727296688554746,1
583,533,13,0.0689982241032994,1
583,534,13,0.0680909826845639,1
583,535,13,0.0690233092851015,1
583,536,13,0.0737737047780299,1
583,537,13,0.0811529350812746,1
583,538,13,0.0840997491290147,1
583,539,13,0.077255321963876,1
584,532,13,0.0730975728756876,1
584,533,13,0.0705352964560556,1
584,534,13,0.0705644726548518,1
584,535,13,0.0702080809840713,1
584,536,13,0.068666648074402,1
584,537,13,0.0690273763429916,1
584,538,13,0.0701740710360597,1
584,539,13,0.0708869202651564,1
585,531,13,0.0754952622309548,1
585,532,13,0.0773362438373591,1
585,533,13,0.0729677744302118,1
585,534,13,0.0681529948352797,1
585,539,13,0.0727220139217728,1
585,540,13,0.0692255301119456,1
586,530,13,0.0734237700857554,1
586,531,13,0.0773772857823706,1
586,532,13,0.0819773199288855,1
586,533,13,0.0765046353199168,1
586,539,13,0.0721732486158586,1
587,531,13,0.074009522258343,1
587,532,13,0.0779799231334444,1
587,533,13,0.0734206254533661,1
588,532,13,0.0707840039342765,1
590,536,13,0.0951384989544726,1
591,535,13,0.161264451772097,1
591,536,13,0.156972789262335,1
591,537,13,0.0914385843830536,1
592,535,13,0.145833207548038,1
592,536,13,0.145086761665472,1
592,537,13,0.0873231710314883,1
593,535,13,0.0867207493123498,1
593,536,13,0.0911274275004703,1
593,537,13,0.0696314452505245,1
594,536,13,0.0679150150458381,1
594,537,13,0.0733949832223979,1
595,536,13,0.0697530197335805,1
595,537,13,0.0889144268977551,1
595,538,13,0.0885797661342283,1
595,539,13,0.070227170400118,1
596,537,13,0.0871236875322669,1
596,538,13,0.092165539534582,1
596,539,13,0.0757552185084653,1
597,538,13,0.0726684892836199,1
565,546,14,0.0762980359668318,1
565,547,14,0.072105636024602,1
565,551,14,0.0681623508653597,1
565,552,14,0.0714327146421847,1
565,553,14,0.0761207805262703,1
565,554,14,0.07310037010107,1
566,545,14,0.0712755369307065,1
566,546,14,0.0850816291462308,1
566,547,14,0.0815704404363739,1
566,548,14,0.0707903291377109,1
566,549,14,0.0685397906089321,1
566,550,14,0.0750557504389068,1
566,551,14,0.0805244817957291,1
566,552,14,0.0819433878479617,1
566,553,14,0.0893932076611247,1
566,554,14,0.0909959758768241,1
566,555,14,0.0781992447707099,1
567,546,14,0.0736264521253498,1
567,547,14,0.0749033885073162,1
567,548,14,0.0755935784138824,1
567,549,14,0.0767397639759922,1
567,550,14,0.0808562315281299,1
567,551,14,0.0870288274500795,1
567,552,14,0.0886854317722827,1
567,553,14,0.0909768684914495,1
567,554,14,0.0900273512338507,1
567,555,14,0.0778341140167754,1
568,548,14,0.0750777868247354,1
568,549,14,0.0785810630405234,1
568,550,14,0.081075349513012,1
568,551,14,0.0898920541740257,1
568,552,14,0.0904706425745418,1
568,553,14,0.0797633549722376,1
568,554,14,0.0707095749779552,1
569,548,14,0.0705218134703257,1
569,549,14,0.0746384427464148,1
569,550,14,0.0825741651665872,1
569,551,14,0.0970872006920923,1
569,552,14,0.0967280477345853,1
569,553,14,0.0751943658346245,1
570,544,14,0.0679757034560624,1
570,550,14,0.0726160607744713,1
570,551,14,0.0827351943040201,1
570,552,14,0.081600503122015,1
571,543,14,0.075916912511032,1
571,544,14,0.0790155973287324,1
571,545,14,0.074610913736013,1
571,546,14,0.0677503201655057,1
572,542,14,0.0784584762853269,1
572,543,14,0.0843442338151701,1
572,544,14,0.0829044893323048,1
572,545,14,0.0759563791449609,1
572,546,14,0.0678877076571475,1
573,542,14,0.0893889309610754,1
573,543,14,0.088947783960185,1
573,544,14,0.0833120037410703,1
573,545,14,0.076213508248209,1
573,546,14,0.0681794277166773,1
574,542,14,0.0958240947028625,1
574,543,14,0.0911258282302838,1
574,544,14,0.0862615670959851,1
574,545,14,0.0809035088299361,1
574,546,14,0.0708088974432474,1
575,542,14,0.0975073355588466,1
575,543,14,0.0907114076098139,1
575,544,14,0.0863069935570136,1
575,545,14,0.0796902737155117,1
575,546,14,0.0680263949301769,1
576,542,14,0.094889713609164,1
576,543,14,0.0859572625171224,1
576,544,14,0.0769390318432783,1
577,538,14,0.0820118989056152,1
577,539,14,0.0871203871657022,1
577,541,14,0.0912717631322484,1
577,542,14,0.0866702734701705,1
577,543,14,0.077828980778761,1
578,537,14,0.0812149112933345,1
578,538,14,0.0865355514288395,1
578,539,14,0.0893395811967802,1
578,540,14,0.0888809859784615,1
578,541,14,0.0867246127178565,1
578,542,14,0.0801980210355182,1
578,543,14,0.0706186142399305,1
579,536,14,0.0724762114849019,1
579,537,14,0.0821286336496798,1
579,538,14,0.0865314963505014,1
579,539,14,0.0864590140713734,1
579,540,14,0.0843448208132161,1
579,541,14,0.081483600664223,1
579,542,14,0.0734991514164574,1
580,536,14,0.0732975714956432,1
580,537,14,0.0805786892683436,1
580,538,14,0.0826300018582681,1
580,539,14,0.0811403146232857,1
580,540,14,0.0790918351973995,1
580,541,14,0.0750009439886944,1
581,535,14,0.0679134936427393,1
581,536,14,0.0766961404375335,1
581,537,14,0.0856812955684187,1
581,538,14,0.0856402715927351,1
581,539,14,0.0807590713719663,1
581,540,14,0.0760602059217896,1
581,541,14,0.0686578071650563,1
582,532,14,0.0740028137092459,1
582,533,14,0.0677834076880164,1
582,535,14,0.0680172605218082,1
582,536,14,0.080439756414499,1
582,537,14,0.0935633256367108,1
582,538,14,0.0932447534114649,1
582,539,14,0.0849561553190121,1
582,540,14,0.0758592309683494,1
583,532,14,0.071428240279528,1
583,536,14,0.0751979896490921,1
583,537,14,0.0842095896409268,1
583,538,14,0.0852074683497841,1
583,539,14,0.0815590478824609,1
583,540,14,0.0739879530750408,1
584,532,14,0.0706264189180318,1
584,535,14,0.0678584296321597,1
584,536,14,0.0683098191499751,1
584,537,14,0.0705527446734839,1
584,538,14,0.0740320977240097,1
584,539,14,0.0807924643730521,1
584,540,14,0.0769145097004182,1
585,531,14,0.0734910532393331,1
585,532,14,0.0755710508664235,1
585,533,14,0.0693069072084031,1
585,538,14,0.0696877850833877,1
585,539,14,0.0826911574710188,1
585,540,14,0.0800996749037108,1
586,531,14,0.0786532757797323,1
586,532,14,0.0848350120998267,1
586,533,14,0.0766432686849624,1
586,539,14,0.0766702106973182,1
586,540,14,0.0731642630414434,1
587,531,14,0.0768111980443238,1
587,532,14,0.082024249823685,1
587,533,14,0.075327177137418,1
588,532,14,0.0723098155081913,1
590,536,14,0.0779757602391387,1
591,535,14,0.10933949111055,1
591,536,14,0.114065052992267,1
591,537,14,0.0811077002930773,1
592,535,14,0.107765605594623,1
592,536,14,0.116279077846675,1
592,537,14,0.0830807804189336,1
593,535,14,0.0743364262619763,1
593,536,14,0.0827296417816871,1
593,537,14,0.0679084382718126,1
595,537,14,0.0754207254586659,1
595,538,14,0.0762006302298531,1
596,537,14,0.0734363186664324,1
596,538,14,0.0784208065841918,1
596,539,14,0.068478766771253,1
565,552,15,0.0713325476184794,1
565,553,15,0.0727468175841039,1
566,546,15,0.0856602055671949,1
566,547,15,0.079546704775059,1
566,551,15,0.0742085385550379,1
566,552,15,0.0809659821934023,1
566,553,15,0.0826234310740186,1
566,554,15,0.0751696400393811,1
567,548,15,0.0682099875537247,1
567,549,15,0.0686815146983832,1
567,550,15,0.0716701853006681,1
567,551,15,0.0804962998997455,1
567,552,15,0.0884566822276255,1
567,553,15,0.0851040129390662,1
567,554,15,0.0733762951213418,1
568,548,15,0.0692803784905899,1
568,549,15,0.0720982206819393,1
568,550,15,0.0720467086085156,1
568,551,15,0.0774932658146618,1
568,552,15,0.0801082522629134,1
568,553,15,0.0717232966442783,1
569,549,15,0.0699376845270286,1
569,550,15,0.071490773540754,1
569,551,15,0.0753034456449872,1
569,552,15,0.0732973738330359,1
571,544,15,0.0763742738354989,1
571,545,15,0.0736473624332943,1
572,543,15,0.0800525293769761,1
572,544,15,0.0792999679331353,1
572,545,15,0.0740873114789888,1
573,543,15,0.0849394198849254,1
573,544,15,0.0795413019971255,1
573,545,15,0.0733977864375563,1
574,543,15,0.0869964587006863,1
574,544,15,0.081965789610125,1
574,545,15,0.0773829401308953,1
574,546,15,0.069557381670538,1
575,542,15,0.0899412242450414,1
575,543,15,0.0861045990266662,1
575,544,15,0.0840440981203891,1
575,545,15,0.0788388570089052,1
575,546,15,0.0691765397342092,1
576,542,15,0.0844757992445599,1
576,543,15,0.0820562711660714,1
576,544,15,0.077802074705061,1
576,545,15,0.0699681006094525,1
577,538,15,0.0793783142029472,1
577,541,15,0.0804827210776,1
577,542,15,0.0781219766605743,1
577,543,15,0.0749492222731114,1
577,544,15,0.0679660479371834,1
578,537,15,0.0790956387051465,1
578,538,15,0.0836624535540791,1
578,539,15,0.084032453995885,1
578,540,15,0.0805354550653235,1
578,541,15,0.077683447191787,1
578,542,15,0.0735456799962662,1
578,543,15,0.0684578085451007,1
579,536,15,0.0714923308825087,1
579,537,15,0.0804865665137788,1
579,538,15,0.0859914701277413,1
579,539,15,0.0840712976931121,1
579,540,15,0.078696306330369,1
579,541,15,0.0741908267874666,1
579,542,15,0.0680502162692474,1
580,536,15,0.0722766860572486,1
580,537,15,0.0804056146914158,1
580,538,15,0.0828671071404167,1
580,539,15,0.0801199562851774,1
580,540,15,0.0761321670904074,1
580,541,15,0.0706984938923931,1
581,536,15,0.0762522800681244,1
581,537,15,0.0850037201300654,1
581,538,15,0.0829582775206008,1
581,539,15,0.0786067232408196,1
581,540,15,0.075956642695104,1
581,541,15,0.0685741839026064,1
582,535,15,0.0680073594221141,1
582,536,15,0.0806578860863446,1
582,537,15,0.0921352132987977,1
582,538,15,0.0881760911718656,1
582,539,15,0.0819760500963779,1
582,540,15,0.077854988386064,1
582,541,15,0.0683831100488603,1
583,536,15,0.0742944918403438,1
583,537,15,0.0820547976811804,1
583,538,15,0.0812537190519057,1
583,539,15,0.080746882177848,1
583,540,15,0.07842366969711,1
583,541,15,0.0685363824263998,1
584,537,15,0.0696050782566628,1
584,538,15,0.073801137952016,1
584,539,15,0.0829878909730434,1
584,540,15,0.0828600811331928,1
584,541,15,0.0697100011624957,1
585,532,15,0.0716040162454225,1
585,538,15,0.0703961839089316,1
585,539,15,0.0834459770604039,1
585,540,15,0.0838088496687941,1
585,541,15,0.0679887911165776,1
586,531,15,0.0757515288064619,1
586,532,15,0.0811161878056403,1
586,533,15,0.072583416495383,1
586,539,15,0.0732290604379897,1
586,540,15,0.0720405151801528,1
587,531,15,0.0755169212608967,1
587,532,15,0.080170312331837,1
587,533,15,0.0726431764903305,1
588,532,15,0.0710926930291562,1
591,536,15,0.0793335406275004,1
591,537,15,0.0695883907407839,1
592,535,15,0.0778925263121275,1
592,536,15,0.0877449710559649,1
592,537,15,0.0740979493211284,1
593,536,15,0.0732619682672211,1
566,552,16,0.0758871672835178,1
566,553,16,0.0760341204473989,1
567,551,16,0.0718935440469437,1
567,552,16,0.0833512128146321,1
567,553,16,0.0798339145332762,1
568,551,16,0.0687912773432076,1
568,552,16,0.0732078506412463,1
573,545,16,0.0712705294779877,1
574,544,16,0.07805251322854,1
574,545,16,0.0737587303380812,1
574,546,16,0.0684752687420809,1
575,543,16,0.0797912253998703,1
575,544,16,0.0791598670729747,1
575,545,16,0.0761947961880491,1
575,546,16,0.0699766001015674,1
576,542,16,0.0761896809193626,1
576,543,16,0.0759526535043017,1
576,544,16,0.0750133667840759,1
576,545,16,0.0701003249142,1
577,541,16,0.0735752994384849,1
577,542,16,0.0727279977079763,1
577,543,16,0.0712323266867904,1
578,538,16,0.0820078917454849,1
578,541,16,0.071874185090978,1
578,542,16,0.0699081729007776,1
579,537,16,0.0781149207044705,1
579,538,16,0.0851620778274115,1
579,539,16,0.0822101245518809,1
579,540,16,0.074747396771482,1
579,541,16,0.069412710611305,1
580,536,16,0.0705437839686186,1
580,537,16,0.0794500657294057,1
580,538,16,0.0834154531620123,1
580,539,16,0.0791178967126864,1
580,540,16,0.0727975449968743,1
581,536,16,0.0744649788340484,1
581,537,16,0.0827019929757657,1
581,538,16,0.0815264155829245,1
581,539,16,0.0766552003187136,1
581,540,16,0.0734815953830615,1
582,536,16,0.0777318805203572,1
582,537,16,0.0862739479629347,1
582,538,16,0.0823931181978307,1
582,539,16,0.0777617155945111,1
582,540,16,0.0759616860864788,1
582,541,16,0.0683108793403235,1
583,536,16,0.0722114633866078,1
583,537,16,0.0778701485090681,1
583,538,16,0.0765456113773926,1
583,539,16,0.0770521248035473,1
583,540,16,0.0776625069349626,1
583,541,16,0.0691970247680591,1
584,537,16,0.0687080194570925,1
584,538,16,0.0713904088544415,1
584,539,16,0.0784076111077089,1
584,540,16,0.0810397343050379,1
584,541,16,0.0701773714026244,1
585,538,16,0.0679519180556478,1
585,539,16,0.0765997349931434,1
585,540,16,0.0796475486434499,1
585,541,16,0.0683327899408565,1
586,532,16,0.074868390246268,1
586,533,16,0.067945437118038,1
586,540,16,0.0678218979884607,1
587,532,16,0.0750640402888625,1
587,533,16,0.0681044596805178,1
592,536,16,0.0677719492465676,1
567,552,17,0.070197083755373,1
574,545,17,0.0707977744292534,1
575,544,17,0.074427680499024,1
575,545,17,0.072977052593204,1
575,546,17,0.0688571648789821,1
576,543,17,0.0716259627846114,1
576,544,17,0.0713644431755703,1
576,545,17,0.0689102822123683,1
577,542,17,0.0695435932062332,1
577,543,17,0.0690611107613082,1
578,541,17,0.0689729891770977,1
578,542,17,0.0677967529088988,1
579,538,17,0.0824569392608923,1
580,537,17,0.0770030266098433,1
580,538,17,0.0816939256579673,1
580,539,17,0.0772552201376843,1
581,537,17,0.0779686264159471,1
581,538,17,0.0782863720521078,1
581,539,17,0.0735000079544225,1
581,540,17,0.0689346066926211,1
582,537,17,0.0776677240298408,1
582,538,17,0.0749990871581407,1
582,539,17,0.071384700597933,1
582,540,17,0.0700564138664943,1
583,537,17,0.0729145971990657,1
583,538,17,0.0711054632315445,1
583,539,17,0.0702893143259053,1
583,540,17,0.07129907076053,1
584,539,17,0.0696360993064606,1
584,540,17,0.0720083920115747,1
585,540,17,0.0698299883549171,1
602,560,17,0.0686889659797017,1
603,560,17,0.0786815235632516,1
603,561,17,0.0703302903833811,1
574,545,18,0.0686033002036428,1
575,544,18,0.0689808238040789,1
575,545,18,0.0685504524101756,1
580,538,18,0.07719043472069,1
602,560,18,0.088922632890847,1
602,561,18,0.102735032340478,1
602,562,18,0.0759797931792648,1
603,560,18,0.103100288879708,1
603,561,18,0.116369559402621,1
603,562,18,0.0823659485739877,1
604,560,18,0.0719047269586975,1
604,561,18,0.0780695541412017,1
602,560,19,0.0954772806838733,1
602,561,19,0.127892139372599,1
602,562,19,0.0974006396793237,1
603,560,19,0.112238698418805,1
603,561,19,0.147109065770328,1
603,562,19,0.109337754075515,1
604,560,19,0.0757259884016853,1
604,561,19,0.094229544459807,1
604,562,19,0.0731863533352558,1
602,560,20,0.0898989484061781,1
602,561,20,0.129182612648279,1
602,562,20,0.102189196035017,1
603,560,20,0.107920069937583,1
603,561,20,0.152000017346391,1
603,562,20,0.117897886682447,1
604,561,20,0.100056739949899,1
604,562,20,0.0797840855869027,1
602,561,21,0.11189218987839,1
603,560,21,0.0947229522561186,1
603,561,21,0.134842004564305,1
603,562,21,0.109878702723776,1
604,561,21,0.0959449144741451,1
603,561,22,0.103646975733357,1
