x,y,z,signal,cytoplasm.p
469,322,1,0.0861557037953233,1
469,323,1,0.0844238858561455,1
470,321,1,0.0890667528906898,1
470,322,1,0.0884460623548138,1
470,323,1,0.0879186326309387,1
471,321,1,0.0927243976130216,1
471,322,1,0.0934163844523816,1
471,323,1,0.0931635799673907,1
471,325,1,0.0921318111060414,1
471,326,1,0.0926459015988102,1
472,321,1,0.0995265669086249,1
472,322,1,0.101028976427788,1
472,323,1,0.0999811190281574,1
472,324,1,0.096576153005521,1
472,325,1,0.0993679456611357,1
472,326,1,0.102884321516991,1
472,327,1,0.0954366220845245,1
472,331,1,0.079613347022607,1
472,332,1,0.075108873762069,1
473,321,1,0.104174219774177,1
473,322,1,0.106476126621756,1
473,323,1,0.105037538165655,1
473,324,1,0.100503924644976,1
473,325,1,0.104455355899551,1
473,326,1,0.108508828977712,1
473,327,1,0.0987687224823702,1
473,328,1,0.0842476007592928,1
473,330,1,0.0775090249152638,1
473,331,1,0.0808765368687004,1
473,332,1,0.0770708488432593,1
473,333,1,0.0706846395405526,1
474,321,1,0.105819910724545,1
474,322,1,0.107419767909119,1
474,323,1,0.104925780925429,1
474,324,1,0.100710919323276,1
474,325,1,0.104466389066905,1
474,326,1,0.106801946475937,1
474,327,1,0.0970864879087507,1
474,328,1,0.0839466983731864,1
474,331,1,0.078748040025504,1
474,332,1,0.076281019013274,1
474,333,1,0.071027584164259,1
475,321,1,0.104618098112914,1
475,322,1,0.104163581932037,1
475,323,1,0.100524601351658,1
475,324,1,0.0975418666173684,1
475,325,1,0.0986569951910245,1
475,326,1,0.0970658411509494,1
475,327,1,0.0897406745656957,1
475,332,1,0.0750344328261958,1
476,321,1,0.102784903215283,1
476,322,1,0.104085367437297,1
476,323,1,0.101001722947081,1
476,324,1,0.0984266164273008,1
476,325,1,0.0949560982963448,1
476,326,1,0.0887129008849247,1
477,320,1,0.0927964785771589,1
477,321,1,0.101044070663256,1
477,322,1,0.106141933060755,1
477,323,1,0.109178402075357,1
477,324,1,0.109647760921111,1
477,325,1,0.09965715600453,1
477,326,1,0.086963508943023,1
477,330,1,0.0775638193859243,1
477,331,1,0.0791791242027488,1
478,321,1,0.101237252918147,1
478,322,1,0.113656921636575,1
478,323,1,0.130712509249412,1
478,324,1,0.138781432307817,1
478,325,1,0.118786422030799,1
478,326,1,0.0926330355600062,1
478,327,1,0.0797841275153345,1
478,328,1,0.0748201066620972,1
478,329,1,0.0741988291281752,1
478,330,1,0.0743111733664467,1
478,331,1,0.0731876890552992,1
479,321,1,0.101771684690142,1
479,322,1,0.118742804482116,1
479,323,1,0.141743508304753,1
479,324,1,0.151762678462979,1
479,325,1,0.127814895221568,1
479,326,1,0.0963129203205498,1
479,327,1,0.0805915612969235,1
479,328,1,0.0750213391759046,1
479,329,1,0.0738058698750399,1
479,330,1,0.0714859397915385,1
479,331,1,0.0679053595269591,1
480,321,1,0.100694219827845,1
480,322,1,0.113060064419322,1
480,323,1,0.124671077441862,1
480,324,1,0.127725779334545,1
480,325,1,0.112418068250287,1
480,326,1,0.0931808964097474,1
480,327,1,0.0812215539548957,1
480,328,1,0.0747048454029236,1
480,329,1,0.0724925575835499,1
480,330,1,0.069696763757581,1
481,322,1,0.104410432579705,1
481,323,1,0.104581656315855,1
481,324,1,0.101994815824931,1
481,325,1,0.0984802249223174,1
481,326,1,0.0938687383241297,1
481,327,1,0.0855954680684084,1
481,328,1,0.077228721368751,1
481,329,1,0.0729966990584168,1
482,324,1,0.0925315447958095,1
482,325,1,0.0965052759863556,1
482,326,1,0.0988986766620215,1
482,327,1,0.0925819248015731,1
482,328,1,0.0855549112952512,1
482,329,1,0.08205433646843,1
482,330,1,0.0790529615512926,1
482,331,1,0.0729241269326491,1
483,324,1,0.0875265059566645,1
483,325,1,0.0938985434494037,1
483,326,1,0.0984504197970434,1
483,327,1,0.0952583124433906,1
483,328,1,0.0942087060291743,1
483,329,1,0.0965132543679603,1
483,330,1,0.0971295484082673,1
483,331,1,0.0894171727548187,1
483,332,1,0.0727357604576457,1
484,324,1,0.0832528247543928,1
484,325,1,0.0867855107702401,1
484,326,1,0.0895148779805964,1
484,327,1,0.088522875241975,1
484,328,1,0.0924569720848647,1
484,329,1,0.100056835786314,1
484,330,1,0.105784259577915,1
484,331,1,0.0990786035426698,1
484,332,1,0.0797420972572864,1
485,325,1,0.0799314999635342,1
485,326,1,0.0796702079659804,1
485,327,1,0.080146646726942,1
485,328,1,0.085671292642533,1
485,329,1,0.0927033974584374,1
485,330,1,0.0977171154829767,1
485,331,1,0.0916223387305528,1
485,332,1,0.0752951617848076,1
486,326,1,0.0736674761010334,1
486,327,1,0.0738391730294859,1
486,328,1,0.0770739695165446,1
486,329,1,0.0786804214444714,1
486,330,1,0.0794544861840786,1
486,331,1,0.0738398558639476,1
468,322,2,0.080931013881234,1
468,323,2,0.0781278706001382,1
469,321,2,0.0864058488197793,1
469,322,2,0.0855149115712601,1
469,323,2,0.0830760005777019,1
469,324,2,0.0787954610819337,1
470,320,2,0.083033586973991,1
470,321,2,0.0895792141643922,1
470,322,2,0.0874858653266436,1
470,323,2,0.084961138812627,1
470,324,2,0.0807971903062999,1
471,320,2,0.085298668678848,1
471,321,2,0.0935092798880477,1
471,322,2,0.0926366773438017,1
471,323,2,0.089615817685403,1
471,324,2,0.0847964978402785,1
471,325,2,0.0843922897878536,1
471,326,2,0.0851984717062629,1
471,331,2,0.072200010934935,1
471,332,2,0.0703932788675816,1
472,320,2,0.0883922681767419,1
472,321,2,0.0971935791134882,1
472,322,2,0.0990720387481962,1
472,323,2,0.0959280832036427,1
472,324,2,0.0909082196689484,1
472,325,2,0.0929522966094897,1
472,326,2,0.0971894761169423,1
472,327,2,0.0882372647539443,1
472,330,2,0.0725120483145873,1
472,331,2,0.0763297218817634,1
472,332,2,0.0730093434755095,1
473,320,2,0.0915867594612345,1
473,321,2,0.101465535260278,1
473,322,2,0.104675971328428,1
473,323,2,0.10019840414159,1
473,324,2,0.0955576934263982,1
473,325,2,0.10341223641272,1
473,326,2,0.11064457943962,1
473,327,2,0.0949503181625246,1
473,328,2,0.0789377841489827,1
473,330,2,0.0736057394800127,1
473,331,2,0.0781663010028227,1
473,332,2,0.0753656015503265,1
473,333,2,0.0690517307721243,1
474,320,2,0.0942858723131183,1
474,321,2,0.104971950118679,1
474,322,2,0.105903683731395,1
474,323,2,0.0996007742432349,1
474,324,2,0.0983631068325902,1
474,325,2,0.110917856978908,1
474,326,2,0.118522213012343,1
474,327,2,0.0997767658410647,1
474,328,2,0.081336036543192,1
474,330,2,0.0729879479957107,1
474,331,2,0.0758723066493126,1
474,332,2,0.0743135632870626,1
474,333,2,0.0696560452604724,1
475,320,2,0.0931056049256851,1
475,321,2,0.102450673715627,1
475,322,2,0.101367937850468,1
475,323,2,0.0970426547281327,1
475,324,2,0.0994094009006898,1
475,325,2,0.106035386925632,1
475,326,2,0.105467172817112,1
475,327,2,0.091257267874378,1
475,328,2,0.0793968645391557,1
475,331,2,0.0730154650265606,1
475,332,2,0.0706934205521385,1
476,320,2,0.0891883573226257,1
476,321,2,0.0981289664895514,1
476,322,2,0.101616082289747,1
476,323,2,0.101533219728846,1
476,324,2,0.104618792926928,1
476,325,2,0.100569464773744,1
476,326,2,0.0908254589342396,1
476,327,2,0.0818490488762845,1
476,330,2,0.0729035999703674,1
476,331,2,0.074631668309782,1
477,319,2,0.0796078304389298,1
477,320,2,0.0879013521272378,1
477,321,2,0.0963232407045625,1
477,322,2,0.102955515994283,1
477,323,2,0.104508605008009,1
477,324,2,0.10745267573835,1
477,325,2,0.0968591639307766,1
477,326,2,0.084516086477798,1
477,327,2,0.0780954299734332,1
477,328,2,0.0741445677475768,1
477,329,2,0.0725958333009885,1
477,330,2,0.0733310124149368,1
477,331,2,0.0740312531655966,1
477,332,2,0.0685987479738984,1
478,320,2,0.088622509175618,1
478,321,2,0.0970518310649333,1
478,322,2,0.109574841388336,1
478,323,2,0.12088886933826,1
478,324,2,0.129877594375629,1
478,325,2,0.111567088797327,1
478,326,2,0.0900768507425453,1
478,327,2,0.0790982202985937,1
478,328,2,0.0738293617764315,1
478,329,2,0.0723493839683119,1
478,330,2,0.0716411169178395,1
478,331,2,0.0705958590809844,1
479,320,2,0.0880790867498776,1
479,321,2,0.0993634233802711,1
479,322,2,0.119301315153549,1
479,323,2,0.138122928316182,1
479,324,2,0.147617418057708,1
479,325,2,0.122424647899405,1
479,326,2,0.0939635085596774,1
479,327,2,0.0791385494602637,1
479,328,2,0.0731196511899481,1
479,329,2,0.0716326533643805,1
479,330,2,0.0693405098516481,1
480,321,2,0.0966840707993438,1
480,322,2,0.111109841278603,1
480,323,2,0.120419582369818,1
480,324,2,0.121968622294981,1
480,325,2,0.104193279241344,1
480,326,2,0.0873715264929708,1
480,327,2,0.0777659084376968,1
480,328,2,0.0724717491017972,1
480,329,2,0.0707201229734551,1
480,330,2,0.0682555218307209,1
481,321,2,0.0925497537147872,1
481,322,2,0.0972454445836948,1
481,323,2,0.0972009165890631,1
481,324,2,0.0955548422930319,1
481,325,2,0.0907151332504732,1
481,326,2,0.0886177473037143,1
481,327,2,0.0823575868467203,1
481,328,2,0.0748115532619985,1
481,329,2,0.0703156034526794,1
482,322,2,0.0901399650120414,1
482,323,2,0.0875869008678658,1
482,324,2,0.087846354004194,1
482,325,2,0.0927957478244894,1
482,326,2,0.0989576759554196,1
482,327,2,0.0920059179945042,1
482,328,2,0.0816146030546707,1
482,329,2,0.0741215250793837,1
482,330,2,0.0717437098008165,1
482,331,2,0.0680291921555594,1
483,324,2,0.0857499563704718,1
483,325,2,0.0932208601950827,1
483,326,2,0.101880195471787,1
483,327,2,0.0957376861945822,1
483,328,2,0.0887300376340021,1
483,329,2,0.0869104395278446,1
483,330,2,0.0932124086211756,1
483,331,2,0.0916065377015188,1
483,332,2,0.0739413526179202,1
484,324,2,0.0825163997670408,1
484,325,2,0.0863295570431284,1
484,326,2,0.0911162984967004,1
484,327,2,0.0858851755632091,1
484,328,2,0.0862801054526416,1
484,329,2,0.0955983220768671,1
484,330,2,0.115040140603522,1
484,331,2,0.116027387460016,1
484,332,2,0.0903195504754588,1
485,325,2,0.0799778847887195,1
485,326,2,0.0801290128264584,1
485,327,2,0.0767259815014634,1
485,328,2,0.0811186496035679,1
485,329,2,0.092417721082871,1
485,330,2,0.110881127672602,1
485,331,2,0.110122187117343,1
485,332,2,0.0858847383095625,1
486,326,2,0.0740282702571588,1
486,327,2,0.0715757445027992,1
486,328,2,0.0737721594158272,1
486,329,2,0.0758098752142782,1
486,330,2,0.0828642799661544,1
486,331,2,0.0795140365368668,1
468,322,3,0.0781217250899832,1
469,321,3,0.0826552667333496,1
469,322,3,0.0821757312582066,1
469,323,3,0.080024491235616,1
470,320,3,0.0826416280134443,1
470,321,3,0.0896279469817615,1
470,322,3,0.0864412543855942,1
470,323,3,0.0814424509032438,1
470,324,3,0.0744232121261433,1
471,320,3,0.0848947960538781,1
471,321,3,0.0940436158236273,1
471,322,3,0.0911430668055528,1
471,323,3,0.0843498821739188,1
471,324,3,0.077268193992456,1
471,325,3,0.0751525691778395,1
471,326,3,0.0763531778444991,1
471,331,3,0.0714573026725805,1
471,332,3,0.0710811926592756,1
472,320,3,0.0841819048963496,1
472,321,3,0.0948817591866632,1
472,322,3,0.0966237357859022,1
472,323,3,0.090361005715013,1
472,324,3,0.083716535241398,1
472,325,3,0.0848085133308933,1
472,326,3,0.0886168787861973,1
472,327,3,0.0801993747248896,1
472,330,3,0.0698271851397587,1
472,331,3,0.0746217731998639,1
472,332,3,0.0735275070159444,1
473,320,3,0.0863526416397534,1
473,321,3,0.0987184742516781,1
473,322,3,0.102891605084582,1
473,323,3,0.0954042173964754,1
473,324,3,0.0905084081120926,1
473,325,3,0.100170719397013,1
473,326,3,0.10845567570567,1
473,327,3,0.0901668890550692,1
473,328,3,0.0746713685449742,1
473,330,3,0.07188468516827,1
473,331,3,0.0763150050021817,1
473,332,3,0.0751481906515985,1
473,333,3,0.0683996358407877,1
474,320,3,0.0900360723476769,1
474,321,3,0.103427103036701,1
474,322,3,0.104590485245648,1
474,323,3,0.0954925426330691,1
474,324,3,0.0963857799555645,1
474,325,3,0.113800376771285,1
474,326,3,0.12425016390423,1
474,327,3,0.100156535607493,1
474,328,3,0.0793256640720874,1
474,330,3,0.0729210661571236,1
474,331,3,0.0748630833047501,1
474,332,3,0.0735359226511956,1
474,333,3,0.0680025616115545,1
475,320,3,0.0894262532552036,1
475,321,3,0.100413479027686,1
475,322,3,0.100944592463788,1
475,323,3,0.0971525491480286,1
475,324,3,0.103265007719144,1
475,325,3,0.110548659167084,1
475,326,3,0.109472751646541,1
475,327,3,0.0901845588942088,1
475,328,3,0.0779987010811402,1
475,331,3,0.0705295522608913,1
475,332,3,0.0681744022946305,1
476,320,3,0.0867651934501177,1
476,321,3,0.0960089092407101,1
476,322,3,0.103520783133021,1
476,323,3,0.108094108868443,1
476,324,3,0.115567660174037,1
476,325,3,0.107022753577645,1
476,326,3,0.0920829105749447,1
476,327,3,0.079378392070035,1
476,328,3,0.0754900211769728,1
476,329,3,0.0725764983041267,1
476,330,3,0.0707799248968345,1
476,331,3,0.0694453369210654,1
477,320,3,0.0869020119130415,1
477,321,3,0.0965753863141957,1
477,322,3,0.108320785950611,1
477,323,3,0.111856682486384,1
477,324,3,0.11537964110604,1
477,325,3,0.101325434400117,1
477,326,3,0.0857684587884724,1
477,327,3,0.0770860928231271,1
477,328,3,0.0747506791687188,1
477,329,3,0.0730502057272417,1
477,330,3,0.071563531349577,1
477,331,3,0.0695151058316746,1
478,320,3,0.0859460796053686,1
478,321,3,0.0965457429128731,1
478,322,3,0.11265498784938,1
478,323,3,0.120774344821532,1
478,324,3,0.126888803977825,1
478,325,3,0.112349485315321,1
478,326,3,0.0939758534879711,1
478,327,3,0.0810395007037747,1
478,328,3,0.0748572253038422,1
478,329,3,0.0728238760520802,1
478,330,3,0.0713240960445724,1
478,331,3,0.0689630940671796,1
479,320,3,0.0855801761703327,1
479,321,3,0.0991952723991985,1
479,322,3,0.124486185036926,1
479,323,3,0.140141734391866,1
479,324,3,0.145223915555851,1
479,325,3,0.124035250742085,1
479,326,3,0.0993142473194794,1
479,327,3,0.0816408622325649,1
479,328,3,0.0733006262813928,1
479,329,3,0.0708094125639816,1
479,330,3,0.0699552525399765,1
479,331,3,0.0679185010954581,1
480,321,3,0.0953198214529241,1
480,322,3,0.115774235568018,1
480,323,3,0.125813687107712,1
480,324,3,0.122738763731322,1
480,325,3,0.103833796846158,1
480,326,3,0.087927868865499,1
480,327,3,0.0778589955461943,1
480,328,3,0.0721663903223621,1
480,329,3,0.0692867456224561,1
480,330,3,0.068216911734757,1
481,322,3,0.0946460135836619,1
481,323,3,0.0971711234433411,1
481,324,3,0.0950903531351494,1
481,325,3,0.0874991626293181,1
481,326,3,0.0856796783289043,1
481,327,3,0.0817100141962483,1
481,328,3,0.0753551793401222,1
481,329,3,0.0696619032613803,1
482,323,3,0.083966123216688,1
482,324,3,0.0850571609113545,1
482,325,3,0.0888626512741883,1
482,326,3,0.0976798411070563,1
482,327,3,0.0950960793609858,1
482,328,3,0.0825222996963807,1
482,329,3,0.0704712657508347,1
483,324,3,0.0832308183174441,1
483,325,3,0.0916115930724455,1
483,326,3,0.105070817360997,1
483,327,3,0.102789946606658,1
483,328,3,0.0889882389071505,1
483,329,3,0.0802706111306138,1
483,330,3,0.0887524933041492,1
483,331,3,0.092430593111451,1
483,332,3,0.0777679389717538,1
484,324,3,0.0800412206799268,1
484,325,3,0.0852415861137634,1
484,326,3,0.0928626116937486,1
484,327,3,0.0897998954808051,1
484,328,3,0.0859562981631897,1
484,329,3,0.0946806165194955,1
484,330,3,0.123650958694792,1
484,331,3,0.13231386387798,1
484,332,3,0.104733628912007,1
485,325,3,0.0800746915481002,1
485,326,3,0.0819654302235662,1
485,327,3,0.0786929760149244,1
485,328,3,0.0808130332637657,1
485,329,3,0.0947650663710305,1
485,330,3,0.12275403766007,1
485,331,3,0.127174085028176,1
485,332,3,0.0985805955984059,1
486,326,3,0.0742851178409359,1
486,327,3,0.0710026966450642,1
486,328,3,0.0710513216464658,1
486,329,3,0.0744078782996358,1
486,330,3,0.0853440592012207,1
486,331,3,0.0835992434481674,1
486,332,3,0.068468236745081,1
468,322,4,0.0737793231878987,1
469,321,4,0.0782751711710261,1
469,322,4,0.0793958882056711,1
469,323,4,0.0769449497419461,1
470,320,4,0.081904112886864,1
470,321,4,0.0878713673086844,1
470,322,4,0.0863348819539742,1
470,323,4,0.0784091085517038,1
471,320,4,0.0827084499542717,1
471,321,4,0.0926509749390648,1
471,322,4,0.0907887715563652,1
471,323,4,0.0800695523203098,1
471,324,4,0.0697414594659401,1
471,332,4,0.0697512048314587,1
472,320,4,0.0793244122089077,1
472,321,4,0.093797627703701,1
472,322,4,0.0960085199052715,1
472,323,4,0.0848826847268475,1
472,324,4,0.0756837904299097,1
472,325,4,0.0769315805619598,1
472,326,4,0.0798908353744094,1
472,327,4,0.072766068724102,1
472,331,4,0.0712485829387988,1
472,332,4,0.0719019596821949,1
473,320,4,0.0804983124644746,1
473,321,4,0.0977364804287185,1
473,322,4,0.1027192672501,1
473,323,4,0.0908228653612405,1
473,324,4,0.0847733114174618,1
473,325,4,0.0959868608753296,1
473,326,4,0.103429606763061,1
473,327,4,0.0862421602218115,1
473,328,4,0.0701338077619255,1
473,330,4,0.0677730992835557,1
473,331,4,0.0735652485943912,1
473,332,4,0.0736439841996418,1
474,320,4,0.082147842861246,1
474,321,4,0.0981947581889103,1
474,322,4,0.101061069647486,1
474,323,4,0.0909153415125881,1
474,324,4,0.0933605597402526,1
474,325,4,0.112458726849636,1
474,326,4,0.122444234466858,1
474,327,4,0.0986322274673492,1
474,328,4,0.0766664970362109,1
474,331,4,0.0721951891652715,1
474,332,4,0.0707975887461981,1
475,321,4,0.0931481143658116,1
475,322,4,0.0967547501559019,1
475,323,4,0.0967932404563462,1
475,324,4,0.105932446635648,1
475,325,4,0.113494598707531,1
475,326,4,0.110556937037487,1
475,327,4,0.0906346007124288,1
475,328,4,0.076815223173782,1
476,321,4,0.0897035319648468,1
476,322,4,0.100146113397289,1
476,323,4,0.112053494545518,1
476,324,4,0.122730509820022,1
476,325,4,0.112364531632582,1
476,326,4,0.093293540136818,1
476,327,4,0.0788719864598478,1
476,328,4,0.0747213292664192,1
476,329,4,0.0708766537891275,1
477,320,4,0.082916408986504,1
477,321,4,0.0924882267359257,1
477,322,4,0.106896776609244,1
477,323,4,0.117827506814688,1
477,324,4,0.122088537610091,1
477,325,4,0.106778610308721,1
477,326,4,0.0871702101222997,1
477,327,4,0.0771928665697377,1
477,328,4,0.075506600876884,1
477,329,4,0.0733264781545203,1
477,330,4,0.0690818473657492,1
478,320,4,0.0812192478911436,1
478,321,4,0.0922424302888308,1
478,322,4,0.108991940349115,1
478,323,4,0.119504560232085,1
478,324,4,0.123187913072921,1
478,325,4,0.112735777947792,1
478,326,4,0.0955550219863113,1
478,327,4,0.0819004112053087,1
478,328,4,0.0758283297140711,1
478,329,4,0.0736185336415049,1
478,330,4,0.0709519213140859,1
479,321,4,0.0950384696956149,1
479,322,4,0.120002837716268,1
479,323,4,0.135036408733496,1
479,324,4,0.135926705075985,1
479,325,4,0.121378114240266,1
479,326,4,0.100943202835761,1
479,327,4,0.0834726734919445,1
479,328,4,0.0743758869061293,1
479,329,4,0.0714058085684847,1
479,330,4,0.0708631228851898,1
479,331,4,0.0690102755325702,1
480,321,4,0.092117591377866,1
480,322,4,0.113978512708915,1
480,323,4,0.125519637025326,1
480,324,4,0.118322250331043,1
480,325,4,0.101735793952473,1
480,326,4,0.0877363038501226,1
480,327,4,0.0789883618173536,1
480,328,4,0.072978238568848,1
480,329,4,0.0691070643226229,1
480,330,4,0.0679608548014092,1
481,322,4,0.0916059926319047,1
481,323,4,0.0974053955614514,1
481,324,4,0.0940485513990344,1
481,325,4,0.0864490470841435,1
481,326,4,0.084414086582643,1
481,327,4,0.082966986654875,1
481,328,4,0.0755891040512257,1
481,329,4,0.0683416068910983,1
482,323,4,0.0821122815612557,1
482,324,4,0.0833503023686833,1
482,325,4,0.0870021310185389,1
482,326,4,0.097139587272809,1
482,327,4,0.0992655384612141,1
482,328,4,0.0826839158318596,1
483,324,4,0.0806237683223653,1
483,325,4,0.090376189797121,1
483,326,4,0.106834159491155,1
483,327,4,0.109310213085562,1
483,328,4,0.0883791146286909,1
483,329,4,0.0743518918635554,1
483,330,4,0.0830679622983374,1
483,331,4,0.0911159391101416,1
483,332,4,0.0782750693448345,1
484,324,4,0.0766432387360825,1
484,325,4,0.0833819882836148,1
484,326,4,0.0921724517360623,1
484,327,4,0.0917258540390305,1
484,328,4,0.0833351602150071,1
484,329,4,0.0914110493828758,1
484,330,4,0.124843654867383,1
484,331,4,0.141645898915391,1
484,332,4,0.113822886349416,1
485,325,4,0.0782501997949676,1
485,326,4,0.0802555228849215,1
485,327,4,0.0772698531604023,1
485,328,4,0.0771558856928403,1
485,329,4,0.0936257391024172,1
485,330,4,0.126293971304852,1
485,331,4,0.137517194250927,1
485,332,4,0.106642199150564,1
486,326,4,0.071456008880969,1
486,329,4,0.0712730990918829,1
486,330,4,0.0842173044723884,1
486,331,4,0.0850880022678729,1
486,332,4,0.068141799943974,1
469,321,5,0.0766444726299343,1
469,322,5,0.0775018851022963,1
469,323,5,0.0733464840062918,1
470,320,5,0.0839487888050033,1
470,321,5,0.0870541402433689,1
470,322,5,0.0853906416890133,1
470,323,5,0.0754843668284481,1
471,320,5,0.082244565763763,1
471,321,5,0.0901955321638032,1
471,322,5,0.0879879762674534,1
471,323,5,0.0761536763759498,1
472,320,5,0.0778041950857578,1
472,321,5,0.091544250021108,1
472,322,5,0.0911649414674299,1
472,323,5,0.0786585527723702,1
472,324,5,0.0702354961887295,1
472,325,5,0.0721027729116838,1
472,326,5,0.0738390412544143,1
472,332,5,0.069123991429541,1
473,321,5,0.0961611034585733,1
473,322,5,0.0988033074488758,1
473,323,5,0.0856988875404705,1
473,324,5,0.0804737244340788,1
473,325,5,0.0894972201210088,1
473,326,5,0.0935586236625669,1
473,327,5,0.0803704307473122,1
473,331,5,0.0692483751175314,1
473,332,5,0.0700389357001861,1
474,321,5,0.0920616947884253,1
474,322,5,0.0954451455357433,1
474,323,5,0.0873740002704504,1
474,324,5,0.0902305663635073,1
474,325,5,0.103074964106866,1
474,326,5,0.107629122559154,1
474,327,5,0.0902015099602308,1
474,328,5,0.0735496991359485,1
475,321,5,0.0860958000457523,1
475,322,5,0.0920068643791089,1
475,323,5,0.0946399698996986,1
475,324,5,0.103031226762664,1
475,325,5,0.106300302737653,1
475,326,5,0.101657435703109,1
475,327,5,0.0865680639328562,1
475,328,5,0.0752915739089959,1
475,329,5,0.0705802137861259,1
476,321,5,0.0831238049797943,1
476,322,5,0.0938241983499461,1
476,323,5,0.10673311197038,1
476,324,5,0.116756474971793,1
476,325,5,0.107555496232814,1
476,326,5,0.0918302678139052,1
476,327,5,0.0795042971611241,1
476,328,5,0.0750002252155768,1
476,329,5,0.0714504084404281,1
477,321,5,0.0864560491322636,1
477,322,5,0.0994472443053283,1
477,323,5,0.112187162386277,1
477,324,5,0.117171027367334,1
477,325,5,0.104756342142521,1
477,326,5,0.088631571706675,1
477,327,5,0.0791076302366575,1
477,328,5,0.0772268765177493,1
477,329,5,0.0751031834748885,1
477,330,5,0.0697589136731444,1
478,321,5,0.0869364291658197,1
478,322,5,0.100783934692466,1
478,323,5,0.112070289877365,1
478,324,5,0.115759608535076,1
478,325,5,0.108689840007813,1
478,326,5,0.0949514382506327,1
478,327,5,0.082241379202942,1
478,328,5,0.0767744747277934,1
478,329,5,0.0746803891475993,1
478,330,5,0.0712106916159524,1
479,321,5,0.0882246083572996,1
479,322,5,0.107815512408084,1
479,323,5,0.121870090480118,1
479,324,5,0.122618165581751,1
479,325,5,0.113590279389028,1
479,326,5,0.0983459820630648,1
479,327,5,0.0834342311097081,1
479,328,5,0.0751416498162289,1
479,329,5,0.0717933350948066,1
479,330,5,0.0700148148723167,1
479,331,5,0.0681343606422075,1
480,321,5,0.0864482923723701,1
480,322,5,0.104246875756808,1
480,323,5,0.1159921316386,1
480,324,5,0.11017677793562,1
480,325,5,0.0981843958764657,1
480,326,5,0.087041543744484,1
480,327,5,0.0798496017565665,1
480,328,5,0.0739824185220357,1
480,329,5,0.0693649960558523,1
481,322,5,0.0877804904275234,1
481,323,5,0.0955081879279276,1
481,324,5,0.093046012644465,1
481,325,5,0.0865152221291651,1
481,326,5,0.0834781301778618,1
481,327,5,0.0830761143834455,1
481,328,5,0.0756456894649041,1
481,329,5,0.0679511214154425,1
482,323,5,0.0814207199959902,1
482,324,5,0.0834341113141885,1
482,325,5,0.0854186259223896,1
482,326,5,0.09341512060965,1
482,327,5,0.0977061002849504,1
482,328,5,0.0808809932620291,1
483,324,5,0.0796988750338183,1
483,325,5,0.087187083321234,1
483,326,5,0.101229657882205,1
483,327,5,0.106261716600794,1
483,328,5,0.0845864304069013,1
483,329,5,0.0708796965953251,1
483,330,5,0.0754161013516097,1
483,331,5,0.0826601723598769,1
483,332,5,0.0707196557709287,1
484,325,5,0.0810161944854385,1
484,326,5,0.0876518539985876,1
484,327,5,0.0882280764375918,1
484,328,5,0.0777940364256965,1
484,329,5,0.0847249080377714,1
484,330,5,0.111003414939,1
484,331,5,0.128941236655857,1
484,332,5,0.104866781632031,1
485,326,5,0.0765091336416774,1
485,327,5,0.073380619739599,1
485,329,5,0.0872521562474753,1
485,330,5,0.113280607970887,1
485,331,5,0.126548848252332,1
485,332,5,0.0995981746804598,1
486,330,5,0.0762527832093066,1
486,331,5,0.0779847568826599,1
469,321,6,0.0751456390070312,1
469,322,6,0.0754956216175136,1
470,320,6,0.0829017220558023,1
470,321,6,0.0842410120057153,1
470,322,6,0.0831314718930481,1
470,323,6,0.0718381386191333,1
471,320,6,0.077838905837559,1
471,321,6,0.084445652702055,1
471,322,6,0.0833012401136352,1
471,323,6,0.0716618415427286,1
472,321,6,0.0842529376496905,1
472,322,6,0.0829695442892182,1
472,323,6,0.0722163330744792,1
472,325,6,0.0690356182747394,1
472,326,6,0.0689372362042761,1
472,332,6,0.067865641322439,1
473,321,6,0.087559671346263,1
473,322,6,0.0886881151919215,1
473,323,6,0.0803075321097515,1
473,324,6,0.0793733786275401,1
473,325,6,0.0845509769228786,1
473,326,6,0.0828371462809673,1
473,327,6,0.0722185373120396,1
474,321,6,0.0823228581255911,1
474,322,6,0.0862962958171142,1
474,323,6,0.0861064798163238,1
474,324,6,0.0924614763964013,1
474,325,6,0.0968111379069729,1
474,326,6,0.0924283948636665,1
474,327,6,0.0795199783946385,1
474,328,6,0.0698640641904645,1
475,321,6,0.0781106020759893,1
475,322,6,0.0856873152932781,1
475,323,6,0.0937621322912465,1
475,324,6,0.102774912268949,1
475,325,6,0.100993073710567,1
475,326,6,0.0930499658966115,1
475,327,6,0.0813983362031548,1
475,328,6,0.073262573234595,1
475,329,6,0.069825933276579,1
475,330,6,0.068457131700415,1
476,321,6,0.0763642529402852,1
476,322,6,0.0872778463966514,1
476,323,6,0.100323536551578,1
476,324,6,0.109021194414999,1
476,325,6,0.101773265991001,1
476,326,6,0.0921263903587799,1
476,327,6,0.0818201422174074,1
476,328,6,0.075748294327433,1
476,329,6,0.0724365352088137,1
476,330,6,0.0696461860892101,1
477,321,6,0.078437679783126,1
477,322,6,0.0898335460422579,1
477,323,6,0.102554177044553,1
477,324,6,0.108791965688263,1
477,325,6,0.100556898223739,1
477,326,6,0.0913034909756118,1
477,327,6,0.0825059655772845,1
477,328,6,0.0787494176739793,1
477,329,6,0.0761250991547516,1
477,330,6,0.0706992186552867,1
478,321,6,0.0791890672308748,1
478,322,6,0.0901045654360025,1
478,323,6,0.101806185799784,1
478,324,6,0.107706318791978,1
478,325,6,0.102295598415517,1
478,326,6,0.0930875457511069,1
478,327,6,0.0820374932183756,1
478,328,6,0.0771879489636585,1
478,329,6,0.0746470021362895,1
478,330,6,0.0699078554426507,1
479,321,6,0.0800122062050821,1
479,322,6,0.0929748001978447,1
479,323,6,0.10528713213072,1
479,324,6,0.109068118320022,1
479,325,6,0.10313766508182,1
479,326,6,0.093109725891559,1
479,327,6,0.0813081122075755,1
479,328,6,0.0745901352031401,1
479,329,6,0.0712323326765664,1
479,330,6,0.0677436116164086,1
480,322,6,0.091246168819488,1
480,323,6,0.101271730068685,1
480,324,6,0.0999798432058738,1
480,325,6,0.0916900052297932,1
480,326,6,0.0841956334628946,1
480,327,6,0.077928327203157,1
480,328,6,0.0731467129978235,1
480,329,6,0.0684678354300904,1
481,322,6,0.0833260737248462,1
481,323,6,0.0903633776663009,1
481,324,6,0.0898719524858385,1
481,325,6,0.083560214067885,1
481,326,6,0.0798706977475663,1
481,327,6,0.0786792115097235,1
481,328,6,0.0724436810115572,1
482,323,6,0.081031540291498,1
482,324,6,0.0827511570570055,1
482,325,6,0.0808403226831283,1
482,326,6,0.0839022542354185,1
482,327,6,0.0863413928404639,1
482,328,6,0.0732842801827447,1
483,324,6,0.0781982265087934,1
483,325,6,0.0797960711286377,1
483,326,6,0.0865997198989079,1
483,327,6,0.0898780680471136,1
483,328,6,0.0730566866648515,1
484,326,6,0.0762136100744007,1
484,327,6,0.0753132688775936,1
484,330,6,0.0863035733949293,1
484,331,6,0.0993919766423654,1
484,332,6,0.082052587453844,1
485,330,6,0.0875616719314402,1
485,331,6,0.0986839851215881,1
469,322,7,0.0729466185414522,1
470,321,7,0.0828329893764375,1
470,322,7,0.0805491956114205,1
470,323,7,0.0688493482213288,1
471,321,7,0.0811076823237494,1
471,322,7,0.0799081038985583,1
471,323,7,0.0685976458551181,1
471,332,7,0.0715471133736172,1
471,333,7,0.0775385485210668,1
472,322,7,0.076579094225118,1
472,323,7,0.069025513522662,1
472,325,7,0.0679104568263177,1
472,332,7,0.0735131135842657,1
472,333,7,0.0791009516364403,1
473,322,7,0.0781083618997729,1
473,323,7,0.078385077570474,1
473,324,7,0.0843599449975643,1
473,325,7,0.0848578750747404,1
473,326,7,0.0762503633398109,1
474,322,7,0.0779529631517607,1
474,323,7,0.0889019981125976,1
474,324,7,0.102850143855252,1
474,325,7,0.100250425345972,1
474,326,7,0.0853855863180866,1
474,327,7,0.073222543561724,1
474,328,7,0.0681694188010155,1
475,322,7,0.0794421652148887,1
475,323,7,0.0938392027387747,1
475,324,7,0.107277870116164,1
475,325,7,0.10318860213675,1
475,326,7,0.0899031652084677,1
475,327,7,0.0779685185999795,1
475,328,7,0.0723057484503012,1
475,329,7,0.0710738432041487,1
475,330,7,0.0699779178522829,1
476,321,7,0.0713415143131208,1
476,322,7,0.0806373830831667,1
476,323,7,0.0933343904089982,1
476,324,7,0.102240756026649,1
476,325,7,0.0985434949259889,1
476,326,7,0.0921523919763069,1
476,327,7,0.0821262616983919,1
476,328,7,0.0764436713799974,1
476,329,7,0.0754914347641039,1
476,330,7,0.0732663228343582,1
477,321,7,0.0726796302669418,1
477,322,7,0.082158366897642,1
477,323,7,0.0933124438698093,1
477,324,7,0.0991830233073205,1
477,325,7,0.0951575704011914,1
477,326,7,0.0908727721747017,1
477,327,7,0.0826666113690548,1
477,328,7,0.0787930591817659,1
477,329,7,0.0775707914851645,1
477,330,7,0.0726331855439967,1
478,321,7,0.073454575503618,1
478,322,7,0.0823472005751718,1
478,323,7,0.0923005071567281,1
478,324,7,0.097606580157051,1
478,325,7,0.0938706730217711,1
478,326,7,0.0887882822156268,1
478,327,7,0.080194876403129,1
478,328,7,0.0762833370565781,1
478,329,7,0.0744966288103241,1
478,330,7,0.0700875247629319,1
479,321,7,0.0741389972559159,1
479,322,7,0.0827908273433178,1
479,323,7,0.0918426786297348,1
479,324,7,0.0963479844691338,1
479,325,7,0.0933020456187089,1
479,326,7,0.0877903316294577,1
479,327,7,0.0787160306626695,1
479,328,7,0.0727127117996766,1
479,329,7,0.0701789287443791,1
480,322,7,0.0820945158857005,1
480,323,7,0.0897966490222242,1
480,324,7,0.0915213031893305,1
480,325,7,0.0865320234507876,1
480,326,7,0.0812097241473362,1
480,327,7,0.0749491683651275,1
480,328,7,0.0697884013402914,1
481,322,7,0.079492922576539,1
481,323,7,0.0862029152095938,1
481,324,7,0.0879675271722593,1
481,325,7,0.0823195637488024,1
481,326,7,0.0769850692614568,1
481,327,7,0.0735059258530903,1
482,323,7,0.0800856168994869,1
482,324,7,0.0827433463891282,1
482,325,7,0.0786312513734556,1
482,326,7,0.0759778824407273,1
482,327,7,0.074320445539663,1
483,324,7,0.0771797369807906,1
483,325,7,0.0750808535900369,1
483,326,7,0.0745102196120216,1
483,327,7,0.0735017988974404,1
470,322,8,0.0743746470225015,1
470,333,8,0.0683095735691599,1
471,322,8,0.0747112005552379,1
471,332,8,0.078872220061111,1
471,333,8,0.0936223608687648,1
471,334,8,0.0701034156386055,1
472,332,8,0.0824236720451021,1
472,333,8,0.0989580293522024,1
472,334,8,0.0735023259977266,1
473,323,8,0.0770701121008138,1
473,324,8,0.0906650707028365,1
473,325,8,0.0872626024167836,1
473,326,8,0.0731833045392822,1
473,332,8,0.0679455808726615,1
473,333,8,0.0749136489935691,1
474,322,8,0.0689240586971212,1
474,323,8,0.0902845222655307,1
474,324,8,0.113884401348725,1
474,325,8,0.106628710175058,1
474,326,8,0.0838355880287666,1
474,327,8,0.0694874570257533,1
475,322,8,0.071637756653515,1
475,323,8,0.090650030375352,1
475,324,8,0.110655768341149,1
475,325,8,0.105764888642398,1
475,326,8,0.0894204371827276,1
475,327,8,0.0757039100874249,1
475,328,8,0.0717097417812367,1
475,329,8,0.0737490688294262,1
475,330,8,0.0721591666525308,1
476,322,8,0.0737443129472985,1
476,323,8,0.085555276671586,1
476,324,8,0.0955521468938411,1
476,325,8,0.0938173999542094,1
476,326,8,0.09002055882789,1
476,327,8,0.0805421875735245,1
476,328,8,0.0771780179150845,1
476,329,8,0.0809310258607859,1
476,330,8,0.0771737591843631,1
477,322,8,0.0776023695841284,1
477,323,8,0.0880556367769178,1
477,324,8,0.0915946539859755,1
477,325,8,0.0871716596480868,1
477,326,8,0.085837251365597,1
477,327,8,0.0793275089230891,1
477,328,8,0.0767555709948021,1
477,329,8,0.07842715574673,1
477,330,8,0.0728402700689361,1
478,321,8,0.0679391179043796,1
478,322,8,0.0782927691328539,1
478,323,8,0.0879325947987469,1
478,324,8,0.0898296287287673,1
478,325,8,0.0836748883290125,1
478,326,8,0.0809705284333707,1
478,327,8,0.0750215607976158,1
478,328,8,0.0717238117650126,1
478,329,8,0.070692683809693,1
479,321,8,0.0686355491575164,1
479,322,8,0.076430362097771,1
479,323,8,0.083219749211434,1
479,324,8,0.0856524248481975,1
479,325,8,0.0824013241909226,1
479,326,8,0.0798898770102527,1
479,327,8,0.0731552065001624,1
480,322,8,0.0742350732626271,1
480,323,8,0.079692819370303,1
480,324,8,0.0821879264421009,1
480,325,8,0.0792209627879657,1
480,326,8,0.0756271630877995,1
480,327,8,0.0695815923450471,1
481,323,8,0.0798729798522145,1
481,324,8,0.0830897950317827,1
481,325,8,0.0784883113594808,1
481,326,8,0.072378859655907,1
482,323,8,0.0754328667345763,1
482,324,8,0.0789056190519728,1
482,325,8,0.074951372602688,1
482,326,8,0.0693304530177785,1
483,324,8,0.0722686717369881,1
483,325,8,0.0695610054850056,1
471,332,9,0.0827775659792991,1
471,333,9,0.104000240741076,1
471,334,9,0.0744835830782408,1
472,324,9,0.0685404375047379,1
472,332,9,0.0898594158847134,1
472,333,9,0.116432823416516,1
472,334,9,0.0836400218430359,1
473,323,9,0.0757303369790464,1
473,324,9,0.0918310824234384,1
473,325,9,0.0871603449612615,1
473,326,9,0.071352259971228,1
473,332,9,0.0692845234155677,1
473,333,9,0.0829046211073764,1
474,323,9,0.0886110088057374,1
474,324,9,0.115479838078626,1
474,325,9,0.10782435331743,1
474,326,9,0.0828367449659766,1
475,323,9,0.0851443540802881,1
475,324,9,0.107498042301619,1
475,325,9,0.103590719757358,1
475,326,9,0.0863581162949987,1
475,327,9,0.0725841053196207,1
475,328,9,0.0728000427334577,1
475,329,9,0.0831601209915581,1
475,330,9,0.0816180771247389,1
475,331,9,0.0681414046187594,1
476,322,9,0.0678047612393834,1
476,323,9,0.0784209383592633,1
476,324,9,0.0881357021124359,1
476,325,9,0.087379355130176,1
476,326,9,0.0823989163009789,1
476,327,9,0.0747853420023122,1
476,328,9,0.0780799344229742,1
476,329,9,0.0922865689480238,1
476,330,9,0.0888016034774052,1
476,331,9,0.0701832952910681,1
477,322,9,0.0724736598403346,1
477,323,9,0.0828118394774539,1
477,324,9,0.0834650305377947,1
477,325,9,0.0782178130762464,1
477,326,9,0.0756395080160932,1
477,327,9,0.0716848542620419,1
477,328,9,0.0729741834905099,1
477,329,9,0.0801242210056748,1
477,330,9,0.0756253062572458,1
478,322,9,0.0735191273193491,1
478,323,9,0.0839884830504194,1
478,324,9,0.0815520218752369,1
478,325,9,0.0736881827565946,1
478,326,9,0.0703323089378862,1
479,322,9,0.0700279564408157,1
479,323,9,0.075903159985383,1
479,324,9,0.0749947206114517,1
479,325,9,0.0716631053854603,1
479,326,9,0.0700061057380425,1
480,323,9,0.0709702500285832,1
480,324,9,0.0728418274106908,1
480,325,9,0.0718470873444467,1
480,326,9,0.0687314275016204,1
481,323,9,0.0729833418579825,1
481,324,9,0.0766546193104436,1
481,325,9,0.0739848743301873,1
482,324,9,0.0742752706492256,1
482,325,9,0.0710437505696277,1
471,324,10,0.069396939531151,1
471,332,10,0.0796060035572561,1
471,333,10,0.10057243570263,1
471,334,10,0.0726943171976435,1
472,323,10,0.0698648967693257,1
472,324,10,0.0740548169443,1
472,325,10,0.0697839509367387,1
472,332,10,0.0896427596977588,1
472,333,10,0.119653454083384,1
472,334,10,0.0876506680229436,1
473,323,10,0.0738013775430552,1
473,324,10,0.0880482453933591,1
473,325,10,0.0859286972754761,1
473,326,10,0.0728245528967659,1
473,332,10,0.0680462150988931,1
473,333,10,0.0851120212695508,1
474,323,10,0.0819773199288855,1
474,324,10,0.104220269171907,1
474,325,10,0.101487673472298,1
474,326,10,0.081729097622519,1
475,323,10,0.0788880869776808,1
475,324,10,0.0977198408310474,1
475,325,10,0.0959696103205086,1
475,326,10,0.0802860048548811,1
475,327,10,0.0688202558793964,1
475,328,10,0.073019436248035,1
475,329,10,0.0901047930474897,1
475,330,10,0.0904295467215464,1
475,331,10,0.0687999864774817,1
476,323,10,0.0740858619532017,1
476,324,10,0.0829663517386211,1
476,325,10,0.0815917640388609,1
476,326,10,0.0735820978342216,1
476,327,10,0.0683375098843283,1
476,328,10,0.0781789154710355,1
476,329,10,0.100554562211107,1
476,330,10,0.100432424689109,1
476,331,10,0.0723856281027639,1
477,323,10,0.0782334943097607,1
477,324,10,0.0788664698761707,1
477,325,10,0.0726284715903008,1
477,328,10,0.0692271353719081,1
477,329,10,0.079249216561261,1
477,330,10,0.0775458380784339,1
478,323,10,0.0780203062030983,1
478,324,10,0.0743321555517029,1
481,324,10,0.0683277884779136,1
481,325,10,0.0686281817330616,1
470,324,11,0.0729629826094282,1
471,323,11,0.0757566979831322,1
471,324,11,0.0864834942858016,1
471,325,11,0.0710308605717198,1
471,332,11,0.0722772071677589,1
471,333,11,0.0849859484647342,1
472,323,11,0.076403162525048,1
472,324,11,0.087639754651109,1
472,325,11,0.0760395352048844,1
472,332,11,0.0826178965210135,1
472,333,11,0.105107606565063,1
472,334,11,0.0816169690161826,1
473,323,11,0.0698156907596541,1
473,324,11,0.0825997175509157,1
473,325,11,0.0810527800371213,1
473,326,11,0.0741022919087135,1
473,333,11,0.0794144744805355,1
474,323,11,0.0716481189659596,1
474,324,11,0.0856383009564378,1
474,325,11,0.0875882246083573,1
474,326,11,0.0792784047396091,1
475,323,11,0.0709135448193852,1
475,324,11,0.0826730144395769,1
475,325,11,0.0829948211438517,1
475,326,11,0.0732913900468324,1
475,328,11,0.0701209297435695,1
475,329,11,0.0880854478919678,1
475,330,11,0.0907238663438513,1
476,323,11,0.0701279497610175,1
476,324,11,0.0772276491988507,1
476,325,11,0.0751401883108899,1
476,328,11,0.0732606505165056,1
476,329,11,0.0974885695907028,1
476,330,11,0.101543078900108,1
476,331,11,0.0725422966832837,1
477,323,11,0.0719896799514148,1
477,324,11,0.073603888639235,1
477,329,11,0.0734754079444747,1
477,330,11,0.0749343855980101,1
478,323,11,0.0695410595309938,1
470,324,12,0.0744963353113011,1
471,323,12,0.0792268207888736,1
471,324,12,0.0975064610515536,1
471,325,12,0.0734868304472676,1
472,323,12,0.0754214681908874,1
472,324,12,0.0933547556473285,1
472,325,12,0.0753608816068547,1
472,332,12,0.0699067353545425,1
472,333,12,0.0809422806498514,1
472,334,12,0.0679101094193109,1
473,324,12,0.072193290406286,1
473,325,12,0.0710647866628677,1
473,326,12,0.0710572215758056,1
473,333,12,0.0689571941378398,1
474,325,12,0.0725919639057058,1
474,326,12,0.0741340916293887,1
475,324,12,0.0686192389975243,1
475,325,12,0.069759878027077,1
475,329,12,0.0779244218692184,1
475,330,12,0.0814664459458177,1
476,324,12,0.0694074995062029,1
476,329,12,0.0838885795768573,1
476,330,12,0.0884389165520703,1
470,324,13,0.0701536698590735,1
471,323,13,0.0785701376891368,1
471,324,13,0.098136369852662,1
471,325,13,0.0741975233570116,1
472,323,13,0.0728362569190298,1
472,324,13,0.0928786762729256,1
472,325,13,0.0749933130140965,1
473,324,13,0.0686496311208443,1
474,326,13,0.070195592301154,1
475,329,13,0.0684128972048064,1
475,330,13,0.0699020154110707,1
476,329,13,0.0699067293647665,1
476,330,13,0.0710714952119647,1
471,323,14,0.0704603463892241,1
471,324,14,0.0853689886488474,1
471,325,14,0.0693421630298185,1
472,324,14,0.0818808186480798,1
472,325,14,0.069432602657333,1
471,324,15,0.0685514527027642,1
472,324,15,0.0703324946209416,1
474,328,19,0.0691870637706052,1
474,327,20,0.0720690444831432,1
474,328,20,0.0856556173987946,1
474,329,20,0.0728483622562844,1
475,327,20,0.0791344704228216,1
475,328,20,0.0847453152045336,1
476,327,20,0.0712798675387397,1
474,327,21,0.0769551802793191,1
474,328,21,0.0924722400238364,1
474,329,21,0.0745930821729221,1
475,326,21,0.0736558739049611,1
475,327,21,0.0906796258584667,1
475,328,21,0.096977701597411,1
475,329,21,0.0695952670036083,1
476,326,21,0.0830259739687211,1
476,327,21,0.0872679932151651,1
476,328,21,0.0755433601320702,1
477,326,21,0.0699315809453055,1
474,327,22,0.0768189787633211,1
474,328,22,0.0895557462221045,1
474,329,22,0.0722031675468762,1
475,326,22,0.0810589135677243,1
475,327,22,0.0998943151946625,1
475,328,22,0.104904337527422,1
475,329,22,0.073596898570667,1
476,326,22,0.0940560086701289,1
476,327,22,0.10188039912417,1
476,328,22,0.0891662670288133,1
477,326,22,0.0773549439179671,1
477,327,22,0.0739464559070548,1
474,327,23,0.0739407955687541,1
474,328,23,0.0807654205345046,1
475,326,23,0.0824835099071374,1
475,327,23,0.102328194776398,1
475,328,23,0.103521933170009,1
475,329,23,0.0753843974673502,1
476,326,23,0.0948543080433491,1
476,327,23,0.108607684240478,1
476,328,23,0.096220534015842,1
477,326,23,0.0787149704723211,1
477,327,23,0.0805907466873903,1
474,328,24,0.0702007794471523,1
475,326,24,0.0751601103057977,1
475,327,24,0.093005701452123,1
475,328,24,0.0917518676361095,1
475,329,24,0.0716150733718807,1
476,326,24,0.0865004573313756,1
476,327,24,0.102883231377763,1
476,328,24,0.0920978311069096,1
477,326,24,0.0745582456358253,1
477,327,24,0.0798801795629419,1
477,328,24,0.0685695957342061,1
475,327,25,0.0770910343883102,1
475,328,25,0.0752453148691061,1
476,326,25,0.0744698125832639,1
476,327,25,0.0880158227359821,1
476,328,25,0.0813305379288428,1
477,327,25,0.0727320767454183,1
480,319,25,0.0678619576102116,1
476,327,26,0.0737270024947177,1
476,328,26,0.0704631196555026,1
