x,y,z,signal,cytoplasm.p
575,322,1,0.0830659557233843,1
575,323,1,0.0850504224133775,1
575,324,1,0.0734001344297403,1
576,322,1,0.0722937569187902,1
576,323,1,0.0767332770486064,1
576,324,1,0.0686725360241899,1
574,323,2,0.094031414649957,1
574,324,2,0.0801629988153661,1
575,322,2,0.105052776155746,1
575,323,2,0.109787346660537,1
575,324,2,0.0983874373026189,1
575,325,2,0.0740187465133514,1
576,321,2,0.0736084169098755,1
576,322,2,0.0998074155247518,1
576,323,2,0.109770898735697,1
576,324,2,0.098622062817512,1
576,325,2,0.0720411860350625,1
577,322,2,0.0764266843753195,1
577,323,2,0.0855891069263182,1
577,324,2,0.0749282281083032,1
573,323,3,0.0811719226711296,1
573,324,3,0.0682656385623503,1
574,322,3,0.105941658911105,1
574,323,3,0.109203271625224,1
574,324,3,0.0972805746198145,1
574,325,3,0.0709236076430308,1
575,321,3,0.0953912076030479,1
575,322,3,0.12662876384345,1
575,323,3,0.135029843939022,1
575,324,3,0.122967010134797,1
575,325,3,0.0919897575789115,1
576,321,3,0.0878527990031479,1
576,322,3,0.127567421637198,1
576,323,3,0.143489623839193,1
576,324,3,0.125433851453747,1
576,325,3,0.0886000954339027,1
577,322,3,0.0986992710298878,1
577,323,3,0.114040399074335,1
577,324,3,0.0946221503161595,1
573,323,4,0.0790959381939455,1
573,324,4,0.0697135411200996,1
574,322,4,0.102795984300845,1
574,323,4,0.111836796430132,1
574,324,4,0.102678608650751,1
574,325,4,0.0755870315887368,1
575,321,4,0.0970797314414458,1
575,322,4,0.130872639920448,1
575,323,4,0.143753006268564,1
575,324,4,0.131066600846216,1
575,325,4,0.0978718793147351,1
576,321,4,0.0918353531337118,1
576,322,4,0.136693887562992,1
576,323,4,0.155609444372088,1
576,324,4,0.132693004717931,1
576,325,4,0.0916743599349347,1
577,322,4,0.109283882030356,1
577,323,4,0.126635700004035,1
577,324,4,0.100868666063472,1
573,323,5,0.073582259558173,1
573,324,5,0.068188867603621,1
574,322,5,0.0930978062373598,1
574,323,5,0.106249593294211,1
574,324,5,0.0990658453198334,1
574,325,5,0.0718913098605034,1
575,321,5,0.0899781092855232,1
575,322,5,0.123899222929591,1
575,323,5,0.139417259007593,1
575,324,5,0.125814729328732,1
575,325,5,0.0913973926936425,1
576,321,5,0.0873135394717133,1
576,322,5,0.130228858798171,1
576,323,5,0.148108292178781,1
576,324,5,0.123565592407532,1
576,325,5,0.0830539222634415,1
577,322,5,0.10584482819262,1
577,323,5,0.120476006059545,1
577,324,5,0.0935911840847915,1
574,322,6,0.0766033228689551,1
574,323,6,0.0891465247271849,1
574,324,6,0.0838672140459384,1
575,321,6,0.073532586345975,1
575,322,6,0.104200598747591,1
575,323,6,0.118758018513104,1
575,324,6,0.106856728967045,1
575,325,6,0.0763133757831153,1
576,321,6,0.0724010937043429,1
576,322,6,0.107549194988484,1
576,323,6,0.121599172912565,1
576,324,6,0.101228759415808,1
577,322,6,0.0849791021507896,1
577,323,6,0.094616747538226,1
577,324,6,0.0735585819737261,1
574,323,7,0.0689737558684231,1
575,322,7,0.080276702732785,1
575,323,7,0.0923951695763082,1
575,324,7,0.0848345389075243,1
576,322,7,0.08132082850198,1
576,323,7,0.091504789376955,1
576,324,7,0.0782886960851878,1
581,318,7,0.0744920286623719,1
581,319,7,0.0785334023930545,1
582,318,7,0.0753950592685937,1
582,319,7,0.0820950369962107,1
586,349,7,0.0837099884162524,1
587,350,7,0.0701515674477047,1
581,318,8,0.103493721325145,1
581,319,8,0.110020193211964,1
582,318,8,0.112057926979743,1
582,319,8,0.120233899314453,1
582,320,8,0.0679277493095705,1
583,318,8,0.0733792720400036,1
583,319,8,0.0761612414630119,1
587,349,8,0.0797409771691782,1
606,347,8,0.0744705613052613,1
581,318,9,0.112112996980099,1
581,319,9,0.121550967195482,1
582,318,9,0.128088831636214,1
582,319,9,0.138066971828981,1
582,320,9,0.0738898285649446,1
583,318,9,0.0794872083302546,1
583,319,9,0.0821083402886612,1
586,355,9,0.0693849420098641,1
587,349,9,0.0824889306543988,1
587,354,9,0.06935690985828,1
589,353,9,0.0685630009908527,1
605,346,9,0.068255204372594,1
605,347,9,0.0773703496217864,1
605,348,9,0.0696287318820058,1
606,346,9,0.0787424635440671,1
606,347,9,0.0882562403642474,1
581,318,10,0.0969995103717523,1
581,319,10,0.108021416947156,1
582,318,10,0.111808668442132,1
582,319,10,0.123158551191069,1
582,320,10,0.0692606242094095,1
583,319,10,0.0709073513910224,1
585,349,10,0.0768086224406526,1
586,349,10,0.0930523078990195,1
586,351,10,0.076262600452137,1
586,355,10,0.0764237314157617,1
586,356,10,0.0811737016345955,1
587,349,10,0.0770335804571148,1
587,350,10,0.0835625860191728,1
587,354,10,0.0734184751237895,1
589,353,10,0.069496291945323,1
590,353,10,0.0699154085501608,1
593,354,10,0.0730149199569465,1
601,350,10,0.0701376412185524,1
602,348,10,0.0681171280567145,1
602,349,10,0.070290590148189,1
603,348,10,0.0845461491634391,1
603,349,10,0.08037867267906,1
604,347,10,0.0762404682298928,1
604,348,10,0.0927820671761522,1
604,349,10,0.0844624420441256,1
605,346,10,0.073199153486524,1
605,347,10,0.088258109174353,1
605,348,10,0.0891597082241158,1
606,346,10,0.0807648515057866,1
606,347,10,0.090221006681044,1
607,347,10,0.0728340107530375,1
581,318,11,0.0684900874478542,1
581,319,11,0.0782580044730689,1
582,318,11,0.0752349465668856,1
582,319,11,0.0850642468163382,1
586,349,11,0.0702246427146546,1
586,350,11,0.0771509081890013,1
586,355,11,0.0797187670798462,1
586,356,11,0.0904249106349383,1
587,354,11,0.0748519543009802,1
594,356,11,0.0761979228511104,1
594,357,11,0.0860275405586899,1
602,348,11,0.0848242544621675,1
602,349,11,0.0847365821111555,1
602,350,11,0.0718380188236138,1
603,347,11,0.0866900337411269,1
603,348,11,0.121823118656887,1
603,349,11,0.113181441239771,1
603,350,11,0.0807057743453007,1
604,347,11,0.103293531032358,1
604,348,11,0.139056650534523,1
604,349,11,0.125435636406989,1
604,350,11,0.0880234776696839,1
605,346,11,0.0735627748169117,1
605,347,11,0.100106916303279,1
605,348,11,0.115953449665325,1
606,346,11,0.0763395990223536,1
606,347,11,0.0882562463540234,1
606,348,11,0.0888699707804352,1
607,347,11,0.0696124456811175,1
610,341,11,0.0763924647851486,1
610,342,11,0.097420124420585,1
610,343,11,0.0851308710945582,1
586,355,12,0.0745715369487238,1
586,356,12,0.0935462188365133,1
587,354,12,0.070892275124882,1
587,355,12,0.115194005968884,1
588,354,12,0.0925621525510648,1
592,354,12,0.0849289437667372,1
593,355,12,0.0965327750478775,1
594,356,12,0.0685758430705528,1
594,357,12,0.0817596874084463,1
594,358,12,0.0826522658555839,1
602,348,12,0.0928223783684943,1
602,349,12,0.0917750061407183,1
602,350,12,0.0716151991571762,1
603,347,12,0.105669974652226,1
603,348,12,0.149962702862931,1
603,349,12,0.138880922486836,1
603,350,12,0.0909021640054332,1
603,351,12,0.07043173322937,1
604,346,12,0.0687320384587703,1
604,347,12,0.127343308179149,1
604,348,12,0.178073608021585,1
604,349,12,0.161212640209874,1
604,350,12,0.103893131567011,1
605,346,12,0.0710049667701604,1
605,347,12,0.110899959528282,1
605,348,12,0.143397908389395,1
605,349,12,0.130020031248422,1
606,347,12,0.0843616580734945,1
606,348,12,0.0975079824546524,1
610,341,12,0.0965955598796946,1
610,342,12,0.127251149485929,1
610,343,12,0.114825742562112,1
610,344,12,0.0767878498975557,1
611,342,12,0.170273206620341,1
611,343,12,0.142425564095539,1
586,356,13,0.0877817902089109,1
586,358,13,0.0894733748228344,1
587,355,13,0.107545613102448,1
588,354,13,0.083176209529839,1
589,354,13,0.0984854779558514,1
590,354,13,0.102388487861408,1
591,354,13,0.0926462190569371,1
592,354,13,0.0735064110249446,1
593,355,13,0.0874510587384267,1
594,357,13,0.0765496305170748,1
594,358,13,0.0810834596696883,1
602,348,13,0.0903249712227203,1
602,349,13,0.0882950481228186,1
603,347,13,0.116583406384641,1
603,348,13,0.161353399945392,1
603,349,13,0.14912829113033,1
603,350,13,0.0962598509053714,1
603,351,13,0.0720108837583822,1
604,346,13,0.0726670996555927,1
604,347,13,0.140675411452088,1
604,348,13,0.197227438119145,1
604,349,13,0.180128676201048,1
604,350,13,0.114261194196492,1
604,351,13,0.0890829971631463,1
605,347,13,0.116080852200409,1
605,348,13,0.160767947261604,1
605,349,13,0.150393619326448,1
605,350,13,0.0983653829474624,1
606,347,13,0.0776856334600195,1
606,348,13,0.100634585618193,1
607,348,13,0.0678961951697105,1
610,341,13,0.101384936834698,1
610,342,13,0.133792859362839,1
610,343,13,0.120768307127345,1
610,344,13,0.0821959168032575,1
611,341,13,0.146976128682239,1
611,342,13,0.181896402847223,1
611,343,13,0.152208401652718,1
611,344,13,0.0984185122604006,1
612,342,13,0.146009558532426,1
586,356,14,0.0752755093298188,1
586,357,14,0.0936416659167467,1
586,358,14,0.0845265086880023,1
586,359,14,0.0721127518784656,1
587,355,14,0.0891345990832097,1
589,354,14,0.0746367117011568,1
590,354,14,0.075499305329741,1
590,355,14,0.137955250527412,1
591,354,14,0.0680893414859455,1
591,355,14,0.129725501983958,1
592,355,14,0.109323055165262,1
592,359,14,0.131354804907246,1
593,356,14,0.0993022857368484,1
593,357,14,0.117012262365222,1
593,358,14,0.123818480749387,1
593,359,14,0.0967164575180649,1
594,358,14,0.0774376088162602,1
594,359,14,0.0689210099011476,1
602,348,14,0.0794113597970261,1
602,349,14,0.0743122455363471,1
603,347,14,0.118833250099406,1
603,348,14,0.151683685297362,1
603,349,14,0.134102986003954,1
603,350,14,0.0865073276044241,1
604,346,14,0.0767808897778675,1
604,347,14,0.147625096950514,1
604,348,14,0.19621719052289,1
604,349,14,0.173276444357808,1
604,350,14,0.10765955062113,1
604,351,14,0.0822637749753293,1
605,347,14,0.122656116802357,1
605,348,14,0.170946637133717,1
605,349,14,0.157179304758556,1
606,347,14,0.0754318305033319,1
606,348,14,0.104313002883622,1
606,349,14,0.104513193176409,1
609,355,14,0.118831393268853,1
610,341,14,0.0912831976145933,1
610,342,14,0.118859808766099,1
610,343,14,0.105157645153596,1
610,344,14,0.0733115875714353,1
611,341,14,0.135860901397075,1
611,342,14,0.163651066031578,1
611,343,14,0.136246583072395,1
611,344,14,0.0920158490430782,1
586,357,15,0.082651654898434,1
586,358,15,0.0773696907464286,1
586,359,15,0.0681371997960218,1
587,355,15,0.070115544934964,1
587,356,15,0.10819016091605,1
587,357,15,0.137394966882289,1
588,355,15,0.0975235438926471,1
589,355,15,0.110449157008512,1
590,355,15,0.110406509803538,1
590,356,15,0.159279547828457,1
591,355,15,0.0995475071654492,1
591,356,15,0.145615071886416,1
591,359,15,0.145273235371266,1
592,355,15,0.0832638100035392,1
592,356,15,0.125252157589185,1
592,357,15,0.1463503168879,1
592,358,15,0.154091695036642,1
592,359,15,0.121040746097996,1
593,356,15,0.0800363450022795,1
593,357,15,0.097233105645177,1
593,358,15,0.108149130950591,1
593,359,15,0.0898235251470442,1
594,358,15,0.0678306969693746,1
603,347,15,0.108248896659305,1
603,348,15,0.127510626581361,1
603,349,15,0.107381828668065,1
603,350,15,0.0713524696133873,1
604,346,15,0.0754062242110195,1
604,347,15,0.139052793118792,1
604,348,15,0.173093253049251,1
604,349,15,0.146798687558622,1
604,350,15,0.092621702903853,1
604,351,15,0.0719981914230816,1
604,352,15,0.0701557962295462,1
605,347,15,0.120041663444167,1
605,348,15,0.160029443821987,1
605,349,15,0.142700926076868,1
605,350,15,0.0930761771562978,1
606,347,15,0.0736274524179384,1
606,348,15,0.0997101176037408,1
606,349,15,0.0975664067295564,1
608,355,15,0.156455128863082,1
609,354,15,0.147939116946015,1
609,355,15,0.15559233757189,1
609,356,15,0.116353578680308,1
610,341,15,0.0726091006547831,1
610,342,15,0.0894979388941264,1
610,343,15,0.0793417945388002,1
610,355,15,0.123861044097497,1
611,340,15,0.0711079310192481,1
611,341,15,0.106685732842383,1
611,342,15,0.12158972104607,1
611,343,15,0.102094533615437,1
612,341,15,0.0920614432178342,1
612,342,15,0.098790381512312,1
587,356,16,0.0806753223242209,1
587,357,16,0.105122808616499,1
587,358,16,0.105214775636888,1
588,356,16,0.107925868040731,1
588,357,16,0.140147065292487,1
589,355,16,0.0753180008006174,1
589,356,16,0.117757881658702,1
589,359,16,0.139515886658871,1
590,355,16,0.074684270522434,1
590,356,16,0.118462950168801,1
590,357,16,0.158900299172539,1
590,359,16,0.142907273859362,1
591,356,16,0.102047286262511,1
591,357,16,0.131132452443335,1
591,358,16,0.147732110288164,1
591,359,16,0.115967873045884,1
592,356,16,0.085424909197392,1
592,357,16,0.109336699874943,1
592,358,16,0.119998357363835,1
592,359,16,0.099746289860881,1
593,357,16,0.0716061486056712,1
593,358,16,0.083397711445561,1
593,359,16,0.0756536977953887,1
603,347,16,0.0866644933363503,1
603,348,16,0.0972392571451079,1
603,349,16,0.0791195978090645,1
604,347,16,0.115131963869288,1
604,348,16,0.13623151279603,1
604,349,16,0.111968847031376,1
604,350,16,0.0738196643291207,1
605,347,16,0.102713181637704,1
605,348,16,0.130555265650398,1
605,349,16,0.114014870649111,1
605,350,16,0.07884857841532,1
606,348,16,0.0845549780932329,1
606,349,16,0.081982746665923,1
607,355,16,0.132651040347419,1
608,354,16,0.154625443974175,1
608,355,16,0.171026241256484,1
608,356,16,0.138448616395291,1
609,353,16,0.11393090596943,1
609,354,16,0.158477157438243,1
609,355,16,0.169436434916005,1
609,356,16,0.137605136141858,1
610,354,16,0.13758980231535,1
610,355,16,0.135886561597371,1
611,341,16,0.0739320504958241,1
611,342,16,0.0801616091873388,1
611,343,16,0.068806928627842,1
612,341,16,0.0699182057755433,1
612,342,16,0.0702976161554129,1
587,357,17,0.0738062292615986,1
587,358,17,0.0780005878605737,1
588,356,17,0.0754628515531297,1
588,357,17,0.097091381555726,1
588,358,17,0.104654647725941,1
588,359,17,0.0889008061471777,1
589,356,17,0.0830699868426185,1
589,357,17,0.106515874775156,1
589,358,17,0.119110720481881,1
589,359,17,0.0994580857998512,1
590,356,17,0.0831131311989989,1
590,357,17,0.108537136658991,1
590,358,17,0.121740004525396,1
590,359,17,0.0999822870344734,1
591,356,17,0.07127393766052,1
591,357,17,0.0913256890853919,1
591,358,17,0.100997518124343,1
591,359,17,0.0832914049014768,1
592,357,17,0.0761584741865094,1
592,358,17,0.0826462521205005,1
592,359,17,0.0715200335964139,1
603,348,17,0.0683457098876443,1
604,347,17,0.0809943797213211,1
604,348,17,0.0920539260489799,1
604,349,17,0.0768450582479359,1
605,347,17,0.0729446598847069,1
605,348,17,0.0874289025570785,1
605,349,17,0.0789457086226036,1
607,354,17,0.135298209862008,1
607,355,17,0.160808629820057,1
607,356,17,0.152781048195463,1
607,357,17,0.1218124927943,1
608,353,17,0.115000164838635,1
608,354,17,0.161988459953843,1
608,355,17,0.185548405200582,1
608,356,17,0.172267790041964,1
608,357,17,0.132599887660554,1
609,353,17,0.123180258139219,1
609,354,17,0.1636386671953,1
609,355,17,0.179349214673284,1
609,356,17,0.161179696441987,1
609,357,17,0.119361452504383,1
610,353,17,0.128588115402762,1
610,354,17,0.144008386357226,1
610,355,17,0.141506013687165,1
610,356,17,0.122752552195627,1
611,353,17,0.136957809072201,1
611,354,17,0.123629850724241,1
611,355,17,0.0993679815997915,1
612,356,17,0.0700271238619545,1
589,358,18,0.071552132805888,1
590,358,18,0.0690531323797035,1
606,355,18,0.125965204480889,1
606,356,18,0.136990668983225,1
606,357,18,0.12292990946238,1
607,354,18,0.150116688023812,1
607,355,18,0.187651978585928,1
607,356,18,0.198435923341218,1
607,357,18,0.17013738246023,1
607,358,18,0.106672411580604,1
608,353,18,0.127721155227488,1
608,354,18,0.172679407447275,1
608,355,18,0.203405484737236,1
608,356,18,0.207736308402352,1
608,357,18,0.173065616222882,1
608,358,18,0.106004922925,1
609,353,18,0.142634331747528,1
609,354,18,0.176567922094961,1
609,355,18,0.191648393058108,1
609,356,18,0.182394069374256,1
609,357,18,0.144438763740905,1
610,352,18,0.102390368651065,1
610,353,18,0.149729964127471,1
610,354,18,0.160478904631937,1
610,355,18,0.152533335020054,1
610,356,18,0.134290130564658,1
610,357,18,0.103915533329174,1
611,352,18,0.105519247929478,1
611,353,18,0.148591415529735,1
611,354,18,0.137559158621439,1
611,355,18,0.111910207124537,1
611,356,18,0.095575291388226,1
611,357,18,0.0801321454792956,1
612,353,18,0.11288864901034,1
612,354,18,0.0998311589967346,1
612,355,18,0.0843175673325093,1
612,356,18,0.0836076171549867,1
612,357,18,0.0761754372320833,1
613,355,18,0.0709450031228296,1
613,356,18,0.0836120795380915,1
613,357,18,0.0756610592300675,1
605,350,19,0.0741769963947299,1
606,350,19,0.0833154179133786,1
606,354,19,0.106180159811057,1
606,355,19,0.136366438489745,1
606,356,19,0.15831533765038,1
606,357,19,0.152797436222543,1
607,353,19,0.111513396445447,1
607,354,19,0.156597649592738,1
607,355,19,0.195568869150421,1
607,356,19,0.218702749652186,1
607,357,19,0.202195214561922,1
607,358,19,0.127384338144609,1
608,353,19,0.136853047890319,1
608,354,19,0.18077939348391,1
608,355,19,0.210310905791174,1
608,356,19,0.221625664493768,1
608,357,19,0.197310372557357,1
608,358,19,0.123797121208244,1
609,352,19,0.10112928121634,1
609,353,19,0.159075080835621,1
609,354,19,0.19121545205031,1
609,355,19,0.200428865564222,1
609,356,19,0.191442045275615,1
609,357,19,0.160321481339644,1
609,358,19,0.102596321108344,1
610,352,19,0.108097247511056,1
610,353,19,0.167325158678749,1
610,354,19,0.180426020660223,1
610,355,19,0.166971642100439,1
610,356,19,0.144916304620647,1
610,357,19,0.11723478254286,1
611,352,19,0.103454811740383,1
611,353,19,0.150121228274004,1
611,354,19,0.148493566549334,1
611,355,19,0.126661851365961,1
611,356,19,0.10685058345689,1
611,357,19,0.0892653199541864,1
612,353,19,0.105029487906738,1
612,354,19,0.103176335075544,1
612,355,19,0.0964106734645353,1
612,356,19,0.0936195456740544,1
612,357,19,0.0833102786855882,1
613,355,19,0.0812443270831698,1
613,356,19,0.0908664409814914,1
613,357,19,0.0812981871487775,1
614,356,19,0.0689645615622946,1
605,350,20,0.0798092486357926,1
605,356,20,0.0896576263217399,1
605,357,20,0.0940062396215152,1
606,350,20,0.082663646429945,1
606,354,20,0.113698334947698,1
606,355,20,0.138932278826084,1
606,356,20,0.164936459977227,1
606,357,20,0.173417970784652,1
606,358,20,0.122346253711385,1
607,353,20,0.118633766600185,1
607,354,20,0.164918346894665,1
607,355,20,0.195339233118919,1
607,356,20,0.221936414071584,1
607,357,20,0.223340537356699,1
607,358,20,0.150999461207671,1
608,353,20,0.146727337347154,1
608,354,20,0.192794081468812,1
608,355,20,0.213629816702313,1
608,356,20,0.223129769119533,1
608,357,20,0.210095130101289,1
608,358,20,0.141031395818101,1
609,352,20,0.10315210044193,1
609,353,20,0.172931301486317,1
609,354,20,0.209278460085139,1
609,355,20,0.210963312190862,1
609,356,20,0.197541218523607,1
609,357,20,0.170109997204452,1
609,358,20,0.115383342787596,1
610,352,20,0.111292996648505,1
610,353,20,0.182968381074723,1
610,354,20,0.206041010127322,1
610,355,20,0.189702841942654,1
610,356,20,0.161621490338683,1
610,357,20,0.129994598659613,1
611,352,20,0.0991677194296928,1
611,353,20,0.14924741579501,1
611,354,20,0.160054564942445,1
611,355,20,0.144753514489076,1
611,356,20,0.121215527761078,1
611,357,20,0.096876594178877,1
612,353,20,0.102829023905148,1
612,354,20,0.111773400641165,1
612,355,20,0.111810812781933,1
612,356,20,0.103388313247458,1
612,357,20,0.0873253992281527,1
612,358,20,0.0696687795242048,1
613,354,20,0.0831054163675373,1
613,355,20,0.090070238029864,1
613,356,20,0.092115560843809,1
613,357,20,0.0811180745850738,1
605,350,21,0.0694379036090748,1
605,356,21,0.0891410380923876,1
605,357,21,0.0956292173413694,1
606,354,21,0.115892282073022,1
606,355,21,0.13291124819552,1
606,356,21,0.150866739751517,1
606,357,21,0.170455319769222,1
606,358,21,0.133149593361296,1
607,353,21,0.124622727970155,1
607,354,21,0.16831159092571,1
607,355,21,0.188098696078479,1
607,356,21,0.204610388073273,1
607,357,21,0.219581521665691,1
607,358,21,0.165663582842483,1
607,359,21,0.089313363947318,1
608,352,21,0.0913398009975996,1
608,353,21,0.150448126287862,1
608,354,21,0.196817282219173,1
608,355,21,0.210220124746429,1
608,356,21,0.210179538024392,1
608,357,21,0.204236650011256,1
608,358,21,0.14972102738171,1
608,359,21,0.083653714470925,1
609,352,21,0.104128134437791,1
609,353,21,0.175662136191789,1
609,354,21,0.216993459260467,1
609,355,21,0.216641020841833,1
609,356,21,0.197453624039683,1
609,357,21,0.169625532143678,1
609,358,21,0.12164922348065,1
610,352,21,0.112462105083288,1
610,353,21,0.185011625436403,1
610,354,21,0.21848886673151,1
610,355,21,0.205617988188545,1
610,356,21,0.173245033972572,1
610,357,21,0.134979374086619,1
610,358,21,0.0956232455347178,1
611,352,21,0.0980560529465529,1
611,353,21,0.146485434254446,1
611,354,21,0.168393794611253,1
611,355,21,0.159540666122508,1
611,356,21,0.132008073834675,1
611,357,21,0.0994165706625373,1
612,353,21,0.106481589297449,1
612,354,21,0.12309404130377,1
612,355,21,0.124127529230826,1
612,356,21,0.106793261300767,1
612,357,21,0.0838367740044106,1
613,354,21,0.093163496110527,1
613,355,21,0.0951515087479001,1
613,356,21,0.0863548518670898,1
605,356,22,0.0907462621162387,1
605,357,22,0.0931703424244716,1
606,354,22,0.121834750801839,1
606,355,22,0.134595309650813,1
606,356,22,0.143112232013829,1
606,357,22,0.158845157294872,1
606,358,22,0.13525798252653,1
607,353,22,0.132474042467224,1
607,354,22,0.174948226772344,1
607,355,22,0.188580525637822,1
607,356,22,0.193226267764837,1
607,357,22,0.204744031954928,1
607,358,22,0.167802963108634,1
607,359,22,0.0999763092380459,1
608,352,22,0.0940707495088144,1
608,353,22,0.153921848948967,1
608,354,22,0.200708540184257,1
608,355,22,0.211125467406179,1
608,356,22,0.202870477946747,1
608,357,22,0.193321325509632,1
608,358,22,0.150968565943169,1
608,359,22,0.0924025729394188,1
609,352,22,0.107344464445504,1
609,353,22,0.17388496965867,1
609,354,22,0.218863467321268,1
609,355,22,0.221983661424511,1
609,356,22,0.201069975246412,1
609,357,22,0.168307266307453,1
609,358,22,0.123288265779681,1
610,352,22,0.119881101509261,1
610,353,22,0.18238718113188,1
610,354,22,0.221012694779129,1
610,355,22,0.216139029696543,1
610,356,22,0.185009900380921,1
610,357,22,0.140178475677724,1
610,358,22,0.0972293320863099,1
611,352,22,0.111096987219351,1
611,353,22,0.153108018086632,1
611,354,22,0.181765897608182,1
611,355,22,0.178004438088573,1
611,356,22,0.147608828718954,1
611,357,22,0.106655005291608,1
612,353,22,0.12381659995973,1
612,354,22,0.146503535357456,1
612,355,22,0.145137099742804,1
612,356,22,0.117623614840346,1
612,357,22,0.0860456716105798,1
613,353,22,0.104139730644087,1
613,354,22,0.118565638888194,1
613,355,22,0.114920896143322,1
613,356,22,0.0923560323800581,1
614,354,22,0.0890602060655443,1
614,355,22,0.083109303732148,1
605,355,23,0.0946787477093899,1
605,356,23,0.0945052957765754,1
605,357,23,0.0875561852966429,1
606,354,23,0.125522631913316,1
606,355,23,0.139697412809706,1
606,356,23,0.143839750204299,1
606,357,23,0.14361612790788,1
606,358,23,0.12410212060112,1
607,353,23,0.135556285349861,1
607,354,23,0.176980857250988,1
607,355,23,0.190715090124086,1
607,356,23,0.189209164606423,1
607,357,23,0.183879521837621,1
607,358,23,0.153129161995839,1
607,359,23,0.099722324767187,1
608,352,23,0.101159194157582,1
608,353,23,0.158352797709356,1
608,354,23,0.203881312541048,1
608,355,23,0.215565520626057,1
608,356,23,0.203369378367632,1
608,357,23,0.181999319178103,1
608,358,23,0.144070871700244,1
608,359,23,0.0947446292553884,1
609,352,23,0.114666642132544,1
609,353,23,0.17304096230495,1
609,354,23,0.216007925479903,1
609,355,23,0.223668968753208,1
609,356,23,0.203048685761689,1
609,357,23,0.164743649088447,1
609,358,23,0.120421415241268,1
610,352,23,0.129168356981448,1
610,353,23,0.181020362171565,1
610,354,23,0.21830694525546,1
610,355,23,0.220367164642266,1
610,356,23,0.19192792392352,1
610,357,23,0.143942966023978,1
610,358,23,0.097395278829822,1
611,351,23,0.10462278211773,1
611,352,23,0.129766124644651,1
611,353,23,0.171911973389677,1
611,354,23,0.204875639312749,1
611,355,23,0.202868920604992,1
611,356,23,0.167050383695466,1
611,357,23,0.117652030337592,1
612,352,23,0.119094416311665,1
612,353,23,0.160873906398681,1
612,354,23,0.190644758174535,1
612,355,23,0.183330103646125,1
612,356,23,0.141194341683848,1
612,357,23,0.0960205413856623,1
613,352,23,0.106087054733231,1
613,353,23,0.143316183885931,1
613,354,23,0.166407117693923,1
613,355,23,0.155066722750137,1
613,356,23,0.113900429989246,1
613,357,23,0.077218484841602,1
614,353,23,0.110826045692695,1
614,354,23,0.124383867683644,1
614,355,23,0.115143751748416,1
614,356,23,0.0848734365127352,1
605,355,24,0.0988994972613307,1
605,356,24,0.0992897790846031,1
605,357,24,0.0849419894988206,1
606,354,24,0.126840095119559,1
606,355,24,0.144292649145661,1
606,356,24,0.149795995417869,1
606,357,24,0.134521874997305,1
606,358,24,0.109064584352194,1
607,353,24,0.134787928866762,1
607,354,24,0.174376766205243,1
607,355,24,0.189353841655432,1
607,356,24,0.1887295991824,1
607,357,24,0.168037738367927,1
607,358,24,0.133658592544483,1
607,359,24,0.0917831642156024,1
608,352,24,0.109054521528549,1
608,353,24,0.162125565926014,1
608,354,24,0.203588053109091,1
608,355,24,0.21532564207763,1
608,356,24,0.203682499896736,1
608,357,24,0.172760712666421,1
608,358,24,0.133246927220963,1
608,359,24,0.0910637442022562,1
609,352,24,0.122033635323463,1
609,353,24,0.170226809815604,1
609,354,24,0.204365621867647,1
609,355,24,0.213083141828216,1
609,356,24,0.196740720902603,1
609,357,24,0.1592376193966,1
609,358,24,0.116105781648036,1
610,352,24,0.133932313327194,1
610,353,24,0.175350835554582,1
610,354,24,0.204036423779813,1
610,355,24,0.209827363155901,1
610,356,24,0.188556878002255,1
610,357,24,0.146118165150487,1
610,358,24,0.098645159393689,1
611,351,24,0.119059903222471,1
611,352,24,0.144372468900364,1
611,353,24,0.189610455637946,1
611,354,24,0.221254202546623,1
611,355,24,0.218283513251828,1
611,356,24,0.18096700524714,1
611,357,24,0.129634481348173,1
611,358,24,0.0822735323203999,1
612,351,24,0.108078703164624,1
612,352,24,0.14613010876379,1
612,353,24,0.206623743452815,1
612,354,24,0.240440844636999,1
612,355,24,0.224190893872958,1
612,356,24,0.168011395333169,1
612,357,24,0.110564256543734,1
613,351,24,0.0963430369141748,1
613,352,24,0.14061286621131,1
613,353,24,0.197342705368095,1
613,354,24,0.223695347726621,1
613,355,24,0.200684077939157,1
613,356,24,0.140887952662944,1
613,357,24,0.0875926211039263,1
614,352,24,0.112990091856329,1
614,353,24,0.148913605579673,1
614,354,24,0.166769067876812,1
614,355,24,0.151311624372619,1
614,356,24,0.106459738594676,1
615,353,24,0.0899444766933983,1
615,354,24,0.093960112356697,1
615,355,24,0.0865474770728147,1
605,355,25,0.100673830630411,1
605,356,25,0.100505374170763,1
606,354,25,0.126953769088098,1
606,355,25,0.145363920579596,1
606,356,25,0.150163132746757,1
606,357,25,0.125098160448752,1
607,353,25,0.134707366379838,1
607,354,25,0.168855857909863,1
607,355,25,0.184281040480631,1
607,356,25,0.184229672161831,1
607,357,25,0.152647787659471,1
607,358,25,0.112598384466374,1
608,352,25,0.121691619115033,1
608,353,25,0.167967634029863,1
608,354,25,0.200223512084541,1
608,355,25,0.208584652353881,1
608,356,25,0.197977082542084,1
608,357,25,0.160997032233716,1
608,358,25,0.119073200525145,1
609,352,25,0.131686710373822,1
609,353,25,0.170980922611424,1
609,354,25,0.194640585648669,1
609,355,25,0.198883742952549,1
609,356,25,0.187305961207144,1
609,357,25,0.152913410265058,1
609,358,25,0.112674682232801,1
610,352,25,0.135473925930143,1
610,353,25,0.172146473119275,1
610,354,25,0.194815618882342,1
610,355,25,0.197564147386057,1
610,356,25,0.182815821480525,1
610,357,25,0.146991139060843,1
610,358,25,0.10191378613548,1
611,351,25,0.122798409920526,1
611,352,25,0.157052237650927,1
611,353,25,0.209907554276714,1
611,354,25,0.239102656805866,1
611,355,25,0.227542197492594,1
611,356,25,0.190677318596759,1
611,357,25,0.13981656143349,1
611,358,25,0.0894332612930997,1
612,349,25,0.0794187691499128,1
612,350,25,0.0902045527664283,1
612,351,25,0.120223752633944,1
612,352,25,0.179843706619047,1
612,353,25,0.256348012501285,1
612,354,25,0.287647730636803,2
612,355,25,0.255809268090585,1
612,356,25,0.189935508800802,1
612,357,25,0.123364180200446,1
613,349,25,0.0764996278671979,1
613,351,25,0.116609342114632,1
613,352,25,0.186692919615194,1
613,353,25,0.257316846786418,1
613,354,25,0.275700691181813,1
613,355,25,0.235143366965207,1
613,356,25,0.161996725844695,1
613,357,25,0.0953653138014885,1
614,352,25,0.148435765211132,1
614,353,25,0.194966884684929,1
614,354,25,0.20549455088516,1
614,355,25,0.178580894128841,1
614,356,25,0.12385806118906,1
614,357,25,0.0723679942022802,1
615,353,25,0.110313308889297,1
615,354,25,0.110467988864192,1
615,355,25,0.100770601451136,1
615,356,25,0.0786802058125361,1
605,355,26,0.107698915428867,1
605,356,26,0.106984814336591,1
606,354,26,0.130928991732863,1
606,355,26,0.153320559297488,1
606,356,26,0.155812533716449,1
606,357,26,0.124571719037914,1
607,353,26,0.136438279862843,1
607,354,26,0.167487745157937,1
607,355,26,0.188646748601052,1
607,356,26,0.188001038770909,1
607,357,26,0.147952030903027,1
607,358,26,0.102330243279783,1
608,352,26,0.141444882033518,1
608,353,26,0.171398793342858,1
608,354,26,0.192985598565981,1
608,355,26,0.201455022005479,1
608,356,26,0.192525559811651,1
608,357,26,0.152252821831382,1
608,358,26,0.108570068447326,1
609,352,26,0.143982199056644,1
609,353,26,0.170930141290669,1
609,354,26,0.183898174000021,1
609,355,26,0.18462036128987,1
609,356,26,0.177543225338152,1
609,357,26,0.146215858396712,1
609,358,26,0.108297952924578,1
610,352,26,0.139380960965157,1
610,353,26,0.173970036457131,1
610,354,26,0.189630856814932,1
610,355,26,0.185808613048684,1
610,356,26,0.175964488103682,1
610,357,26,0.146154055888156,1
610,358,26,0.10391043004004,1
611,349,26,0.0784827348780438,1
611,350,26,0.0967985833365199,1
611,351,26,0.121347542423667,1
611,352,26,0.171410581221985,1
611,353,26,0.233339845417778,1
611,354,26,0.253961470119116,2
611,355,26,0.228322305916164,1
611,356,26,0.193608954552167,1
611,357,26,0.147382319350513,1
611,358,26,0.0962084885763472,1
612,348,26,0.0680732709169925,1
612,349,26,0.0872534680084148,1
612,350,26,0.0993743547214337,1
612,351,26,0.133240446283354,1
612,352,26,0.214199683989003,1
612,353,26,0.300447642313963,2
612,354,26,0.319672523134192,2
612,355,26,0.26995747834073,2
612,356,26,0.200219474975531,1
612,357,26,0.133522313161397,1
613,345,26,0.0796363477623682,1
613,346,26,0.0744188695385582,1
613,347,26,0.0678882107983298,1
613,348,26,0.070345222894898,1
613,349,26,0.0834593043119583,1
613,350,26,0.0933953363795896,1
613,351,26,0.134743388892579,1
613,352,26,0.224084970674536,1
613,353,26,0.301744572568149,1
613,354,26,0.307630222282024,2
613,355,26,0.250871560323226,1
613,356,26,0.170099694789767,1
613,357,26,0.0997143643549102,1
614,345,26,0.0777160615219954,1
614,349,26,0.0679774584604244,1
614,351,26,0.106469465990867,1
614,352,26,0.176206487032806,1
614,353,26,0.227666161896265,1
614,354,26,0.226570416237679,1
614,355,26,0.189253752498815,1
614,356,26,0.129863003281343,1
614,357,26,0.0735236496002136,1
615,352,26,0.105667722496458,1
615,353,26,0.122928232325105,1
615,354,26,0.118813651552401,1
615,355,26,0.110347438632828,1
615,356,26,0.0898438125182868,1
605,355,27,0.114502965514128,1
605,356,27,0.11232189640716,1
606,354,27,0.132920747980224,1
606,355,27,0.159740940272158,1
606,356,27,0.15672510004603,1
606,357,27,0.122872251878801,1
607,350,27,0.0862227713169658,1
607,353,27,0.134740513800108,1
607,354,27,0.165296876777466,1
607,355,27,0.194041332521024,1
607,356,27,0.188549834025704,1
607,357,27,0.142834965283738,1
607,358,27,0.0971389583463311,1
608,352,27,0.150154088185028,1
608,353,27,0.164731945066183,1
608,354,27,0.182832413159988,1
608,355,27,0.197111044792311,1
608,356,27,0.185601127208754,1
608,357,27,0.141472039677809,1
608,358,27,0.0984518992717103,1
609,352,27,0.145130151602668,1
609,353,27,0.164627962555179,1
609,354,27,0.176474577426096,1
609,355,27,0.18002063262193,1
609,356,27,0.170887613881215,1
609,357,27,0.136557895689153,1
609,358,27,0.0993772657525598,1
610,352,27,0.141241577057222,1
610,353,27,0.176373505946218,1
610,354,27,0.189345192418918,1
610,355,27,0.182542112677366,1
610,356,27,0.169821936898045,1
610,357,27,0.139396917728366,1
610,358,27,0.0995801754036414,1
611,349,27,0.0830628649989789,1
611,350,27,0.102614050845244,1
611,351,27,0.124509030042512,1
611,352,27,0.181712337031373,1
611,353,27,0.245993654479246,2
611,354,27,0.258377420480453,2
611,355,27,0.223860473870824,1
611,356,27,0.187115618106067,1
611,357,27,0.143370547092721,1
611,358,27,0.0951587024688515,1
612,348,27,0.0731578300220414,1
612,349,27,0.0952349822659505,1
612,350,27,0.113714722974778,1
612,351,27,0.146712303009446,1
612,352,27,0.231654753721017,2
612,353,27,0.314463598310481,2
612,354,27,0.321657654689319,2
612,355,27,0.263095111796533,2
612,356,27,0.193388422980154,1
612,357,27,0.131191487675389,1
613,344,27,0.0695016707641526,1
613,345,27,0.0936680269208325,1
613,346,27,0.0816491460927445,1
613,347,27,0.0710414984138594,1
613,348,27,0.0742207756673641,1
613,349,27,0.0900434397721317,1
613,350,27,0.105109822782175,1
613,351,27,0.144008386357226,1
613,352,27,0.235188649671612,1
613,353,27,0.308912513523716,2
613,354,27,0.305991850837903,2
613,355,27,0.242006955423704,1
613,356,27,0.162212537473236,1
613,357,27,0.0973167348974028,1
614,344,27,0.0697806865088298,1
614,345,27,0.0876178859790078,1
614,346,27,0.0707361216650964,1
614,349,27,0.070364809462351,1
614,350,27,0.078224078381921,1
614,351,27,0.111947140083226,1
614,352,27,0.18535337809469,1
614,353,27,0.233359324169264,1
614,354,27,0.222041666415096,1
614,355,27,0.177871261409445,1
614,356,27,0.122888196662458,1
614,357,27,0.0720295598798863,1
615,352,27,0.110867746513064,1
615,353,27,0.126269628855271,1
615,354,27,0.118232056284344,1
615,355,27,0.109244924527385,1
615,356,27,0.0940996681472435,1
605,351,28,0.0743909092642859,1
605,352,28,0.0787593427327773,1
605,355,28,0.125330228329302,1
605,356,28,0.122044273165602,1
605,357,28,0.100910738249952,1
606,350,28,0.072972955586434,1
606,351,28,0.0980240555632704,1
606,354,28,0.137453055729738,1
606,355,28,0.168196000228857,1
606,356,28,0.15820728209171,1
606,357,28,0.120835212925036,1
606,358,28,0.0848461111547167,1
607,350,28,0.0944636608437419,1
607,351,28,0.124649993430414,1
607,353,28,0.129055329908715,1
607,354,28,0.16113562367033,1
607,355,28,0.194455968773429,1
607,356,28,0.182868459631833,1
607,357,28,0.135576219324321,1
607,358,28,0.0952893155238605,1
608,350,28,0.105956010414352,1
608,353,28,0.144326024177419,1
608,354,28,0.165181561610309,1
608,355,28,0.18607221110999,1
608,356,28,0.172798400336884,1
608,357,28,0.129920157723739,1
608,358,28,0.0922139249449444,1
609,353,28,0.144176890735082,1
609,354,28,0.160558904079919,1
609,355,28,0.169249074723366,1
609,356,28,0.158572514671836,1
609,357,28,0.12563169375435,1
609,358,28,0.0916068072414379,1
610,350,28,0.0960712328597769,1
610,351,28,0.111813795690371,1
610,352,28,0.131791040291833,1
610,353,28,0.165378960667489,1
610,354,28,0.180851929671021,1
610,355,28,0.175930202625975,1
610,356,28,0.159894098843954,1
610,357,28,0.131099245125305,1
610,358,28,0.0955886605682122,1
611,348,28,0.0722477195006118,1
611,349,28,0.0891147789144935,1
611,350,28,0.112222717696491,1
611,351,28,0.131252882879179,1
611,352,28,0.176356914266755,1
611,353,28,0.230420093177914,1
611,354,28,0.243350749685153,1
611,355,28,0.212676459998311,1
611,356,28,0.174858967130697,1
611,357,28,0.13387315829962,1
611,358,28,0.0920113507213176,1
612,348,28,0.0847742578020666,1
612,349,28,0.104403843826127,1
612,350,28,0.130027470550188,1
612,351,28,0.155266709390541,1
612,352,28,0.220858278354378,1
612,353,28,0.287805117990441,2
612,354,28,0.295278681275587,2
612,355,28,0.242956047407208,1
612,356,28,0.17699316025085,1
612,357,28,0.120088922776645,1
613,344,28,0.0716741685016944,1
613,345,28,0.0953761253471315,1
613,346,28,0.0832631511281815,1
613,347,28,0.0754032353128058,1
613,348,28,0.0854737618102809,1
613,349,28,0.09988099992266,1
613,350,28,0.11694774049837,1
613,351,28,0.141541005958437,1
613,352,28,0.214974928714478,1
613,353,28,0.277205131235033,1
613,354,28,0.276561757417523,1
613,355,28,0.21762070860104,1
613,356,28,0.145991205858825,1
614,344,28,0.0723006092225108,1
614,345,28,0.0886776570430613,1
614,346,28,0.0700229669574248,1
614,348,28,0.0685687990940009,1
614,349,28,0.0764386339783987,1
614,350,28,0.0835038622554698,1
614,351,28,0.106743162814474,1
614,352,28,0.170349552304976,1
614,353,28,0.211986078418914,1
614,354,28,0.200098050236874,1
614,355,28,0.156130411127681,1
614,356,28,0.11058936568464,1
615,352,28,0.106355648267704,1
615,353,28,0.120022256569994,1
615,354,28,0.11255164025463,1
615,355,28,0.102391231178806,1
604,353,29,0.0718887462363842,1
604,355,29,0.10048774027028,1
604,356,29,0.101441001137866,1
605,351,29,0.0762476320019643,1
605,352,29,0.0872737434001054,1
605,354,29,0.114834823062497,1
605,355,29,0.137116190728651,1
605,356,29,0.13346417639574,1
605,357,29,0.108403097452122,1
606,350,29,0.0689427527879532,1
606,351,29,0.095644227719974,1
606,353,29,0.117926038629551,1
606,354,29,0.146897339169004,1
606,355,29,0.175534026863139,1
606,356,29,0.161196216244138,1
606,357,29,0.120709559404538,1
606,358,29,0.0866110465652851,1
607,350,29,0.0867770352372292,1
607,351,29,0.111061707438832,1
607,353,29,0.126395306334873,1
607,354,29,0.15946980707267,1
607,355,29,0.189477386774785,1
607,356,29,0.174101296407946,1
607,357,29,0.129390385997456,1
607,358,29,0.0949165478055521,1
608,350,29,0.0960933291433652,1
608,353,29,0.12812873552379,1
608,354,29,0.152460044121169,1
608,355,29,0.172730332522653,1
608,356,29,0.158851829905313,1
608,357,29,0.120962795153399,1
608,358,29,0.0897184465070358,1
609,353,29,0.131002941507106,1
609,354,29,0.150266791809858,1
609,355,29,0.157408233996493,1
609,356,29,0.144878293502281,1
609,357,29,0.115916097422317,1
610,349,29,0.075190113093679,1
610,350,29,0.0911960343945395,1
610,351,29,0.105452318172683,1
610,352,29,0.122977408385897,1
610,353,29,0.153204800886909,1
610,354,29,0.170358309357458,1
610,355,29,0.16623960761888,1
610,356,29,0.146908731722917,1
610,357,29,0.120514999501171,1
610,358,29,0.0910465056269872,1
611,348,29,0.0807703740792397,1
611,349,29,0.0936397851270891,1
611,350,29,0.114132342135621,1
611,351,29,0.131631460680187,1
611,352,29,0.159621516118679,1
611,353,29,0.198651303705889,1
611,354,29,0.213877913223384,1
611,355,29,0.192988281985619,1
611,356,29,0.156150488856765,1
611,357,29,0.119015375227839,1
612,347,29,0.074588128628187,1
612,348,29,0.095090472930669,1
612,349,29,0.109419825985987,1
612,350,29,0.131250666662067,1
612,351,29,0.148964231166252,1
612,352,29,0.188401634988419,1
612,353,29,0.238158668111496,1
612,354,29,0.249484304247269,1
612,355,29,0.211987060742174,1
612,356,29,0.153917488392054,1
612,357,29,0.104788483280427,1
613,345,29,0.0824017794138971,1
613,346,29,0.0767294915101874,1
613,347,29,0.0771922915512437,1
613,348,29,0.0927905786478191,1
613,349,29,0.103249074915039,1
613,350,29,0.114320109633026,1
613,351,29,0.127356569543168,1
613,352,29,0.175801781828975,1
613,353,29,0.22561401672748,1
613,354,29,0.228645705900849,1
613,355,29,0.183688016720004,1
613,356,29,0.126067078590749,1
614,344,29,0.0689763075129904,1
614,345,29,0.0788638463542917,1
614,348,29,0.0723552719180997,1
614,349,29,0.0788487401392714,1
614,350,29,0.0813032005912724,1
614,351,29,0.095092790973973,1
614,352,29,0.140383757280094,1
614,353,29,0.17587978069178,1
614,354,29,0.168168267566072,1
614,355,29,0.13245298241488,1
615,353,29,0.106870074187928,1
615,354,29,0.101990419329362,1
571,316,30,0.0698846989687139,1
571,317,30,0.077530312579095,1
581,316,30,0.0732811056014756,1
581,317,30,0.0865883453143228,1
582,316,30,0.0775370810259518,1
582,317,30,0.0883606241902422,1
582,318,30,0.0685117344982441,1
604,352,30,0.0689012795790711,1
604,353,30,0.0905088154168592,1
604,354,30,0.11210670771532,1
604,355,30,0.12346589857613,1
604,356,30,0.119083610755798,1
605,351,30,0.0693293928274301,1
605,352,30,0.0914072818137847,1
605,353,30,0.112846840374004,1
605,354,30,0.135519076861476,1
605,355,30,0.153862334534834,1
605,356,30,0.148662586047924,1
605,357,30,0.115218911457406,1
606,351,30,0.0810887546316542,1
606,352,30,0.101229070884159,1
606,353,30,0.123892909705708,1
606,354,30,0.150961593843929,1
606,355,30,0.172905605347365,1
606,356,30,0.160474556054576,1
606,357,30,0.118418134664923,1
606,358,30,0.0849256254308446,1
607,350,30,0.0706423457323613,1
607,351,30,0.0882337607349963,1
607,353,30,0.120936643791473,1
607,354,30,0.149191914530784,1
607,355,30,0.170025589281349,1
607,356,30,0.15556267620124,1
607,357,30,0.117587640245813,1
607,358,30,0.0874783481577893,1
608,350,30,0.0792265512489545,1
608,354,30,0.136374979910291,1
608,355,30,0.146877189562609,1
608,356,30,0.133794237011315,1
608,357,30,0.105041048174379,1
609,353,30,0.125007954422501,1
609,354,30,0.135305158002144,1
609,355,30,0.133082196401975,1
609,356,30,0.120072774340605,1
610,349,30,0.0734615476028581,1
610,350,30,0.0833043008891607,1
610,351,30,0.0967613988072391,1
610,352,30,0.114415359050652,1
610,353,30,0.13673423469399,1
610,354,30,0.148051640877566,1
610,355,30,0.142164936963118,1
610,356,30,0.124365550948699,1
610,357,30,0.10300258365393,1
611,348,30,0.0797808511078738,1
611,349,30,0.0893293267003033,1
611,350,30,0.102440287444078,1
611,351,30,0.116287906776468,1
611,352,30,0.132274762620386,1
611,353,30,0.157494965952676,1
611,354,30,0.172069768048082,1
611,355,30,0.160107047359577,1
611,356,30,0.129892688611097,1
612,347,30,0.0741633636646005,1
612,348,30,0.0956981716424455,1
612,349,30,0.106029636740692,1
612,350,30,0.116070501867516,1
612,351,30,0.124574090989201,1
612,352,30,0.14437488876986,1
612,353,30,0.180055624893202,1
612,354,30,0.193504265247598,1
612,355,30,0.169525586741684,1
612,356,30,0.124654857128509,1
613,347,30,0.073135464198534,1
613,348,30,0.0927958436609051,1
613,349,30,0.101317204447921,1
613,350,30,0.101666168796487,1
613,351,30,0.104533857903538,1
613,352,30,0.131621984854588,1
613,353,30,0.169821877000286,1
613,354,30,0.174601143213435,1
613,355,30,0.142997995006348,1
614,348,30,0.0712106556772965,1
614,349,30,0.078041126664403,1
614,350,30,0.0753697045468725,1
614,352,30,0.106185023509152,1
614,353,30,0.134282104264845,1
614,354,30,0.131474971792947,1
580,317,31,0.0700727060571586,1
581,316,31,0.0866522442444722,1
581,317,31,0.0972028992049123,1
581,318,31,0.0690269211200172,1
582,316,31,0.0962858405433465,1
582,317,31,0.102859739476371,1
582,318,31,0.0726916038291248,1
583,316,31,0.074544894425167,1
583,317,31,0.0766159792655998,1
602,354,31,0.0738239230598421,1
602,355,31,0.0791351951857152,1
603,353,31,0.0797846246667408,1
603,354,31,0.111057394800127,1
603,355,31,0.118724859113281,1
603,356,31,0.104821331211898,1
604,352,31,0.0705600462104029,1
604,353,31,0.105613766594435,1
604,354,31,0.140339049592183,1
604,355,31,0.153268603980642,1
604,356,31,0.141213281355495,1
604,357,31,0.108664275643932,1
605,352,31,0.0885861093069906,1
605,353,31,0.120094205759059,1
605,354,31,0.151600163861104,1
605,355,31,0.173242075023238,1
605,356,31,0.16801757678198,1
605,357,31,0.125292145333624,1
606,351,31,0.0679560989192815,1
606,352,31,0.0930168963434286,1
606,353,31,0.119942544631258,1
606,354,31,0.14491442383099,1
606,355,31,0.164053566997849,1
606,356,31,0.158602727101877,1
606,357,31,0.118002264518666,1
607,351,31,0.0728120103058648,1
607,354,31,0.139303908486957,1
607,355,31,0.149511373242875,1
607,356,31,0.137722176364497,1
607,357,31,0.106852751755795,1
608,355,31,0.128180678861084,1
608,356,31,0.11319678704583,1
609,353,31,0.124648004824789,1
609,355,31,0.118062761256059,1
610,349,31,0.070501861526538,1
610,350,31,0.0777019136711318,1
610,352,31,0.106501044089831,1
610,353,31,0.122752372502347,1
610,354,31,0.128937750606237,1
610,355,31,0.121360360544263,1
610,356,31,0.105374930267028,1
611,348,31,0.0706659214906166,1
611,349,31,0.0805757363087857,1
611,350,31,0.0875606776286276,1
611,351,31,0.0971776582889347,1
611,352,31,0.110449180967616,1
611,353,31,0.127909713375323,1
611,354,31,0.138329443812403,1
611,355,31,0.129793533859533,1
612,348,31,0.0835337452478315,1
612,349,31,0.0920282299100278,1
612,350,31,0.0939774527581577,1
612,351,31,0.0994343543074204,1
612,352,31,0.11378365331675,1
612,353,31,0.139726810630214,1
612,354,31,0.148405432985572,1
612,355,31,0.130569269746638,1
613,348,31,0.0824274156550893,1
613,349,31,0.0893252955810691,1
613,350,31,0.0850808864140093,1
613,352,31,0.104400178083228,1
613,353,31,0.131641355790106,1
613,354,31,0.13342265526865,1
614,349,31,0.0702602519328528,1
580,317,32,0.0690877053666572,1
581,316,32,0.086629213555831,1
581,317,32,0.0953857569069065,1
581,318,32,0.07173333550882,1
582,316,32,0.101882387729795,1
582,317,32,0.102627923166412,1
582,318,32,0.0713958894994627,1
583,316,32,0.0824139326693595,1
583,317,32,0.0774029639519948,1
602,354,32,0.0878862279428895,1
602,355,32,0.0942899453607843,1
603,353,32,0.103645622043986,1
603,354,32,0.145982017542473,1
603,355,32,0.152487297601876,1
603,356,32,0.132521673165813,1
604,352,32,0.0812789659576593,1
604,353,32,0.135102440023894,1
604,354,32,0.18172265142561,1
604,355,32,0.194932838798261,1
604,356,32,0.173417263991086,1
604,357,32,0.128976360702201,1
605,352,32,0.0949272635147795,1
605,353,32,0.139135200456718,1
605,354,32,0.179350029282817,1
605,355,32,0.203913130231051,1
605,356,32,0.194133012032166,1
605,357,32,0.141578070692199,1
605,358,32,0.0915441721540202,1
606,352,32,0.0923700544456261,1
606,353,32,0.123594451148202,1
606,354,32,0.14894294350242,1
606,355,32,0.167308986283605,1
606,356,32,0.162233825137068,1
606,357,32,0.120206813547474,1
607,354,32,0.135957756074663,1
607,355,32,0.137602129274316,1
607,356,32,0.123216819731798,1
608,353,32,0.120886772916667,1
609,352,32,0.0959868069673458,1
609,353,32,0.119257493952483,1
609,354,32,0.126036243224006,1
610,350,32,0.073948438522904,1
610,351,32,0.0792672697460632,1
610,352,32,0.0928364064238383,1
610,353,32,0.106689147014691,1
610,354,32,0.111432055287645,1
611,349,32,0.071993106103275,1
611,350,32,0.0760908615952527,1
611,351,32,0.080137871705132,1
611,352,32,0.0898943961764337,1
611,353,32,0.101432519615079,1
611,354,32,0.106794950417593,1
612,349,32,0.0750801467964713,1
612,350,32,0.0755909309328995,1
612,353,32,0.107317294821661,1
612,354,32,0.10923822795784,1
613,349,32,0.0738593346154329,1
581,316,33,0.0722551048943945,1
581,317,33,0.0799306673846731,1
581,318,33,0.0685309077711545,1
582,316,33,0.0868965013191403,1
582,317,33,0.0834007901904145,1
583,316,33,0.0787537303126845,1
602,354,33,0.0918144128768875,1
602,355,33,0.101858859889748,1
603,353,33,0.120685456545996,1
603,354,33,0.163492684375128,1
603,355,33,0.167614333083488,1
603,356,33,0.147248399939163,1
604,352,33,0.0939659104598452,1
604,353,33,0.163872699722371,1
604,354,33,0.211014105491168,1
604,355,33,0.216059461512431,1
604,356,33,0.18876757436211,1
604,357,33,0.138659145041419,1
605,352,33,0.106156032993411,1
605,353,33,0.166165669824189,1
605,354,33,0.208545431300768,1
605,355,33,0.221324786066765,1
605,356,33,0.201622016959787,1
605,357,33,0.145498630641375,1
605,358,33,0.0941068678579708,1
606,352,33,0.0975388058418429,1
606,353,33,0.137207558771442,1
606,354,33,0.16687130137323,1
606,355,33,0.177428724780527,1
606,356,33,0.16460142784759,1
606,357,33,0.121071317914596,1
607,354,33,0.134922650908093,1
607,355,33,0.132378170112896,1
607,356,33,0.11562925903021,1
608,353,33,0.10962971971586,1
608,354,33,0.129079708296951,1
609,351,33,0.0682491247499748,1
609,352,33,0.0841506202964086,1
609,353,33,0.106677454971979,1
609,354,33,0.123158575150173,1
609,355,33,0.109894719384746,1
610,350,33,0.0720881398889658,1
610,351,33,0.0736724655844244,1
610,352,33,0.0833458399855785,1
610,353,33,0.0963174306218624,1
610,354,33,0.105428718455324,1
611,350,33,0.0713340151135944,1
611,351,33,0.0723972961863719,1
611,352,33,0.0798011863973242,1
611,353,33,0.0879516003579298,1
602,354,34,0.0938298586882467,1
602,355,34,0.109307649461442,1
603,352,34,0.0691481961142742,1
603,353,34,0.13258524864806,1
603,354,34,0.174038882942239,1
603,355,34,0.175328853076737,1
603,356,34,0.151846990549667,1
604,352,34,0.103506371732014,1
604,353,34,0.191117519213045,1
604,354,34,0.235689993921096,1
604,355,34,0.225397474346269,1
604,356,34,0.185773333268165,1
604,357,34,0.134575195983074,1
605,352,34,0.114901405412285,1
605,353,34,0.195330356270917,1
605,354,34,0.23831181470374,1
605,355,34,0.228922170000959,1
605,356,34,0.189817246663862,1
605,357,34,0.134680088940027,1
606,352,34,0.100410885454687,1
606,353,34,0.152046929271863,1
606,354,34,0.188059307311638,1
606,355,34,0.186564654552369,1
606,356,34,0.15724231720186,1
606,357,34,0.112888660989892,1
607,353,34,0.106890810792369,1
607,354,34,0.132221513511928,1
607,355,34,0.129556063201049,1
607,356,34,0.107782568640197,1
608,353,34,0.0948523194377239,1
608,354,34,0.11571125906337,1
609,352,34,0.0773061452130621,1
609,353,34,0.0948444608516388,1
609,354,34,0.113697939622483,1
609,355,34,0.102526384484008,1
610,351,34,0.0679113073745068,1
610,352,34,0.076053371587397,1
610,353,34,0.0881522578532432,1
610,354,34,0.0994005240526882,1
611,352,34,0.07127042166202,1
611,353,34,0.0766988118776203,1
602,354,35,0.0884815517774924,1
602,355,35,0.103812209693528,1
603,352,35,0.0679972906086925,1
603,353,35,0.129013101988059,1
603,354,35,0.164908272091468,1
603,355,35,0.162269284610866,1
603,356,35,0.137152584607502,1
604,352,35,0.10203309049344,1
604,353,35,0.192144310570555,1
604,354,35,0.231720401665752,1
604,355,35,0.20989083082218,1
604,356,35,0.161687749240568,1
604,357,35,0.116169608700873,1
605,352,35,0.113583666676346,1
605,353,35,0.199583468582475,1
605,354,35,0.23921672609962,1
605,355,35,0.214670336626368,1
605,356,35,0.161651055872918,1
605,357,35,0.114147280636913,1
606,352,35,0.09936668780818,1
606,353,35,0.152810086629411,1
606,354,35,0.187080709691659,1
606,355,35,0.177355218249707,1
606,356,35,0.137673778974583,1
606,357,35,0.0992118520991098,1
607,353,35,0.103093280841812,1
607,354,35,0.12318576873312,1
607,355,35,0.120568248609629,1
607,356,35,0.0970050868531892,1
608,352,35,0.0785304853721524,1
608,353,35,0.0870450896918639,1
609,352,35,0.0770334546718192,1
609,353,35,0.0886036473710586,1
609,354,35,0.100381499613731,1
610,352,35,0.0725843808493157,1
610,353,35,0.0835639157494403,1
602,354,36,0.0773194964237204,1
602,355,36,0.090436968053985,1
602,356,36,0.0905143679391922,1
603,353,36,0.112749554432544,1
603,354,36,0.143015688804591,1
603,355,36,0.13839467247282,1
604,352,36,0.0917287051723968,1
604,353,36,0.171653286944675,1
604,354,36,0.206397545552726,1
604,355,36,0.180694961601703,1
604,356,36,0.133052391276701,1
605,352,36,0.104812705934488,1
605,353,36,0.181824932840236,1
605,354,36,0.214533362429269,1
605,355,36,0.186048419719799,1
605,356,36,0.133781922031901,1
605,357,36,0.0958353315226001,1
606,352,36,0.0952502502049222,1
606,353,36,0.14192835279148,1
606,354,36,0.16742367851406,1
606,355,36,0.154354730059006,1
606,356,36,0.115664047649099,1
607,352,36,0.0844613698742252,1
607,353,36,0.100332383450699,1
607,354,36,0.110606196955143,1
607,355,36,0.105349222148524,1
608,352,36,0.0799051090105685,1
608,353,36,0.0833824315270373,1
608,354,36,0.0826055755518237,1
609,352,36,0.0752861831106143,1
609,353,36,0.0798499132249174,1
609,354,36,0.0809176387114717,1
610,352,36,0.0683619960885325,1
610,353,36,0.072926516853265,1
582,317,37,0.0689713180295995,1
582,318,37,0.0739886059606225,1
602,355,37,0.07532076807712,1
602,356,37,0.073865450176708,1
603,353,37,0.0937392154083489,1
603,354,37,0.117365695086668,1
603,355,37,0.111765613932391,1
604,352,37,0.0811079279045646,1
604,353,37,0.14229195615254,1
604,354,37,0.170639098075825,1
604,355,37,0.148036462785234,1
605,352,37,0.0948106066378026,1
605,353,37,0.154153832972653,1
605,354,37,0.178305987370485,1
605,355,37,0.153575651876904,1
605,356,37,0.112164700726354,1
606,352,37,0.0914775778246801,1
606,353,37,0.128176294345067,1
606,354,37,0.143437129442509,1
606,355,37,0.130467683146026,1
606,356,37,0.0997499915424363,1
607,352,37,0.0842752435754382,1
607,353,37,0.0980760468187725,1
607,354,37,0.0997122559537654,1
607,355,37,0.0918387673060201,1
608,352,37,0.0798871277030781,1
608,353,37,0.0833441448789763,1
608,354,37,0.0753849904551722,1
609,352,37,0.072847589575183,1
609,353,37,0.0742199969964867,1
578,353,38,0.069059403675154,1
579,353,38,0.0686364775727933,1
582,318,38,0.0771096326427265,1
603,353,38,0.073266370752566,1
603,354,38,0.0904724994050955,1
603,355,38,0.0861583932047381,1
604,353,38,0.108402797963323,1
604,354,38,0.12916267867382,1
604,355,38,0.113928198590687,1
605,352,38,0.0806456549637944,1
605,353,38,0.120502145441919,1
605,354,38,0.136600890301134,1
605,355,38,0.119104155687407,1
605,356,38,0.0910318486451654,1
606,352,38,0.0833762500782265,1
606,353,38,0.107866461442566,1
606,354,38,0.114682982241416,1
606,355,38,0.104013526064199,1
607,352,38,0.0819485091064241,1
607,353,38,0.0899843566218698,1
607,354,38,0.0858524234681531,1
608,351,38,0.0691349167809276,1
608,352,38,0.078872807059157,1
608,353,38,0.0798116625155123,1
608,354,38,0.0693843490220421,1
609,352,38,0.0713048269352463,1
609,353,38,0.0691968151258998,1
610,351,38,0.0684949211970697,1
610,352,38,0.0695876000903546,1
603,354,39,0.0682997203876736,1
604,353,39,0.0776479397997805,1
604,354,39,0.0933005122360581,1
605,353,39,0.0899134197049446,1
605,354,39,0.102400838779477,1
605,355,39,0.0920433421148241,1
606,352,39,0.0753666856997788,1
606,353,39,0.0880072693358833,1
606,354,39,0.0918949034865,1
606,355,39,0.083167158978334,1
607,351,39,0.0700620143070352,1
607,352,39,0.0798369034314899,1
607,353,39,0.0803674598184264,1
607,354,39,0.0751195715019684,1
608,349,39,0.068266303427484,1
608,351,39,0.0713019458530002,1
608,352,39,0.0758943250658133,1
608,353,39,0.0726343116218809,1
609,352,39,0.0697247899193891,1
610,351,39,0.0678841137915598,1
610,352,39,0.07269475445129,1
611,351,39,0.0684805876631507,1
611,352,39,0.0760128507528957,1
605,353,40,0.0691267946446994,1
606,352,40,0.0718851463810205,1
606,353,40,0.0756525237992967,1
606,354,40,0.0776509346877702,1
607,351,40,0.0748594235516266,1
607,352,40,0.0812537430110096,1
607,353,40,0.075008353341581,1
607,354,40,0.0687625683469378,1
608,349,40,0.0744524901511312,1
608,350,40,0.0737569393950633,1
608,351,40,0.0769555815943097,1
608,352,40,0.0767585539032399,1
609,349,40,0.0706231784492269,1
609,350,40,0.0703903738262315,1
609,351,40,0.0713207657291278,1
609,352,40,0.0691281663033987,1
610,351,40,0.0692919746968862,1
610,352,40,0.0739897080794028,1
611,351,40,0.073347029075906,1
611,352,40,0.0840106931397514,1
576,348,41,0.0698019022953492,1
576,349,41,0.080096087027899,1
606,352,41,0.0725502511057845,1
607,351,41,0.0759814643267631,1
607,352,41,0.081213006544573,1
607,353,41,0.0735728975383171,1
608,349,41,0.0728087039495241,1
608,350,41,0.0755395626140992,1
608,351,41,0.0782172500373043,1
608,352,41,0.0760618351408561,1
609,349,41,0.0728512253692026,1
609,350,41,0.0745632171498883,1
609,351,41,0.0752460815604315,1
609,352,41,0.0695444437544223,1
610,350,41,0.0681519765733632,1
610,351,41,0.0736972692467555,1
610,352,41,0.0735623794916971,1
611,350,41,0.0690512635695979,1
611,351,41,0.079286311243902,1
611,352,41,0.0839833018941972,1
612,351,41,0.0685811200631907,1
575,349,42,0.0697473893441598,1
576,348,42,0.0714106602870282,1
576,349,42,0.0889163436260685,1
606,352,42,0.071527898172275,1
606,353,42,0.0696095526193194,1
607,351,42,0.0743693999787435,1
607,352,42,0.0781900744236853,1
607,353,42,0.0725243453246732,1
608,349,42,0.0705572250259166,1
608,350,42,0.0749722349924246,1
608,351,42,0.0772554776980515,1
608,352,42,0.0738260494303148,1
609,349,42,0.0727400191883671,1
609,350,42,0.0769335152596012,1
609,351,42,0.0815907577564963,1
609,352,42,0.0737733633607991,1
610,350,42,0.0745523157576056,1
610,351,42,0.085973452881595,1
610,352,42,0.0797465656301671,1
611,350,42,0.0747080259739687,1
611,351,42,0.0845768946835419,1
611,352,42,0.0806645407274578,1
612,350,42,0.0729449593735059,1
612,351,42,0.0711580295055406,1
576,349,43,0.0754527707601562,1
607,351,43,0.0705499534378774,1
607,352,43,0.072011237155165,1
607,353,43,0.0692598036101003,1
608,350,43,0.0692804563576776,1
608,351,43,0.0738187718524997,1
608,352,43,0.0706215432403845,1
609,350,43,0.0738523385570888,1
609,351,43,0.0846579183832167,1
609,352,43,0.077752419462191,1
610,350,43,0.0774218017974503,1
610,351,43,0.0960386245193444,1
610,352,43,0.0873216316590616,1
611,350,43,0.0736804140171492,1
611,351,43,0.0837402727236048,1
611,352,43,0.074841196663321,1
612,350,43,0.0711033009224159,1
612,351,43,0.0679741281449798,1
607,351,44,0.0742787986272775,1
607,352,44,0.0718810972924583,1
607,353,44,0.0684478295783188,1
608,350,44,0.0681591762840906,1
608,351,44,0.0746061159254535,1
608,352,44,0.0720672595299013,1
609,350,44,0.0733614225075847,1
609,351,44,0.0866337957344553,1
609,352,44,0.0828765949455683,1
610,350,44,0.0781464389056746,1
610,351,44,0.0988222770694029,1
610,352,44,0.0914037358664048,1
611,350,44,0.068333209225175,1
611,351,44,0.0777456450255581,1
606,351,45,0.0700272676165781,1
606,352,45,0.0682611881587975,1
607,350,45,0.0677547106712986,1
607,351,45,0.0794061007737161,1
607,352,45,0.0741672989474191,1
608,350,45,0.0682507779281451,1
608,351,45,0.0762385395220274,1
608,352,45,0.0742827578692,1
609,350,45,0.0716519045043786,1
609,351,45,0.0827430708594332,1
609,352,45,0.0824090390223842,1
610,350,45,0.074458090591672,1
610,351,45,0.0891007448693735,1
610,352,45,0.0845270537576165,1
611,351,45,0.0690647405655518,1
606,351,46,0.0685268167541605,1
607,351,46,0.0789901767194754,1
607,352,46,0.072545129847322,1
608,351,46,0.0729077568748972,1
608,352,46,0.0703421681091485,1
609,351,46,0.0733775529742975,1
609,352,46,0.0736394978574332,1
610,351,46,0.0733131568927419,1
607,351,47,0.0684999885475483,1
592,348,60,0.0704697683068398,1
