x,y,z,signal,cytoplasm.p
445,646,1,0.0693673440480363,1
445,647,1,0.0724862204005636,1
445,648,1,0.0713456772074265,1
446,645,1,0.0704434672005138,1
446,646,1,0.0789650855478973,1
446,647,1,0.0865937840309122,1
446,648,1,0.0857974672735412,1
446,649,1,0.0761312746137864,1
447,645,1,0.0893681104997706,1
447,646,1,0.104999694761016,1
447,647,1,0.115484102799123,1
447,648,1,0.108605240411878,1
447,649,1,0.0839253328422675,1
448,644,1,0.0840354309145468,1
448,645,1,0.114222859630223,1
448,646,1,0.130778612417122,1
448,647,1,0.132897148262864,1
448,648,1,0.118623955347131,1
448,649,1,0.092055938613709,1
448,650,1,0.0785546601080057,1
448,651,1,0.0761151082084178,1
448,652,1,0.0684169702524724,1
448,659,1,0.073363387154106,1
449,641,1,0.105283622121997,1
449,642,1,0.105165096434914,1
449,644,1,0.0916394814694061,1
449,645,1,0.114171467352319,1
449,646,1,0.121884657615301,1
449,647,1,0.113778741700447,1
449,648,1,0.100925604873933,1
449,649,1,0.0915166970516023,1
449,650,1,0.092245886389571,1
449,651,1,0.0909832535926437,1
449,652,1,0.0804138805822676,1
449,653,1,0.0766788479542807,1
449,654,1,0.082930724551095,1
449,655,1,0.0820063104446263,1
449,656,1,0.0755273434711011,1
449,657,1,0.0730538594905892,1
449,658,1,0.0785091318207855,1
449,659,1,0.0899395291384393,1
449,660,1,0.0889353072568197,1
449,661,1,0.0721354052112201,1
450,640,1,0.150632755142654,1
450,641,1,0.190962719442631,1
450,642,1,0.176213015888624,1
450,643,1,0.120948024365834,1
450,644,1,0.0895766924687049,1
450,645,1,0.0932754510133599,1
450,646,1,0.0940424238582073,1
450,647,1,0.0855665733890833,1
450,648,1,0.0784991768131076,1
450,649,1,0.0809267611402885,1
450,650,1,0.0883497347775114,1
450,651,1,0.0888695754552206,1
450,652,1,0.0823681048933403,1
450,653,1,0.0826706065496332,1
450,654,1,0.0893285899578578,1
450,655,1,0.0866436668852695,1
450,656,1,0.080006084654031,1
450,657,1,0.0818368237435103,1
450,658,1,0.09229645207839,1
450,659,1,0.101967334732737,1
450,660,1,0.0952568629176036,1
450,661,1,0.0790006767967675,1
451,639,1,0.132206575010635,1
451,640,1,0.230107139362536,1
451,641,1,0.281334938018277,2
451,642,1,0.235661219037291,1
451,643,1,0.139338122087352,1
451,644,1,0.0853309236224977,1
451,645,1,0.0793741572984174,1
451,646,1,0.0785509644162264,1
451,647,1,0.0741043164529946,1
451,648,1,0.0703848332834505,1
451,649,1,0.0718456797470915,1
451,650,1,0.0742037647035823,1
451,651,1,0.0741110010429877,1
451,652,1,0.0741066704349545,1
451,653,1,0.078214416873266,1
451,654,1,0.0851189873790149,1
451,655,1,0.0861898095797506,1
451,656,1,0.0872867831424128,1
451,657,1,0.0943193731301716,1
451,658,1,0.104511516039135,1
451,659,1,0.108411363342974,1
451,660,1,0.0991281090411404,1
451,661,1,0.0882079208414207,1
451,662,1,0.07636458836774,1
452,639,1,0.147158014219632,1
452,640,1,0.251919004428313,2
452,641,1,0.294428732064095,2
452,642,1,0.230429652860377,1
452,643,1,0.12786456244399,1
452,644,1,0.0774102954377937,1
452,645,1,0.0718978027776652,1
452,646,1,0.0728246906616134,1
452,647,1,0.0737636539339363,1
452,648,1,0.0720775200161542,1
452,649,1,0.0686491459489899,1
452,654,1,0.0753440443465763,1
452,655,1,0.0809399027087875,1
452,656,1,0.0894104642057217,1
452,657,1,0.0962768918180331,1
452,658,1,0.0998228272183471,1
452,659,1,0.101771193528512,1
452,660,1,0.0986374265928995,1
452,661,1,0.0936837920112106,1
452,662,1,0.0820609491811114,1
453,639,1,0.120039674838542,1
453,640,1,0.187633038914281,1
453,641,1,0.212514065191955,1
453,642,1,0.166053241729054,1
453,643,1,0.0984033401578445,1
453,646,1,0.0704800946806285,1
453,647,1,0.0761887704734137,1
453,648,1,0.0761324006916706,1
453,649,1,0.069880883481415,1
453,654,1,0.0685247023632398,1
453,655,1,0.0741189135370566,1
453,656,1,0.0846060469232342,1
453,657,1,0.0882829188264601,1
453,658,1,0.0845372902847654,1
453,659,1,0.0846944859655715,1
453,660,1,0.0873724668877996,1
453,661,1,0.0850124292643396,1
453,662,1,0.0748699775369025,1
454,640,1,0.108332789461674,1
454,641,1,0.121692733213365,1
454,642,1,0.105210822384742,1
454,646,1,0.0716924732570878,1
454,647,1,0.0785376072157921,1
454,648,1,0.0797620971192819,1
454,649,1,0.0748983870443733,1
454,655,1,0.0692448531292554,1
454,656,1,0.0784051912382132,1
454,657,1,0.0798960045510797,1
454,658,1,0.0715464964266913,1
454,660,1,0.0748123858408596,1
454,661,1,0.0748605136908549,1
454,662,1,0.0680313005567042,1
455,644,1,0.0691025959497422,1
455,645,1,0.0723298812577226,1
455,646,1,0.0814197676216095,1
455,647,1,0.0893444209357717,1
455,648,1,0.0900500285257091,1
455,649,1,0.0846184337799598,1
455,650,1,0.0699696819103111,1
455,656,1,0.0729654084686999,1
455,657,1,0.0743311911977702,1
455,660,1,0.0712154295287522,1
455,661,1,0.072833866998414,1
455,662,1,0.067796681031587,1
455,664,1,0.0690513354469096,1
455,665,1,0.0766219870109072,1
455,666,1,0.0819607402289743,1
455,667,1,0.0805688241073054,1
455,668,1,0.0753797194523102,1
456,643,1,0.0794928806481072,1
456,644,1,0.0776466519979449,1
456,645,1,0.0839967249821672,1
456,646,1,0.104699750739066,1
456,647,1,0.117834047650058,1
456,648,1,0.109971484353699,1
456,649,1,0.0929949737633437,1
456,650,1,0.0726027814411248,1
456,660,1,0.0679123376159752,1
456,661,1,0.0700232125382399,1
456,665,1,0.0723913842774802,1
456,666,1,0.0798607726887683,1
456,667,1,0.0778770008127886,1
457,642,1,0.0797414563512566,1
457,643,1,0.0885268943816572,1
457,644,1,0.0886684986755887,1
457,645,1,0.10290223094717,1
457,646,1,0.14042115744131,1
457,647,1,0.159122747472866,1
457,648,1,0.137087511681261,1
457,649,1,0.104810106371713,1
457,650,1,0.0793014593873542,1
458,642,1,0.0752174444414735,1
458,643,1,0.0852490254155299,1
458,644,1,0.089927034465746,1
458,645,1,0.110854245558006,1
458,646,1,0.151528082896966,1
458,647,1,0.167001579000785,1
458,648,1,0.139292396137524,1
458,649,1,0.103899037486126,1
458,650,1,0.0796041227675985,1
459,643,1,0.077922205652106,1
459,644,1,0.0844435323213583,1
459,645,1,0.0995711368316883,1
459,646,1,0.123288577248032,1
459,647,1,0.129712108844867,1
459,648,1,0.107922166359176,1
459,649,1,0.0817730865373124,1
460,643,1,0.0763372091017377,1
460,644,1,0.083433362592191,1
460,645,1,0.0886821673443739,1
460,646,1,0.0952222060737862,1
460,647,1,0.0950539592562979,1
460,648,1,0.0794068554854895,1
460,678,1,0.0764026653736418,1
460,679,1,0.0823584373949094,1
460,680,1,0.0792941398811073,1
460,681,1,0.0709450570308134,1
461,642,1,0.0712515358983567,1
461,643,1,0.0788534720622952,1
461,644,1,0.0859045105600709,1
461,645,1,0.0856656263144563,1
461,646,1,0.0828055621922273,1
461,647,1,0.0778740718123347,1
461,678,1,0.0964181427151817,1
461,679,1,0.125672675801602,1
461,680,1,0.123288337656993,1
461,681,1,0.0936511058036904,1
461,682,1,0.0694516261858439,1
462,641,1,0.0713481150462502,1
462,642,1,0.0791912115706755,1
462,643,1,0.0829840934550724,1
462,644,1,0.0853084619625745,1
462,645,1,0.081170916388765,1
462,646,1,0.0721116317903575,1
462,678,1,0.12038516511704,1
462,679,1,0.179381307892982,1
462,680,1,0.177301214429476,1
462,681,1,0.121199978302635,1
462,682,1,0.0760123835503693,1
463,640,1,0.0716065918490937,1
463,641,1,0.0795438835905726,1
463,642,1,0.0892806537806939,1
463,643,1,0.0864720418341288,1
463,644,1,0.0789055172257811,1
463,645,1,0.0689750736191386,1
463,678,1,0.117848914274039,1
463,679,1,0.181572942964778,1
463,680,1,0.180794200210131,1
463,681,1,0.122669593798311,1
463,682,1,0.0753320108866335,1
464,640,1,0.0777138572844349,1
464,641,1,0.087469381463148,1
464,642,1,0.0951881961257746,1
464,643,1,0.0883595400407899,1
464,644,1,0.072873315663015,1
464,678,1,0.0811089940846889,1
464,679,1,0.120918422892943,1
464,680,1,0.123314129632361,1
464,681,1,0.0915642678524315,1
465,639,1,0.075445828609796,1
465,640,1,0.0853360209218562,1
465,641,1,0.0966726482965508,1
465,642,1,0.0999908643936761,1
465,643,1,0.0885119439008124,1
466,639,1,0.0723464010598741,1
466,640,1,0.0853270901658708,1
466,641,1,0.0979025529575262,1
466,642,1,0.0978959821732766,1
466,643,1,0.0824382331905083,1
467,640,1,0.0721893131950356,1
467,641,1,0.0801706357797399,1
467,642,1,0.0780742321562417,1
476,697,1,0.0802143791137182,1
476,698,1,0.0882154859284828,1
477,697,1,0.0910299498861799,1
477,698,1,0.102672175631349,1
478,697,1,0.0721426109117234,1
478,698,1,0.0801754994778353,1
484,702,1,0.0946481758927905,1
485,702,1,0.069745580431814,1
494,656,1,0.0955224376049828,1
494,657,1,0.0901630076802345,1
494,702,1,0.0727474165617018,1
495,655,1,0.0762885301923523,1
495,656,1,0.107518766926508,1
495,657,1,0.100433233308866,1
495,701,1,0.069372405408739,1
495,702,1,0.100977368517948,1
496,656,1,0.0797908959621914,1
496,657,1,0.0732694075689876,1
496,701,1,0.0789511952574008,1
496,702,1,0.115518867458908,1
497,701,1,0.0728385629827819,1
445,646,2,0.0787239012283066,1
445,647,2,0.0831078661859129,1
445,648,2,0.0746294101642377,1
446,645,2,0.069173664641739,1
446,646,2,0.0884668229183588,1
446,647,2,0.100340283965216,1
446,648,2,0.0923877422540936,1
446,649,2,0.0738100387591216,1
447,645,2,0.0843856710853963,1
447,646,2,0.110452463364853,1
447,647,2,0.127872217377691,1
447,648,2,0.117613384302973,1
447,649,2,0.0834662404725425,1
448,644,2,0.0745554544002188,1
448,645,2,0.107051803991146,1
448,646,2,0.130565424310459,1
448,647,2,0.136312530505929,1
448,648,2,0.120607170173944,1
448,649,2,0.0869184418685533,1
448,650,2,0.0748017120600641,1
448,651,2,0.0717039376883126,1
449,640,2,0.0920179215055671,1
449,641,2,0.116815366449223,1
449,642,2,0.116926009591117,1
449,643,2,0.0885036360815288,1
449,644,2,0.0821755216160473,1
449,645,2,0.10396827929645,1
449,646,2,0.115003231603936,1
449,647,2,0.10777194277761,1
449,648,2,0.0949803329299579,1
449,649,2,0.0821277232037309,1
449,650,2,0.0852242816509586,1
449,651,2,0.083598764266089,1
449,652,2,0.0735122151178687,1
449,653,2,0.0755518716037371,1
449,654,2,0.0895496965483652,1
449,655,2,0.0848040150091327,1
449,656,2,0.0730728590599962,1
449,657,2,0.0714820404473759,1
449,658,2,0.0750517133298966,1
449,659,2,0.0817174714673427,1
449,660,2,0.0788061468422812,1
450,639,2,0.101088395005504,1
450,640,2,0.186975253695764,1
450,641,2,0.244759521036429,2
450,642,2,0.220627432388128,1
450,643,2,0.131538319663706,1
450,644,2,0.0832599465980325,1
450,645,2,0.0832042297018711,1
450,646,2,0.0860410714626276,1
450,647,2,0.0787657697624033,1
450,648,2,0.0735798157295734,1
450,649,2,0.0735411936540576,1
450,650,2,0.0806098900114208,1
450,651,2,0.0795064474907008,1
450,652,2,0.0755410061501103,1
450,653,2,0.0879779553722397,1
450,654,2,0.107303063113934,1
450,655,2,0.0967189432750964,1
450,656,2,0.0777046270396505,1
450,657,2,0.0765107808300718,1
450,658,2,0.0874364017566048,1
450,659,2,0.094379750072045,1
450,660,2,0.0833151543632355,1
450,661,2,0.0703243185767296,1
451,639,2,0.154423528625906,1
451,640,2,0.308495720951958,2
451,641,2,0.379810952128081,2
451,642,2,0.30261158066163,2
451,643,2,0.15323361170937,1
451,644,2,0.0805843316373163,1
451,645,2,0.0717768093028792,1
451,646,2,0.0724747619591148,1
451,647,2,0.0700021285267921,1
451,648,2,0.0703130038899043,1
451,649,2,0.0716799126968588,1
451,650,2,0.0710163114058656,1
451,652,2,0.0681183679403422,1
451,653,2,0.0821063337137081,1
451,654,2,0.099730788320646,1
451,655,2,0.0966326605521117,1
451,656,2,0.0905223523105729,1
451,657,2,0.0931140564995922,1
451,658,2,0.104314105002402,1
451,659,2,0.107337480366712,1
451,660,2,0.0908295200023537,1
451,661,2,0.0791640359570565,1
451,662,2,0.0741424473668801,1
452,638,2,0.0698333665885696,1
452,639,2,0.173124579577624,2
452,640,2,0.337897398875091,2
452,641,2,0.392647832702586,2
452,642,2,0.286997863902131,2
452,643,2,0.135965351110605,1
452,644,2,0.0730281633516371,1
452,646,2,0.0687321941929457,1
452,647,2,0.0711081226920794,1
452,648,2,0.073838250603985,1
452,649,2,0.0731921753975079,1
452,653,2,0.0706830103214861,1
452,654,2,0.0821614216833916,1
452,655,2,0.0906433517751348,1
452,656,2,0.101030246260295,1
452,657,2,0.101785892438766,1
452,658,2,0.0994621468679653,1
452,659,2,0.0986441411317725,1
452,660,2,0.0893041876105174,1
452,661,2,0.0818213821010352,1
452,662,2,0.0766547570752911,1
453,639,2,0.124705219164945,1
453,640,2,0.221462359241462,2
453,641,2,0.24973649777511,2
453,642,2,0.182388522841699,1
453,643,2,0.0963936385416496,1
453,646,2,0.0690166306848844,1
453,647,2,0.0747690917400798,1
453,648,2,0.0767962835021348,1
453,649,2,0.0740398125554713,1
453,654,2,0.0743620625031686,1
453,655,2,0.084217142748437,1
453,656,2,0.0972071100174259,1
453,657,2,0.0945392218677233,1
453,658,2,0.0820097186271587,1
453,659,2,0.0792801537541951,1
453,660,2,0.0791524337609842,1
453,661,2,0.073261980246773,1
454,639,2,0.0769094722988195,1
454,640,2,0.105272277486291,1
454,641,2,0.119957950335078,1
454,642,2,0.102406145720995,1
454,643,2,0.073888522793781,1
454,646,2,0.0709913879480149,1
454,647,2,0.0774419514038454,1
454,648,2,0.0785073049391118,1
454,649,2,0.0757795310091661,1
454,654,2,0.0688718817585637,1
454,655,2,0.0746691044096539,1
454,656,2,0.0826120025814497,1
454,657,2,0.0794938869304717,1
454,660,2,0.0712466422513814,1
454,661,2,0.0684071949380739,1
455,641,2,0.0783975782329432,1
455,642,2,0.0792944214005783,1
455,643,2,0.0706911444372663,1
455,645,2,0.0687965723051734,1
455,646,2,0.0779618040611064,1
455,647,2,0.0906256939155472,1
455,648,2,0.0965944278120345,1
455,649,2,0.0925539944761807,1
455,650,2,0.072022635698854,1
455,656,2,0.073118788662207,1
455,657,2,0.0725295264808954,1
455,660,2,0.0740574165070751,1
455,661,2,0.0726516640028935,1
455,666,2,0.0730624368497918,1
455,667,2,0.0750832015822209,1
455,668,2,0.0743735808423772,1
455,669,2,0.0711700629654835,1
456,642,2,0.0754843189102403,1
456,643,2,0.077607754392734,1
456,644,2,0.0756619337373605,1
456,645,2,0.0779779345278192,1
456,646,2,0.0967195781913502,1
456,647,2,0.119420152308982,1
456,648,2,0.128310716897599,1
456,649,2,0.114687917816823,1
456,650,2,0.0808890674800495,1
456,660,2,0.0705690188948202,1
456,661,2,0.0718189174280151,1
456,666,2,0.0746275054154763,1
456,667,2,0.0741076647377671,1
457,642,2,0.0820786669384587,1
457,643,2,0.0959399130112022,1
457,644,2,0.0949082879044764,1
457,645,2,0.0996435232744007,1
457,646,2,0.130909357247202,1
457,647,2,0.158681432758248,1
457,648,2,0.158593035644342,1
457,649,2,0.131851956313545,1
457,650,2,0.0903728834407803,1
458,642,2,0.0791066539031728,1
458,643,2,0.0978395045755659,1
458,644,2,0.100765414305138,1
458,645,2,0.110883463685234,1
458,646,2,0.144411474321543,1
458,647,2,0.16295952243564,1
458,648,2,0.149489438683238,1
458,649,2,0.119099124275585,1
458,650,2,0.0864124375733568,1
459,642,2,0.0699623444347362,1
459,643,2,0.0843207299342265,1
459,644,2,0.09019297452946,1
459,645,2,0.0996058895119214,1
459,646,2,0.119652196230428,1
459,647,2,0.125994099160214,1
459,648,2,0.106733555213803,1
459,649,2,0.0830263333552799,1
460,643,2,0.0763679426422886,1
460,644,2,0.0858784011265762,1
460,645,2,0.0920083558333278,1
460,646,2,0.0999793161055876,1
460,647,2,0.101776212960783,1
460,648,2,0.0812253634524187,1
460,678,2,0.074754698308401,1
460,679,2,0.0865215233734955,1
460,680,2,0.0849397373430523,1
460,681,2,0.0730148660489626,1
461,643,2,0.0784941214421809,1
461,644,2,0.0896360930770936,1
461,645,2,0.0910891708012892,1
461,646,2,0.0898303355223329,1
461,647,2,0.0875690992536547,1
461,678,2,0.0997720219384889,1
461,679,2,0.156071184222796,1
461,680,2,0.159402026767686,1
461,681,2,0.110769610023416,1
461,682,2,0.0699801400591713,1
462,642,2,0.076319874690053,1
462,643,2,0.0827927680307351,1
462,644,2,0.0880463526241496,1
462,645,2,0.0837528033349539,1
462,646,2,0.0745013966720038,1
462,678,2,0.138944593805498,1
462,679,2,0.256473366532984,3
462,680,2,0.261103894629011,3
462,681,2,0.159434108007832,1
462,682,2,0.0776137142198336,1
463,641,2,0.0773230363813243,1
463,642,2,0.0903263009529877,1
463,643,2,0.0889767325474939,1
463,644,2,0.0812763963437641,1
463,645,2,0.0689209260442839,1
463,678,2,0.140693584432409,1
463,679,2,0.264517515877938,3
463,680,2,0.265414760360563,3
463,681,2,0.157789686889971,1
463,682,2,0.0752880459309439,1
464,640,2,0.0761841283970296,1
464,641,2,0.0872194880092831,1
464,642,2,0.100492100827193,1
464,643,2,0.0960827392194335,1
464,644,2,0.0782533144784769,1
464,678,2,0.086252534513808,1
464,679,2,0.155112496618172,1
464,680,2,0.155564497093138,1
464,681,2,0.100807941714592,1
465,640,2,0.0876542319396514,1
465,641,2,0.0992411061649937,1
465,642,2,0.107198373809364,1
465,643,2,0.0981637670879923,1
465,644,2,0.0724067001346597,1
466,639,2,0.0777829433605825,1
466,640,2,0.0910288477673997,1
466,641,2,0.102824855021066,1
466,642,2,0.102723316338662,1
466,643,2,0.0880754389763061,1
467,640,2,0.0785812607031307,1
467,641,2,0.0867020971499496,1
467,642,2,0.0811375772956631,1
476,697,2,0.0809733556076331,1
477,697,2,0.0948678269677349,1
477,698,2,0.114052941665236,1
478,697,2,0.0692928671735071,1
478,698,2,0.0827690784667362,1
484,702,2,0.110351044477968,1
485,702,2,0.0702760409823348,1
494,656,2,0.0797688176479309,1
494,657,2,0.0737865768066099,1
495,656,2,0.090088069592955,1
495,657,2,0.083236424747761,1
495,702,2,0.0759075205422961,1
496,702,2,0.0887675276418578,1
501,700,2,0.0714008250748698,1
444,647,3,0.0692256499074651,1
445,646,3,0.0857313042080716,1
445,647,3,0.0933379722950339,1
445,648,3,0.0778387740624874,1
446,645,3,0.0691076992388768,1
446,646,3,0.0992709771778035,1
446,647,3,0.112917459832802,1
446,648,3,0.0973904570601585,1
446,649,3,0.0770705553442363,1
446,650,3,0.0693275599559804,1
447,645,3,0.0793029208926932,1
447,646,3,0.110502094648619,1
447,647,3,0.127005568670769,1
447,648,3,0.116886189560405,1
447,649,3,0.0928536210400034,1
447,650,3,0.0811023753822316,1
448,644,3,0.0711197728063595,1
448,645,3,0.0966471318508782,1
448,646,3,0.122863542744527,1
448,647,3,0.12786046543722,1
448,648,3,0.115324211719126,1
448,649,3,0.0921551832119134,1
448,650,3,0.084216849249414,1
448,651,3,0.0720031449678167,1
449,640,3,0.0964545186247053,1
449,641,3,0.120864598765991,1
449,642,3,0.118762510845088,1
449,643,3,0.0846650941348401,1
449,644,3,0.0757504147081297,1
449,645,3,0.091979682775714,1
449,646,3,0.107849079112674,1
449,647,3,0.10350867180599,1
449,648,3,0.0909376354587838,1
449,649,3,0.0776871069449104,1
449,650,3,0.0796656916748918,1
449,651,3,0.073657964336778,1
449,653,3,0.0707424109298749,1
449,654,3,0.0879426576223925,1
449,655,3,0.0806063859924728,1
449,656,3,0.0721044141103022,1
449,657,3,0.0788128913300341,1
449,658,3,0.0828552354044254,1
449,659,3,0.0793879817013781,1
449,660,3,0.0707115036858206,1
450,639,3,0.112812483018985,1
450,640,3,0.223874801414967,2
450,641,3,0.290859640189844,2
450,642,3,0.251713051971034,2
450,643,3,0.135640513579685,1
450,644,3,0.0808438806100601,1
450,645,3,0.078353247900919,1
450,646,3,0.0852968597665022,1
450,647,3,0.0807473433905985,1
450,648,3,0.0748228799283757,1
450,649,3,0.0689778049569853,1
450,650,3,0.0709087170599458,1
450,652,3,0.0686174360749544,1
450,653,3,0.0927569640250221,1
450,654,3,0.121605486136448,1
450,655,3,0.103895156111292,1
450,656,3,0.0792544396459151,1
450,657,3,0.0796570544179294,1
450,658,3,0.0895673364386249,1
450,659,3,0.0906913658193865,1
450,660,3,0.0761392170567353,1
451,639,3,0.17059515707924,2
451,640,3,0.369794345593974,2
451,641,3,0.455066233984417,2
451,642,3,0.349412431727335,2
451,643,3,0.160061620898549,2
451,644,3,0.0774991717337776,1
451,646,3,0.0698344627175738,1
451,647,3,0.0688107980231248,1
451,648,3,0.0716320843356624,1
451,649,3,0.0724601888341567,1
451,653,3,0.0898799368572192,1
451,654,3,0.11725820256694,1
451,655,3,0.107881136393716,1
451,656,3,0.0936954960334745,1
451,657,3,0.09029408793777,1
451,658,3,0.0980082784933404,1
451,659,3,0.101735290811291,1
451,660,3,0.0845463528158224,1
451,661,3,0.076159744019017,1
451,662,3,0.0766161709384311,1
452,639,3,0.182726969143645,2
452,640,3,0.384089952251423,2
452,641,3,0.444849209546035,2
452,642,3,0.314004853347762,2
452,643,3,0.137062390560803,2
452,644,3,0.0698493592904348,1
452,647,3,0.0680209142851557,1
452,648,3,0.0741875683493337,1
452,649,3,0.0775312110454919,1
452,650,3,0.0694637315230984,1
452,653,3,0.0796386478363444,1
452,654,3,0.100318930413849,1
452,655,3,0.106338661263026,1
452,656,3,0.111051345126388,1
452,657,3,0.1020025785746,1
452,658,3,0.0933826140954092,1
452,659,3,0.0929524283845612,1
452,660,3,0.0813596721992071,1
452,661,3,0.0748345120733279,1
452,662,3,0.075048700472579,1
453,639,3,0.113932595086256,1
453,640,3,0.216996621862184,2
453,641,3,0.241956377755333,2
453,642,3,0.171228060768338,2
453,643,3,0.0882046923521678,1
453,646,3,0.0686839944656387,1
453,647,3,0.0712562558418285,1
453,648,3,0.0727948615772355,1
453,649,3,0.0739144106055644,1
453,653,3,0.0754779218294942,1
453,654,3,0.0938476902513377,1
453,655,3,0.101828791214331,1
453,656,3,0.107287022493861,1
453,657,3,0.0954625218758598,1
453,658,3,0.0783689890321931,1
453,659,3,0.074608595692709,1
453,660,3,0.0714098935957028,1
454,640,3,0.0917660634051809,1
454,641,3,0.103408474833405,1
454,642,3,0.0898211831446362,1
454,643,3,0.0681226446403916,1
454,646,3,0.0693624923294929,1
454,647,3,0.0731417654428644,1
454,648,3,0.0727685185424776,1
454,649,3,0.0705144999538548,1
454,654,3,0.0802096052622626,1
454,655,3,0.0833415513059772,1
454,656,3,0.0839232484002267,1
454,657,3,0.0774146979231386,1
454,660,3,0.0678159022227052,1
455,641,3,0.0705584828788723,1
455,642,3,0.0714322474396583,1
455,646,3,0.0724783917633584,1
455,647,3,0.0877067083670078,1
455,648,3,0.100539971116821,1
455,649,3,0.0959284006617696,1
455,650,3,0.0710915130432883,1
455,656,3,0.0707408835370001,1
455,657,3,0.0710508544439394,1
455,660,3,0.0724585775844182,1
455,661,3,0.0680302583356837,1
455,667,3,0.0708027100046605,1
456,643,3,0.0710068894882498,1
456,644,3,0.0718550118180676,1
456,645,3,0.0785869569800872,1
456,646,3,0.0911230010560215,1
456,647,3,0.11963099242346,1
456,648,3,0.151911560334726,1
456,649,3,0.14372099690573,1
456,650,3,0.0924331567355702,1
456,660,3,0.0695920864325632,1
456,661,3,0.06926689550486,1
456,666,3,0.0686416946676714,1
456,667,3,0.0685672597215741,1
457,642,3,0.080094056493842,1
457,643,3,0.090371523761633,1
457,644,3,0.097042277372246,1
457,645,3,0.108814307552667,1
457,646,3,0.126235043888766,1
457,647,3,0.151833417717297,1
457,648,3,0.179620000465765,1
457,649,3,0.165462637837923,1
457,650,3,0.104719325326967,1
458,642,3,0.0768829495707822,1
458,643,3,0.0975674549403528,1
458,644,3,0.109356657808507,1
458,645,3,0.124118736239688,1
458,646,3,0.141815768962169,1
458,647,3,0.148452620440738,1
458,648,3,0.149685567907911,1
458,649,3,0.131748369127755,1
458,650,3,0.0917037457758902,1
458,679,3,0.0684893806542886,1
458,680,3,0.0708606850463661,1
459,643,3,0.0836701623957647,1
459,644,3,0.0965730443117877,1
459,645,3,0.111898467163617,1
459,646,3,0.126134499509174,1
459,647,3,0.121791169191812,1
459,648,3,0.103471175808359,1
459,649,3,0.0861475457204392,1
459,650,3,0.0687948292803634,1
459,678,3,0.0691442189030238,1
459,679,3,0.0717278368944708,1
459,680,3,0.0714830766786203,1
460,643,3,0.0731033589992838,1
460,644,3,0.0887382915453018,1
460,645,3,0.104114897032876,1
460,646,3,0.116163822577277,1
460,647,3,0.113169533565123,1
460,648,3,0.0879521574070959,1
460,678,3,0.0768448605853286,1
460,679,3,0.0900455002550686,1
460,680,3,0.0907290594796255,1
461,643,3,0.0761430265542582,1
461,644,3,0.092530245014422,1
461,645,3,0.101716446976059,1
461,646,3,0.105982928467604,1
461,647,3,0.101860381292847,1
461,648,3,0.0752532692916069,1
461,678,3,0.106408010889317,1
461,679,3,0.188133448758712,3
461,680,3,0.201981595191389,3
461,681,3,0.132406310080448,1
462,642,3,0.0718267939834282,1
462,643,3,0.0809485100168701,1
462,644,3,0.0880438608773421,1
462,645,3,0.0849518726291868,1
462,646,3,0.0789339866310117,1
462,647,3,0.0723962060471437,1
462,678,3,0.162285660658394,3
462,679,3,0.346612690638996,3
462,680,3,0.367477524204206,3
462,681,3,0.210448047702001,3
462,682,3,0.082698417079506,1
463,641,3,0.0768305809593934,1
463,642,3,0.0911965794641537,1
463,643,3,0.0923674968112829,1
463,644,3,0.0827216094920986,1
463,645,3,0.0687622568785869,1
463,678,3,0.167431537100145,3
463,679,3,0.360068267153976,3
463,680,3,0.371231819951743,3
463,681,3,0.203276345167118,3
463,682,3,0.0779361797994661,1
464,640,3,0.0770499325455388,1
464,641,3,0.095693056373759,1
464,642,3,0.116378328434655,1
464,643,3,0.11072927487197,1
464,644,3,0.0845742112639031,1
464,678,3,0.0911681879260108,1
464,679,3,0.187735619817706,3
464,680,3,0.189437327153035,3
464,681,3,0.110857671709866,1
465,640,3,0.0913009093821647,1
465,641,3,0.112552574659682,1
465,642,3,0.130136927716438,1
465,643,3,0.117972159904593,1
465,644,3,0.0813788275027896,1
466,640,3,0.0978962517131957,1
466,641,3,0.115233250981101,1
466,642,3,0.119109258976542,1
466,643,3,0.102194467037879,1
467,640,3,0.0886656894706543,1
467,641,3,0.100037081505134,1
467,642,3,0.0916887593563895,1
467,643,3,0.0735408103083949,1
468,640,3,0.0714899709107727,1
468,641,3,0.0795451114946484,1
468,642,3,0.0683147667049342,1
476,697,3,0.0845630702805812,1
477,697,3,0.103494404159607,1
477,698,3,0.129370008779574,1
478,697,3,0.0753263625278848,1
478,698,3,0.0946826650228805,1
478,699,3,0.0708383431819626,1
485,702,3,0.0694553338571752,1
494,656,3,0.071082516399767,1
495,656,3,0.0761195646017465,1
495,657,3,0.0734336352467936,1
501,699,3,0.068223063234688,1
501,700,3,0.073389101262386,1
502,699,3,0.0713679471945183,1
444,647,4,0.069499502465248,1
445,646,4,0.0822637270571215,1
445,647,4,0.0925038780205602,1
445,648,4,0.0729447976495544,1
446,646,4,0.0961016908706326,1
446,647,4,0.11083745022616,1
446,648,4,0.0905116964991053,1
446,649,4,0.0783980214763657,1
446,650,4,0.0722822625386856,1
447,646,4,0.0956758297780419,1
447,647,4,0.110028027838945,1
447,648,4,0.101241385863573,1
447,649,4,0.0999427365436808,1
447,650,4,0.0948271264399541,1
447,651,4,0.0711809583679902,1
448,645,4,0.0767761578548437,1
448,646,4,0.100598563105453,1
448,647,4,0.107070587928618,1
448,648,4,0.0981919909124077,1
448,649,4,0.0957797044730784,1
448,650,4,0.0931022865897924,1
448,651,4,0.0730826822926026,1
449,640,4,0.0998442466572498,1
449,641,4,0.126311808857719,1
449,642,4,0.11860199682839,1
449,643,4,0.0792476951581622,1
449,645,4,0.0730308767201558,1
449,646,4,0.0911452171351294,1
449,647,4,0.0938916851559072,1
449,648,4,0.0815058586717629,1
449,649,4,0.0730484806717596,1
449,650,4,0.073551286426583,1
449,654,4,0.0776245617041325,1
449,655,4,0.0711307281066261,1
449,656,4,0.0700843980998705,1
449,657,4,0.083550253070431,1
449,658,4,0.0849959094621881,1
449,659,4,0.0723339662849406,1
450,639,4,0.118154285033026,1
450,640,4,0.24029843172331,2
450,641,4,0.316018616032071,2
450,642,4,0.262173836332678,2
450,643,4,0.132592005115365,1
450,644,4,0.0717808164630095,1
450,646,4,0.078337734381132,1
450,647,4,0.0805055960320657,1
450,648,4,0.0721437968873674,1
450,653,4,0.0922268269224042,1
450,654,4,0.121267423180165,1
450,655,4,0.0998667682149327,1
450,656,4,0.0778638412749617,1
450,657,4,0.08065278279721,1
450,658,4,0.0862991529402564,1
450,659,4,0.0815389162453937,1
451,639,4,0.17353420837731,2
451,640,4,0.383723018574918,2
451,641,4,0.483930293574734,2
451,642,4,0.363098830249461,2
451,643,4,0.160003807580795,2
451,644,4,0.0691538983810067,1
451,648,4,0.0695577051184409,1
451,649,4,0.0690543183553474,1
451,652,4,0.067828540650022,1
451,653,4,0.102247392698434,1
451,654,4,0.134317575718196,1
451,655,4,0.114698028558677,1
451,656,4,0.0930398192161022,1
451,657,4,0.0850821203078611,1
451,658,4,0.0883570722530863,1
451,659,4,0.0902478109285523,1
451,660,4,0.0757169198808523,1
451,661,4,0.0702725908713706,1
451,662,4,0.0751759772223674,1
452,639,4,0.170715359903596,2
452,640,4,0.363013511880409,2
452,641,4,0.429396258373827,2
452,642,4,0.299337593070337,2
452,643,4,0.128059361938395,1
452,648,4,0.0706299768449636,1
452,649,4,0.0761051532007398,1
452,653,4,0.0978440148768785,1
452,654,4,0.13265178307964,1
452,655,4,0.129162690653371,1
452,656,4,0.117970662460598,1
452,657,4,0.0986698432605005,1
452,658,4,0.0880612671663386,1
452,659,4,0.0851089185655934,1
452,660,4,0.0716987385627624,1
452,662,4,0.0696759612656042,1
453,639,4,0.0964749138119155,1
453,640,4,0.18195594122046,2
453,641,4,0.204542176504418,2
453,642,4,0.144299896774597,1
453,643,4,0.0773392806537807,1
453,649,4,0.0680352298497467,1
453,653,4,0.0890855667770415,1
453,654,4,0.128388919412787,1
453,655,4,0.131762409162651,1
453,656,4,0.117935238925455,1
453,657,4,0.0934642188033539,1
453,658,4,0.077480046379075,1
453,659,4,0.0704190768327253,1
454,640,4,0.0753374615827748,1
454,641,4,0.0839842542685779,1
454,642,4,0.0752584564376052,1
454,653,4,0.069474081855991,1
454,654,4,0.0995836674430375,1
454,655,4,0.102265925065315,1
454,656,4,0.0897480120412706,1
454,657,4,0.0765673782233021,1
454,658,4,0.0711606230785398,1
455,647,4,0.0824173049132359,1
455,648,4,0.10063853887034,1
455,649,4,0.0942871421456259,1
455,655,4,0.0701087944574351,1
455,656,4,0.0703341957173198,1
455,657,4,0.0712223776688884,1
455,658,4,0.0733864537814031,1
455,659,4,0.0735291302452348,1
455,660,4,0.0707153551117754,1
456,645,4,0.0737479427515421,1
456,646,4,0.0837543546869326,1
456,647,4,0.11712091690149,1
456,648,4,0.168624281190944,1
456,649,4,0.164987528807229,1
456,650,4,0.0994865851539617,1
456,659,4,0.0709136885740088,1
456,660,4,0.0720966154219768,1
456,661,4,0.0687053480170056,1
457,642,4,0.0782824187999613,1
457,643,4,0.0822969104160479,1
457,644,4,0.0943501426093783,1
457,645,4,0.110800121942255,1
457,646,4,0.116727628210676,1
457,647,4,0.139091774580867,1
457,648,4,0.190442519378363,1
457,649,4,0.18946891723155,1
457,650,4,0.114402852398407,1
457,679,4,0.067944251142394,1
458,642,4,0.0721886603094539,1
458,643,4,0.0929959441070523,1
458,644,4,0.113735878863537,1
458,645,4,0.131226983087844,1
458,646,4,0.132259416814327,1
458,647,4,0.126026539786919,1
458,648,4,0.138938005051921,1
458,649,4,0.13484643699853,1
458,650,4,0.09197849680007,1
458,676,4,0.0709713401678115,1
458,677,4,0.068106148797344,1
458,678,4,0.0684974369029811,1
458,679,4,0.0717678366184619,1
458,680,4,0.0714680064022559,1
459,643,4,0.0833513146408238,1
459,644,4,0.102696769651521,1
459,645,4,0.122322414402987,1
459,646,4,0.131079155416669,1
459,647,4,0.115800890071127,1
459,648,4,0.0970746820602951,1
459,649,4,0.0850624438937684,1
459,650,4,0.0688337628242302,1
459,678,4,0.0707663939928968,1
459,679,4,0.0729406647041285,1
459,680,4,0.0726211700533818,1
460,643,4,0.0726071300184859,1
460,644,4,0.0942107305734554,1
460,645,4,0.121390141710433,1
460,646,4,0.141021344974008,1
460,647,4,0.12797494203574,1
460,648,4,0.0945336633556143,1
460,649,4,0.0708311794098911,1
460,678,4,0.0747145488400104,1
460,679,4,0.0893129686221033,1
460,680,4,0.0935015410974822,1
461,643,4,0.0732375838892085,1
461,644,4,0.0946622398867904,1
461,645,4,0.117022337168419,1
461,646,4,0.13211536270202,1
461,647,4,0.119975811847049,1
461,648,4,0.0851956565115526,1
461,678,4,0.107530387091908,1
461,679,4,0.205138686314665,3
461,680,4,0.23405183810891,3
461,681,4,0.150786189244145,1
462,642,4,0.0686537580764941,1
462,643,4,0.0787724603421724,1
462,644,4,0.0873179419570582,1
462,645,4,0.0894187660352293,1
462,646,4,0.0897450530919367,1
462,647,4,0.0803037106326766,1
462,678,4,0.176271679754567,3
462,679,4,0.406389337163723,3
462,680,4,0.45376036698447,3
462,681,4,0.258294210512546,3
462,682,4,0.0900351199732961,1
463,641,4,0.0818669583064632,1
463,642,4,0.0992761822931297,1
463,643,4,0.0977555878140931,1
463,644,4,0.0832660441899796,1
463,645,4,0.0709034340775319,1
463,678,4,0.184944432129465,3
463,679,4,0.424576740866095,3
463,680,4,0.458455536742867,3
463,681,4,0.246909730817551,3
463,682,4,0.0824087694824651,1
464,641,4,0.121580952014036,1
464,642,4,0.15199224261717,1
464,643,4,0.132307466797234,1
464,644,4,0.0895244256835077,1
464,678,4,0.095313136862931,1
464,679,4,0.209983073372264,3
464,680,4,0.219849887588676,3
464,681,4,0.123229625872842,1
465,640,4,0.0999086307592535,1
465,641,4,0.146661365954516,1
465,642,4,0.176600147089731,1
465,643,4,0.145421805774662,1
465,644,4,0.0893051040462422,1
466,640,4,0.107235139054326,1
466,641,4,0.137421705242262,1
466,642,4,0.147311616034851,1
466,643,4,0.118075579376655,1
466,644,4,0.0723841066996651,1
467,639,4,0.0750459331960764,1
467,640,4,0.102120684977364,1
467,641,4,0.11779431147621,1
467,642,4,0.108532716204318,1
467,643,4,0.0838995827953316,1
468,640,4,0.081135552751382,1
468,641,4,0.0952543232525883,1
468,642,4,0.0831134007389179,1
476,697,4,0.0831827204163287,1
477,697,4,0.10458474704026,1
477,698,4,0.134620167221128,1
478,697,4,0.0774379981516989,1
478,698,4,0.100550752713584,1
478,699,4,0.0718304237876717,1
501,699,4,0.06817571405557,1
501,700,4,0.0728985625687686,1
502,699,4,0.0744861946205678,1
502,700,4,0.0797877273706982,1
445,646,5,0.0730624907577757,1
445,647,5,0.082788700972845,1
446,646,5,0.0837891672649255,1
446,647,5,0.0965535236318705,1
446,648,5,0.0798195570402533,1
446,649,5,0.0745295007008996,1
446,650,5,0.070133939536997,1
447,646,5,0.0792647480503758,1
447,647,5,0.0903499306192269,1
447,648,5,0.0848487945743555,1
447,649,5,0.0961659611668927,1
447,650,5,0.0957266949556598,1
447,651,5,0.0690043276850225,1
448,646,5,0.0803144562907838,1
448,647,5,0.0873775282485023,1
448,648,5,0.0812437520646758,1
448,649,5,0.0901647027868367,1
448,650,5,0.0912290799886185,1
448,651,5,0.0687012510102356,1
449,640,5,0.0880206684647495,1
449,641,5,0.110957257725302,1
449,642,5,0.101602401641409,1
449,643,5,0.0715024176652582,1
449,646,5,0.0772044987146899,1
449,647,5,0.0845121152563236,1
449,648,5,0.0728515308477776,1
449,649,5,0.0677878820506731,1
449,657,5,0.0800022272383002,1
449,658,5,0.0785432615643167,1
450,639,5,0.103164810746559,1
450,640,5,0.197535204788524,1
450,641,5,0.269153698322489,2
450,642,5,0.220325619556072,1
450,643,5,0.115056672385226,1
450,646,5,0.0708365103105129,1
450,647,5,0.0780079013770447,1
450,648,5,0.0685135733594698,1
450,653,5,0.0821369354791874,1
450,654,5,0.0998316441685889,1
450,655,5,0.084926374152842,1
450,656,5,0.0724572658234787,1
450,657,5,0.076229291307915,1
450,658,5,0.0779967484141709,1
450,659,5,0.0724417103752599,1
451,639,5,0.14492494187761,1
451,640,5,0.309019970104788,2
451,641,5,0.411663502627403,2
451,642,5,0.313531014149576,2
451,643,5,0.145147486014352,1
451,652,5,0.0695080259164669,1
451,653,5,0.105816580409101,1
451,654,5,0.132015513136441,1
451,655,5,0.113222447246126,1
451,656,5,0.087704905444438,1
451,657,5,0.07815130260377,1
451,658,5,0.0791845569295622,1
451,659,5,0.0801917257809638,1
451,660,5,0.0720780231573365,1
451,662,5,0.0704616821092675,1
452,639,5,0.12958444275964,1
452,640,5,0.262915586230875,2
452,641,5,0.330520534533359,2
452,642,5,0.239515735716517,2
452,643,5,0.111327449839939,1
452,649,5,0.0726943291771955,1
452,652,5,0.0695015928970649,1
452,653,5,0.110756959616547,1
452,654,5,0.150227486899881,1
452,655,5,0.144412828010914,1
452,656,5,0.114192994607189,1
452,657,5,0.0914241849615988,1
452,658,5,0.0833633780496465,1
452,659,5,0.0793838607355042,1
452,660,5,0.0687341049314832,1
453,639,5,0.0779590547539319,1
453,640,5,0.129055533561098,1
453,641,5,0.150773323205341,2
453,642,5,0.113678748380245,1
453,643,5,0.0699478611564178,1
453,653,5,0.0980951961325789,1
453,654,5,0.146673776770345,1
453,655,5,0.150838515927102,1
453,656,5,0.116669287792635,1
453,657,5,0.0879424300109052,1
453,658,5,0.0755297573508208,1
454,641,5,0.0692462727061626,1
454,654,5,0.105730112003061,1
454,655,5,0.112243226689445,1
454,656,5,0.0894791070384468,1
454,657,5,0.0740537747232795,1
455,647,5,0.0744081598191069,1
455,648,5,0.0910341786680214,1
455,649,5,0.085216854328744,1
455,655,5,0.0715382125665117,1
455,658,5,0.0715630521674987,1
455,659,5,0.0707316592819917,1
456,645,5,0.070753779524684,1
456,646,5,0.0760522994174967,1
456,647,5,0.104977856037795,1
456,648,5,0.154800740757991,1
456,649,5,0.154279498472703,1
456,650,5,0.0938577590647593,1
456,659,5,0.0730001072409491,1
456,660,5,0.0710616420304785,1
457,642,5,0.0741833874857,1
457,643,5,0.0805477400958575,1
457,644,5,0.094120554496084,1
457,645,5,0.106368322633677,1
457,646,5,0.103948992217796,1
457,647,5,0.121942111546496,1
457,648,5,0.173887497344133,1
457,649,5,0.178339266565828,1
457,650,5,0.108678100046893,1
457,659,5,0.0722983091485347,1
457,660,5,0.0746077391547439,1
457,661,5,0.069182445653325,1
457,679,5,0.0701951730168355,1
458,642,5,0.0683917892342546,1
458,643,5,0.089271267801734,1
458,644,5,0.112381470719052,1
458,645,5,0.126080879034605,1
458,646,5,0.119260488840472,1
458,647,5,0.109182067818256,1
458,648,5,0.123212746684132,1
458,649,5,0.123171680780016,1
458,650,5,0.0854995477958727,1
458,660,5,0.073990229189913,1
458,661,5,0.0699661659118111,1
458,676,5,0.0698451005597134,1
458,677,5,0.0748673600047995,1
458,678,5,0.0724310246149125,1
458,679,5,0.0756950332394232,1
458,680,5,0.0698305274347553,1
459,643,5,0.0833855761594266,1
459,644,5,0.103649120073158,1
459,645,5,0.120489195546252,1
459,646,5,0.12858382672316,1
459,647,5,0.111090841709196,1
459,648,5,0.0942871601149539,1
459,649,5,0.0827871376413144,1
459,650,5,0.0697613155733121,1
459,677,5,0.0723427712556305,1
459,678,5,0.0741478082163818,1
459,679,5,0.0769187444720358,1
459,680,5,0.0731319781489139,1
460,643,5,0.073674897433472,1
460,644,5,0.0970989047143562,1
460,645,5,0.126347196454206,1
460,646,5,0.151354391373113,1
460,647,5,0.132390269460375,1
460,648,5,0.0988248107446422,1
460,649,5,0.0746630727052426,1
460,678,5,0.0776850225028696,1
460,679,5,0.0945896497916948,1
460,680,5,0.0994995170803014,1
461,643,5,0.0699231653100543,1
461,644,5,0.0926951255778097,1
461,645,5,0.11969605337015,1
461,646,5,0.140230466933226,1
461,647,5,0.122782572952836,1
461,648,5,0.0896196451522539,1
461,678,5,0.110927416661372,1
461,679,5,0.207421389940454,3
461,680,5,0.245651374720673,3
461,681,5,0.163717420769879,1
462,643,5,0.0741526299860453,1
462,644,5,0.0837963430165489,1
462,645,5,0.090037198425561,1
462,646,5,0.0941786074048773,1
462,647,5,0.0838143962013512,1
462,678,5,0.17840232692734,3
462,679,5,0.407515654638909,3
462,680,5,0.474615137726034,3
462,681,5,0.281886524508678,3
462,682,5,0.102860673881424,1
463,642,5,0.102662268541879,1
463,643,5,0.0989600119680516,1
463,644,5,0.083453242658667,1
463,645,5,0.0741472871058715,1
463,678,5,0.186470052030548,3
463,679,5,0.423579706715651,3
463,680,5,0.478907411192946,3
463,681,5,0.270101280882446,3
463,682,5,0.0948022568900872,1
464,641,5,0.130878977103434,1
464,642,5,0.170138843965569,1
464,643,5,0.14299440114076,1
464,644,5,0.0940565717090709,1
464,645,5,0.0711082664467029,1
464,678,5,0.0985071489653453,1
464,679,5,0.209533624541866,3
464,680,5,0.23107640491154,3
464,681,5,0.136883463972743,1
465,640,5,0.0978566533041952,1
465,641,5,0.159675795468605,1
465,642,5,0.200333400514661,1
465,643,5,0.157684841851226,1
465,644,5,0.0944990065117969,1
466,640,5,0.103259281493308,1
466,641,5,0.138416906521256,1
466,642,5,0.153795500614455,1
466,643,5,0.116611618229505,1
466,644,5,0.0741350440037694,1
467,639,5,0.0733309225682971,1
467,640,5,0.10708846142014,1
467,641,5,0.122449924754038,1
467,642,5,0.112942892421611,1
467,643,5,0.0814403365123231,1
468,640,5,0.0877335725122759,1
468,641,5,0.102409284363608,1
468,642,5,0.0903810714645443,1
469,641,5,0.0678592442416929,1
477,697,5,0.0991076359868424,1
478,697,5,0.0774056054432017,1
478,698,5,0.0990792923669074,1
501,700,5,0.0683378033833513,1
502,699,5,0.0702172932595278,1
502,700,5,0.0763993290684212,1
445,647,6,0.0707488379595009,1
446,646,6,0.069440497182074,1
446,647,6,0.0795494900208895,1
446,648,6,0.0693227861045247,1
447,647,6,0.0755017311890127,1
447,648,6,0.0728023428074339,1
447,649,6,0.0829913231146797,1
447,650,6,0.0853886650629401,1
448,647,6,0.0737619228886782,1
448,648,6,0.0701834809741235,1
448,649,6,0.0784298631254728,1
448,650,6,0.0820282450042633,1
449,640,6,0.0700683215411416,1
449,641,6,0.0891129041146119,1
449,642,6,0.084254530930101,1
449,646,6,0.0687787527216344,1
449,647,6,0.0772477748461418,1
449,648,6,0.0685130582387356,1
450,639,6,0.0764042047460685,1
450,640,6,0.139575413052556,1
450,641,6,0.201901691579822,1
450,642,6,0.175010280851491,1
450,643,6,0.0986199604061432,1
450,647,6,0.0759023274065219,1
450,648,6,0.0681296107498557,1
450,654,6,0.0772562923075847,1
450,655,6,0.0712587835272919,1
450,656,6,0.067911828485017,1
450,657,6,0.0708547192294905,1
451,639,6,0.101171581014308,1
451,640,6,0.21286969017141,1
451,641,6,0.307920007643913,2
451,642,6,0.254458861116454,1
451,643,6,0.128966309858107,1
451,653,6,0.0992484855690004,1
451,654,6,0.117263725140393,1
451,655,6,0.106892799397994,1
451,656,6,0.0860604304185933,1
451,657,6,0.0767188237191679,1
451,658,6,0.0747246356227599,1
451,659,6,0.0751315091254956,1
451,660,6,0.071296153739628,1
452,639,6,0.0841643788118335,1
452,640,6,0.165296589268219,1
452,641,6,0.230472970920261,2
452,642,6,0.187265829708081,1
452,643,6,0.098790992469462,1
452,649,6,0.072010069148849,1
452,652,6,0.0700838230813765,1
452,653,6,0.108996839985866,1
452,654,6,0.143996406805267,1
452,655,6,0.145667518364893,1
452,656,6,0.115257497594266,1
452,657,6,0.0939647364637532,1
452,658,6,0.0828608118858623,1
452,659,6,0.0761753893138755,1
453,640,6,0.0871388356757191,1
453,641,6,0.110303425758931,1
453,642,6,0.09484703645531,1
453,653,6,0.0927284586811357,1
453,654,6,0.135788700637418,1
453,655,6,0.151690801151225,1
453,656,6,0.123698481577414,1
453,657,6,0.0983016038128326,1
453,658,6,0.0809059466687597,1
454,654,6,0.0936604558439944,1
454,655,6,0.112985839115384,1
454,656,6,0.0999017305373251,1
454,657,6,0.0866419358400115,1
455,647,6,0.0683024038073125,1
455,648,6,0.0780689551636038,1
455,649,6,0.0740956971653601,1
455,655,6,0.0737899191016064,1
455,656,6,0.073201213969461,1
456,644,6,0.0678414366377059,1
456,645,6,0.0689856156248625,1
456,646,6,0.0715607341241946,1
456,647,6,0.0914655563442893,1
456,648,6,0.124403382373786,1
456,649,6,0.125163353170513,1
456,650,6,0.083175616542017,1
457,642,6,0.0681138935776855,1
457,643,6,0.0804749343688266,1
457,644,6,0.094707354879468,1
457,645,6,0.0993220999157885,1
457,646,6,0.0954148791977189,1
457,647,6,0.108427811267813,1
457,648,6,0.143647514334013,1
457,649,6,0.14685181687156,1
457,650,6,0.0963534591243791,1
457,659,6,0.0692916093205514,1
457,660,6,0.0731483601862178,1
457,677,6,0.0692316995812045,1
458,643,6,0.0842486489700892,1
458,644,6,0.105951817571166,1
458,645,6,0.115045064199377,1
458,646,6,0.110780283804211,1
458,647,6,0.103783446789274,1
458,648,6,0.110423628583288,1
458,649,6,0.108593919735277,1
458,650,6,0.0813527420283988,1
458,659,6,0.0696366084374189,1
458,660,6,0.0806381617540441,1
458,661,6,0.0720084878479904,1
458,677,6,0.0761068063789102,1
458,678,6,0.0733819494698665,1
458,679,6,0.076686341164031,1
459,643,6,0.0788316572981779,1
459,644,6,0.0978949100033763,1
459,645,6,0.112689117592911,1
459,646,6,0.123488971193203,1
459,647,6,0.111086361356764,1
459,648,6,0.0938795319004447,1
459,649,6,0.0845120254096839,1
459,650,6,0.0781450013594396,1
459,651,6,0.0690676575864538,1
459,660,6,0.0693818393059067,1
459,677,6,0.0708170854670113,1
459,678,6,0.0723662511774702,1
459,679,6,0.0760014581989827,1
460,643,6,0.0708919217280992,1
460,644,6,0.091289432971388,1
460,645,6,0.11683044870514,1
460,646,6,0.141520077681165,1
460,647,6,0.127089545330002,1
460,648,6,0.0972338603569504,1
460,649,6,0.0797513694305026,1
460,650,6,0.0769054232102573,1
460,651,6,0.0717410802891615,1
460,678,6,0.0754019055825383,1
460,679,6,0.0941367388707806,1
460,680,6,0.0987953051081672,1
461,644,6,0.085685602217348,1
461,645,6,0.107663324179997,1
461,646,6,0.12545539068817,1
461,647,6,0.112886013508909,1
461,648,6,0.0877182746244243,1
461,649,6,0.0708728922098124,1
461,678,6,0.104707058265761,1
461,679,6,0.190072327263726,3
461,680,6,0.229265815428455,3
461,681,6,0.161243763085864,1
462,643,6,0.0724443937948988,1
462,644,6,0.0795961923042016,1
462,645,6,0.0845064728873509,1
462,646,6,0.0876635460412996,1
462,647,6,0.0818350986880282,1
462,648,6,0.0703394307815258,1
462,678,6,0.158865462635442,3
462,679,6,0.351968892074491,3
462,680,6,0.424554363063035,3
462,681,6,0.271694705047618,3
462,682,6,0.10861350630273,1
463,642,6,0.10317453814275,1
463,643,6,0.103906105421782,1
463,644,6,0.0876021628170616,1
463,645,6,0.076295346557417,1
463,646,6,0.0688379796265197,1
463,678,6,0.162235214765095,3
463,679,6,0.360584442088785,3
463,680,6,0.42738354989009,3
463,681,6,0.262617678732759,3
464,641,6,0.124687046184623,1
464,642,6,0.177263335086181,1
464,643,6,0.158846211495444,1
464,644,6,0.106200249519692,1
464,645,6,0.076878936420876,1
464,678,6,0.0895920442645403,1
464,679,6,0.183313955210084,3
464,680,6,0.213815547675885,3
464,681,6,0.139099764942023,1
464,682,6,0.069986063947615,1
465,640,6,0.0847251835674665,1
465,641,6,0.155926243623644,1
465,642,6,0.211717496863993,1
465,643,6,0.174983973755389,1
465,644,6,0.105463662808388,1
465,645,6,0.0706767390260356,1
465,680,6,0.0685369634346698,1
466,640,6,0.0903602689725675,1
466,641,6,0.132951535428758,1
466,642,6,0.155180660268819,1
466,643,6,0.119426477512416,1
466,644,6,0.0776050170651114,1
467,640,6,0.103445060385088,1
467,641,6,0.123799361384461,1
467,642,6,0.113121986723398,1
467,643,6,0.0780625520930817,1
468,640,6,0.0880402190935466,1
468,641,6,0.104328803912656,1
468,642,6,0.0915869571238418,1
477,697,6,0.0865424576405439,1
478,697,6,0.0725175469289364,1
478,698,6,0.0905584766495052,1
446,647,7,0.0679399864218966,1
447,649,7,0.0717729039689406,1
447,650,7,0.0735081480599786,1
448,647,7,0.0681827700116738,1
448,649,7,0.0691912506240149,1
448,650,7,0.0711570232231761,1
449,641,7,0.0710474941796149,1
449,642,7,0.0726237157081731,1
449,647,7,0.0771872840985248,1
449,648,7,0.070856917477275,1
450,640,7,0.0951347733138134,1
450,641,7,0.14019422878855,1
450,642,7,0.135365870371472,1
450,643,7,0.0868440428611119,1
450,647,7,0.0802383022789804,1
450,648,7,0.0736363831739238,1
451,639,7,0.0697861192356432,1
451,640,7,0.13399197149595,1
451,641,7,0.205924065741098,1
451,642,7,0.192389256469461,1
451,643,7,0.111871549110365,1
451,648,7,0.0681517010436681,1
451,654,7,0.0968165945928903,1
451,655,7,0.0978878181086166,1
451,656,7,0.0912906968141196,1
451,657,7,0.0836320254921032,1
452,640,7,0.102925567114386,1
452,641,7,0.15389276259681,1
452,642,7,0.143885967315757,1
452,643,7,0.0884852534590477,1
452,649,7,0.0703356212840029,1
452,653,7,0.0962601743532743,1
452,654,7,0.123262533702074,1
452,655,7,0.134478724651148,1
452,656,7,0.12240902656365,1
452,657,7,0.104620685696137,1
452,658,7,0.0855992595966034,1
453,641,7,0.084485113346208,1
453,642,7,0.0819115941170625,1
453,653,7,0.0832169280269477,1
453,654,7,0.113764545931375,1
453,655,7,0.137571773089652,1
453,656,7,0.132702588359498,1
453,657,7,0.112258488638641,1
453,658,7,0.086204011338598,1
454,654,7,0.0823196476056661,1
454,655,7,0.107940243503082,1
454,656,7,0.112019676270338,1
454,657,7,0.0988732620425404,1
454,658,7,0.0774823524428271,1
455,655,7,0.0751390981716616,1
455,656,7,0.0800567102406098,1
455,657,7,0.0757547393263869,1
456,644,7,0.0679261799882639,1
456,646,7,0.0695579806481359,1
456,647,7,0.0792469883645966,1
456,648,7,0.0951821105133794,1
456,649,7,0.0968045012351876,1
456,650,7,0.0759029683125517,1
457,643,7,0.0759881309474283,1
457,644,7,0.0893214261857864,1
457,645,7,0.0905852988663415,1
457,646,7,0.0886643357812829,1
457,647,7,0.095351711020239,1
457,648,7,0.113214696476009,1
457,649,7,0.112511628551087,1
457,650,7,0.0839989531788316,1
457,660,7,0.0679814057227949,1
458,643,7,0.0783134518293111,1
458,644,7,0.098398805897428,1
458,645,7,0.107095325703413,1
458,646,7,0.106140842921527,1
458,647,7,0.100886563514099,1
458,648,7,0.100432772096116,1
458,649,7,0.0927446670149362,1
458,650,7,0.0751590141767935,1
458,660,7,0.0745634507511514,1
458,661,7,0.0679628613763624,1
458,677,7,0.0719783113566057,1
458,678,7,0.073895237332654,1
459,643,7,0.075420413990315,1
459,644,7,0.0941908984251873,1
459,645,7,0.108792325074822,1
459,646,7,0.116722177514534,1
459,647,7,0.108252909809212,1
459,648,7,0.091813095126172,1
459,649,7,0.0839793726011546,1
459,650,7,0.0850119740413651,1
459,651,7,0.0766211304729422,1
459,660,7,0.0701096689647281,1
459,661,7,0.0701554667918674,1
459,662,7,0.0720966813095126,1
460,643,7,0.0715662207589918,1
460,644,7,0.0881404759638915,1
460,645,7,0.10682856504039,1
460,646,7,0.122304001831626,1
460,647,7,0.115690007338194,1
460,648,7,0.0929770703229409,1
460,649,7,0.0856628889868337,1
460,650,7,0.0961804684043151,1
460,651,7,0.0912974832303044,1
460,662,7,0.0751041717879251,1
460,663,7,0.0742811825581174,1
460,679,7,0.0910948251498139,1
460,680,7,0.0979387911022022,1
461,644,7,0.080701317951972,1
461,645,7,0.0939335836388838,1
461,646,7,0.104366084278352,1
461,647,7,0.101606690321011,1
461,648,7,0.0862913003439473,1
461,649,7,0.0798847198131343,1
461,650,7,0.0869144466879749,1
461,651,7,0.0840836845498377,1
461,678,7,0.0937344415568932,1
461,679,7,0.164415972403712,1
461,680,7,0.201803866558525,3
461,681,7,0.151294517572421,1
462,643,7,0.0751274839960374,1
462,644,7,0.0791219877296804,1
462,645,7,0.0803075560688554,1
462,646,7,0.0813262732083454,1
462,647,7,0.0807745309837694,1
462,648,7,0.0738214013641547,1
462,678,7,0.131235800038085,1
462,679,7,0.275964984057133,3
462,680,7,0.344917224650238,3
462,681,7,0.241191411485439,3
463,642,7,0.102253059026511,1
463,643,7,0.11190038389193,1
463,644,7,0.0949014715394117,1
463,645,7,0.0769006673281296,1
463,646,7,0.0694366637254471,1
463,678,7,0.130202707436245,1
463,679,7,0.275953675360084,3
463,680,7,0.34256108637094,3
463,681,7,0.233325709546467,3
463,682,7,0.104014280775972,1
464,641,7,0.107909815441106,1
464,642,7,0.173714776163988,1
464,643,7,0.176091435415792,1
464,644,7,0.121809941149732,1
464,645,7,0.0783934991955012,1
464,678,7,0.0790362979945176,1
464,679,7,0.14995523960206,1
464,680,7,0.183356159171636,3
464,681,7,0.133693788468138,1
465,640,7,0.0723319237713316,1
465,641,7,0.134951533607866,1
465,642,7,0.205957560568375,1
465,643,7,0.192280350362602,1
465,644,7,0.11995973528832,1
465,645,7,0.071312517807604,1
465,680,7,0.0699255192920142,1
466,641,7,0.117751879903171,1
466,642,7,0.147060380871166,1
466,643,7,0.124706488997452,1
466,644,7,0.0823420553576054,1
467,640,7,0.0940931991891856,1
467,641,7,0.11374721151969,1
467,642,7,0.103687035355108,1
467,643,7,0.0748056533326587,1
468,640,7,0.0827571348534331,1
468,641,7,0.0967399973376644,1
468,642,7,0.0840533463345015,1
478,697,7,0.0691758928384034,1
449,647,8,0.076257658886954,1
449,648,8,0.0722294207349944,1
450,641,8,0.10286114108395,1
450,642,8,0.106137464687875,1
450,643,8,0.0756365071383275,1
450,647,8,0.0823026246623324,1
450,648,8,0.0775420585297908,1
450,656,8,0.0722162552073914,1
450,657,8,0.076494051385761,1
451,640,8,0.0923664545902624,1
451,641,8,0.143917269885026,1
451,642,8,0.144182233615255,1
451,643,8,0.0929423116529319,1
451,655,8,0.0847834221593152,1
451,656,8,0.0962238523517346,1
451,657,8,0.096663843325861,1
451,658,8,0.0822382705092086,1
452,640,8,0.0770372282306863,1
452,641,8,0.115636542597801,1
452,642,8,0.113777364051971,1
452,643,8,0.07580526907655,1
452,654,8,0.0958079402770458,1
452,655,8,0.115313549917883,1
452,656,8,0.129996994570005,1
452,657,8,0.122397178786763,1
452,658,8,0.0945158976800591,1
452,659,8,0.0724951990747569,1
453,641,8,0.073625817209096,1
453,642,8,0.0725657406664675,1
453,654,8,0.0918324061639299,1
453,655,8,0.124319453632761,1
453,656,8,0.14834806291124,1
453,657,8,0.134970629013689,1
453,658,8,0.0957249159921939,1
453,659,8,0.0679413700601479,1
454,654,8,0.0750635611067841,1
454,655,8,0.106751021400559,1
454,656,8,0.12962259763263,1
454,657,8,0.116442610710467,1
454,658,8,0.0816315121922609,1
455,655,8,0.0789585926307355,1
455,656,8,0.0883726875990649,1
455,657,8,0.080748343683187,1
456,647,8,0.0718658593023665,1
456,648,8,0.0787662489444817,1
456,649,8,0.0801414655707198,1
456,650,8,0.0711412102145902,1
457,644,8,0.0775388480098658,1
457,645,8,0.0794170201353268,1
457,646,8,0.0791218859034887,1
457,647,8,0.0862910367938042,1
457,648,8,0.0963480204077897,1
457,649,8,0.0917024819331585,1
457,650,8,0.0737835160310844,1
458,643,8,0.0696425982133984,1
458,644,8,0.0905233765622653,1
458,645,8,0.10181673978506,1
458,646,8,0.100072534989157,1
458,647,8,0.0979252482187125,1
458,648,8,0.0967622852940841,1
458,649,8,0.0831015050438226,1
459,643,8,0.0704864198840629,1
459,644,8,0.0950459629053653,1
459,645,8,0.112356565230529,1
459,646,8,0.112688458717554,1
459,647,8,0.102271902861742,1
459,648,8,0.0889624768806627,1
459,649,8,0.0799112066025157,1
459,650,8,0.0821762343993889,1
459,651,8,0.0747347343850613,1
459,661,8,0.0687998487126342,1
459,662,8,0.0838996067544356,1
459,663,8,0.0908388640528818,1
459,664,8,0.0752148808173543,1
460,643,8,0.0701323522463625,1
460,644,8,0.0890356240249244,1
460,645,8,0.104115843417481,1
460,646,8,0.110977622963632,1
460,647,8,0.104628700016398,1
460,648,8,0.0897684012387048,1
460,649,8,0.0883947778928773,1
460,650,8,0.106204070996767,1
460,651,8,0.100961028409076,1
460,652,8,0.0700320354782577,1
460,662,8,0.0921853057953143,1
460,663,8,0.110570617685825,1
460,664,8,0.0917168094773015,1
460,669,8,0.0787089507474617,1
461,644,8,0.0752140242793892,1
461,645,8,0.0823972152046007,1
461,646,8,0.0912390529656243,1
461,647,8,0.0948924030185787,1
461,648,8,0.0902495120249305,1
461,649,8,0.0914923306429176,1
461,650,8,0.104926739289586,1
461,651,8,0.0990274448660288,1
461,652,8,0.0712801550479867,1
461,663,8,0.0835806212346471,1
461,664,8,0.0743309336374031,1
461,669,8,0.0743607028240212,1
461,679,8,0.130253356981927,1
461,680,8,0.16661256701002,1
462,644,8,0.07328156082445,1
462,645,8,0.0715100306705281,1
462,646,8,0.0753177552198023,1
462,647,8,0.0802443699220476,1
462,648,8,0.0811658729973903,1
462,649,8,0.0771365926244103,1
462,650,8,0.0748765842598079,1
462,678,8,0.0973026169954191,1
462,679,8,0.200604318082214,1
462,680,8,0.266143859851892,3
462,681,8,0.20149129608881,1
463,642,8,0.0948609986231182,1
463,643,8,0.112004234627863,1
463,644,8,0.0941396319325787,1
463,645,8,0.0740010527151079,1
463,646,8,0.0700591751532209,1
463,647,8,0.0693810786043573,1
463,678,8,0.0943285554567482,1
463,679,8,0.195441035351466,1
463,680,8,0.260710030919703,3
463,681,8,0.195178922754603,1
464,641,8,0.0899652612160472,1
464,642,8,0.159665073769602,1
464,643,8,0.18177573282034,1
464,644,8,0.127799345763125,1
464,645,8,0.0789120460815988,1
464,679,8,0.114656627227107,1
464,680,8,0.149763902198171,1
465,641,8,0.110592636102325,1
465,642,8,0.189212638676491,1
465,643,8,0.200070197778569,1
465,644,8,0.1285464625006,1
465,645,8,0.0723801234986387,1
466,641,8,0.0954586524805771,1
466,642,8,0.130008986101515,1
466,643,8,0.124921090691246,1
466,644,8,0.0849510999480854,1
467,641,8,0.0899103229907632,1
467,642,8,0.085421129648749,1
467,643,8,0.0707162595679484,1
468,641,8,0.0771098422848858,1
468,642,8,0.0690887955058855,1
449,647,9,0.0709912801320473,1
449,648,9,0.0702465952436195,1
450,642,9,0.08240852390165,1
450,647,9,0.0788110644483603,1
450,648,9,0.0774146859435867,1
450,656,9,0.0734077055065784,1
450,657,9,0.0857495370861532,1
451,641,9,0.111952207433705,1
451,642,9,0.109214304792578,1
451,643,9,0.0761038174806964,1
451,655,9,0.0729851986885362,1
451,656,9,0.0928063676973011,1
451,657,9,0.105588753289944,1
451,658,9,0.0904107627840747,1
452,641,9,0.100336366651726,1
452,642,9,0.0945668047861089,1
452,654,9,0.0736539691561997,1
452,655,9,0.0939936730715102,1
452,656,9,0.119606506219256,1
452,657,9,0.123245079494869,1
452,658,9,0.0959832729995179,1
452,659,9,0.0725785288381838,1
453,642,9,0.0693146819376245,1
453,654,9,0.0766821782697253,1
453,655,9,0.109150897024059,1
453,656,9,0.142999085145576,1
453,657,9,0.135452051268266,1
453,658,9,0.0936312377167664,1
454,654,9,0.0706834056467008,1
454,655,9,0.100566553742618,1
454,656,9,0.128757745858501,1
454,657,9,0.116727939679027,1
454,658,9,0.0784078447089721,1
455,655,9,0.078252398042752,1
455,656,9,0.0880451366996258,1
455,657,9,0.0801674252598149,1
456,647,9,0.0718126401427886,1
456,648,9,0.0768539710345934,1
456,649,9,0.0739523678159466,1
456,656,9,0.0706830282908141,1
457,645,9,0.0686998194537765,1
457,646,9,0.0720803591699685,1
457,647,9,0.0860984595062872,1
457,648,9,0.0944967303969247,1
457,649,9,0.0835197651106954,1
457,657,9,0.0709544669688772,1
458,644,9,0.0796800192190348,1
458,645,9,0.0916207155012623,1
458,646,9,0.0889912218155883,1
458,647,9,0.0951854707777039,1
458,648,9,0.0975172306687647,1
458,649,9,0.079699551878504,1
458,662,9,0.0737473198148402,1
458,663,9,0.0724680474202418,1
459,644,9,0.0937171430838644,1
459,645,9,0.114549973276015,1
459,646,9,0.104948470196839,1
459,647,9,0.0938685167024184,1
459,648,9,0.0852418616434584,1
459,649,9,0.074025580847744,1
459,650,9,0.0721968483332179,1
459,651,9,0.0678409454760755,1
459,662,9,0.0837143070447337,1
459,663,9,0.108023681082476,1
459,664,9,0.105203466939839,1
459,665,9,0.0754390541731632,1
460,644,9,0.0900792406631612,1
460,645,9,0.108901985893455,1
460,646,9,0.105277572448257,1
460,647,9,0.0953782217687243,1
460,648,9,0.0864393795857126,1
460,649,9,0.0862616389732968,1
460,650,9,0.0993397038673923,1
460,651,9,0.09578451426319,1
460,652,9,0.0725368340075904,1
460,662,9,0.0921726913271015,1
460,663,9,0.147119895285299,1
460,664,9,0.155319635051096,1
460,665,9,0.102532553953267,1
460,669,9,0.082244859262786,1
461,644,9,0.0723124210607424,1
461,645,9,0.0815152027222909,1
461,646,9,0.0872200570380011,1
461,647,9,0.0925086398924639,1
461,648,9,0.0963305602108094,1
461,649,9,0.102908915537163,1
461,650,9,0.110387438356819,1
461,651,9,0.101071228307547,1
461,652,9,0.0820187811582157,1
461,653,9,0.076475363284705,1
461,654,9,0.0684119508202016,1
461,662,9,0.0699969234114659,1
461,663,9,0.123582866921457,1
461,664,9,0.138346957917367,1
461,665,9,0.0927107469135643,1
461,669,9,0.075813157611515,1
462,646,9,0.0699020693190545,1
462,647,9,0.079822276398548,1
462,648,9,0.0907558517475818,1
462,649,9,0.0963283320141451,1
462,650,9,0.0891336526986049,1
462,651,9,0.0734337430627613,1
462,663,9,0.0703368731471826,1
462,664,9,0.0795570670875035,1
462,679,9,0.140192911037835,1
462,680,9,0.197370390112672,1
463,642,9,0.0857150060276314,1
463,643,9,0.103446210422076,1
463,644,9,0.0874184324286663,1
463,645,9,0.0691582170094879,1
463,646,9,0.0680528038524706,1
463,647,9,0.0713470848047817,1
463,648,9,0.0714792492117694,1
463,649,9,0.0691512329306958,1
463,679,9,0.137053897058464,1
463,680,9,0.194687749144732,1
464,641,9,0.079481242513379,1
464,642,9,0.136080522523139,1
464,643,9,0.164810039765404,1
464,644,9,0.119076818349837,1
464,645,9,0.0752972402370725,1
464,646,9,0.0687042339186734,1
464,647,9,0.0679085460877802,1
464,679,9,0.0913425323354462,1
465,641,9,0.0930663419441394,1
465,642,9,0.159856938273777,1
465,643,9,0.182800056390147,1
465,644,9,0.122571301574487,1
465,645,9,0.0701335262424544,1
466,641,9,0.0778537365228843,1
466,642,9,0.109492278316235,1
466,643,9,0.116580255762476,1
466,644,9,0.0836685810949061,1
467,642,9,0.0700146591381412,1
467,643,9,0.0689004829388659,1
450,648,10,0.0706595843076303,1
450,657,10,0.0860151656815162,1
451,642,10,0.0811108628947945,1
451,656,10,0.0819427469419318,1
451,657,10,0.104089967585249,1
451,658,10,0.0958640824473017,1
452,642,10,0.0788721182349194,1
452,655,10,0.079487094524511,1
452,656,10,0.103950202152543,1
452,657,10,0.112379577949842,1
452,658,10,0.0916725510225889,1
453,654,10,0.068222158778515,1
453,655,10,0.100466111189218,1
453,656,10,0.13280845166016,1
453,657,10,0.124472420531725,1
453,658,10,0.0849877214384241,1
454,655,10,0.0960690046631125,1
454,656,10,0.122772006988008,1
454,657,10,0.108669163301131,1
454,658,10,0.0709571923169479,1
455,655,10,0.0753709204713963,1
455,656,10,0.0849528190137915,1
455,657,10,0.0756391246704305,1
456,647,10,0.0753517771473658,1
456,648,10,0.0799078583177431,1
456,649,10,0.0723512767375214,1
457,646,10,0.0741513242148817,1
457,647,10,0.0900444460544962,1
457,648,10,0.0972430007550951,1
457,649,10,0.0811521384410693,1
458,644,10,0.0699655789137651,1
458,645,10,0.0833298652530412,1
458,646,10,0.0832981853278856,1
458,647,10,0.0934021407651024,1
458,648,10,0.098907277980328,1
458,649,10,0.0801091147906545,1
458,662,10,0.0737250078993166,1
458,663,10,0.0724199914475583,1
459,644,10,0.0904353687837985,1
459,645,10,0.121600370867761,1
459,646,10,0.108619340344534,1
459,647,10,0.0926130237184587,1
459,648,10,0.0854870471334034,1
459,649,10,0.0745891229309996,1
459,662,10,0.0819212316666135,1
459,663,10,0.118648932712965,1
459,664,10,0.126521510914761,1
459,665,10,0.0828000635778782,1
460,644,10,0.0929611674677153,1
460,645,10,0.129199479857438,1
460,646,10,0.119698425321438,1
460,647,10,0.0979700277839353,1
460,648,10,0.0872363192797855,1
460,649,10,0.0874139101478018,1
460,650,10,0.0885631504956611,1
460,651,10,0.0829546836550131,1
460,652,10,0.0699273581532399,1
460,662,10,0.0943667043399617,1
460,663,10,0.181236245677418,1
460,664,10,0.211384177810285,1
460,665,10,0.126531382065576,1
460,669,10,0.0764456000878628,1
461,644,10,0.0710827020828224,1
461,645,10,0.0920898647048569,1
461,646,10,0.0948757574311317,1
461,647,10,0.0961600851966568,1
461,648,10,0.101511692473976,1
461,649,10,0.111811507595946,1
461,650,10,0.105900676863853,1
461,651,10,0.0923929473694198,1
461,652,10,0.0844540922964102,1
461,653,10,0.0921455816010182,1
461,654,10,0.0924988825473933,1
461,655,10,0.0734662974952099,1
461,662,10,0.0800286780890257,1
461,663,10,0.162791125873753,1
461,664,10,0.194721962745127,1
461,665,10,0.115528331304956,1
462,647,10,0.0804986718510334,1
462,648,10,0.096610354626364,1
462,649,10,0.110589940703135,1
462,650,10,0.0959886098899156,1
462,651,10,0.075344703221934,1
462,652,10,0.0735885727820554,1
462,653,10,0.0932095694673613,1
462,654,10,0.100456341864595,1
462,655,10,0.0812026801707843,1
462,663,10,0.0869438325289304,1
462,664,10,0.102845579645955,1
463,643,10,0.087951833959193,1
463,647,10,0.0735118737006379,1
463,648,10,0.0747183763068613,1
463,649,10,0.0780907220095133,1
463,654,10,0.0748759134048982,1
464,642,10,0.109081667193288,1
464,643,10,0.131102755134029,1
464,644,10,0.101438161984051,1
464,645,10,0.0700304242285193,1
464,646,10,0.0683342694155234,1
464,647,10,0.0724293714367422,1
464,673,10,0.0715801769370241,1
464,674,10,0.0706958224523063,1
465,641,10,0.0789826715301731,1
465,642,10,0.125963575261823,1
465,643,10,0.145838454591796,1
465,644,10,0.104791873493631,1
465,673,10,0.0743439254615027,1
465,674,10,0.0754525970566528,1
466,642,10,0.0932222618026619,1
466,643,10,0.102888178932722,1
466,644,10,0.0785799429524152,1
467,643,10,0.0690925750545285,1
472,647,10,0.0725326231950768,1
476,692,10,0.0686090384090312,1
476,693,10,0.0819170508029798,1
477,693,10,0.0761216011255795,1
501,666,10,0.0755948961645979,1
501,667,10,0.0741022020620738,1
502,667,10,0.0704493970787335,1
451,657,11,0.0917192173672452,1
452,655,11,0.0718166712620228,1
452,656,11,0.0873343060250342,1
452,657,11,0.0913351349621116,1
453,655,11,0.0909760119534845,1
453,656,11,0.110613085197519,1
453,657,11,0.0988326573511754,1
454,654,11,0.0678040903844737,1
454,655,11,0.0906521866947046,1
454,656,11,0.106350461121706,1
454,657,11,0.0904677914411756,1
455,648,11,0.0679970270585494,1
455,655,11,0.0723115166045695,1
455,656,11,0.0791896302698169,1
456,645,11,0.0712109611558715,1
456,646,11,0.0741871131263593,1
456,647,11,0.0756326617021487,1
456,648,11,0.0783810644205678,1
456,649,11,0.0704761833569139,1
457,645,11,0.0713553267365295,1
457,646,11,0.0797209713174067,1
457,647,11,0.0872657410593968,1
457,648,11,0.0891475130402215,1
457,649,11,0.0739371777440625,1
458,645,11,0.0786151089271909,1
458,646,11,0.0825660550099109,1
458,647,11,0.0893520758694735,1
458,648,11,0.093173720658124,1
458,649,11,0.0780435944521066,1
458,663,11,0.0680965411966729,1
459,644,11,0.0822875004779841,1
459,645,11,0.117146804713273,1
459,646,11,0.109365498717853,1
459,647,11,0.0936051642219276,1
459,648,11,0.0896122417891432,1
459,649,11,0.0815956274443677,1
459,650,11,0.069176018623699,1
459,662,11,0.0769723889057082,1
459,663,11,0.118842282681583,1
459,664,11,0.130766944333514,1
459,665,11,0.0843956201032982,1
460,644,11,0.0913709238735891,1
460,645,11,0.138231606811554,1
460,646,11,0.130348270972098,1
460,647,11,0.101917451878379,1
460,648,11,0.0913460004157384,1
460,649,11,0.0911271938992071,1
460,650,11,0.0824081824844192,1
460,651,11,0.0727334543938936,1
460,662,11,0.0943668600741371,1
460,663,11,0.19391625401902,1
460,664,11,0.230127696273698,1
460,665,11,0.135795145636372,1
461,644,11,0.0694434741007358,1
461,645,11,0.0977410985459986,1
461,646,11,0.0980298896050744,1
461,647,11,0.092580475275786,1
461,648,11,0.097474787116174,1
461,649,11,0.107437246075427,1
461,650,11,0.0954828571653102,1
461,651,11,0.080434497391189,1
461,652,11,0.0767811413484586,1
461,653,11,0.0923410699196613,1
461,654,11,0.107525403598293,1
461,655,11,0.0962974487291948,1
461,662,11,0.084912633606745,1
461,663,11,0.178082760399281,1
461,664,11,0.213617166295444,1
461,665,11,0.124232470105986,1
462,647,11,0.0775791352431039,1
462,648,11,0.0918588270657755,1
462,649,11,0.105849871583995,1
462,650,11,0.0914851129628623,1
462,651,11,0.0722351469608308,1
462,652,11,0.0737763822078928,1
462,653,11,0.107327812868281,1
462,654,11,0.137751502307693,1
462,655,11,0.124337566715323,1
462,656,11,0.0765563929741557,1
462,663,11,0.092957483755488,1
462,664,11,0.110702991734972,1
462,665,11,0.071038707178253,1
463,647,11,0.071481992529168,1
463,648,11,0.0734392476668864,1
463,649,11,0.0777900053064623,1
463,653,11,0.083923152563811,1
463,654,11,0.109196395362399,1
463,655,11,0.100012205965491,1
463,664,11,0.070773360102361,1
464,642,11,0.0873184570777924,1
464,643,11,0.0994204160987161,1
464,647,11,0.0705102532026853,1
464,664,11,0.0850945251339146,1
464,665,11,0.0697850770146228,1
464,673,11,0.0874670993584998,1
464,674,11,0.08675166254618,1
465,641,11,0.0679315408377655,1
465,642,11,0.0968868366958019,1
465,643,11,0.10944876858352,1
465,644,11,0.0870445685813537,1
465,664,11,0.0715341694677255,1
465,673,11,0.093306693684869,1
465,674,11,0.09459280041386,1
466,642,11,0.0830885731174829,1
466,643,11,0.0907532402052548,1
466,644,11,0.0744693992887213,1
467,643,11,0.0686740394579607,1
470,646,11,0.0747279120302207,1
470,647,11,0.0845830521732489,1
470,648,11,0.0697407107439426,1
471,646,11,0.0766944692900352,1
471,647,11,0.086942197320088,1
471,648,11,0.071978209530414,1
472,646,11,0.0749034663744039,1
472,647,11,0.0861354164240807,1
472,648,11,0.0765560335875969,1
473,647,11,0.0777671063928927,1
473,648,11,0.0760359473290726,1
473,649,11,0.0680222260460952,1
476,692,11,0.0711781731221597,1
477,693,11,0.0787948920532157,1
501,666,11,0.079421632262831,1
501,667,11,0.0848855178908858,1
502,667,11,0.0761022361798378,1
452,655,12,0.068575184195195,1
452,656,12,0.0757267550930107,1
453,655,12,0.0849534838789253,1
453,656,12,0.089796109942386,1
453,657,12,0.0759274784758598,1
454,654,12,0.0716242976268891,1
454,655,12,0.0884871102896014,1
454,656,12,0.0898859206434227,1
454,657,12,0.0734075677417308,1
455,655,12,0.0712362859287129,1
455,656,12,0.0723451731557983,1
456,645,12,0.0736882666134583,1
456,646,12,0.0741842140747852,1
456,647,12,0.0713356323531089,1
456,648,12,0.0724357385686084,1
457,645,12,0.0703934885097409,1
457,646,12,0.0769146235061618,1
457,647,12,0.0772045346533458,1
457,648,12,0.0755246959901181,1
458,645,12,0.0705055212796615,1
458,646,12,0.0762868111266462,1
458,647,12,0.0806903446823775,1
458,648,12,0.0866937533920101,1
458,649,12,0.0796587135858757,1
459,644,12,0.0685591435751219,1
459,645,12,0.0985448426255843,1
459,646,12,0.0985713473842936,1
459,647,12,0.093454844803946,1
459,648,12,0.103581411645485,1
459,649,12,0.101301415398439,1
459,650,12,0.0805936637082924,1
459,662,12,0.0734708856636102,1
459,663,12,0.106804186652153,1
459,664,12,0.113560306550026,1
459,665,12,0.0770153535688092,1
460,644,12,0.0788399231890296,1
460,645,12,0.121815643416465,1
460,646,12,0.120170719157422,1
460,647,12,0.100714441311552,1
460,648,12,0.104135801351044,1
460,649,12,0.106328466664309,1
460,650,12,0.0886477740506996,1
460,651,12,0.0685560768098204,1
460,662,12,0.0924445073610513,1
460,663,12,0.173087922148629,1
460,664,12,0.197802600367801,1
460,665,12,0.123465060007492,1
461,645,12,0.0882311731517732,1
461,646,12,0.0882177141251472,1
461,647,12,0.0815371193125999,1
461,648,12,0.0913565544010143,1
461,649,12,0.100546032770112,1
461,650,12,0.089251693213833,1
461,651,12,0.071344952444533,1
461,653,12,0.0815944534482757,1
461,654,12,0.103169566628687,1
461,655,12,0.10169339831809,1
461,662,12,0.0830348987349306,1
461,663,12,0.161109232717364,1
461,664,12,0.188181354986996,1
461,665,12,0.117744632274236,1
462,648,12,0.0783714867687765,1
462,649,12,0.0886812808575289,1
462,650,12,0.0803816675670498,1
462,652,12,0.0684819353627461,1
462,653,12,0.105221052922115,1
462,654,12,0.146252192377804,1
462,655,12,0.140555915421296,1
462,656,12,0.0846243157399717,1
462,663,12,0.0883103939288781,1
462,664,12,0.103928770734089,1
462,665,12,0.0728581076218031,1
463,648,12,0.0678010415885001,1
463,649,12,0.0709261233489422,1
463,653,12,0.0894536744496378,1
463,654,12,0.121360001157704,1
463,655,12,0.112378415933302,1
463,664,12,0.0734321018641429,1
464,654,12,0.0745559635311771,1
464,663,12,0.0694730396349706,1
464,664,12,0.0968715268283983,1
464,665,12,0.072663212290982,1
464,673,12,0.0875574491393746,1
464,674,12,0.0882791871960249,1
465,642,12,0.0836062335167355,1
465,643,12,0.0975131636108746,1
465,664,12,0.0850345495070318,1
465,673,12,0.0932468198841779,1
465,674,12,0.0948102712103478,1
466,642,12,0.0783018676025668,1
466,643,12,0.0904268034041478,1
466,644,12,0.078936831774602,1
467,643,12,0.0680354035532501,1
469,646,12,0.0799646354042529,1
469,647,12,0.0836622439119198,1
470,645,12,0.0784241368996364,1
470,646,12,0.11009734152658,1
470,647,12,0.120111995393719,1
470,648,12,0.0908587141704778,1
471,645,12,0.0760772468344513,1
471,646,12,0.113320368103839,1
471,647,12,0.124521476796997,1
471,648,12,0.0940010824243968,1
472,646,12,0.0881605776520787,1
472,647,12,0.101270939418256,1
472,648,12,0.0915748817354672,1
472,649,12,0.0740242571072526,1
472,678,12,0.0778194989633854,1
472,679,12,0.0921283669848531,1
472,680,12,0.0805136103523263,1
473,646,12,0.0683458236933879,1
473,647,12,0.0863292276054495,1
473,648,12,0.0991235208727401,1
473,649,12,0.0984147387015335,1
473,650,12,0.0706229328684117,1
473,678,12,0.0821738923969809,1
473,679,12,0.109256963977104,1
473,680,12,0.10631110829352,1
473,681,12,0.0724044060504596,1
474,647,12,0.0721555248687353,1
474,648,12,0.0921634011845573,1
474,649,12,0.0984623873694504,1
474,650,12,0.0722706423732853,1
474,679,12,0.0782954465627167,1
474,680,12,0.0887419333290974,1
475,648,12,0.0741160743832423,1
475,649,12,0.0779427266246117,1
480,693,12,0.0695413769891207,1
480,694,12,0.069887316500817,1
501,666,12,0.0740034845641556,1
501,667,12,0.0817362134763826,1
502,667,12,0.0705892164194231,1
453,655,13,0.0787054587080657,1
453,656,13,0.0772642886585173,1
454,654,13,0.0698993319914318,1
454,655,13,0.0851001794824393,1
454,656,13,0.0838378701334148,1
455,655,13,0.0720413777078939,1
456,645,13,0.068308106074045,1
456,646,13,0.0682470582772618,1
456,648,13,0.0682027099759096,1
457,646,13,0.0686018327085278,1
458,646,13,0.0692569464869581,1
458,647,13,0.0712738118752244,1
458,648,13,0.0779322564961996,1
458,649,13,0.0746716141257893,1
459,645,13,0.0774404000518667,1
459,646,13,0.0818541761245229,1
459,647,13,0.0891587139213032,1
459,648,13,0.110995077170836,1
459,649,13,0.107997996923076,1
459,650,13,0.0810751937788366,1
459,663,13,0.0843768241862746,1
459,664,13,0.0878088939452182,1
459,665,13,0.0686679598353415,1
460,645,13,0.0908556593847283,1
460,646,13,0.0934921491287464,1
460,647,13,0.0949059698611723,1
460,648,13,0.115044608976403,1
460,649,13,0.113202633067186,1
460,650,13,0.0870416874991075,1
460,662,13,0.0810228431367757,1
460,663,13,0.126808229511348,1
460,664,13,0.141011593618713,1
460,665,13,0.102232106790135,1
461,645,13,0.0725415120226304,1
461,646,13,0.0721341773071443,1
461,647,13,0.0719825521179992,1
461,648,13,0.0865785879692522,1
461,649,13,0.0892792641526666,1
461,650,13,0.0775171111128362,1
461,653,13,0.0729090925949406,1
461,654,13,0.0937399401712424,1
461,655,13,0.0962684881623339,1
461,656,13,0.0684759515765426,1
461,662,13,0.0741297789906835,1
461,663,13,0.123066967516343,1
461,664,13,0.142594763287408,1
461,665,13,0.105281082456981,1
462,649,13,0.0708277412784789,1
462,653,13,0.0934644104761853,1
462,654,13,0.128986723014646,1
462,655,13,0.127736381238028,1
462,656,13,0.0817902232863898,1
462,663,13,0.0795126469088395,1
462,664,13,0.0931777937057901,1
462,665,13,0.0749416691656012,1
463,653,13,0.0822952811969815,1
463,654,13,0.107513603739614,1
463,655,13,0.100524697188073,1
463,664,13,0.072610017090508,1
464,653,13,0.0687845208759027,1
464,654,13,0.0766771887863343,1
464,663,13,0.0705987880814383,1
464,664,13,0.0947813166332629,1
464,665,13,0.0708720476513993,1
464,673,13,0.074813446031208,1
464,674,13,0.0767365774151711,1
465,642,13,0.076694235688772,1
465,643,13,0.0939530024926093,1
465,664,13,0.0942431532308324,1
465,665,13,0.0707573973493756,1
465,673,13,0.0782133866317975,1
465,674,13,0.0797688535865868,1
466,642,13,0.0761983840638608,1
466,643,13,0.0938229584663183,1
466,644,13,0.0854088865466469,1
467,643,13,0.0689155112867984,1
469,645,13,0.0735205468962562,1
469,646,13,0.0885053671267869,1
469,647,13,0.0875860503196767,1
469,648,13,0.0685685714825136,1
470,645,13,0.0893544058923295,1
470,646,13,0.126203909033224,1
470,647,13,0.130224090936491,1
470,648,13,0.0922954158471455,1
471,645,13,0.0852835684536037,1
471,646,13,0.132829930996822,1
471,647,13,0.145521523565168,1
471,648,13,0.103772940722206,1
472,646,13,0.100673830630411,1
472,647,13,0.124439129356831,1
472,648,13,0.110776270654305,1
472,649,13,0.0833922308005398,1
472,678,13,0.095322498882787,1
472,679,13,0.115122080738922,1
472,680,13,0.0994480409455336,1
473,646,13,0.0736148020110697,1
473,647,13,0.105921820773061,1
473,648,13,0.128029760465504,1
473,649,13,0.124259364200134,1
473,650,13,0.0787269620038321,1
473,678,13,0.103771275564484,1
473,679,13,0.141590014305502,1
473,680,13,0.137729999011927,1
473,681,13,0.0905467127294815,1
474,647,13,0.0894048457958529,1
474,648,13,0.123441280596854,1
474,649,13,0.131968697047385,1
474,650,13,0.0872464899193987,1
474,679,13,0.100565535480702,1
474,680,13,0.116017863716208,1
474,681,13,0.087393377195744,1
475,647,13,0.0730674742513906,1
475,648,13,0.0963036181984536,1
475,649,13,0.101662730665075,1
475,650,13,0.0728120043160888,1
480,693,13,0.0854893292380516,1
480,694,13,0.0864802238681168,1
481,693,13,0.0692655358257127,1
481,694,13,0.072790914314865,1
501,667,13,0.0697489526756904,1
454,655,14,0.0740925285738669,1
458,648,14,0.0709633617862068,1
458,649,14,0.0694112850446219,1
459,647,14,0.0816780527516216,1
459,648,14,0.110300203259454,1
459,649,14,0.106056063632313,1
459,650,14,0.0769175884452717,1
460,646,14,0.0681942643917785,1
460,647,14,0.087513484183685,1
460,648,14,0.118709417470806,1
460,649,14,0.11278780514195,1
460,650,14,0.0814437387050794,1
460,662,14,0.0717465968728386,1
460,663,14,0.0908942155727084,1
460,664,14,0.0945838696578745,1
460,665,14,0.0795232967305311,1
461,648,14,0.0813411338425505,1
461,649,14,0.0785474783666063,1
461,655,14,0.0808976448392521,1
461,663,14,0.0913174471536441,1
461,664,14,0.10125268258107,1
461,665,14,0.0866271111444622,1
462,653,14,0.0768383556886148,1
462,654,14,0.0984019565195932,1
462,655,14,0.097122624227235,1
462,656,14,0.0690095148310207,1
462,663,14,0.0690787207026879,1
462,664,14,0.0788104055730026,1
462,665,14,0.0703502303476169,1
463,653,14,0.070000409461086,1
463,654,14,0.0836832560460559,1
463,655,14,0.0778239014487303,1
464,654,14,0.0687140331921759,1
464,664,14,0.0835993093357032,1
465,663,14,0.0681882027384872,1
465,664,14,0.0963031869345831,1
465,665,14,0.0750464722759146,1
466,643,14,0.0819913599637815,1
466,664,14,0.0718194265589734,1
469,645,14,0.070681003746533,1
469,646,14,0.0838160314101936,1
469,647,14,0.0802975112145378,1
470,645,14,0.0902855824558791,1
470,646,14,0.1205148677261,1
470,647,14,0.116987189162971,1
470,648,14,0.0787326163523568,1
471,645,14,0.089194401006589,1
471,646,14,0.133994091876647,1
471,647,14,0.144496385385828,1
471,648,14,0.100681018361586,1
472,645,14,0.0710053321464952,1
472,646,14,0.114202254800853,1
472,647,14,0.149908962592843,1
472,648,14,0.134588529224405,1
472,649,14,0.0944425289140862,1
472,678,14,0.09490840171022,1
472,679,14,0.118149385396274,1
472,680,14,0.102627863268652,1
473,646,14,0.0831266201745047,1
473,647,14,0.13832979121941,1
473,648,14,0.169926087122777,1
473,649,14,0.147584090944158,1
473,650,14,0.0782513318626277,1
473,678,14,0.107067988365842,1
473,679,14,0.151239028287747,1
473,680,14,0.146323566548376,1
473,681,14,0.096928603403707,1
474,647,14,0.118756293457622,1
474,648,14,0.168335238561277,1
474,649,14,0.162779170280898,1
474,650,14,0.0934405831473388,1
474,678,14,0.068501821418998,1
474,679,14,0.108577591605957,1
474,680,14,0.122721153789942,1
474,681,14,0.093325387775701,1
475,647,14,0.0895095291106467,1
475,648,14,0.120792769372445,1
475,649,14,0.118827535853122,1
475,650,14,0.0768564747609528,1
480,693,14,0.0879198126168066,1
481,693,14,0.0709632000622553,1
481,694,14,0.075446691137537,1
500,697,14,0.0686645097243773,1
500,698,14,0.0910766940979239,1
501,697,14,0.0743352822147642,1
459,647,15,0.0699239619502596,1
459,648,15,0.0946349025492199,1
459,649,15,0.0916998524215035,1
460,647,15,0.0740066711249767,1
460,648,15,0.102052149960606,1
460,649,15,0.0957982009013032,1
460,650,15,0.0681838661406781,1
460,663,15,0.0721077324461948,1
460,664,15,0.0698154631481668,1
461,648,15,0.0696869225556467,1
461,663,15,0.0731470544150543,1
461,664,15,0.0750392605856353,1
465,664,15,0.0834910680939776,1
465,665,15,0.0696671503051384,1
466,670,15,0.080939758954164,1
466,671,15,0.0795974920855892,1
467,670,15,0.0794791520815622,1
467,671,15,0.078404664137927,1
469,646,15,0.0718475066287653,1
469,647,15,0.0709272494268264,1
470,645,15,0.0788864158301825,1
470,646,15,0.101863867342467,1
470,647,15,0.0963659178584165,1
471,645,15,0.0864223806014828,1
471,646,15,0.121248723099557,1
471,647,15,0.124389354318442,1
471,648,15,0.0932623753323966,1
472,645,15,0.0804130420136304,1
472,646,15,0.119863647302056,1
472,647,15,0.153289100994044,1
472,648,15,0.150318579412977,1
472,649,15,0.103522723820438,1
472,678,15,0.0800157821013418,1
472,679,15,0.1010944806179,1
472,680,15,0.0899578638427125,1
473,646,15,0.093259937493573,1
473,647,15,0.163830124394709,1
473,648,15,0.211597749262611,1
473,649,15,0.164390168448793,1
473,650,15,0.078286893162618,1
473,678,15,0.0923562480119934,1
473,679,15,0.131472336291516,1
473,680,15,0.127344362379722,1
473,681,15,0.0886007602990364,1
474,646,15,0.0709474828900851,1
474,647,15,0.146515994091493,1
474,648,15,0.212135870736609,1
474,649,15,0.179985915880353,1
474,650,15,0.0928585685949624,1
474,679,15,0.0988444452303031,1
474,680,15,0.108051317908846,1
474,681,15,0.0849897340031532,1
475,647,15,0.0996653200691901,1
475,648,15,0.138864402684685,1
475,649,15,0.123197221184793,1
475,650,15,0.0738899483604641,1
475,656,15,0.0702437021818214,1
475,665,15,0.0703939557122673,1
475,666,15,0.0739865215185817,1
476,655,15,0.0739331705839322,1
476,656,15,0.0863545344089629,1
476,665,15,0.0678981059082479,1
476,666,15,0.0687473902546057,1
477,656,15,0.0695430960548269,1
499,697,15,0.0698091858629403,1
499,698,15,0.0819346906932394,1
500,697,15,0.0821582231430185,1
500,698,15,0.107000100244891,1
501,697,15,0.0787386001385603,1
459,648,16,0.0737777957950239,1
460,648,16,0.0769304964125075,1
460,649,16,0.0739996331382008,1
465,670,16,0.0925978036976948,1
465,671,16,0.0917282559391983,1
466,669,16,0.0940797521421116,1
466,670,16,0.14125434725961,1
466,671,16,0.131194410686067,1
466,672,16,0.0826346020062204,1
467,669,16,0.0934073878088604,1
467,670,16,0.138583242600207,1
467,671,16,0.126295205198704,1
468,670,16,0.0865338443426853,1
468,671,16,0.082860027225209,1
470,646,16,0.0833193711655251,1
470,647,16,0.0821323832494429,1
471,645,16,0.0766808904678897,1
471,646,16,0.101249567897561,1
471,647,16,0.103469019489006,1
471,648,16,0.0905976557741872,1
471,649,16,0.0698290958782962,1
472,645,16,0.0799592326263193,1
472,646,16,0.109587108449542,1
472,647,16,0.141745988072008,1
472,648,16,0.160170335332577,1
472,649,16,0.117410318917716,1
472,679,16,0.0743755335093465,1
472,680,16,0.0688715523208848,1
473,646,16,0.0957709953388042,1
473,647,16,0.177635515806444,1
473,648,16,0.245532896951798,1
473,649,16,0.183461279740076,1
473,650,16,0.0866759937062309,1
473,678,16,0.06798574831038,1
473,679,16,0.0941405244091996,1
473,680,16,0.0929572501542247,1
473,681,16,0.0690798946987799,1
474,646,16,0.0763652592226498,1
474,647,16,0.167700130634618,1
474,648,16,0.246443870000969,1
474,649,16,0.190729872891204,1
474,650,16,0.0917200978643142,1
474,665,16,0.0862257662049556,1
474,666,16,0.0993316895471317,1
474,679,16,0.0766251795615043,1
474,680,16,0.0818579377038381,1
475,647,16,0.100879591414859,1
475,648,16,0.143850447944199,1
475,649,16,0.115810210162551,1
475,655,16,0.0712793464282295,1
475,656,16,0.0961680935271414,1
475,657,16,0.0709651826781045,1
475,665,16,0.115433824619551,1
475,666,16,0.136194220450782,1
475,667,16,0.0869029822567502,1
476,655,16,0.094698286358635,1
476,656,16,0.133717759551608,1
476,657,16,0.101537855815454,1
476,665,16,0.0956415562798872,1
476,666,16,0.110938306074102,1
476,667,16,0.0730832093928888,1
477,655,16,0.0743152823527687,1
477,656,16,0.10587998817762,1
477,657,16,0.0875436846341737,1
499,697,16,0.0750569603736547,1
499,698,16,0.0925187326649893,1
500,697,16,0.0841614737704835,1
465,670,17,0.134404319653931,1
465,671,17,0.135866567725151,1
466,669,17,0.139163016976367,1
466,670,17,0.218065988547357,1
466,671,17,0.205762557421586,1
466,672,17,0.122938259210095,1
467,669,17,0.139819508403272,1
467,670,17,0.213089131604195,1
467,671,17,0.195606508902676,1
467,672,17,0.113403530153539,1
468,669,17,0.0916710895172499,1
468,670,17,0.130886404425649,1
468,671,17,0.12307367606544,1
470,647,17,0.0709730772028455,1
471,646,17,0.0766357395365562,1
471,647,17,0.0869526794280521,1
471,648,17,0.0867673797183502,1
471,649,17,0.0732416749062025,1
472,646,17,0.0871612314481064,1
472,647,17,0.119569082098936,1
472,648,17,0.150492294895935,1
472,649,17,0.123463143279179,1
472,650,17,0.0795614276444166,1
473,646,17,0.0851216168906699,1
473,647,17,0.160845958103961,1
473,648,17,0.235680673829672,1
473,649,17,0.18643116640489,1
473,650,17,0.099283986971231,1
473,666,17,0.0692537179977051,1
474,646,17,0.0732338043405654,1
474,647,17,0.159292893049339,1
474,648,17,0.240215173837195,1
474,649,17,0.188085961814747,1
474,650,17,0.0953054340110214,1
474,664,17,0.0699380019851555,1
474,665,17,0.127321553312792,1
474,666,17,0.151553275894736,1
474,667,17,0.0886524700350675,1
475,647,17,0.0887824901022546,1
475,648,17,0.129786274251046,1
475,649,17,0.103309823223023,1
475,655,17,0.0739558778246705,1
475,656,17,0.103878899859283,1
475,657,17,0.0830161687054427,1
475,664,17,0.08196080611651,1
475,665,17,0.157995423715315,1
475,666,17,0.193195061031984,1
475,667,17,0.111750663451547,1
476,655,17,0.0953007619857574,1
476,656,17,0.150714982787301,1
476,657,17,0.130329247443588,1
476,658,17,0.076272836979286,1
476,665,17,0.109027028456803,1
476,666,17,0.135361773364703,1
476,667,17,0.0831722742470205,1
477,655,17,0.0713083908519541,1
477,656,17,0.120480941634952,1
477,657,17,0.115736595815763,1
477,658,17,0.0785047053763367,1
478,657,17,0.0683856557036516,1
465,670,18,0.178385411799974,1
465,671,18,0.187486852441725,1
466,669,18,0.170312343816591,1
466,670,18,0.276774442383003,1
466,671,18,0.273596818307669,1
466,672,18,0.168927244059987,1
467,669,18,0.16979964295185,1
467,670,18,0.265615417855877,1
467,671,18,0.254434686380601,1
467,672,18,0.152823970930132,1
468,669,18,0.10754856007223,1
468,670,18,0.159614088796464,1
468,671,18,0.154165968258787,1
471,648,18,0.0847474775136622,1
472,647,18,0.100984891676579,1
472,648,18,0.131281609844777,1
472,649,18,0.117734797062077,1
472,662,18,0.0700795703404311,1
473,647,18,0.132367508311653,1
473,648,18,0.197444112275428,1
473,649,18,0.171407634252203,1
473,650,18,0.103536727916678,1
473,665,18,0.0691421763894148,1
473,666,18,0.0772590416147593,1
474,647,18,0.13178325358306,1
474,648,18,0.201297778406465,1
474,649,18,0.169668730408042,1
474,650,18,0.0945264816142149,1
474,664,18,0.0798320756720505,1
474,665,18,0.140697070482029,1
474,666,18,0.168028442235607,1
474,667,18,0.0940932650767214,1
475,648,18,0.105002222446479,1
475,649,18,0.0891732750667093,1
475,655,18,0.0757563206272455,1
475,656,18,0.102080996721724,1
475,657,18,0.0856498672138543,1
475,662,18,0.0682603915185922,1
475,663,18,0.0779119092271972,1
475,664,18,0.0968797687601461,1
475,665,18,0.168375657569587,1
475,666,18,0.205769745152762,1
475,667,18,0.116914197752885,1
476,655,18,0.0925667946274489,1
476,656,18,0.145355642709192,1
476,657,18,0.136884050970789,1
476,658,18,0.0809641852606084,1
476,663,18,0.0688050358586325,1
476,664,18,0.0705478450367327,1
476,665,18,0.10370148269477,1
476,666,18,0.129444090328889,1
476,667,18,0.0803531921720432,1
477,656,18,0.115422312270118,1
477,657,18,0.123889663247128,1
477,658,18,0.0831140296653958,1
478,657,18,0.0732019387323545,1
465,670,19,0.198062209238305,1
465,671,19,0.208067375300291,1
466,669,19,0.172675909418103,1
466,670,19,0.286645066096938,1
466,671,19,0.28939492433092,1
466,672,19,0.192960824852529,1
467,669,19,0.171040449005108,1
467,670,19,0.272922393491481,1
467,671,19,0.269700972174184,1
467,672,19,0.177613185921592,1
468,670,19,0.159542139607398,1
468,671,19,0.157045265551687,1
471,662,19,0.0703974537414393,1
472,662,19,0.0799546983659029,1
473,648,19,0.140831984196192,1
473,649,19,0.133699047491448,1
473,665,19,0.0702663794736798,1
473,666,19,0.0761677463597256,1
474,648,19,0.14281908039784,1
474,649,19,0.132749009123339,1
474,650,19,0.0849805696459046,1
474,663,19,0.0763115129627857,1
474,664,19,0.084077437213491,1
474,665,19,0.130878845328363,1
474,666,19,0.152105820749293,1
474,667,19,0.0890914786859332,1
475,649,19,0.0749248618542027,1
475,655,19,0.0767858852510344,1
475,656,19,0.101833307505419,1
475,657,19,0.0898236808812197,1
475,662,19,0.0828546484063794,1
475,663,19,0.102806634122537,1
475,664,19,0.10617859048975,1
475,665,19,0.153900189919025,1
475,666,19,0.181706167562114,1
475,667,19,0.109045752496515,1
476,655,19,0.0906392487785888,1
476,656,19,0.138371264428292,1
476,657,19,0.13486686213462,1
476,658,19,0.0833205092229612,1
476,662,19,0.0769546771381368,1
476,663,19,0.094696231865474,1
476,664,19,0.0824307998785178,1
476,665,19,0.0954318961512766,1
476,666,19,0.111975124316603,1
476,667,19,0.0747112185245658,1
477,656,19,0.110585160861903,1
477,657,19,0.1213960596091,1
477,658,19,0.0824692841891861,1
478,657,19,0.0733615722519842,1
466,670,20,0.24554238475695,1
466,671,20,0.255543633505446,1
467,670,20,0.227591169901002,1
467,671,20,0.235023643322928,1
471,662,20,0.0724649746651643,1
472,662,20,0.0813504719033026,1
472,663,20,0.068429381068302,1
474,663,20,0.0767407942174607,1
474,664,20,0.0774563508253001,1
474,665,20,0.102796954644554,1
474,666,20,0.112694819859644,1
474,667,20,0.0717225958404887,1
475,656,20,0.0914945169111502,1
475,657,20,0.0843322063450032,1
475,662,20,0.0829072326497034,1
475,663,20,0.109107351352688,1
475,664,20,0.0998958006591054,1
475,665,20,0.119479570886699,1
475,666,20,0.133895584020888,1
475,667,20,0.0877571901989631,1
476,655,20,0.083715367235082,1
476,656,20,0.122942883317151,1
476,657,20,0.120634220002267,1
476,658,20,0.0780619111870519,1
476,662,20,0.0801816449879903,1
476,663,20,0.104759301091855,1
476,664,20,0.0844385308584154,1
476,665,20,0.0797356103299006,1
476,666,20,0.0873122935983095,1
477,656,20,0.102649845746497,1
477,657,20,0.109048603629881,1
477,658,20,0.0754718182477711,1
477,662,20,0.0737544296789279,1
477,663,20,0.074072043540017,1
478,657,20,0.0678719006383376,1
478,661,20,0.077133753470596,1
478,662,20,0.0871556609564455,1
479,661,20,0.0729510270165731,1
479,662,20,0.0816907390971462,1
493,678,20,0.0837392364923604,1
493,679,20,0.0746555255875084,1
494,678,20,0.0877908766990718,1
494,679,20,0.0764003233712338,1
498,686,20,0.0754448822251912,1
499,685,20,0.0699680886299006,1
499,686,20,0.0877009821411714,1
499,687,20,0.075808791064826,1
500,686,20,0.0717501428202185,1
472,662,21,0.0734967794651696,1
472,663,21,0.0679612621061758,1
474,663,21,0.0711554778609734,1
474,664,21,0.069008843976111,1
474,665,21,0.0750822611873921,1
474,666,21,0.0739841256081899,1
475,662,21,0.0732023999451049,1
475,663,21,0.0974488274270788,1
475,664,21,0.0862760982925113,1
475,665,21,0.0839596362893022,1
475,666,21,0.0844693782047098,1
476,657,21,0.095790947282592,1
476,658,21,0.0680854361520069,1
476,662,21,0.0752867461495564,1
476,663,21,0.0983926364281691,1
476,664,21,0.0807585203125762,1
477,656,21,0.0852391782238196,1
477,657,21,0.0882736406634678,1
477,662,21,0.0793423036697584,1
477,663,21,0.0746144956220488,1
478,661,21,0.088157277285514,1
478,662,21,0.104702314363186,1
478,663,21,0.0695102361438033,1
479,661,21,0.0813809958016941,1
479,662,21,0.097069452985865,1
493,678,21,0.0952488785462229,1
493,679,21,0.089442820975563,1
494,677,21,0.0685023604988362,1
494,678,21,0.09885118372828,1
494,679,21,0.0909249610928111,1
498,685,21,0.0787704717365472,1
498,686,21,0.0972047859843459,1
498,687,21,0.0757256589640064,1
499,685,21,0.0913378183817504,1
499,686,21,0.112523045064104,1
499,687,21,0.0865683334727753,1
500,686,21,0.084846901805146,1
500,687,21,0.0681792600029498,1
475,663,22,0.080542918326194,1
475,664,22,0.0761856498001284,1
476,663,22,0.0846422970474621,1
476,664,22,0.0757402800071724,1
477,662,22,0.0764483673643654,1
477,663,22,0.0700518796060778,1
478,661,22,0.0897020405106279,1
478,662,22,0.104316632687865,1
478,663,22,0.0693736992003505,1
479,661,22,0.0803949948186042,1
479,662,22,0.0953785691757311,1
493,678,22,0.0941958938983542,1
493,679,22,0.0932220461707266,1
494,678,22,0.097138988295211,1
494,679,22,0.0939195256346599,1
498,686,22,0.0976902513377086,1
499,685,22,0.0969845838500114,1
499,686,22,0.118671693861687,1
499,687,22,0.0855237644601578,1
500,686,22,0.0889488681096372,1
476,663,23,0.0677824912522916,1
478,661,23,0.0803940723931033,1
478,662,23,0.0869461385926825,1
479,661,23,0.0717754076953,1
479,662,23,0.0795835059586771,1
493,678,23,0.0791858267620699,1
493,679,23,0.0806784489872822,1
494,678,23,0.08238455281818,1
494,679,23,0.0826026405615937,1
498,686,23,0.0818931755559255,1
499,685,23,0.0859197365706108,1
499,686,23,0.105232325680508,1
499,687,23,0.0786970011443826,1
500,686,23,0.0883408339704059,1
478,661,24,0.0680630343898436,1
478,662,24,0.0690338572806014,1
499,686,24,0.0804366896491975,1
