x,y,z,signal,cytoplasm.p
666,620,18,0.0694552979185193,1
667,614,18,0.0691421464405349,1
667,615,18,0.0711847379166332,1
700,611,18,0.0748186391669822,1
701,612,18,0.0714979253332735,1
701,614,18,0.0699787444413681,1
668,627,19,0.0690269031506893,1
669,627,19,0.0760898193742323,1
669,628,19,0.078065954285838,1
670,627,19,0.0704801485886123,1
670,628,19,0.0743043570013821,1
699,611,19,0.0710478176275178,1
699,614,19,0.075334484664113,1
700,611,19,0.0705798723688951,1
700,612,19,0.0800471745172504,1
700,614,19,0.0744320230866092,1
668,627,20,0.0695107931929694,1
669,627,20,0.0787554972965985,1
670,627,20,0.0705904922417067,1
699,612,20,0.0711848277632729,1
700,612,20,0.069470877325842,1
704,618,21,0.0690405239012666,1
705,619,21,0.0681679932343324,1
704,618,22,0.0728889968965293,1
704,619,22,0.0774656529473963,1
705,619,22,0.0800137815161647,1
704,618,23,0.0718813668323774,1
704,619,23,0.0805107532291841,1
705,619,23,0.0838750546626956,1
705,618,24,0.0745510878535298,1
705,619,24,0.0690198112559295,1
669,610,25,0.069722771364884,1
669,610,26,0.0684275422070762,1
671,603,35,0.0694597183731922,1
671,602,36,0.0751469208190908,1
699,629,36,0.0693756578570958,1
679,597,37,0.0693988802185684,1
680,596,37,0.0688262815940318,1
680,597,37,0.0789784427483316,1
680,598,37,0.07069006627759,1
698,629,37,0.069994832979649,1
699,628,37,0.0745821388522075,1
649,631,38,0.0684033854405509,1
673,596,38,0.069558244198279,1
674,596,38,0.0808626226191,1
679,597,38,0.0717968031750988,1
680,596,38,0.068670469551477,1
680,597,38,0.0824867563657183,1
680,598,38,0.0721880253932,1
681,597,38,0.0736873801266133,1
699,628,38,0.0701977126818508,1
648,631,39,0.0756895645739539,1
648,632,39,0.0782764050648779,1
649,631,39,0.0703807602357844,1
662,600,39,0.0709485909986413,1
663,600,39,0.0704458271722498,1
673,595,39,0.0722803458103721,1
673,596,39,0.072485807106021,1
674,595,39,0.111822408988229,1
674,596,39,0.0979877155924027,1
675,595,39,0.164380728561849,1
675,596,39,0.129197024049286,1
675,597,39,0.0722085224066019,1
676,595,39,0.169863901268558,1
676,597,39,0.0692429723395979,1
679,597,39,0.0710367125828518,1
680,597,39,0.0797595035462828,1
680,598,39,0.0705426279418545,1
681,597,39,0.0700493579103905,1
648,631,40,0.0755897569368075,1
648,632,40,0.0771523277659084,1
662,599,40,0.071817497851108,1
662,600,40,0.0833932850011122,1
663,599,40,0.0697814412206033,1
663,600,40,0.0797155565599212,1
673,595,40,0.0732088808827147,1
673,596,40,0.0702587844377378,1
674,595,40,0.131071069219097,1
674,596,40,0.107695213747312,1
675,594,40,0.166284746570662,1
675,595,40,0.225969162524856,1
675,596,40,0.167822705410263,1
675,597,40,0.0821086457672362,1
676,594,40,0.193728774030861,1
676,595,40,0.254476399180522,1
676,596,40,0.180441054997931,1
676,597,40,0.08400291841053,1
677,595,40,0.172993894645303,1
677,597,40,0.0746237558157131,1
678,596,40,0.0803185832464337,1
678,597,40,0.070854299945172,1
679,597,40,0.0708214220648205,1
680,597,40,0.0730363573651771,1
662,599,41,0.0712898465055216,1
662,600,41,0.084333158719384,1
663,599,41,0.068980518325504,1
663,600,41,0.0782698522499563,1
673,595,41,0.071080785354509,1
674,595,41,0.135128447631197,1
674,596,41,0.110437189436105,1
675,594,41,0.187291969090456,1
675,595,41,0.25416322973321,1
675,596,41,0.190206821693569,1
675,597,41,0.0904034852062596,1
676,594,41,0.234794282821121,1
676,595,41,0.307078372241481,1
676,596,41,0.219716123911502,1
676,597,41,0.0998177119496606,1
677,595,41,0.213434597923589,1
677,597,41,0.0856859316550269,1
678,596,41,0.0906051070555057,1
678,597,41,0.078388881078221,1
679,597,41,0.0688006513426155,1
662,600,42,0.072546621301541,1
674,596,42,0.102192202902559,1
675,595,42,0.235229068679921,1
675,596,42,0.184308629388793,1
675,597,42,0.0893507161903261,1
676,594,42,0.229794856402069,1
676,595,42,0.3008459624166,1
676,596,42,0.225979776407892,1
676,597,42,0.104929207077289,1
677,595,42,0.215834629281264,1
677,597,42,0.0886720745718484,1
678,596,42,0.092328599206072,1
678,597,42,0.0768338214281983,1
674,596,43,0.0875700695973634,1
675,595,43,0.179613040346077,1
675,597,43,0.0825440485729622,1
676,594,43,0.179366081882442,1
676,595,43,0.236057095311328,1
676,596,43,0.190480494558073,1
676,597,43,0.0983062818278726,1
677,595,43,0.178111259753392,1
677,596,43,0.145262405856295,1
677,597,43,0.0847379777289587,1
678,596,43,0.0858451818289939,1
678,597,43,0.0696135238407939,1
674,596,44,0.0708703106163652,1
675,596,44,0.105468227017685,1
675,597,44,0.0706936002454179,1
676,595,44,0.151769794316843,1
676,596,44,0.133109701453273,1
676,597,44,0.0821797444081129,1
677,596,44,0.11068200355994,1
677,597,44,0.0747600172294708,1
678,596,44,0.0732534028875704,1
688,597,44,0.0985506586980604,1
688,598,44,0.0708039019700804,1
689,598,44,0.074350256654713,1
690,598,44,0.0680250651999095,1
644,620,45,0.0753953228187368,1
644,621,45,0.0934014758999686,1
644,622,45,0.0744966228205481,1
645,621,45,0.0896618730729094,1
645,622,45,0.0727305134138877,1
675,596,45,0.0699800981307395,1
676,596,45,0.0828253224631837,1
677,596,45,0.0770353893694606,1
687,598,45,0.078282814125176,1
688,596,45,0.175927579104096,1
688,597,45,0.174197671903456,1
688,598,45,0.101870168586797,1
689,596,45,0.158797071373308,1
689,597,45,0.156971375675204,1
689,598,45,0.0929310987922982,1
690,598,45,0.0726384805059626,1
642,618,46,0.0791570698475923,1
642,619,46,0.0761762758007204,1
643,618,46,0.0860843475940795,1
643,619,46,0.0842363819088831,1
643,620,46,0.0681126357247298,1
644,620,46,0.0850851331651788,1
644,621,46,0.103043098498655,1
644,622,46,0.081023633787205,1
645,620,46,0.0759765946388917,1
645,621,46,0.102702471918253,1
645,622,46,0.0829288377716615,1
687,596,46,0.139832853624155,1
687,597,46,0.140692410436317,1
687,598,46,0.0890633806468134,1
688,595,46,0.131918526683781,1
688,596,46,0.241102283618864,1
688,597,46,0.236527029175576,1
688,598,46,0.122719907916538,1
689,595,46,0.12065044031562,1
689,596,46,0.210984204529478,1
689,597,46,0.201656637864949,1
689,598,46,0.102723567909253,1
690,596,46,0.11278071324719,1
690,597,46,0.108955929815926,1
690,598,46,0.0728362509292538,1
642,618,47,0.0871965232081777,1
642,619,47,0.0845844238319482,1
643,618,47,0.0948553023461617,1
643,619,47,0.0947683128296114,1
643,620,47,0.0703482716908716,1
644,619,47,0.0723822378895595,1
644,620,47,0.082885729353937,1
644,621,47,0.0918421215805687,1
644,622,47,0.072985821625238,1
645,620,47,0.0753554668493692,1
645,621,47,0.0963636537230962,1
645,622,47,0.0800042338132533,1
686,598,47,0.0682471840625574,1
687,596,47,0.160689205666577,1
687,597,47,0.159952954382729,1
687,598,47,0.0994278134720508,1
687,599,47,0.0691178279500581,1
688,595,47,0.150892088483463,1
688,596,47,0.268487108133282,1
688,597,47,0.259443768318532,1
688,598,47,0.136967919814054,1
688,599,47,0.0710486921348108,1
689,595,47,0.134614141506493,1
689,596,47,0.230648567192876,1
689,597,47,0.216871435544212,1
689,598,47,0.112927774227039,1
690,596,47,0.119214894665716,1
690,598,47,0.0757138650951028,1
642,618,48,0.0806524653390831,1
642,619,48,0.0781889423560252,1
643,618,48,0.0896757573736299,1
643,619,48,0.0908626494532964,1
644,619,48,0.0706343793303085,1
644,620,48,0.0713455813710108,1
644,621,48,0.071611479506293,1
645,621,48,0.0798293802728597,1
645,622,48,0.0692916512489833,1
686,598,48,0.0699315030782178,1
687,598,48,0.0993139538204564,1
687,599,48,0.0700881836382896,1
688,596,48,0.237149870041029,1
688,597,48,0.222956760430141,1
688,598,48,0.129280293914953,1
688,599,48,0.077136089483228,1
689,596,48,0.190199621982842,1
689,598,48,0.110075658537534,1
689,599,48,0.0724458493104618,1
690,598,48,0.0766626575898081,1
643,618,49,0.0696530683418105,1
643,619,49,0.0694900386192004,1
686,598,49,0.0682475075104603,1
688,599,49,0.0714457304253881,1
689,599,49,0.0706940794274963,1
