x,y,z,signal,cytoplasm.p
493,645,1,0.0678879712072906,1
493,646,1,0.0720769390078842,1
493,647,1,0.077504017462545,1
493,648,1,0.0711455468123994,1
494,644,1,0.0707708923146574,1
494,645,1,0.0758014116608192,1
494,646,1,0.0888163622854187,1
494,647,1,0.104707573386496,1
494,648,1,0.0953867092812873,1
495,632,1,0.068416503049946,1
495,645,1,0.0775083540603541,1
495,646,1,0.101412753354346,1
495,647,1,0.12884414238723,1
495,648,1,0.117455649542328,1
495,649,1,0.0849825882004097,1
496,631,1,0.0695641381378429,1
496,632,1,0.0700971982511387,1
496,646,1,0.0849566045522106,1
496,647,1,0.107151210313302,1
496,648,1,0.101117936580635,1
496,649,1,0.0779936816488694,1
497,631,1,0.0684976106064845,1
497,632,1,0.07196944049838,1
497,647,1,0.0682628353471919,1
497,648,1,0.0695469414910057,1
498,631,1,0.0706913900180815,1
498,632,1,0.0760579956944532,1
498,633,1,0.0688619207611098,1
499,631,1,0.0698688260623682,1
499,632,1,0.0737382213451273,1
504,620,1,0.0700565755904458,1
505,620,1,0.070714600400002,1
506,620,1,0.0681753067508034,1
507,620,1,0.068502731864947,1
507,621,1,0.0686539916777573,1
508,620,1,0.068529889509238,1
508,621,1,0.074679604486946,1
508,622,1,0.0687647905538262,1
509,621,1,0.0692399115640723,1
526,619,1,0.0744869313630133,1
526,620,1,0.0834516014600486,1
527,619,1,0.103215052987475,1
527,620,1,0.117944762669263,1
527,621,1,0.0865727659070002,1
528,619,1,0.101670780923991,1
528,620,1,0.114534603510852,1
528,621,1,0.0841151069146261,1
529,619,1,0.0700282858784946,1
529,620,1,0.0764657377147059,1
542,646,1,0.0734834402340632,1
542,647,1,0.0839745688008191,1
543,645,1,0.0720496435987456,1
543,646,1,0.112971799080488,1
543,647,1,0.130481495569435,1
543,648,1,0.0958737319764047,1
544,645,1,0.0785544983840543,1
544,646,1,0.11963997708743,1
544,647,1,0.136597032885404,1
544,648,1,0.100393305462187,1
545,645,1,0.0680627169317166,1
545,646,1,0.0863580024892551,1
545,647,1,0.0945620489039812,1
545,648,1,0.0769018413242216,1
546,645,1,0.0724323184065241,1
546,646,1,0.0774293009969766,1
546,647,1,0.077402305076637,1
546,648,1,0.0705501391209328,1
547,646,1,0.103824608529805,1
547,647,1,0.0965579141376635,1
547,648,1,0.0805917050515471,1
493,647,2,0.0695826764944994,1
494,646,2,0.0757262579416044,1
494,647,2,0.0894957226770139,1
494,648,2,0.0808726614836416,1
495,645,2,0.0681449924945711,1
495,646,2,0.0868023540202945,1
495,647,2,0.11203485436267,1
495,648,2,0.103037947291313,1
495,649,2,0.079079430371346,1
496,646,2,0.0706936481636257,1
496,647,2,0.0913798067113667,1
496,648,2,0.0899190680636933,1
496,649,2,0.0756011494907205,1
508,620,2,0.0696448922975985,1
508,621,2,0.0701524299754458,1
527,619,2,0.0829713172629081,1
527,620,2,0.0969014637287438,1
527,621,2,0.0709144432857822,1
528,619,2,0.0837671907768567,1
528,620,2,0.0972195507821354,1
528,621,2,0.0714381174201182,1
540,624,2,0.0837284548955972,1
543,646,2,0.0883985993699522,1
543,647,2,0.102877936415797,1
543,648,2,0.0744061232952738,1
544,646,2,0.0985495625690561,1
544,647,2,0.112865085231637,1
544,648,2,0.0809859101780861,1
545,646,2,0.0714760866100523,1
545,647,2,0.0793594344290598,1
546,646,2,0.0702465353458597,1
546,647,2,0.0743528442379361,1
546,648,2,0.0683367551725549,1
547,646,2,0.0889417582455496,1
547,647,2,0.0881931500538553,1
547,648,2,0.0764064389325088,1
494,646,3,0.071912160270688,1
494,647,3,0.0803793135850898,1
494,648,3,0.0767551517104836,1
494,649,3,0.0687016343558983,1
495,646,3,0.078233709941696,1
495,647,3,0.0947620654932648,1
495,648,3,0.0938052586782989,1
495,649,3,0.0833126206879962,1
495,650,3,0.0733118271624744,1
496,647,3,0.0811693111288025,1
496,648,3,0.0864691667416587,1
496,649,3,0.0826911814301227,1
496,650,3,0.0750015309867404,1
498,630,3,0.0694947226240164,1
508,620,3,0.0705561408764643,1
540,623,3,0.118565267522083,1
540,624,3,0.091189751119537,1
541,624,3,0.13809319506822,1
541,625,3,0.085925217215632,1
543,647,3,0.0694280983457964,1
544,646,3,0.070813395765008,1
544,647,3,0.0777910595070347,1
547,646,3,0.0753902494784822,1
547,647,3,0.079111876987827,1
547,648,3,0.071879725633759,1
494,649,4,0.0697714802231493,1
495,647,4,0.0748705705247245,1
495,648,4,0.0795977376664044,1
495,649,4,0.0855461542427692,1
495,650,4,0.0826138713915553,1
496,647,4,0.0697343975200602,1
496,648,4,0.0784605187989359,1
496,649,4,0.0870645025558135,1
496,650,4,0.0826227781884368,1
496,651,4,0.0736497343845821,1
496,652,4,0.0692422715358083,1
496,653,4,0.0714944033449976,1
498,630,4,0.0758782305377563,1
499,630,4,0.070756409036339,1
505,659,4,0.0742672802880689,1
506,659,4,0.070470594895925,1
540,623,4,0.103721895851309,1
540,624,4,0.0877707031335729,1
541,624,4,0.147838812157463,1
541,625,4,0.0931812917349621,1
542,625,4,0.0935907767800249,1
547,647,4,0.067853685729584,1
494,649,5,0.0742624764877334,1
495,648,5,0.0736479554211162,1
495,649,5,0.0874423076757206,1
495,650,5,0.0896560989288651,1
495,651,5,0.079940328893328,1
496,648,5,0.0754401562919434,1
496,649,5,0.0879424060518013,1
496,650,5,0.0867150170967374,1
496,651,5,0.0775286114827168,1
496,652,5,0.0699498138233871,1
496,653,5,0.0720385086051997,1
497,649,5,0.0678946617870597,1
497,650,5,0.0683702859384882,1
497,651,5,0.0686764533376805,1
497,652,5,0.0711193056038331,1
497,653,5,0.0746531236873406,1
498,630,5,0.0729737102982075,1
505,658,5,0.0699959231188773,1
505,659,5,0.0803805594584936,1
506,659,5,0.0723476469332778,1
540,623,5,0.0803314912136695,1
540,624,5,0.0743373666568051,1
541,624,5,0.129702081959878,1
541,625,5,0.0847119222034479,1
542,625,5,0.0885121235940918,1
488,637,6,0.0678716370881945,1
492,649,6,0.0694708533667381,1
493,648,6,0.0686954049888796,1
493,649,6,0.0780589761968219,1
494,625,6,0.0941707428290162,1
494,649,6,0.0822963473771059,1
494,650,6,0.0845544450031707,1
495,625,6,0.110304108593393,1
495,626,6,0.0982336557941211,1
495,648,6,0.0739681688449805,1
495,649,6,0.089504755259191,1
495,650,6,0.0946500387131201,1
495,651,6,0.0807141839907759,1
496,625,6,0.107622821314824,1
496,648,6,0.0738615927609772,1
496,649,6,0.085451815271092,1
496,650,6,0.0879220767521269,1
496,651,6,0.080047000813747,1
496,652,6,0.0726343834991926,1
496,653,6,0.0699664474312822,1
497,649,6,0.0678828379692762,1
497,650,6,0.071894035208574,1
497,651,6,0.0735399477806538,1
497,652,6,0.0729898826933521,1
497,653,6,0.0701458891400761,1
505,659,6,0.0724725936602103,1
492,649,7,0.0724067899812994,1
493,625,7,0.0919334297256002,1
493,648,7,0.0693622527384537,1
493,649,7,0.0792739363667284,1
493,650,7,0.0753951730743373,1
494,624,7,0.119513724589334,1
494,625,7,0.143508156206074,1
494,626,7,0.117511629988633,1
494,648,7,0.0704192205873488,1
494,649,7,0.0846445192543505,1
494,650,7,0.0856373246229532,1
495,624,7,0.134312065124295,1
495,625,7,0.1624125840114,1
495,626,7,0.130849735017102,1
495,627,7,0.0819172005473793,1
495,635,7,0.0682573367328427,1
495,648,7,0.0729803649393207,1
495,649,7,0.0864765341661135,1
495,650,7,0.0894009943698981,1
495,651,7,0.076786304535353,1
496,624,7,0.116987213122075,1
496,625,7,0.136910729433002,1
496,626,7,0.115097091393535,1
496,635,7,0.0780962326034144,1
496,636,7,0.0784867420381741,1
496,648,7,0.0715278203051872,1
496,649,7,0.0803263939143109,1
496,650,7,0.0835406394799839,1
496,651,7,0.0800210950326357,1
496,652,7,0.0764494335444897,1
496,653,7,0.0688518040294804,1
497,625,7,0.0951815654437653,1
497,627,7,0.0746866304941699,1
497,628,7,0.0728578500614359,1
497,629,7,0.0780340826878511,1
497,630,7,0.0726367494607045,1
497,635,7,0.0729664926181522,1
497,636,7,0.0743165641648283,1
497,649,7,0.0697200100781575,1
497,650,7,0.0753605461793998,1
497,651,7,0.0769174566702002,1
497,652,7,0.0761441406525904,1
497,653,7,0.0699730661337395,1
498,629,7,0.0724559959909711,1
463,620,8,0.0696693725120267,1
463,621,8,0.0686641563275946,1
491,649,8,0.0693530584323252,1
492,649,8,0.0715490720303625,1
493,624,8,0.0927851998289895,1
493,625,8,0.116564227121955,1
493,626,8,0.0996091778989342,1
493,648,8,0.0686341834885931,1
493,649,8,0.0778066988121172,1
493,650,8,0.0732277666463781,1
494,623,8,0.0800893485299221,1
494,624,8,0.152833710305874,1
494,625,8,0.204845858146579,1
494,626,8,0.167006526555744,1
494,627,8,0.0946495355719378,1
494,648,8,0.0736480931859638,1
494,649,8,0.0882096279275749,1
494,650,8,0.0863143969201243,1
495,623,8,0.0902053194577537,1
495,624,8,0.172017621058404,1
495,625,8,0.226862885019206,1
495,626,8,0.181980810770326,1
495,627,8,0.102446912136312,1
495,634,8,0.0683680936804797,1
495,635,8,0.07833656038504,1
495,636,8,0.0751367501794776,1
495,648,8,0.0745480690064361,1
495,649,8,0.0856459978185715,1
495,650,8,0.0839537303701864,1
495,651,8,0.0715323126371719,1
496,623,8,0.0862572364879519,1
496,624,8,0.134511285073373,1
496,625,8,0.164571371151725,1
496,626,8,0.135307350260153,1
496,627,8,0.0869602624844421,1
496,634,8,0.0772402636670635,1
496,635,8,0.0958224774633481,1
496,636,8,0.0960844702646916,1
496,637,8,0.0744690339123865,1
496,649,8,0.0782391606378374,1
496,650,8,0.0786478490426948,1
496,651,8,0.0779613308688041,1
496,652,8,0.0778072678408353,1
497,624,8,0.0872744801425509,1
497,625,8,0.096326013970841,1
497,626,8,0.0905266469799502,1
497,627,8,0.0757359074707074,1
497,628,8,0.0742928626212774,1
497,629,8,0.0811815841797845,1
497,630,8,0.0769131380417189,1
497,634,8,0.0716811166418307,1
497,635,8,0.0866824327154089,1
497,636,8,0.0880183803703253,1
497,637,8,0.0699540665643325,1
497,650,8,0.0764682414410653,1
497,651,8,0.0763276673886024,1
497,652,8,0.0760847340544257,1
497,653,8,0.0703122431883549,1
498,625,8,0.0777384213557269,1
498,626,8,0.0803595832630134,1
498,627,8,0.0749311391394292,1
498,628,8,0.0729707992670814,1
498,629,8,0.0755948901748219,1
498,630,8,0.0713240002081567,1
499,626,8,0.0699879746861525,1
499,627,8,0.0681553068888078,1
503,625,8,0.0735782464082668,1
504,658,8,0.0716340370026318,1
462,620,9,0.075264056878146,1
462,621,9,0.0692663624147978,1
463,620,9,0.0766813277215362,1
463,621,9,0.0761673150958551,1
464,622,9,0.0707737374582477,1
465,622,9,0.068762514438954,1
465,623,9,0.069826532254177,1
493,624,9,0.0959577745231731,1
493,625,9,0.124516241732791,1
493,626,9,0.106831811498971,1
493,649,9,0.0733880290924857,1
493,650,9,0.0690386970195929,1
494,623,9,0.0829979717660169,1
494,624,9,0.163949332916253,1
494,625,9,0.229813855971476,1
494,626,9,0.189196633995074,1
494,627,9,0.107189425084051,1
494,648,9,0.0746263733478161,1
494,649,9,0.0867155441970236,1
494,650,9,0.08473468335217,1
495,623,9,0.0978817983837572,1
495,624,9,0.192447776580781,1
495,625,9,0.264034715974886,1
495,626,9,0.21322497972341,1
495,627,9,0.118936873223852,1
495,634,9,0.0701475243489185,1
495,635,9,0.0809552844535029,1
495,636,9,0.0773123685903048,1
495,648,9,0.0727982997086477,1
495,649,9,0.082032695407816,1
495,650,9,0.0806885956677915,1
495,651,9,0.0698031601483049,1
496,623,9,0.0919344360079648,1
496,624,9,0.143509054672471,1
496,625,9,0.180693919380682,1
496,626,9,0.147747456094223,1
496,627,9,0.093267538519291,1
496,634,9,0.0812287416860712,1
496,635,9,0.102316011572056,1
496,636,9,0.101524486635468,1
496,637,9,0.0763010188752696,1
496,648,9,0.071867159083754,1
496,649,9,0.0771893865098936,1
496,650,9,0.076633151953333,1
496,651,9,0.0768412667197409,1
496,652,9,0.0767014413892753,1
497,624,9,0.0908858778045449,1
497,625,9,0.0996138199753183,1
497,626,9,0.0939166325728618,1
497,627,9,0.0817129252273743,1
497,628,9,0.077484436884868,1
497,629,9,0.0781584424167376,1
497,630,9,0.0747785795452313,1
497,634,9,0.0740598184072429,1
497,635,9,0.0913935472574637,1
497,636,9,0.0912528054912733,1
497,637,9,0.068817165154991,1
497,649,9,0.0732001238302327,1
497,650,9,0.0718796417768953,1
497,651,9,0.0705418013527693,1
497,652,9,0.0717944372135869,1
498,624,9,0.0787290164969931,1
498,625,9,0.0823986826997157,1
498,626,9,0.0876450975312827,1
498,627,9,0.0886086907624333,1
498,628,9,0.0843799927777677,1
498,629,9,0.0773283313432902,1
498,630,9,0.0726063573373845,1
498,635,9,0.069313957174731,1
498,648,9,0.0699508081261997,1
499,625,9,0.0703581847701177,1
499,626,9,0.0768781397806707,1
499,627,9,0.0813958324767954,1
499,628,9,0.0746551302622937,1
499,647,9,0.0693674818128838,1
499,648,9,0.0756198974895363,1
499,649,9,0.071664063749617,1
500,648,9,0.074026161856014,1
500,649,9,0.0684117890962501,1
502,625,9,0.070901337655939,1
502,626,9,0.0684805696938228,1
503,625,9,0.0783236284587003,1
503,626,9,0.0735115921811669,1
520,669,9,0.0839230627171713,1
548,648,9,0.0689644777054309,1
549,647,9,0.121189843601678,1
549,648,9,0.142445330356271,1
550,647,9,0.165247425186979,1
550,648,9,0.189992878875133,1
462,620,10,0.0792821603291483,1
462,621,10,0.0748579440769597,1
463,620,10,0.0752995403110486,1
463,621,10,0.0752572285335294,1
464,622,10,0.0785616202276939,1
464,623,10,0.0805472728933311,1
465,622,10,0.0843469531734648,1
465,623,10,0.0932487306227153,1
465,624,10,0.0687241079953734,1
466,623,10,0.0704625566165605,1
467,625,10,0.0689259814152106,1
467,626,10,0.0679529303277883,1
468,625,10,0.0695859349326323,1
468,626,10,0.0700201098342825,1
469,631,10,0.0692203848943792,1
469,632,10,0.0752212060207886,1
470,632,10,0.0696894981593179,1
485,637,10,0.0684567962729601,1
489,636,10,0.0688329781635768,1
493,624,10,0.0900543890826222,1
493,625,10,0.117906200491507,1
493,626,10,0.106018939000792,1
493,649,10,0.0697277189198431,1
494,623,10,0.0805301840624616,1
494,624,10,0.154217588148179,1
494,625,10,0.223113860274531,1
494,626,10,0.194288566514354,1
494,627,10,0.119675268847501,1
494,635,10,0.0683781684836772,1
494,648,10,0.0701364792020123,1
494,649,10,0.0798532914585699,1
494,650,10,0.0777509998852838,1
495,623,10,0.0990300863572358,1
495,624,10,0.1918214017475,1
495,625,10,0.271455641108724,1
495,626,10,0.230333984158432,1
495,627,10,0.13779624593426,1
495,628,10,0.0745122321767507,1
495,634,10,0.0703960940622919,1
495,635,10,0.0790173583228704,1
495,636,10,0.0768478015653345,1
495,637,10,0.0683155813144674,1
495,648,10,0.0689514559324514,1
495,649,10,0.0788001331071977,1
495,650,10,0.0792323313827748,1
495,651,10,0.0695168728155886,1
496,623,10,0.0919746753229951,1
496,624,10,0.144281364407716,1
496,625,10,0.189034394922893,1
496,626,10,0.160198283627297,1
496,627,10,0.10439957910563,1
496,628,10,0.0707398173568757,1
496,634,10,0.0790968845785503,1
496,635,10,0.0960877346926004,1
496,636,10,0.0945498956485188,1
496,637,10,0.0728250081197403,1
496,648,10,0.0726515501971499,1
496,649,10,0.0782386095784472,1
496,650,10,0.0776023036965926,1
496,651,10,0.0751528686666385,1
496,652,10,0.0721976509631991,1
497,624,10,0.0953937352885112,1
497,625,10,0.109923925532422,1
497,626,10,0.103045626184119,1
497,627,10,0.0890630811580144,1
497,628,10,0.0792336072050584,1
497,629,10,0.0729967769255045,1
497,630,10,0.0686706851834122,1
497,634,10,0.0714387163977161,1
497,635,10,0.0877266782801235,1
497,636,10,0.0869095650205516,1
497,649,10,0.0754969513477811,1
497,650,10,0.0700135989477928,1
498,623,10,0.0701642358239014,1
498,624,10,0.0830805468176704,1
498,625,10,0.0904443294886638,1
498,626,10,0.0940882815831064,1
498,627,10,0.097633761760446,1
498,628,10,0.0897464786586199,1
498,629,10,0.074424757488346,1
498,630,10,0.0681039565393355,1
498,635,10,0.0690005481363794,1
498,647,10,0.0708135275400795,1
498,648,10,0.0784005252027252,1
498,649,10,0.0812290052362142,1
499,624,10,0.0690871183686112,1
499,625,10,0.0741084134597646,1
499,626,10,0.08060254654607,1
499,627,10,0.0890559473348228,1
499,628,10,0.0799323205628434,1
499,647,10,0.0741096413638404,1
499,648,10,0.0895320985865375,1
499,649,10,0.0976942045898551,1
499,650,10,0.0893800481232978,1
500,648,10,0.0908004755786291,1
500,649,10,0.102372854546101,1
500,650,10,0.0930188909388298,1
500,651,10,0.072916579814915,1
501,649,10,0.0715230344741796,1
501,650,10,0.070252021980657,1
502,625,10,0.068315671161107,1
503,625,10,0.0718427148079817,1
503,626,10,0.0694754115862585,1
519,669,10,0.0729333451978816,1
520,669,10,0.0730423651104845,1
520,670,10,0.0680318036978864,1
547,659,10,0.0697189019696013,1
547,660,10,0.0692613190234231,1
548,647,10,0.0729956029294126,1
548,648,10,0.0921352192885737,1
548,649,10,0.0677974836615683,1
549,646,10,0.0822770543086759,1
549,647,10,0.178300129369578,1
549,648,10,0.233820752551621,1
549,649,10,0.155855300716943,1
550,646,10,0.110060300751923,1
550,647,10,0.246154420066535,1
550,648,10,0.316072260465744,2
550,649,10,0.204054369148648,1
551,647,10,0.18466665027864,1
551,648,10,0.227624065750681,1
462,620,11,0.0769433684410875,1
462,621,11,0.0775405910346758,1
463,620,11,0.0704475402481799,1
463,621,11,0.0726267645041467,1
464,622,11,0.0814988386543149,1
464,623,11,0.0909096871640634,1
464,624,11,0.0690284604924439,1
465,622,11,0.092685997159217,1
465,623,11,0.11038505442598,1
465,624,11,0.0823657389318284,1
466,623,11,0.0795738504397981,1
467,625,11,0.0745136337843299,1
467,626,11,0.0718282075705593,1
468,625,11,0.0759047352964656,1
468,626,11,0.0738369628021495,1
469,631,11,0.0796529693907114,1
469,632,11,0.087818890881328,1
470,631,11,0.0743410563588085,1
470,632,11,0.0812593793902063,1
473,621,11,0.0680408003414077,1
473,622,11,0.0762884223763847,1
474,622,11,0.068232700784239,1
484,635,11,0.0711582511272519,1
484,636,11,0.0825935301123289,1
484,637,11,0.0719955199829948,1
485,635,11,0.0702567179650249,1
485,636,11,0.080994122160954,1
485,637,11,0.0735928434923288,1
489,636,11,0.0719333281389996,1
492,634,11,0.073794441382471,1
493,624,11,0.0826144464100493,1
493,625,11,0.105458775151189,1
493,626,11,0.101289986905871,1
493,633,11,0.0691542757368934,1
493,634,11,0.0767777930636861,1
493,635,11,0.0732918632391348,1
494,623,11,0.0735983720555579,1
494,624,11,0.130202935047732,1
494,625,11,0.189089249291314,1
494,626,11,0.179318978284139,1
494,627,11,0.1254861541776,1
494,628,11,0.0751392359365091,1
494,634,11,0.0710885660735063,1
494,635,11,0.074772230382693,1
494,636,11,0.075219648679034,1
494,637,11,0.0751721317861886,1
494,638,11,0.0710521063071191,1
494,649,11,0.0690442735010298,1
495,623,11,0.0894970823561613,1
495,624,11,0.166421373360754,1
495,625,11,0.2379354890585,1
495,626,11,0.216681128381792,1
495,627,11,0.14469458707299,1
495,628,11,0.085557888213913,1
495,634,11,0.0709731670494852,1
495,635,11,0.0774136497123422,1
495,636,11,0.0793270117716828,1
495,637,11,0.0760186728151478,1
495,638,11,0.0686639946036431,1
495,649,11,0.0733559957705473,1
495,650,11,0.0746499251469675,1
496,623,11,0.0834857551626838,1
496,624,11,0.135730444076241,1
496,625,11,0.182393398519347,1
496,626,11,0.162631055100476,1
496,627,11,0.113758640012259,1
496,628,11,0.0795592114273042,1
496,634,11,0.0754732617837821,1
496,635,11,0.0859174484761866,1
496,636,11,0.086462931384864,1
496,637,11,0.0714518040582314,1
496,648,11,0.0706214833426247,1
496,649,11,0.0772596286128053,1
496,650,11,0.0774125116549061,1
496,651,11,0.0718301302886487,1
497,623,11,0.0735976233335605,1
497,624,11,0.101657771130564,1
497,625,11,0.124493276931686,1
497,626,11,0.115170861474499,1
497,627,11,0.0945363228161492,1
497,628,11,0.079618019047871,1
497,629,11,0.0709226013606663,1
497,634,11,0.070530205146473,1
497,635,11,0.0843179027599642,1
497,636,11,0.0864965759565409,1
497,649,11,0.0773299545725806,1
497,650,11,0.071383820100864,1
498,624,11,0.0858807012005524,1
498,625,11,0.102684933854185,1
498,626,11,0.103796157093903,1
498,627,11,0.100355641750828,1
498,628,11,0.0872414644973519,1
498,629,11,0.0721782141401456,1
498,635,11,0.0677776335439722,1
498,636,11,0.0714344995954266,1
498,646,11,0.0679801119311833,1
498,647,11,0.0730937274395088,1
498,648,11,0.0802484729185936,1
499,625,11,0.0783188186685888,1
499,626,11,0.0848743050302522,1
499,627,11,0.0898530367732952,1
499,628,11,0.0777966299986957,1
499,646,11,0.0698481733147909,1
499,647,11,0.076517441460961,1
499,648,11,0.0911767533056615,1
499,649,11,0.113037998084613,1
499,650,11,0.115633739382643,1
500,648,11,0.087820058887644,1
500,649,11,0.121497418598226,1
500,650,11,0.135336244939478,1
500,651,11,0.110917689265181,1
501,649,11,0.0886566628782532,1
501,650,11,0.107438635703454,1
501,651,11,0.0943570009028749,1
547,659,11,0.073771632315541,1
547,660,11,0.0754017318790349,1
548,647,11,0.0776666159212846,1
548,648,11,0.0993188594469836,1
548,649,11,0.0708013024073053,1
548,659,11,0.0723416631470743,1
548,660,11,0.0708136113969432,1
549,646,11,0.0891253568588733,1
549,647,11,0.202551989578365,1
549,648,11,0.266639094529878,2
549,649,11,0.168818577544167,1
550,646,11,0.119008990126645,1
550,647,11,0.281184379009257,2
550,648,11,0.365812558154735,2
550,649,11,0.224553970133731,2
551,647,11,0.189893472552978,1
551,648,11,0.241574325884256,2
462,620,12,0.0689000636545473,1
462,621,12,0.0738258817165874,1
463,621,12,0.067854841756348,1
464,622,12,0.073069983967526,1
464,623,12,0.086027199141459,1
464,624,12,0.0678838382618648,1
465,622,12,0.0852521820274711,1
465,623,12,0.10674497172682,1
465,624,12,0.0814546580666901,1
466,623,12,0.0750078561901747,1
467,625,12,0.0692265064454302,1
468,625,12,0.075054816033854,1
468,626,12,0.0713465936431514,1
469,631,12,0.0747473248941702,1
469,632,12,0.0818399444167956,1
470,631,12,0.0703763936890954,1
470,632,12,0.0753497346337568,1
473,622,12,0.0710764307873719,1
483,636,12,0.0713175432296508,1
484,635,12,0.0944612050355903,1
484,636,12,0.103821781355543,1
484,637,12,0.0770957004237982,1
485,635,12,0.0882900766087556,1
485,636,12,0.0944611091991746,1
485,637,12,0.0730387952040008,1
487,639,12,0.068841399788604,1
489,635,12,0.0681905806795511,1
489,636,12,0.0705915584218311,1
491,634,12,0.0748202743758246,1
492,633,12,0.0887414960754509,1
492,634,12,0.098647495406321,1
492,635,12,0.0779048592608693,1
493,625,12,0.0911941116764501,1
493,626,12,0.090982876236757,1
493,633,12,0.0917378335909895,1
493,634,12,0.100815968014405,1
493,635,12,0.085507921502692,1
493,636,12,0.0726329519427335,1
493,637,12,0.0682984805040459,1
494,624,12,0.102918966381256,1
494,625,12,0.151154344834949,1
494,626,12,0.15821021708194,1
494,627,12,0.123139707355838,1
494,628,12,0.0791213947418584,1
494,633,12,0.0688864608732978,1
494,634,12,0.0782677438488115,1
494,635,12,0.0796135686443182,1
494,636,12,0.0831029845184896,1
494,637,12,0.0836712944634248,1
494,638,12,0.0737655407133699,1
495,623,12,0.0771290395169001,1
495,624,12,0.132362932122804,1
495,625,12,0.192941130469109,1
495,626,12,0.193914564902194,1
495,627,12,0.145348203407425,1
495,628,12,0.0925060882478966,1
495,634,12,0.068024040948217,1
495,635,12,0.0743368455462949,1
495,636,12,0.0813905614739334,1
495,637,12,0.0811207520149367,1
495,638,12,0.069489565426898,1
495,650,12,0.0677964414405478,1
496,623,12,0.0785431297892452,1
496,624,12,0.128858338156301,1
496,625,12,0.173800082553488,1
496,626,12,0.163208984625635,1
496,627,12,0.120562845831696,1
496,628,12,0.0855045073303837,1
496,634,12,0.0697327323623379,1
496,635,12,0.074203537092095,1
496,636,12,0.0765205860933502,1
496,649,12,0.0726951018582968,1
496,650,12,0.0730211014057573,1
497,623,12,0.0764090804237158,1
497,624,12,0.119374881582129,1
497,625,12,0.147573477061123,1
497,626,12,0.131210403387932,1
497,627,12,0.0957770150636637,1
497,628,12,0.0760879625436786,1
497,635,12,0.0761201276406886,1
497,636,12,0.0819293897414976,1
497,650,12,0.0699693944010641,1
498,624,12,0.10129010670139,1
498,625,12,0.126771655939217,1
498,626,12,0.12017712821772,1
498,627,12,0.0961629123709191,1
498,628,12,0.078890950090599,1
498,629,12,0.0682942337528764,1
498,636,12,0.0716884780765095,1
498,646,12,0.0710570478723022,1
498,647,12,0.0758950079002749,1
499,625,12,0.0869813824345459,1
499,626,12,0.0913505346761549,1
499,627,12,0.0839165578204576,1
499,628,12,0.0720136630144367,1
499,646,12,0.0740724268856797,1
499,647,12,0.0815917700286369,1
499,648,12,0.0925672378708714,1
499,649,12,0.118355122221618,1
499,650,12,0.127602485785782,1
500,627,12,0.068673075104028,1
500,648,12,0.0813933586993158,1
500,649,12,0.125414216968087,1
500,650,12,0.157144887505778,1
500,651,12,0.129869891523719,1
501,649,12,0.090834982678047,1
501,650,12,0.123581093947767,1
501,651,12,0.108342217369066,1
547,660,12,0.070875923036458,1
548,647,12,0.0815750585536541,1
548,648,12,0.098089919139941,1
548,649,12,0.0686702239706618,1
548,659,12,0.0678513077885201,1
548,660,12,0.0693862417912516,1
549,646,12,0.0928125431563359,1
549,647,12,0.203217597444311,1
549,648,12,0.25336936878399,1
549,649,12,0.154079296200364,1
550,647,12,0.283752651194644,1
550,648,12,0.35088344883059,2
550,649,12,0.206464678961904,1
551,648,12,0.216756168295263,1
464,623,13,0.070178066216638,1
465,622,13,0.0696118107648637,1
465,623,13,0.0852105710537415,1
465,624,13,0.0706785419486054,1
483,635,13,0.071626951097648,1
483,636,13,0.0725344021585428,1
484,635,13,0.097629065776078,1
484,636,13,0.102154754823135,1
484,637,13,0.0723712825892929,1
485,635,13,0.0867310277679306,1
485,636,13,0.0892246194264056,1
487,638,13,0.0684692669865495,1
487,639,13,0.0743092326790294,1
490,635,13,0.0703214494740354,1
491,633,13,0.0697781348642626,1
491,634,13,0.0909288604369738,1
491,635,13,0.0867004859002111,1
491,636,13,0.0711264873452326,1
492,633,13,0.108942225208485,1
492,634,13,0.128829227845041,1
492,635,13,0.104120012301562,1
492,636,13,0.0741240887035029,1
493,625,13,0.0784783803109067,1
493,626,13,0.0791777225951696,1
493,632,13,0.069240306889287,1
493,633,13,0.112090894706734,1
493,634,13,0.125715059456433,1
493,635,13,0.100479043115558,1
493,636,13,0.0793826867394123,1
493,637,13,0.0712826587743462,1
494,624,13,0.0815779156767963,1
494,625,13,0.115089017175515,1
494,626,13,0.129560124269163,1
494,627,13,0.110785794398112,1
494,628,13,0.0757561948419499,1
494,633,13,0.0782090979521962,1
494,634,13,0.0880741571642465,1
494,635,13,0.0853664130451762,1
494,636,13,0.0893725848624273,1
494,637,13,0.0877579329311846,1
494,638,13,0.0734407331313293,1
495,624,13,0.10462626816735,1
495,625,13,0.147841064313231,1
495,626,13,0.161130688094923,1
495,627,13,0.134595082039326,1
495,628,13,0.0916748930249969,1
495,635,13,0.0744556827017282,1
495,636,13,0.0857646732500534,1
495,637,13,0.0841973525286007,1
495,638,13,0.0692209898617531,1
496,623,13,0.0851068041746726,1
496,624,13,0.131381028146484,1
496,625,13,0.164285335389599,1
496,626,13,0.151309623787442,1
496,627,13,0.115850820843692,1
496,628,13,0.084334027236901,1
496,636,13,0.0728694043393004,1
496,649,13,0.0685951900469666,1
497,623,13,0.0956901752915128,1
497,624,13,0.154856050349386,1
497,625,13,0.180542869210031,1
497,626,13,0.143002846724891,1
497,627,13,0.0921898520352828,1
497,628,13,0.071447814867429,1
497,635,13,0.0688599980430204,1
497,636,13,0.0769765817488938,1
497,650,13,0.0679099656646874,1
498,623,13,0.0800390284219183,1
498,624,13,0.135082913354201,1
498,625,13,0.16618573557372,1
498,626,13,0.136500765205861,1
498,627,13,0.0882875609028442,1
498,628,13,0.0692960058161204,1
498,636,13,0.0726684952733959,1
498,646,13,0.074380636798481,1
498,647,13,0.0763695419124751,1
499,624,13,0.0815000965072706,1
499,625,13,0.104398536884609,1
499,626,13,0.0994389963838045,1
499,627,13,0.0787131076519915,1
499,646,13,0.0792331819309639,1
499,647,13,0.0833230428982005,1
499,648,13,0.0920090087189096,1
499,649,13,0.116570947650604,1
500,628,13,0.0750848547603912,1
500,648,13,0.0777980256164989,1
500,649,13,0.121137888284832,1
500,650,13,0.159166281164685,1
501,626,13,0.093342937819321,1
501,627,13,0.111196609173443,1
501,628,13,0.0891709809825092,1
501,649,13,0.0856045485687933,1
501,650,13,0.120658406717673,1
501,651,13,0.107752044741806,1
502,626,13,0.0903039231499283,1
502,627,13,0.104232548212665,1
502,628,13,0.0830108857230287,1
503,627,13,0.0720637075927455,1
548,647,13,0.0833429289544525,1
548,648,13,0.0944803303902928,1
548,649,13,0.06798574831038,1
549,646,13,0.0936523636566461,1
549,647,13,0.181101547595191,1
549,648,13,0.212586852949658,1
549,649,13,0.131161970059362,1
550,647,13,0.247862177075604,1
550,648,13,0.2879234999229,1
483,635,14,0.071150608173102,1
483,636,14,0.0693615579244401,1
484,635,14,0.0867757174865137,1
484,636,14,0.08838406218365,1
485,635,14,0.0736515852253598,1
485,636,14,0.0751615658213607,1
487,639,14,0.0701293333992688,1
490,635,14,0.0813368331833973,1
490,636,14,0.0742420154129874,1
491,633,14,0.0743943174468182,1
491,634,14,0.110852101218205,1
491,635,14,0.116804668709324,1
491,636,14,0.0916855967546723,1
492,633,14,0.119850601569973,1
492,634,14,0.157218549770774,1
492,635,14,0.13652797076836,1
492,636,14,0.0927756521260782,1
493,632,14,0.06946270128163,1
493,633,14,0.120239769294913,1
493,634,14,0.142497860691611,1
493,635,14,0.113870025886374,1
493,636,14,0.0845758105340896,1
493,637,14,0.0719806533590137,1
494,625,14,0.0900820139294397,1
494,626,14,0.104915706122231,1
494,627,14,0.0960187145039886,1
494,628,14,0.0677882594065598,1
494,633,14,0.0811074666918141,1
494,634,14,0.0916509758495108,1
494,635,14,0.0864582174311681,1
494,636,14,0.0913704506812867,1
494,637,14,0.0916127431094336,1
494,638,14,0.0737707877571279,1
495,624,14,0.0884569936959764,1
495,625,14,0.116074179589968,1
495,626,14,0.132776633970157,1
495,627,14,0.120319145806194,1
495,628,14,0.0849495665654347,1
495,635,14,0.0722087380385372,1
495,636,14,0.0878007897783179,1
495,637,14,0.0893739864700065,1
495,638,14,0.0717969469297223,1
496,623,14,0.0915772896254109,1
496,624,14,0.134045639888726,1
496,625,14,0.153992156939414,1
496,626,14,0.132870134373197,1
496,627,14,0.104403604235088,1
496,628,14,0.0773534404841962,1
496,636,14,0.0707559957417964,1
496,637,14,0.0692952690736749,1
497,623,14,0.112346047183909,1
497,624,14,0.182535547882892,1
497,625,14,0.20435812266812,1
497,626,14,0.143991075904645,1
497,627,14,0.0865725382955129,1
497,636,14,0.0681419257292696,1
497,651,14,0.0690914190277645,1
498,623,14,0.0915209977107555,1
498,624,14,0.161095588007683,1
498,625,14,0.195822140837938,1
498,626,14,0.140670523794888,1
498,627,14,0.0804537006129793,1
498,636,14,0.0711069486959874,1
498,642,14,0.0682033149432835,1
498,646,14,0.0736752388507029,1
499,624,14,0.0874319872917079,1
499,625,14,0.114963830857543,1
499,626,14,0.0990952371505649,1
499,646,14,0.0770294535014649,1
499,647,14,0.0756540212432916,1
499,648,14,0.0860918767424857,1
500,627,14,0.111081857045227,1
500,648,14,0.0741632498588569,1
500,649,14,0.11103136323372,1
501,626,14,0.121116540723241,1
501,627,14,0.165931445624287,1
501,628,14,0.129921187965208,1
501,629,14,0.0707157983551979,1
501,649,14,0.0757231971660789,1
501,650,14,0.0994833866135886,1
502,626,14,0.111758869444639,1
502,627,14,0.152494401476187,1
502,628,14,0.121250555971006,1
503,626,14,0.0729201557111747,1
503,627,14,0.0903581845305266,1
503,628,14,0.0768913831753614,1
548,647,14,0.0733781459621195,1
548,648,14,0.0805661886058744,1
549,647,14,0.141078187948053,1
549,648,14,0.159706415203412,1
549,649,14,0.103905650198808,1
550,648,14,0.208839121996595,1
481,634,15,0.0684961431113695,1
482,634,15,0.0692168808754312,1
484,635,15,0.0681887657774293,1
484,636,15,0.0696936910025035,1
490,634,15,0.0682573127737388,1
490,635,15,0.0902886971393884,1
490,636,15,0.0819259036918775,1
491,633,15,0.0738688763285683,1
491,634,15,0.116446492085302,1
491,635,15,0.13079132272175,1
491,636,15,0.102782303652508,1
492,633,15,0.114378414112411,1
492,634,15,0.161846490283577,1
492,635,15,0.149209967715587,1
492,636,15,0.100733584635583,1
493,633,15,0.112742246905849,1
493,634,15,0.144936274533763,1
493,635,15,0.121240217617666,1
493,636,15,0.0854952770855993,1
493,637,15,0.0680189616181864,1
494,627,15,0.0779686982932589,1
494,633,15,0.0776944803591412,1
494,634,15,0.0912095712882532,1
494,635,15,0.0848150661458149,1
494,636,15,0.0842447136872706,1
494,637,15,0.0864896457857326,1
494,638,15,0.072081964429931,1
495,624,15,0.081272029797075,1
495,625,15,0.094507757574503,1
495,626,15,0.105030062925232,1
495,627,15,0.0985325456154984,1
495,628,15,0.0745157781241306,1
495,636,15,0.0794723836347053,1
495,637,15,0.0879363324189581,1
495,638,15,0.0746407667794949,1
496,623,15,0.0920705057488912,1
496,624,15,0.132277973140311,1
496,625,15,0.141265991384115,1
496,626,15,0.114486900934951,1
496,627,15,0.0904977163619692,1
496,628,15,0.0705683660092384,1
496,637,15,0.0692342452359957,1
497,623,15,0.116680392837301,1
497,624,15,0.188001685666715,1
497,625,15,0.203811495712231,1
497,626,15,0.136386216730029,1
497,627,15,0.0815062959254094,1
497,651,15,0.0719401924222721,1
498,623,15,0.0964075168525941,1
498,624,15,0.167517454446795,1
498,625,15,0.197475163274105,1
498,626,15,0.133774279077751,1
498,627,15,0.0755228990573243,1
499,624,15,0.0881300297945833,1
499,625,15,0.112480014513467,1
499,626,15,0.0927658348832478,1
499,648,15,0.0822356589668815,1
500,627,15,0.124169277969403,1
500,628,15,0.101717561074391,1
500,629,15,0.071156178664763,1
500,648,15,0.0719946754245817,1
500,649,15,0.0935536940769358,1
501,626,15,0.137476787222169,1
501,627,15,0.202470624461459,1
501,628,15,0.161264032487778,1
501,629,15,0.0847540962161196,1
501,650,15,0.0724276224221562,1
502,626,15,0.133689224258842,1
502,627,15,0.198966210188235,1
502,628,15,0.159400780894282,1
502,629,15,0.0801258681940691,1
503,626,15,0.0946710688165841,1
503,627,15,0.128446816587405,1
503,628,15,0.104442382044779,1
504,626,15,0.0700919871460366,1
504,627,15,0.0815037981888259,1
504,628,15,0.0706363739257097,1
509,623,15,0.0767472332266387,1
509,624,15,0.0722952423832331,1
510,623,15,0.0789262418506702,1
510,624,15,0.0690831351675848,1
513,620,15,0.0706061555058931,1
513,621,15,0.0679294204570688,1
549,648,15,0.104657750429898,1
482,634,16,0.0702430912246715,1
490,634,16,0.0680716896161339,1
490,635,16,0.094817219350484,1
490,636,16,0.0854847829980832,1
491,634,16,0.104526538397291,1
491,635,16,0.121789372259019,1
491,636,16,0.0966374463831193,1
492,633,16,0.100065485022829,1
492,634,16,0.145379649731318,1
492,635,16,0.137333919085506,1
492,636,16,0.0923811055823083,1
493,633,16,0.10046028313719,1
493,634,16,0.136852101505715,1
493,635,16,0.118861761433069,1
493,636,16,0.0802705033146462,1
494,633,16,0.072573209917114,1
494,634,16,0.0888307976455293,1
494,635,16,0.0820047411233197,1
494,636,16,0.0743717479709275,1
494,637,16,0.0748395914033585,1
495,625,16,0.0785066221046501,1
495,626,16,0.0817826641891037,1
495,627,16,0.0767016210825547,1
495,636,16,0.0690105271031613,1
495,637,16,0.0805918308368426,1
495,638,16,0.074349094638173,1
496,624,16,0.116100989827252,1
496,625,16,0.122360126032554,1
496,626,16,0.098350588200793,1
496,627,16,0.076744226359097,1
497,623,16,0.100798525786752,1
497,624,16,0.160729133513257,1
497,625,16,0.17405680435197,1
497,626,16,0.120549165183359,1
497,627,16,0.0750096531229686,1
498,624,16,0.141426816869164,1
498,625,16,0.163632473766938,1
498,626,16,0.115329949924514,1
498,627,16,0.0702370175918283,1
499,625,16,0.0934588280049724,1
499,626,16,0.0803171816388545,1
500,627,16,0.115256730902941,1
500,628,16,0.102283535006695,1
500,648,16,0.0708079151199867,1
501,626,16,0.134870384122896,1
501,627,16,0.202692318050013,1
501,628,16,0.167917391788947,1
501,629,16,0.0919667568391502,1
502,626,16,0.163825404451237,1
502,627,16,0.246860231308856,1
502,628,16,0.194990891707055,1
502,629,16,0.0915716412666622,1
503,626,16,0.147577034988054,1
503,627,16,0.208173897476311,1
503,628,16,0.157900365970521,1
503,629,16,0.0749950620286825,1
504,626,16,0.102867993387671,1
504,627,16,0.129501891667091,1
504,628,16,0.0992600338570889,1
505,627,16,0.0689280598674755,1
509,623,16,0.07211262609317,1
510,623,16,0.0775133854721769,1
512,620,16,0.0684338973593905,1
512,621,16,0.0681234352908209,1
513,619,16,0.0735840505011909,1
513,620,16,0.0954315966624777,1
513,621,16,0.0878317988485638,1
514,619,16,0.0763355619133434,1
514,620,16,0.0960325508865012,1
514,621,16,0.0867441094386698,1
515,620,16,0.0694721771072295,1
490,635,17,0.0876704762121078,1
490,636,17,0.0787436854583669,1
491,634,17,0.0812371513315464,1
491,635,17,0.0932263887583118,1
491,636,17,0.077403197553258,1
492,633,17,0.0795566837418408,1
492,634,17,0.108871557831479,1
492,635,17,0.102517795145253,1
492,636,17,0.0736996052593875,1
493,633,17,0.0836539720312921,1
493,634,17,0.111763230001552,1
493,635,17,0.099390646912098,1
493,636,17,0.0702835341920851,1
494,634,17,0.0796161981559732,1
494,635,17,0.0731004599477097,1
496,625,17,0.100206747899529,1
496,626,17,0.0835117148517789,1
497,624,17,0.114006293289908,1
497,625,17,0.128044555212174,1
497,626,17,0.0987420739690374,1
497,627,17,0.0682101672470041,1
498,625,17,0.113990360485802,1
498,626,17,0.0907963606025312,1
500,627,17,0.0929833296388395,1
500,628,17,0.0905256646566895,1
501,626,17,0.114467637815401,1
501,627,17,0.167365242259604,1
501,628,17,0.145627243111207,1
501,629,17,0.0899833144008494,1
502,626,17,0.165201160157314,1
502,627,17,0.249196579368317,1
502,628,17,0.197796191307503,1
502,629,17,0.0947209516709415,1
503,625,17,0.0747284930384907,1
503,626,17,0.175410625498409,1
503,627,17,0.255617379627306,1
503,628,17,0.193855421854172,1
503,629,17,0.0892205403889636,1
504,626,17,0.1153668589241,1
504,627,17,0.153476041902364,1
504,628,17,0.116173478096156,1
504,629,17,0.0708951442275762,1
504,630,17,0.0691030391931647,1
504,631,17,0.0691605889607758,1
505,630,17,0.0726522809498194,1
505,631,17,0.0710260447918323,1
512,620,17,0.0728416716765153,1
512,621,17,0.0727638465172136,1
513,619,17,0.085312115725922,1
513,620,17,0.117267307026429,1
513,621,17,0.107682060199261,1
513,622,17,0.0689901798341589,1
514,619,17,0.0951165883539396,1
514,620,17,0.131012345455394,1
514,621,17,0.11527176524065,1
515,619,17,0.0734111076993347,1
515,620,17,0.0962484823105623,1
515,621,17,0.082582407098335,1
490,635,18,0.0713951168183613,1
491,635,18,0.0688871796464154,1
492,634,18,0.0787973059329354,1
492,635,18,0.0724839802243473,1
493,633,18,0.0705385249453086,1
493,634,18,0.0854887242706777,1
493,635,18,0.0751645247706946,1
497,625,18,0.0885942374329948,1
497,626,18,0.0792061201230885,1
501,627,18,0.122082775445599,1
501,628,18,0.112101844017225,1
502,626,18,0.143324904999757,1
502,627,18,0.221027333791623,1
502,628,18,0.179648751390467,1
502,629,18,0.089519388281909,1
503,625,18,0.0700437694494016,1
503,626,18,0.171751902616401,1
503,627,18,0.260918259491854,1
503,628,18,0.203639205795956,1
503,629,18,0.0952823793632763,1
504,626,18,0.112137686836686,1
504,627,18,0.156860744512862,1
504,628,18,0.122531972705405,1
504,629,18,0.075893827914407,1
504,630,18,0.0773922123041116,1
504,631,18,0.077672318188017,1
505,630,18,0.0824485176358651,1
505,631,18,0.0807019888068817,1
512,620,18,0.0786739644659655,1
512,621,18,0.082727623227182,1
512,622,18,0.0705404955816058,1
513,619,18,0.0925864171335577,1
513,620,18,0.134480162197383,1
513,621,18,0.12793109687557,1
513,622,18,0.0843661444157031,1
514,619,18,0.108361971650247,1
514,620,18,0.157404136989723,1
514,621,18,0.137646968737299,1
514,622,18,0.0760828412852162,1
515,619,18,0.0830828229325426,1
515,620,18,0.114553291611908,1
515,621,18,0.0946490444103075,1
501,627,19,0.0906813029957409,1
502,626,19,0.114175528420433,1
502,627,19,0.173103255975137,1
502,628,19,0.144498086482206,1
503,626,19,0.145989193294096,1
503,627,19,0.219112282615456,1
503,628,19,0.175012604884571,1
503,629,19,0.0879493362226096,1
504,626,19,0.104603123672965,1
504,627,19,0.143527443284728,1
504,628,19,0.113710949415911,1
504,629,19,0.0721017726190952,1
504,630,19,0.0703792568020136,1
504,631,19,0.0695779266021477,1
504,639,19,0.0684699438312351,1
505,627,19,0.0687617896760605,1
505,630,19,0.0770018286546474,1
505,631,19,0.0765663659511616,1
512,620,19,0.0790242765141267,1
512,621,19,0.0873038959323863,1
512,622,19,0.0777915267095611,1
513,619,19,0.0896143322209601,1
513,620,19,0.140467829775742,1
513,621,19,0.140285105669711,1
513,622,19,0.0980813896989462,1
514,619,19,0.109240360318089,1
514,620,19,0.165782995016411,1
514,621,19,0.148108986992794,1
514,622,19,0.0871331573680905,1
515,619,19,0.0852756379902069,1
515,620,19,0.117642997755415,1
515,621,19,0.0963370291688673,1
502,626,20,0.0831921543134964,1
502,627,20,0.11532295386617,1
502,628,20,0.098141353346277,1
503,626,20,0.11372935000772,1
503,627,20,0.153586589207842,1
503,628,20,0.12231674807491,1
503,629,20,0.0700526283280753,1
504,626,20,0.0948507980346251,1
504,627,20,0.117818210682368,1
504,628,20,0.0925498854898587,1
504,638,20,0.0832606114631662,1
504,639,20,0.0855773789449503,1
512,620,20,0.0800745058650449,1
512,621,20,0.094072905828167,1
512,622,20,0.0840079438325768,1
513,619,20,0.0836211600384764,1
513,620,20,0.144020928948127,1
513,621,20,0.157635773606402,1
513,622,20,0.113915608081578,1
514,619,20,0.0994421470059697,1
514,620,20,0.159442745264795,1
514,621,20,0.156888716766686,1
514,622,20,0.0999397955636748,1
515,619,20,0.0759068017691786,1
515,620,20,0.103859840392117,1
515,621,20,0.0922956734075126,1
484,641,21,0.0832171436588829,1
484,642,21,0.0798737764924198,1
485,641,21,0.0991614481342423,1
485,642,21,0.09668692193271,1
485,643,21,0.0683311187933582,1
486,641,21,0.0820804938201325,1
486,642,21,0.079485345509925,1
502,627,21,0.0688536249213782,1
503,626,21,0.0841548550680261,1
503,627,21,0.0938004069597555,1
503,628,21,0.0748429277085791,1
503,638,21,0.0687644251774914,1
504,626,21,0.0811319948244502,1
504,627,21,0.0879023224709465,1
504,628,21,0.0708209488725181,1
504,638,21,0.0907190984821716,1
504,639,21,0.0885366936551597,1
505,638,21,0.0697901623344294,1
512,620,21,0.0728833605173326,1
512,621,21,0.0879238557155928,1
512,622,21,0.0772786401617642,1
513,619,21,0.073917159912739,1
513,620,21,0.127317803713029,1
513,621,21,0.14925646035674,1
513,622,21,0.110142061194043,1
514,619,21,0.0822815286713326,1
514,620,21,0.131624237010356,1
514,621,21,0.144033711130068,1
514,622,21,0.0991846465366109,1
515,620,21,0.0819899823153062,1
515,621,21,0.0817715172160058,1
484,640,22,0.0700847395171014,1
484,641,22,0.110106529842933,1
484,642,22,0.109993335056472,1
484,643,22,0.0688250836388359,1
485,640,22,0.0842012159341075,1
485,641,22,0.153924448511742,1
485,642,22,0.155650582153515,1
485,643,22,0.0910874397560311,1
486,640,22,0.071048039249229,1
486,641,22,0.123118491569318,1
486,642,22,0.123603304037099,1
486,643,22,0.07487421230852,1
504,638,22,0.0837011415171307,1
504,639,22,0.0785066820024099,1
506,653,22,0.0681845010569319,1
512,621,22,0.072878562706773,1
512,622,22,0.0683645417433238,1
513,620,22,0.0971091711903851,1
513,621,22,0.115714888867613,1
513,622,22,0.091164917508326,1
514,620,22,0.0944127118092602,1
514,621,22,0.108948646248335,1
514,622,22,0.0820709281478932,1
484,640,23,0.0719268352218378,1
484,641,23,0.121336904581527,1
484,642,23,0.126679425368685,1
484,643,23,0.0751858004549738,1
485,640,23,0.0954479008326939,1
485,641,23,0.19184970942878,1
485,642,23,0.203097873802033,1
485,643,23,0.111639193720568,1
486,640,23,0.0807370948838975,1
486,641,23,0.155945926027513,1
486,642,23,0.164512431756086,1
486,643,23,0.0929196044121936,1
487,641,23,0.0772526385442372,1
487,642,23,0.078824900830873,1
513,622,23,0.0687181182193939,1
514,621,23,0.070974981951607,1
518,625,23,0.0750916831050079,1
518,626,23,0.0721848687812588,1
519,625,23,0.0861733975935668,1
519,626,23,0.102931808460956,1
519,627,23,0.0810988114655238,1
520,626,23,0.0870830229431421,1
520,627,23,0.0752206010534147,1
484,640,24,0.0688862751902425,1
484,641,24,0.114675279389507,1
484,642,24,0.123359843602637,1
484,643,24,0.0745632590783201,1
485,640,24,0.0934334972423551,1
485,641,24,0.191887888260873,1
485,642,24,0.210807841565538,1
485,643,24,0.116680931917139,1
486,640,24,0.0815836299230807,1
486,641,24,0.164697995015931,1
486,642,24,0.181358389189192,1
486,643,24,0.101974821952711,1
487,641,24,0.0823207617039983,1
487,642,24,0.0885914581769403,1
508,646,24,0.0679651315014586,1
518,625,24,0.0682844764078058,1
518,626,24,0.0854070776343011,1
518,627,24,0.0822479200383116,1
519,625,24,0.0885344474891674,1
519,626,24,0.14233965872844,1
519,627,24,0.153702515332149,1
519,628,24,0.107258906485413,1
520,625,24,0.0686060794596973,1
520,626,24,0.126420774862338,1
520,627,24,0.146782395367958,1
520,628,24,0.106847947955459,1
521,627,24,0.0759910359887783,1
484,641,25,0.095842093979681,1
484,642,25,0.105321669179018,1
484,643,25,0.0714436998913311,1
485,640,25,0.0819645437367213,1
485,641,25,0.155165913440358,1
485,642,25,0.173241631779815,1
485,643,25,0.10357727870006,1
486,640,25,0.0757318823412491,1
486,641,25,0.144070835761589,1
486,642,25,0.161905932820398,1
486,643,25,0.0974939783584123,1
487,641,25,0.077514224040814,1
487,642,25,0.0863686762700505,1
505,639,25,0.069962985340766,1
508,646,25,0.0795535510890036,1
518,626,25,0.0742296105869338,1
518,627,25,0.087378492602435,1
518,628,25,0.0785633752320559,1
519,625,25,0.0694075594039627,1
519,626,25,0.128660376060178,1
519,627,25,0.174043219540048,1
519,628,25,0.155684029062585,1
519,629,25,0.0975792368297045,1
520,626,25,0.120624768135772,1
520,627,25,0.173543432632319,1
520,628,25,0.160714626275834,1
520,629,25,0.101453148403552,1
521,627,25,0.0865644820468205,1
521,628,25,0.0830702204438817,1
484,642,26,0.0812414220418197,1
485,641,26,0.105680037475872,1
485,642,26,0.117497506096873,1
485,643,26,0.0789764960711382,1
486,641,26,0.104887638031992,1
486,642,26,0.119170965648683,1
486,643,26,0.0807946266821807,1
487,642,26,0.0737435103173173,1
508,646,26,0.0777222489605822,1
518,626,26,0.0697342537654367,1
518,627,26,0.0789976280007939,1
518,628,26,0.0786071365353622,1
519,626,26,0.0987056321719781,1
519,627,26,0.146421020203562,1
519,628,26,0.157667040237015,1
519,629,26,0.117394074645259,1
520,626,26,0.0900251110576344,1
520,627,26,0.147710630951501,1
520,628,26,0.166668846945123,1
520,629,26,0.12479263395559,1
520,630,26,0.0696325952875126,1
521,627,26,0.0711572388551113,1
521,628,26,0.0799421078567939,1
525,624,26,0.0707874780043447,1
525,625,26,0.0686097691617007,1
485,642,27,0.0699444350045575,1
486,642,27,0.0748411547348892,1
518,625,27,0.069129561921202,1
518,626,27,0.0876083502556484,1
518,627,27,0.0756801546358901,1
519,626,27,0.0877715656613139,1
519,627,27,0.108591535804437,1
519,628,27,0.123054640557377,1
519,629,27,0.109091981587524,1
519,630,27,0.0744385459526509,1
520,627,27,0.102027088737908,1
520,628,27,0.129343725642576,1
520,629,27,0.115669821793143,1
520,630,27,0.0790712183884781,1
515,637,28,0.102611726812164,1
515,638,28,0.115280282702092,1
515,639,28,0.0725013685440158,1
516,637,28,0.103573876507303,1
516,638,28,0.117545687854852,1
516,639,28,0.0750985413985044,1
517,625,28,0.0764209102312753,1
517,626,28,0.0805680035079962,1
517,638,28,0.0697905576596441,1
518,625,28,0.0915963730516816,1
518,626,28,0.107811439360418,1
518,627,28,0.0744783779629146,1
519,626,28,0.0860504814006914,1
519,627,28,0.0805322145965186,1
519,628,28,0.0838196252757813,1
519,629,28,0.0854613090660195,1
519,630,28,0.0722092771183753,1
520,628,28,0.0840286145494821,1
520,629,28,0.0868970224296506,1
520,630,28,0.071546292774308,1
514,637,29,0.0852894863522715,1
514,638,29,0.0998275471618189,1
515,636,29,0.0710220556010299,1
515,637,29,0.159663444550535,1
515,638,29,0.198129186913307,1
515,639,29,0.132403698538121,1
516,636,29,0.0728170956256714,1
516,637,29,0.167626875674389,1
516,638,29,0.214979552821534,1
516,639,29,0.148512721852917,1
517,626,29,0.0721700261163816,1
517,637,29,0.100209916491022,1
517,638,29,0.12907492845572,1
517,639,29,0.0931481083760356,1
518,626,29,0.087078374876982,1
514,637,30,0.0988709859276682,1
514,638,30,0.1200051737289,1
515,636,30,0.0826084446545179,1
515,637,30,0.19923359378796,1
515,638,30,0.260036396753944,1
515,639,30,0.183481249653192,1
516,636,30,0.0887869345160314,1
516,637,30,0.221301737408796,1
516,638,30,0.299717800090412,1
516,639,30,0.218484889520259,1
516,640,30,0.0886322365718087,1
517,637,30,0.137261682387193,1
517,638,30,0.186457605276063,1
517,639,30,0.139320883512083,1
514,637,31,0.095273388709531,1
514,638,31,0.118302591886278,1
515,636,31,0.0825327877941208,1
515,637,31,0.196233973875185,1
515,638,31,0.263859023865855,1
515,639,31,0.195630983127328,1
516,636,31,0.0941198536922944,1
516,637,31,0.231759622718866,1
516,638,31,0.322051111093861,1
516,639,31,0.243778803035753,1
516,640,31,0.0994450939757517,1
517,636,31,0.068760765424368,1
517,637,31,0.151631837796483,1
517,638,31,0.207821459057677,1
517,639,31,0.158433372175833,1
518,638,31,0.074896709907099,1
514,637,32,0.0786766598651562,1
514,638,32,0.0986853987087193,1
515,636,32,0.0690756898760423,1
515,637,32,0.155424024866866,1
515,638,32,0.212785857266801,1
515,639,32,0.161561963944999,1
516,636,32,0.0837495988048049,1
516,637,32,0.194052629238521,1
516,638,32,0.272172281866015,1
516,639,32,0.208305504834133,1
516,640,32,0.0886085290384819,1
517,637,32,0.13220592811483,1
517,638,32,0.179912852592955,1
517,639,32,0.136935814614804,1
518,638,32,0.0712821376638359,1
515,637,33,0.100755087931349,1
515,638,33,0.135822063689623,1
516,637,33,0.130321316980191,1
516,638,33,0.178110073777748,1
516,639,33,0.136702848267857,1
517,637,33,0.094652985682902,1
517,638,33,0.122121649091706,1
516,637,34,0.0741209919893215,1
516,638,34,0.0913908458684969,1
