x,y,z,signal,cytoplasm.p
132,761,1,0.0683634036858877,1
150,748,1,0.0724161280420515,1
150,749,1,0.0771149695331243,1
151,745,1,0.0749700487241921,1
151,746,1,0.0781418806861542,1
151,747,1,0.0842198621067317,1
151,748,1,0.097741859247548,1
152,744,1,0.0749550263660355,1
152,745,1,0.0883667577208452,1
152,746,1,0.0942154085884954,1
153,744,1,0.0740780393057725,1
150,748,2,0.0686054385536675,1
150,749,2,0.0745178266275156,1
151,745,2,0.0715298208903644,1
151,746,2,0.0738391670397099,1
151,747,2,0.0768460226018686,1
151,748,2,0.0900635893785267,1
152,744,2,0.0745364248819319,1
152,745,2,0.084405054000466,1
152,746,2,0.0889792242943014,1
151,746,3,0.069104129332393,1
152,743,3,0.0685889966186038,1
132,727,4,0.0680605186839322,1
150,742,4,0.0720799398856499,1
151,741,4,0.0697239273916481,1
151,742,4,0.073555664952824,1
151,743,4,0.068238834314842,1
152,742,4,0.0719881166198841,1
152,743,4,0.0719801502178314,1
149,742,5,0.0876053553676587,1
149,743,5,0.0868543392860206,1
150,741,5,0.0818080728188087,1
150,742,5,0.109977857475341,1
150,743,5,0.104292817338571,1
150,744,5,0.0777020993541871,1
151,741,5,0.083627125855352,1
151,742,5,0.107196157592252,1
151,743,5,0.100453113375342,1
151,744,5,0.0783591298609308,1
148,743,6,0.0692456138308048,1
149,741,6,0.0725172953583453,1
149,742,6,0.122691025216765,1
149,743,6,0.136373602261816,1
149,744,6,0.0920990530212095,1
150,741,6,0.0997521897902208,1
150,742,6,0.188269440632551,1
150,743,6,0.20517246865119,1
150,744,6,0.129477597135718,1
151,741,6,0.100456383793027,1
151,742,6,0.176646771505955,1
151,743,6,0.188822320914563,2
151,744,6,0.122494872032988,1
147,749,7,0.0694606767373489,1
148,742,7,0.070176035682581,1
148,743,7,0.0800372374789004,1
149,741,7,0.0751982831481151,1
149,742,7,0.142578195567048,1
149,743,7,0.184684955034033,1
149,744,7,0.120751451897738,1
150,741,7,0.10696480848482,1
150,742,7,0.252195037264553,1
150,743,7,0.336651717144186,2
150,744,7,0.21978203540638,2
151,742,7,0.245382481697401,2
151,743,7,0.33228212764893,2
151,744,7,0.228024398418047,2
152,743,7,0.198269012243773,2
140,759,8,0.0694230130259898,1
142,755,8,0.0678663541057806,1
142,756,8,0.0756633293551637,1
142,757,8,0.0698156368516702,1
143,755,8,0.0714804291976374,1
143,756,8,0.0776189912124715,1
144,755,8,0.0715957683238987,1
145,750,8,0.0679513190780499,1
146,735,8,0.0735620680233461,1
146,749,8,0.0768051184217046,1
146,750,8,0.0819588714188687,1
147,734,8,0.0909666139949726,1
147,735,8,0.105173745671428,1
147,736,8,0.0846666335072668,1
147,747,8,0.0691148031131885,1
147,748,8,0.0799312543827191,1
147,749,8,0.0849943042022256,1
148,733,8,0.0716178106995033,1
148,734,8,0.10274837756136,1
148,735,8,0.115478927632677,1
148,736,8,0.0944897822567885,1
148,743,8,0.0781893855994477,1
148,747,8,0.0720583946614516,1
148,748,8,0.0784750440056862,1
149,734,8,0.0857524960354871,1
149,735,8,0.0946315842133273,1
149,736,8,0.0838184932081211,1
149,742,8,0.125605051230794,1
149,743,8,0.190399057563856,2
149,744,8,0.13379892101613,2
150,742,8,0.247756397631805,2
150,743,8,0.417918122541616,2
150,744,8,0.319460341309894,2
150,745,8,0.150600110863566,2
151,742,8,0.271622851694968,2
151,743,8,0.492471714121505,2
151,744,8,0.414529778147323,2
151,745,8,0.207720926657637,2
152,743,8,0.313349595814709,2
152,744,8,0.289342861198107,2
152,745,8,0.166327813059954,1
134,763,9,0.0693704527417696,1
139,758,9,0.0711958848897311,1
139,759,9,0.0737028037997605,1
140,728,9,0.0679274378412196,1
140,758,9,0.0793342054926342,1
140,759,9,0.0806352866615739,1
141,728,9,0.0724197159178632,1
141,729,9,0.0751709218514407,1
141,756,9,0.0731083724417787,1
141,757,9,0.0695987949816603,1
141,759,9,0.0750563733756087,1
142,729,9,0.0716865194197642,1
142,755,9,0.085207803777239,1
142,756,9,0.0920876424979685,1
143,755,9,0.0887395853369134,1
143,756,9,0.0945052957765754,1
144,749,9,0.067761616883003,1
144,750,9,0.0801436817878322,1
144,751,9,0.0703850968335936,1
144,754,9,0.0695348541230791,1
145,745,9,0.07042473118125,1
145,746,9,0.0726126286328351,1
145,749,9,0.0780365624551066,1
145,750,9,0.0946050435159621,1
145,751,9,0.0845284733345236,1
146,734,9,0.0837627523528559,1
146,735,9,0.113364860159815,1
146,736,9,0.0859206170676798,1
146,748,9,0.0700504181007388,1
146,749,9,0.082998229326384,1
146,750,9,0.092974141322487,1
147,733,9,0.0710555444385313,1
147,734,9,0.150582141535627,1
147,735,9,0.210132578180712,3
147,736,9,0.14950883357786,1
147,744,9,0.0678818975744474,1
147,747,9,0.0761878180990329,1
147,748,9,0.0837524499381711,1
147,749,9,0.0879850412772234,1
148,733,9,0.0814843973044283,1
148,734,9,0.168790305801544,1
148,735,9,0.229980467580122,3
148,736,9,0.164711328257262,1
148,737,9,0.0759380025122558,1
148,743,9,0.0812636920289116,1
148,744,9,0.0763167001087839,1
148,745,9,0.0686320690976724,1
148,747,9,0.0849639360380095,1
149,734,9,0.115930197354972,1
149,735,9,0.149201138785793,1
149,736,9,0.115646665319207,1
149,737,9,0.0733992719019992,1
149,742,9,0.100311011930005,1
149,743,9,0.157445394566669,2
149,744,9,0.130397842358105,2
150,742,9,0.195031083103877,2
150,743,9,0.382492742547832,2
150,744,9,0.349823378277737,2
150,745,9,0.184020149798068,2
151,742,9,0.25403909761581,2
151,743,9,0.545996639783594,2
151,744,9,0.54655517441413,2
151,745,9,0.292133258235918,2
151,746,9,0.109970741621477,1
152,742,9,0.175754342803217,2
152,743,9,0.387489006365167,2
152,744,9,0.413741331955589,2
152,745,9,0.236420722631492,2
152,746,9,0.0997041697561931,1
153,743,9,0.161565461974171,2
153,744,9,0.179868911596369,2
153,745,9,0.125910901171859,1
134,762,10,0.068770702462718,1
134,763,10,0.0714266230400135,1
135,762,10,0.0678117213590715,1
135,763,10,0.070989010006951,1
136,729,10,0.072959244989217,1
137,729,10,0.0761076090088914,1
137,730,10,0.0690540068869965,1
138,729,10,0.0720460856718138,1
139,729,10,0.0683430144884535,1
139,758,10,0.0816285772020309,1
139,759,10,0.0858469488129079,1
140,728,10,0.0707036810383914,1
140,729,10,0.0763007613149025,1
140,757,10,0.0703111590389026,1
140,758,10,0.0899036324109941,1
140,759,10,0.0925791515352946,1
140,760,10,0.0736308426311428,1
141,728,10,0.0803938387918401,1
141,729,10,0.0942761209578236,1
141,730,10,0.0806414201921769,1
141,755,10,0.0789905600651381,1
141,756,10,0.0845317497419844,1
141,757,10,0.0785010456232132,1
141,759,10,0.0821036443042933,1
142,728,10,0.0760304906431553,1
142,729,10,0.0938986632449233,1
142,730,10,0.0842050493907344,1
142,754,10,0.0717033626698185,1
142,755,10,0.0993325460850968,1
142,756,10,0.104623680584127,1
142,757,10,0.0862340320958073,1
143,729,10,0.0750559660708421,1
143,730,10,0.0723675629384097,1
143,750,10,0.0812552284754525,1
143,751,10,0.0703720451117342,1
143,754,10,0.0767531451355304,1
143,755,10,0.102769868877574,1
143,756,10,0.106644690897371,1
143,757,10,0.0899080708349949,1
144,744,10,0.0695177413331056,1
144,745,10,0.0858843369945719,1
144,746,10,0.0933530425713984,1
144,747,10,0.0756881090583909,1
144,749,10,0.0894197483584899,1
144,750,10,0.117364976313551,1
144,751,10,0.0989007071960785,1
144,754,10,0.0774929243974309,1
144,756,10,0.101811145334295,1
145,731,10,0.0694055049108017,1
145,743,10,0.0682677888919269,1
145,744,10,0.0762036610564987,1
145,745,10,0.0912443239684863,1
145,746,10,0.100650638217818,1
145,747,10,0.0839475788702554,1
145,748,10,0.0679858381570197,1
145,749,10,0.0895855333780506,1
145,750,10,0.117133004269416,1
145,751,10,0.103213016463642,1
146,731,10,0.0700138205695041,1
146,734,10,0.1073994745481,1
146,735,10,0.161131023522377,3
146,736,10,0.113767025698631,1
146,737,10,0.068780909040987,1
146,742,10,0.0714666347435566,1
146,743,10,0.0828060952822895,1
146,744,10,0.0845988831511627,1
146,745,10,0.0806432410840747,1
146,746,10,0.0804466925750833,1
146,747,10,0.074913391433202,1
146,748,10,0.069653212096434,1
146,749,10,0.0801898449913062,1
146,750,10,0.0947505411642802,1
147,733,10,0.0916491190189571,1
147,734,10,0.230307820816954,3
147,735,10,0.350226298528326,3
147,736,10,0.237420296446951,3
147,737,10,0.104797875249163,1
147,738,10,0.0732537443048012,1
147,739,10,0.0699633986353086,1
147,742,10,0.0746757171223353,1
147,743,10,0.090348145665985,1
147,744,10,0.0906621177432786,1
147,745,10,0.0763105785577329,1
147,746,10,0.0729383706199284,1
147,747,10,0.079257404585025,1
147,748,10,0.0819847232919962,1
148,733,10,0.101862118327881,1
148,734,10,0.255383826282313,3
148,735,10,0.380919947171134,3
148,736,10,0.257537605969919,3
148,737,10,0.113606427825068,1
148,738,10,0.0766944692900352,1
148,739,10,0.0715962175570972,1
148,742,10,0.0724347442657958,1
148,743,10,0.0877827725321716,1
148,744,10,0.0873812958175934,1
148,745,10,0.0776920784589734,1
149,734,10,0.158083880726981,1
149,735,10,0.221143128140859,3
149,736,10,0.159091995962987,1
149,737,10,0.0981795321783704,1
149,738,10,0.079765002160632,1
149,739,10,0.0707331746953145,1
149,742,10,0.0862703840462269,1
149,743,10,0.127798363439864,2
149,744,10,0.12434378410279,2
150,742,10,0.15616464868718,2
150,743,10,0.315257698850739,2
150,744,10,0.329260884644869,2
150,745,10,0.183504861350103,2
151,742,10,0.231193564929699,2
151,743,10,0.512008207047292,2
151,744,10,0.561854547730225,2
151,745,10,0.306174059823199,2
151,746,10,0.11692438037205,1
152,742,10,0.178852578387719,2
152,743,10,0.394630664183737,2
152,744,10,0.446704123371368,2
152,745,10,0.252309969086047,2
152,746,10,0.1052041497743,1
153,743,10,0.169439825129209,2
153,744,10,0.192700880554571,2
153,745,10,0.129481610285624,1
154,744,10,0.0805768743662218,1
134,763,11,0.071035766198247,1
135,729,11,0.0705301811873691,1
135,730,11,0.072057412338191,1
135,763,11,0.0722038623608899,1
136,729,11,0.0812661118984073,1
136,730,11,0.0853337987149678,1
136,731,11,0.0681751629961799,1
137,729,11,0.0856748805183447,1
137,730,11,0.0867252835727662,1
138,729,11,0.0778128443222722,1
138,730,11,0.0741904554213558,1
139,729,11,0.072136914634767,1
139,758,11,0.083551732545098,1
139,759,11,0.088524037258515,1
139,760,11,0.0709702081001514,1
140,728,11,0.0722411906447941,1
140,729,11,0.0825833534829397,1
140,730,11,0.073308161419575,1
140,757,11,0.0756468155427882,1
140,758,11,0.0936143705076081,1
140,759,11,0.0964079361369127,1
140,760,11,0.0782619876740952,1
141,728,11,0.0845720429649985,1
141,729,11,0.107832511392314,1
141,730,11,0.09661384666576,1
141,754,11,0.0689095275005949,1
141,755,11,0.0835550329116627,1
141,756,11,0.0881717366047285,1
141,758,11,0.0867317345614962,1
141,759,11,0.0866406300688479,1
141,760,11,0.07453522093696,1
142,728,11,0.0826996449835818,1
142,729,11,0.1122447840312,1
142,730,11,0.104572216428911,1
142,754,11,0.0784482816866097,1
142,755,11,0.100495059776527,1
142,756,11,0.103227403905545,1
142,757,11,0.0869658269863271,1
142,759,11,0.0737607249334823,1
143,729,11,0.0869461805211143,1
143,730,11,0.0890280649276382,1
143,731,11,0.0685266969586409,1
143,744,11,0.0767721387151614,1
143,745,11,0.0785924376251085,1
143,746,11,0.0765968239620173,1
143,749,11,0.0779808874873772,1
143,750,11,0.101347081450507,1
143,751,11,0.0909197859263649,1
143,752,11,0.0684972931483575,1
143,754,11,0.0805368327137988,1
143,755,11,0.103887680870869,1
143,756,11,0.106276643122534,1
143,757,11,0.0902405453302892,1
144,730,11,0.0790475527835831,1
144,731,11,0.0819544329948679,1
144,743,11,0.0775174046118592,1
144,744,11,0.0935099926713893,1
144,745,11,0.104937508906797,1
144,746,11,0.112317200422792,1
144,747,11,0.0938627365685982,1
144,748,11,0.0811894906840775,1
144,749,11,0.107863837920687,1
144,750,11,0.145070505413464,1
144,751,11,0.124562243212314,1
144,752,11,0.082825250585872,1
144,756,11,0.0993528274665634,1
145,730,11,0.0832198630171776,1
145,731,11,0.102624748585143,1
145,732,11,0.091969727768036,1
145,738,11,0.0703314703692491,1
145,742,11,0.0707057654804323,1
145,743,11,0.0863340793239929,1
145,744,11,0.0985662261258311,1
145,745,11,0.108776979268762,1
145,746,11,0.120817399331273,1
145,747,11,0.103926470660113,1
145,748,11,0.0844782610424874,1
145,749,11,0.098135800823944,1
145,750,11,0.127144974716916,1
145,751,11,0.113612705110295,1
146,730,11,0.074392903859687,1
146,731,11,0.0965834485526641,1
146,732,11,0.092953087259919,1
146,733,11,0.0901355146084886,1
146,734,11,0.131636216562315,1
146,735,11,0.195203049572249,3
146,736,11,0.139808511174574,1
146,737,11,0.10570350541816,1
146,738,11,0.101584600027198,1
146,739,11,0.085699917781939,1
146,741,11,0.069296401141335,1
146,742,11,0.0823236727351243,1
146,743,11,0.10127438952922,1
146,744,11,0.104792077146015,1
146,745,11,0.0940067487524734,1
146,746,11,0.0940797221932317,1
146,747,11,0.0871390273485504,1
146,748,11,0.0779093156541981,1
147,731,11,0.0720108118810705,1
147,732,11,0.074958979618182,1
147,733,11,0.119649932095108,1
147,734,11,0.285945196712389,3
147,735,11,0.439495787366595,3
147,736,11,0.301921702223414,3
147,737,11,0.159797268125469,1
147,738,11,0.122431643957749,1
147,739,11,0.0992457242822739,1
147,740,11,0.0721582621963579,1
147,741,11,0.073377403229898,1
147,742,11,0.0859975257912566,1
147,743,11,0.106299619903192,1
147,744,11,0.107097697654701,1
147,745,11,0.0880413152225508,1
148,733,11,0.125074632608705,3
148,734,11,0.316934356942922,3
148,735,11,0.479541656591863,3
148,736,11,0.324391053018909,3
148,737,11,0.156522561761059,3
148,738,11,0.108248321640811,1
148,739,11,0.0906745824670919,1
148,740,11,0.0738782203790963,1
148,741,11,0.0731013284652268,1
148,742,11,0.0787393548503337,1
149,734,11,0.211392970801423,3
149,735,11,0.29183448821006,3
149,736,11,0.20315717258423,3
149,743,11,0.118310474431467,1
149,744,11,0.123773401695365,1
150,742,11,0.141250525782535,1
150,743,11,0.262607256522555,2
150,744,11,0.281557470175468,2
150,745,11,0.171843905575446,1
151,742,11,0.206615022338989,2
151,743,11,0.421653873942721,2
151,744,11,0.46230868775317,2
151,745,11,0.266768042427165,2
151,746,11,0.123329894722739,1
152,742,11,0.168822686530489,2
152,743,11,0.335393912106698,2
152,744,11,0.373984050137013,2
152,745,11,0.226568691182197,2
152,746,11,0.119497947519404,1
153,743,11,0.154137828291236,2
153,744,11,0.170356260854073,2
153,745,11,0.125802270594695,1
154,744,11,0.0839879799092372,1
132,731,12,0.0847082684401004,1
132,732,12,0.0707501916488722,1
133,730,12,0.0710115555237379,1
133,731,12,0.0856284178260717,1
133,732,12,0.0713489596046633,1
134,730,12,0.0769887649532361,1
134,731,12,0.0834027907755917,1
134,732,12,0.0698199494903755,1
134,763,12,0.0690498859211226,1
135,729,12,0.0746753038277927,1
135,730,12,0.0896757633634058,1
135,731,12,0.0901243137274069,1
135,732,12,0.0718634873510786,1
135,763,12,0.0709915137333104,1
136,729,12,0.0867844146412359,1
136,730,12,0.10583559195806,1
136,731,12,0.097275177831657,1
136,732,12,0.069580472256939,1
137,729,12,0.0889398594865641,1
137,730,12,0.101332538274429,1
137,731,12,0.0849017441940143,1
138,729,12,0.0775965714809803,1
138,730,12,0.0816034560815729,1
139,729,12,0.0722842271852068,1
139,730,12,0.0703734646886414,1
139,758,12,0.0837626205777843,1
139,759,12,0.0863658131571323,1
139,760,12,0.0726253808658954,1
140,728,12,0.0701779643904464,1
140,729,12,0.0825124824535503,1
140,730,12,0.0774206218115824,1
140,757,12,0.0821671658785559,1
140,758,12,0.0969073696478596,1
140,759,12,0.0975161225602085,1
140,760,12,0.0817358481000478,1
141,728,12,0.0807771125772166,1
141,729,12,0.106151864109329,1
141,730,12,0.0987390311628398,1
141,754,12,0.0739382259548589,1
141,755,12,0.0819419922301584,1
141,758,12,0.0922270425543395,1
141,759,12,0.0907351271226927,1
141,760,12,0.0781096856402644,1
142,728,12,0.0802339297425154,1
142,729,12,0.112755616085836,1
142,730,12,0.108607863933757,1
142,731,12,0.0731740742944978,1
142,750,12,0.0726397623180222,1
142,751,12,0.077310829217878,1
142,752,12,0.0723389857172115,1
142,753,12,0.071193590805531,1
142,754,12,0.0812493165665607,1
142,756,12,0.0961714717607938,1
142,759,12,0.0771709559692047,1
143,729,12,0.0865606965084015,1
143,730,12,0.093086353785687,1
143,731,12,0.0773281815988907,1
143,743,12,0.0821562644862732,1
143,744,12,0.093849954386658,1
143,745,12,0.0859263792321721,1
143,746,12,0.079777856219884,1
143,747,12,0.0727079858664288,1
143,748,12,0.0710797251641606,1
143,749,12,0.0822514420265875,1
143,750,12,0.104000564188979,1
143,751,12,0.101025083073401,1
143,752,12,0.0803647644192356,1
143,756,12,0.0991248026847997,1
144,730,12,0.087631273128322,1
144,731,12,0.101626899825166,1
144,732,12,0.0884348674635081,1
144,742,12,0.0833101169616368,1
144,743,12,0.108968520325035,1
144,744,12,0.123088710403148,1
144,745,12,0.114008114181806,1
144,746,12,0.109434860323695,1
144,747,12,0.0977174089819997,1
144,748,12,0.0910247148219738,1
144,749,12,0.108747198102592,1
144,750,12,0.138661157606148,1
144,751,12,0.126632010302031,1
145,730,12,0.0939934514497989,1
145,731,12,0.129873293716476,1
145,732,12,0.124745422541319,1
145,733,12,0.0872863279194384,1
145,734,12,0.0696565304323267,1
145,735,12,0.0682124613312042,1
145,736,12,0.0710148738596305,1
145,737,12,0.103393895718671,1
145,738,12,0.125075387320478,1
145,739,12,0.0893353344456108,1
145,742,12,0.0844183812520203,1
145,743,12,0.107388273667018,1
145,744,12,0.120468866246577,1
145,745,12,0.115302780300671,1
145,746,12,0.118372995713141,1
145,747,12,0.107662030388386,1
145,748,12,0.0928524350643594,1
146,731,12,0.117615744274709,1
146,732,12,0.122705185047181,1
146,733,12,0.114159871146022,1
146,734,12,0.153414227414256,1
146,735,12,0.20395666392287,3
146,736,12,0.169734222618602,3
146,737,12,0.187437424810342,1
146,738,12,0.2090525736534,1
146,739,12,0.136794994981526,1
146,740,12,0.0680327740415951,1
146,742,12,0.0852784232360373,1
146,743,12,0.105701816301333,1
146,744,12,0.112616797037735,1
146,745,12,0.100478809514294,1
147,732,12,0.0873321137670257,1
147,733,12,0.135756068337881,1
147,734,12,0.295952387318657,3
147,735,12,0.433358231634125,3
147,736,12,0.327989518754564,3
147,737,12,0.241381790525171,3
147,738,12,0.224286778206837,3
147,739,12,0.146821029423025,1
147,740,12,0.0776096471619435,1
147,741,12,0.0752532093938471,1
147,742,12,0.089930244985671,1
148,733,12,0.139429190641344,3
148,734,12,0.332654931305895,3
148,735,12,0.485427306305739,3
148,736,12,0.34883415479517,3
148,737,12,0.203434595048497,3
148,738,12,0.157743901042384,1
149,734,12,0.273291195978091,3
149,735,12,0.352166578640919,3
149,736,12,0.242489419899301,3
149,743,12,0.118362561523385,1
149,744,12,0.124239550021194,1
149,745,12,0.104020665877166,1
150,735,12,0.234447043528037,3
150,742,12,0.130728789460524,1
150,743,12,0.225896398726257,1
150,744,12,0.23441055381277,2
150,745,12,0.151459823409904,1
150,746,12,0.10390627313551,1
151,742,12,0.176653288382221,1
151,743,12,0.32333778685157,2
151,744,12,0.336542799057775,2
151,745,12,0.206619862077981,2
151,746,12,0.122012814862158,1
152,742,12,0.144680606935854,1
152,743,12,0.250358356317302,2
152,744,12,0.264709428300321,2
152,745,12,0.179198559827847,1
152,746,12,0.126494113679431,1
153,743,12,0.13331979883553,1
153,744,12,0.14043785693674,1
153,745,12,0.116573487315619,1
125,745,13,0.0773143152674981,1
126,745,13,0.0688230950332107,1
132,731,13,0.0864634824442541,1
132,732,13,0.079941227359725,1
133,730,13,0.0715683171805847,1
133,731,13,0.0915762653737184,1
133,732,13,0.0842944168483486,1
134,729,13,0.0688213280492967,1
134,730,13,0.0817671566590927,1
134,731,13,0.100266292262542,1
134,732,13,0.0900946763158603,1
135,729,13,0.0765572435223448,1
135,730,13,0.099013356912925,1
135,731,13,0.116334447335829,1
135,732,13,0.0984282755952472,1
136,729,13,0.0842961059651748,1
136,730,13,0.111229397207154,1
136,731,13,0.118901892932131,1
136,732,13,0.091177502027659,1
137,729,13,0.0842405747520688,1
137,730,13,0.104507431011917,1
137,731,13,0.101160499928746,1
137,732,13,0.0724974272714213,1
138,729,13,0.0734635841266911,1
138,730,13,0.0832404498772192,1
138,731,13,0.0758454784427004,1
139,729,13,0.0712392748269266,1
139,730,13,0.0734348751304214,1
139,758,13,0.0828765350478085,1
139,759,13,0.080096087027899,1
139,760,13,0.0707707425702579,1
140,729,13,0.077580291269868,1
140,730,13,0.0773297928486292,1
140,757,13,0.0909779167022459,1
140,758,13,0.0959839558339795,1
140,759,13,0.092401345035343,1
140,760,13,0.0789212763263832,1
141,728,13,0.0709957544947039,1
141,729,13,0.0908734789682673,1
141,730,13,0.0903584540704457,1
141,731,13,0.0684488059118035,1
141,751,13,0.075740992790514,1
141,752,13,0.0772951180354838,1
141,753,13,0.0758460055429866,1
141,754,13,0.0759052983354077,1
141,758,13,0.0931171951422054,1
141,759,13,0.090167847419226,1
141,760,13,0.0769214278916746,1
142,728,13,0.0712557227517663,1
142,729,13,0.0960150607406411,1
142,730,13,0.0988814440765284,1
142,731,13,0.0765219337929456,1
142,749,13,0.0707591224048577,1
142,750,13,0.0855314014245317,1
142,751,13,0.0983437119379685,1
142,752,13,0.0942937069400995,1
142,759,13,0.0795041234576207,1
143,729,13,0.0780088597412014,1
143,730,13,0.089200564486072,1
143,731,13,0.0834360520016058,1
143,742,13,0.081756554755609,1
143,743,13,0.0971593535335414,1
143,744,13,0.0998185205694178,1
143,745,13,0.086813620788912,1
143,746,13,0.0800217239591135,1
143,747,13,0.0797975625828566,1
143,748,13,0.0808318711092212,1
143,749,13,0.0860635091634468,1
143,750,13,0.100827719954876,1
143,751,13,0.107643989183135,1
144,730,13,0.0904514094038716,1
144,731,13,0.113600809415199,1
144,732,13,0.10643157466802,1
144,733,13,0.0737756754143272,1
144,741,13,0.0760091610508923,1
144,742,13,0.113610141486176,1
144,743,13,0.139427621320037,1
144,744,13,0.139450789773526,1
144,745,13,0.115640316156668,1
144,746,13,0.100768493049991,1
144,747,13,0.0972613174900404,1
144,748,13,0.0968719880411487,1
145,730,13,0.0969542636040032,1
145,731,13,0.142032598852627,1
145,732,13,0.144235662416992,1
145,733,13,0.10361990194593,1
145,734,13,0.0881589304636844,1
145,735,13,0.085204575287986,1
145,736,13,0.0934179537736883,1
145,737,13,0.144699618484813,1
145,738,13,0.177904684359411,1
145,739,13,0.107175732456162,1
145,741,13,0.0731250659474335,1
145,742,13,0.105891153120046,1
145,743,13,0.127317480265126,1
145,744,13,0.131654341624429,1
145,745,13,0.118636941181454,1
145,746,13,0.11194361809495,1
146,731,13,0.123218580725936,1
146,732,13,0.135297431191131,1
146,733,13,0.127037937420162,1
146,734,13,0.165929948180292,1
146,735,13,0.196970716320664,3
146,736,13,0.196726525133531,3
146,737,13,0.283206000279651,3
146,738,13,0.336826283175333,3
146,739,13,0.192731524248482,1
146,740,13,0.0750686164777108,1
146,741,13,0.0703741894515349,1
146,742,13,0.0917269202191549,1
146,743,13,0.106281219311383,1
147,733,13,0.136641860368834,1
147,734,13,0.265261206463553,3
147,735,13,0.356433263784846,3
147,736,13,0.310836884791307,3
147,737,13,0.319182703213692,3
147,738,13,0.342611568202896,3
147,739,13,0.199248855737156,3
148,733,13,0.14034148144123,3
148,734,13,0.301733527421242,3
148,735,13,0.409275067476024,3
148,736,13,0.322894351756255,3
148,737,13,0.235508982890996,3
148,738,13,0.211488280116809,3
149,734,13,0.307778505176173,3
149,735,13,0.366154334772125,3
149,736,13,0.256184084312278,3
149,743,13,0.121403594747283,1
149,744,13,0.126853536176857,1
150,735,13,0.302220304535545,3
150,742,13,0.120155517105986,1
150,743,13,0.189077329637114,1
150,744,13,0.193657747267296,1
150,745,13,0.135189267816493,1
151,742,13,0.142938684244599,1
151,743,13,0.229354775581303,1
151,744,13,0.229571988817424,2
151,745,13,0.153920004097965,1
152,743,13,0.171935249659134,1
152,744,13,0.173056212274594,1
152,745,13,0.133274336435846,1
124,745,14,0.0782605321585322,1
125,744,14,0.0788829597294423,1
125,745,14,0.0947452042738825,1
125,746,14,0.0770249911183602,1
126,745,14,0.0806493925840056,1
132,731,14,0.0789062599580026,1
132,732,14,0.0842683014250779,1
133,730,14,0.0699207394507826,1
133,731,14,0.0902755735402173,1
133,732,14,0.0940526004875965,1
133,733,14,0.0696991476884209,1
134,729,14,0.0703045043977894,1
134,730,14,0.0840678296128199,1
134,731,14,0.109987524973772,1
134,732,14,0.107031151243569,1
134,733,14,0.0719860381676192,1
135,729,14,0.0757317146275217,1
135,730,14,0.10233511895743,1
135,731,14,0.131959664465208,1
135,732,14,0.118119125048026,1
135,733,14,0.0728618572215662,1
136,729,14,0.0784525703662111,1
136,730,14,0.108928065378069,1
136,731,14,0.130256890949755,1
136,732,14,0.106144915969193,1
137,729,14,0.0785322343867385,1
137,730,14,0.10216621925436,1
137,731,14,0.111355002809445,1
137,732,14,0.0853778355479691,1
138,729,14,0.0725822005708592,1
138,730,14,0.0834220359258138,1
138,731,14,0.0825191730333193,1
138,751,14,0.072361908589885,1
138,759,14,0.0678105054345477,1
139,729,14,0.0737101772139913,1
139,730,14,0.0769226857446303,1
139,731,14,0.0679718101016757,1
139,750,14,0.0739238684618361,1
139,751,14,0.0770033979759541,1
139,752,14,0.0686989329669316,1
139,758,14,0.0841566639803719,1
139,759,14,0.0775891920769735,1
139,760,14,0.0701320108291316,1
140,729,14,0.0749682038731904,1
140,730,14,0.0777296403441409,1
140,750,14,0.0678578186750098,1
140,751,14,0.0698999429485817,1
140,752,14,0.0698123125260016,1
140,753,14,0.0691808044547066,1
140,754,14,0.0708062319929365,1
140,757,14,0.0975716837221944,1
140,758,14,0.0943228771491196,1
140,759,14,0.0891156654013385,1
140,760,14,0.0766998660781927,1
141,729,14,0.0765950330189995,1
141,730,14,0.0812984207500407,1
141,731,14,0.0699949288160647,1
141,740,14,0.0756447011518675,1
141,741,14,0.0810722228499507,1
141,742,14,0.0807519195794468,1
141,750,14,0.0752934846475333,1
141,751,14,0.0865846076941116,1
141,752,14,0.0899894000132446,1
141,753,14,0.0829882144209463,1
141,758,14,0.0944570840697164,1
141,759,14,0.0907815658558618,1
141,760,14,0.0768337735099905,1
142,729,14,0.0771690691897712,1
142,730,14,0.0860194304020136,1
142,731,14,0.0781387660026449,1
142,741,14,0.0791107688792708,1
142,742,14,0.0855442974122155,1
142,743,14,0.0751309281172256,1
142,747,14,0.0706320792563324,1
142,748,14,0.0707829018154963,1
142,749,14,0.0741738457725647,1
142,750,14,0.0908123592941725,1
142,751,14,0.111433624608951,1
142,752,14,0.11166886707077,1
142,759,14,0.0819728994742127,1
143,730,14,0.0818478209722087,1
143,731,14,0.0870744156350595,1
143,732,14,0.0787720590271818,1
143,741,14,0.0788603183762398,1
143,742,14,0.0993455678580762,1
143,743,14,0.101815733502695,1
143,744,14,0.0893640314623286,1
143,745,14,0.0785611110967357,1
143,746,14,0.0774155245122238,1
143,747,14,0.0841131782067607,1
143,748,14,0.0856029313292789,1
143,749,14,0.0846372716254153,1
144,730,14,0.0850136751377433,1
144,731,14,0.114171790800222,1
144,732,14,0.113824204100131,1
144,733,14,0.0821796485716972,1
144,741,14,0.088139170192728,1
144,742,14,0.125702732497467,1
144,743,14,0.141952707220613,1
144,744,14,0.128276287665269,1
144,745,14,0.106630291475916,1
144,746,14,0.0933707303798658,1
144,747,14,0.0951545395745457,1
145,730,14,0.0901688057833827,1
145,731,14,0.137050962068234,1
145,732,14,0.144418769868686,1
145,733,14,0.109164170367629,1
145,734,14,0.09734325762544,1
145,735,14,0.0970414447933848,1
145,736,14,0.104069051287529,1
145,737,14,0.166895991229818,3
145,738,14,0.207110688280845,3
145,739,14,0.118761456644516,1
145,740,14,0.0678560576808718,1
145,741,14,0.0808870249664405,1
145,742,14,0.113828768309427,1
145,743,14,0.128626066623368,1
146,731,14,0.111915561984262,1
146,732,14,0.126589566749441,1
146,733,14,0.125620217343574,1
146,734,14,0.165449831696879,1
146,735,14,0.188481490681777,1
146,736,14,0.204417038104655,3
146,737,14,0.345057026021599,3
146,738,14,0.426027272935499,3
146,739,14,0.238544218011745,3
146,740,14,0.0843444674164333,1
147,735,14,0.280693504888184,3
147,736,14,0.272537226936895,3
147,737,14,0.368890536316874,3
147,738,14,0.43318184471108,3
147,739,14,0.248608527121754,3
148,734,14,0.253664089721286,3
148,735,14,0.321111890261171,3
148,736,14,0.27247720938158,3
148,737,14,0.252122608893409,3
148,738,14,0.252095055923903,3
149,734,14,0.309350941166312,3
149,735,14,0.353377016529961,3
149,736,14,0.25320340407115,3
150,734,14,0.320723848614114,3
150,735,14,0.336549291974936,3
150,736,14,0.216955220530614,3
150,743,14,0.152533227204087,1
150,744,14,0.167306518495901,1
151,735,14,0.178932458040182,3
151,743,14,0.153874038557098,1
151,744,14,0.162999677893807,1
124,745,15,0.0809507861317423,1
125,744,15,0.0809702469138997,1
125,745,15,0.0965072645919808,1
125,746,15,0.0800362671351917,1
126,744,15,0.0695631857634621,1
126,745,15,0.0814184139322381,1
126,746,15,0.0686315300178342,1
132,731,15,0.0684307467372253,1
132,732,15,0.0801356075698118,1
132,733,15,0.0725825000596582,1
133,730,15,0.068903346051784,1
133,731,15,0.0844073301153382,1
133,732,15,0.0944448229982864,1
133,733,15,0.0763805990389333,1
134,729,15,0.0709926398111946,1
134,730,15,0.0859422401589658,1
134,731,15,0.108658777029583,1
134,732,15,0.112146755357519,1
134,733,15,0.0801572905588576,1
135,729,15,0.0733543605617049,1
135,730,15,0.0994527309401255,1
135,731,15,0.12747759895661,1
135,732,15,0.120765755482777,1
135,733,15,0.0792816212493101,1
136,729,15,0.0721560040508136,1
136,730,15,0.100662150567251,1
136,731,15,0.125088900255088,1
136,732,15,0.109469996349591,1
136,733,15,0.0697644062977175,1
136,754,15,0.0727383719999728,1
137,729,15,0.0725644888032878,1
137,730,15,0.0954153044718134,1
137,731,15,0.111053537384396,1
137,732,15,0.0923549721897097,1
137,753,15,0.0688896534238949,1
137,754,15,0.0721568665785547,1
138,729,15,0.0711952020552694,1
138,730,15,0.0823663259298744,1
138,731,15,0.0859559507561829,1
138,732,15,0.0698086467831022,1
138,750,15,0.0814471828262676,1
138,751,15,0.084967583811581,1
138,752,15,0.0767193208705742,1
138,753,15,0.0713479353529708,1
138,754,15,0.0695693013247372,1
138,761,15,0.0677625093596239,1
139,729,15,0.072724859065363,1
139,730,15,0.0778593189940971,1
139,731,15,0.0726247938678494,1
139,749,15,0.0770528914948727,1
139,750,15,0.0856247760422761,1
139,751,15,0.085455906288086,1
139,752,15,0.0783908756736222,1
139,753,15,0.0738442583492925,1
139,759,15,0.0741019085630508,1
139,760,15,0.0695636409864366,1
140,729,15,0.0709044223905685,1
140,730,15,0.0762134064220174,1
140,731,15,0.0696484262654264,1
140,741,15,0.0747433836215757,1
140,742,15,0.0785543725987587,1
140,743,15,0.0685669003350154,1
140,747,15,0.0681514255139731,1
140,748,15,0.0722518105176058,1
140,749,15,0.0780593475629327,1
140,750,15,0.0777294546610855,1
140,751,15,0.0765779741370099,1
140,752,15,0.0768877294120139,1
140,753,15,0.0753906747525767,1
140,758,15,0.0877900740690906,1
140,759,15,0.0814975149138234,1
140,760,15,0.0730365250789045,1
141,730,15,0.0737662055785036,1
141,731,15,0.0710589765801676,1
141,740,15,0.0779214329710046,1
141,741,15,0.0980389161974755,1
141,742,15,0.106395659971247,1
141,743,15,0.0827791173312778,1
141,747,15,0.0693739627504936,1
141,748,15,0.0719410549500132,1
141,749,15,0.0749392073676736,1
141,750,15,0.079513976639107,1
141,751,15,0.0908319937798333,1
141,752,15,0.0963306201085692,1
141,759,15,0.0840932082936451,1
142,730,15,0.0744172642785957,1
142,731,15,0.0784044904344236,1
142,732,15,0.0741791167754266,1
142,740,15,0.0767883829876178,1
142,741,15,0.102852563724747,1
142,742,15,0.115017714882255,1
142,743,15,0.0905646101801083,1
142,746,15,0.0690119586596204,1
142,747,15,0.076265834931166,1
142,748,15,0.0761983481252049,1
142,749,15,0.0772056008334701,1
143,730,15,0.0731083185337948,1
143,731,15,0.0870365123326612,1
143,732,15,0.0902190659936267,1
143,733,15,0.0769335392187051,1
143,740,15,0.0729275351151815,1
143,741,15,0.0945526569352454,1
143,742,15,0.109552271912445,1
143,743,15,0.0990026412036977,1
143,744,15,0.0810527860268972,1
143,745,15,0.075876852889281,1
143,746,15,0.0795462854907404,1
143,747,15,0.0872490954719498,1
144,731,15,0.102414866834821,1
144,732,15,0.111062054845839,1
144,733,15,0.088474927085259,1
144,734,15,0.0687469769600631,1
144,737,15,0.0678812087502098,1
144,738,15,0.072416265806899,1
144,740,15,0.0738913978862512,1
144,741,15,0.096327780954755,1
144,742,15,0.119952200150137,1
144,743,15,0.125522488158692,1
145,731,15,0.114346296933608,1
145,732,15,0.126523451602179,1
145,733,15,0.104711993841169,1
145,734,15,0.0984740314939546,1
145,735,15,0.103828957107166,1
145,736,15,0.114069689078875,1
145,737,15,0.172930343122161,3
145,738,15,0.210761744249599,3
145,739,15,0.129038079353894,1
145,740,15,0.0834277202232183,1
145,741,15,0.090600039705027,1
146,732,15,0.104805458305553,1
146,735,15,0.17571596031874,1
146,736,15,0.203882175068789,3
146,737,15,0.35173895655419,3
146,738,15,0.440600014547968,3
146,739,15,0.258366015946988,3
147,736,15,0.241087428974434,3
147,737,15,0.373123654756213,3
147,738,15,0.45960495079423,3
147,739,15,0.276862659803629,3
148,735,15,0.242721008597772,3
148,737,15,0.248241856995392,3
148,738,15,0.269411737871686,3
149,735,15,0.300308775347654,3
150,735,15,0.305649547120226,3
125,744,16,0.0754948189875324,1
125,745,16,0.0864764143705939,1
126,745,16,0.0755207607072996,1
126,746,16,0.0677453007332348,1
131,733,16,0.0700251292665534,1
132,732,16,0.0747671869913183,1
132,733,16,0.0757850056644113,1
133,730,16,0.0729138125384124,1
133,731,16,0.083274393937695,1
133,732,16,0.0921945480196507,1
133,733,16,0.079366969567242,1
134,729,16,0.0742718145484854,1
134,730,16,0.0948796208366385,1
134,731,16,0.111312151952087,1
134,732,16,0.112922503224177,1
134,733,16,0.0845808479356884,1
135,729,16,0.0752274533571353,1
135,730,16,0.10302527292534,1
135,731,16,0.122673175684346,1
135,732,16,0.115923057542005,1
135,733,16,0.0811372418682083,1
135,754,16,0.0683223138226683,1
136,729,16,0.0715564394548173,1
136,730,16,0.0977456447859671,1
136,731,16,0.116360742452379,1
136,732,16,0.105251648697818,1
136,733,16,0.073024108273299,1
136,753,16,0.0791392143253974,1
136,754,16,0.083057564047237,1
137,729,16,0.0715702339088981,1
137,730,16,0.0914752058733922,1
137,731,16,0.104399734839805,1
137,732,16,0.0922544278101178,1
137,750,16,0.0687816098447766,1
137,751,16,0.073167000369066,1
137,752,16,0.0791208317029163,1
137,753,16,0.0843396156978899,1
137,754,16,0.0810486051632636,1
138,729,16,0.0722217238728607,1
138,730,16,0.0830711608387105,1
138,731,16,0.0863510483593429,1
138,732,16,0.074940555067269,1
138,739,16,0.0741888920898252,1
138,740,16,0.0713450902093805,1
138,749,16,0.0795844523432818,1
138,750,16,0.0862214775253542,1
138,751,16,0.0864419491996078,1
138,752,16,0.0851098649501981,1
138,753,16,0.08253651343478,1
138,761,16,0.069962410322272,1
139,729,16,0.0723043947609298,1
139,730,16,0.0794492630994244,1
139,731,16,0.0771650799989688,1
139,739,16,0.0697217051847597,1
139,748,16,0.0743034345758812,1
139,749,16,0.0853288331906808,1
139,750,16,0.0873370613219848,1
139,751,16,0.0841570832646905,1
139,752,16,0.0819706772673243,1
139,760,16,0.0704249707722891,1
140,729,16,0.0677989930851151,1
140,730,16,0.0754424443863676,1
140,731,16,0.0735570426012993,1
140,740,16,0.0681317431101044,1
140,741,16,0.0773453063684161,1
140,742,16,0.0845672571339909,1
140,743,16,0.0741590510258953,1
140,747,16,0.0693004861685531,1
140,748,16,0.0748085943126646,1
140,749,16,0.0814501297960496,1
140,750,16,0.0793156671359776,1
140,751,16,0.078915472233459,1
140,759,16,0.07881815634312,1
141,730,16,0.0704984473542297,1
141,731,16,0.0728190662619687,1
141,732,16,0.0681656572217004,1
141,739,16,0.0697132356415247,1
141,740,16,0.0783921335265779,1
141,741,16,0.104943510662328,1
141,742,16,0.120399923925053,1
141,743,16,0.0950477238995033,1
141,744,16,0.0696728465820949,1
141,746,16,0.0680165117998108,1
141,747,16,0.070749970027161,1
141,748,16,0.0722677553012632,1
141,749,16,0.0747861206731895,1
142,731,16,0.0778914840911071,1
142,732,16,0.0826821787968256,1
142,733,16,0.0754013006151644,1
142,738,16,0.068856619809368,1
142,739,16,0.0722841133794632,1
142,740,16,0.0846591163384126,1
142,741,16,0.115788407377986,1
142,742,16,0.13189901199364,1
142,743,16,0.103519932584832,1
142,744,16,0.0730111523878553,1
142,746,16,0.0719023849562895,1
142,747,16,0.0773272591733898,1
143,731,16,0.084426371613177,1
143,732,16,0.098294200449722,1
143,733,16,0.090339077145152,1
143,734,16,0.0689131333457346,1
143,738,16,0.069026669549426,1
143,739,16,0.073108282595139,1
143,740,16,0.0846941385585647,1
143,741,16,0.104358237671819,1
143,742,16,0.115523491565964,1
143,743,16,0.101074498725232,1
143,744,16,0.0827973322400315,1
144,731,16,0.0878765903933385,1
144,732,16,0.103989998224151,1
144,733,16,0.0918632535102244,1
144,734,16,0.0732541396300159,1
144,737,16,0.0775252332490644,1
144,738,16,0.0834459051830921,1
144,739,16,0.081072720001357,1
144,740,16,0.0870291628775344,1
144,741,16,0.101851815913196,1
145,732,16,0.104026655653146,1
145,733,16,0.0951651354882535,1
145,734,16,0.0917136169267044,1
145,735,16,0.100201387050028,1
145,736,16,0.115950886041206,1
145,737,16,0.163685375468388,1
145,738,16,0.194423791696867,3
146,737,16,0.306732139230761,3
146,738,16,0.381827374272925,3
146,739,16,0.241814467982826,3
147,736,16,0.208924176815503,3
147,737,16,0.327404102009431,3
147,738,16,0.406794150183522,3
147,739,16,0.260990783699414,3
148,737,16,0.227692804419822,3
148,738,16,0.253878763292391,3
126,745,17,0.068333227194503,1
131,733,17,0.0715761757666698,1
132,732,17,0.0719334239754153,1
132,733,17,0.0774871083249548,1
133,730,17,0.0784538461884947,1
133,731,17,0.0881841953387659,1
133,732,17,0.0905307140378402,1
133,733,17,0.0810716238723528,1
134,729,17,0.0736363592148199,1
134,730,17,0.103641692750943,1
134,731,17,0.119272372556016,1
134,732,17,0.1128630247487,1
134,733,17,0.086898058660895,1
135,729,17,0.074152983382828,1
135,730,17,0.105022372052874,1
135,731,17,0.120609230656881,1
135,732,17,0.109872137929303,1
135,733,17,0.0820868369928948,1
135,753,17,0.0728631749722817,1
135,754,17,0.0741755288996149,1
136,729,17,0.0711123993921288,1
136,730,17,0.0926086691513216,1
136,731,17,0.10482024107267,1
136,732,17,0.096813162451254,1
136,733,17,0.0762747117791676,1
136,751,17,0.0715836270479883,1
136,752,17,0.0845545707884663,1
136,753,17,0.0928524889723432,1
137,729,17,0.0704941347155245,1
137,730,17,0.084807441160993,1
137,731,17,0.0924298503792295,1
137,732,17,0.0870850055589913,1
137,733,17,0.0727323942035452,1
137,739,17,0.07361997118774,1
137,740,17,0.0740088154647774,1
137,748,17,0.0689329714837787,1
137,749,17,0.0746165141765539,1
137,750,17,0.0751479869992152,1
137,751,17,0.0806422467812621,1
137,752,17,0.0916191701390596,1
137,753,17,0.095574386932053,1
138,729,17,0.0708315208271219,1
138,730,17,0.0807541118374553,1
138,731,17,0.0839184026714593,1
138,732,17,0.0788993777054021,1
138,733,17,0.0681075504049232,1
138,738,17,0.0694456543791923,1
138,739,17,0.082058732963999,1
138,740,17,0.0797696502267921,1
138,741,17,0.0695529552260891,1
138,748,17,0.0766612559822289,1
138,749,17,0.0860119491718152,1
138,750,17,0.084251913397998,1
138,751,17,0.0846369721366163,1
138,752,17,0.0895602565234171,1
139,729,17,0.0692315977550128,1
139,730,17,0.078151296613994,1
139,731,17,0.0805856493880318,1
139,732,17,0.0759923237906139,1
139,738,17,0.0760660279840417,1
139,739,17,0.0829835364059063,1
139,740,17,0.0773969681862393,1
139,741,17,0.0714871617058384,1
139,746,17,0.0679700550973137,1
139,747,17,0.0709221461376918,1
139,748,17,0.0805624150470073,1
139,749,17,0.0890557916006474,1
139,750,17,0.0848000138387784,1
139,751,17,0.0825074989599353,1
140,730,17,0.0739672044910478,1
140,731,17,0.077349115865939,1
140,732,17,0.0738859651594378,1
140,738,17,0.0804209005997155,1
140,739,17,0.0823619893320652,1
140,740,17,0.0768461663564921,1
140,741,17,0.0800086123394944,1
140,742,17,0.0854252506146229,1
140,743,17,0.0798072181017355,1
140,744,17,0.0721435453167762,1
140,745,17,0.0709572462249317,1
140,746,17,0.0723791172162741,1
140,747,17,0.0728273800710282,1
140,748,17,0.0773211136632349,1
140,749,17,0.0823118429275648,1
141,730,17,0.0695380287043482,1
141,731,17,0.0751649021265813,1
141,732,17,0.0763486256147547,1
141,733,17,0.0695692833554093,1
141,737,17,0.068844616298305,1
141,738,17,0.0808513139220507,1
141,739,17,0.0826673301421724,1
141,740,17,0.0852143506023846,1
141,741,17,0.101596244151703,1
141,742,17,0.1142786723628,1
141,743,17,0.100292419665364,1
141,744,17,0.079160951222427,1
141,745,17,0.072397565726291,1
141,746,17,0.0747784537599357,1
141,747,17,0.074867503759423,1
142,731,17,0.0774202085170398,1
142,732,17,0.0907492150757965,1
142,733,17,0.0876472418710833,1
142,734,17,0.0708426558206678,1
142,737,17,0.0720211921628429,1
142,738,17,0.0825704395259279,1
142,739,17,0.088500641193539,1
142,740,17,0.0978966709975143,1
142,741,17,0.117711556731277,1
142,742,17,0.129230363142388,1
142,743,17,0.112118699246831,1
142,744,17,0.0845110670455272,1
142,745,17,0.0748590461957399,1
143,731,17,0.0824334473595007,1
143,732,17,0.106182951046663,1
143,733,17,0.104493954015963,1
143,734,17,0.0816152020322687,1
143,737,17,0.075665299991461,1
143,738,17,0.0856881718312432,1
143,739,17,0.0934924246584414,1
143,740,17,0.102817319882884,1
143,741,17,0.113925946434919,1
143,742,17,0.119850877099668,1
143,743,17,0.110695324821718,1
144,732,17,0.101374658379117,1
144,733,17,0.0991676176035012,1
144,734,17,0.0825035996157726,1
144,735,17,0.0735257759706863,1
144,736,17,0.0778404272406578,1
144,737,17,0.088848132057214,1
144,738,17,0.098794484508858,1
144,739,17,0.102638956333766,1
144,740,17,0.105234014797334,1
144,741,17,0.110167817230755,1
145,734,17,0.0871406625573928,1
146,738,17,0.28722974010985,3
147,737,17,0.270621504905818,3
147,738,17,0.302380207595093,3
131,733,18,0.0712691697988403,1
132,732,18,0.0712480318794087,1
132,733,18,0.0788568742550516,1
132,734,18,0.0738412275226469,1
133,730,18,0.0824992031202037,1
133,731,18,0.0955604786722286,1
133,732,18,0.0905829748332614,1
133,733,18,0.0820786190202509,1
133,734,18,0.0700127064711719,1
133,747,18,0.0705289712526212,1
133,748,18,0.0683594743928452,1
134,729,18,0.0722803518001481,1
134,730,18,0.109294951136366,1
134,731,18,0.132388879832348,1
134,732,18,0.115441180064454,1
134,733,18,0.0877984597554619,1
134,747,18,0.0686980524698626,1
134,748,18,0.0679391598328115,1
134,752,18,0.0742969835871513,1
135,729,18,0.0732999494367071,1
135,730,18,0.106511945482113,1
135,731,18,0.12803101831846,1
135,732,18,0.110839115383882,1
135,733,18,0.0848811693135247,1
135,740,18,0.0680059817736388,1
135,741,18,0.0707933719439085,1
135,748,18,0.0695640602707551,1
135,749,18,0.071071704854124,1
135,750,18,0.0713202506083935,1
135,751,18,0.0731664852483318,1
135,752,18,0.0852676715881541,1
136,729,18,0.0704268695312746,1
136,730,18,0.0884877691649591,1
136,731,18,0.101417185788571,1
136,732,18,0.0939865572176465,1
136,733,18,0.0818059883767678,1
136,740,18,0.0731672878783131,1
136,741,18,0.0699464116306307,1
136,747,18,0.0679969611710137,1
136,748,18,0.0729778612129613,1
136,749,18,0.0756501578377848,1
136,750,18,0.077372224421668,1
136,751,18,0.0837151276440428,1
136,752,18,0.0996873684345706,1
137,729,18,0.068828270199657,1
137,730,18,0.0794472026164875,1
137,731,18,0.0864315569382834,1
137,732,18,0.0861787764123964,1
137,733,18,0.0824149090028441,1
137,734,18,0.0691765457239852,1
137,739,18,0.0794837103010826,1
137,740,18,0.0831195342695209,1
137,741,18,0.0739657729345887,1
137,746,18,0.0677874927152345,1
137,747,18,0.0715784758406459,1
137,748,18,0.0783671022527595,1
137,749,18,0.0810477306559706,1
137,750,18,0.0804834338609415,1
137,751,18,0.0864455849936274,1
137,752,18,0.0986096819505624,1
138,730,18,0.0771987305604216,1
138,731,18,0.0839952514972763,1
138,732,18,0.0856048959758001,1
138,733,18,0.0816902419457399,1
138,734,18,0.0686396281949585,1
138,738,18,0.0780505905104506,1
138,739,18,0.0925486096675751,1
138,740,18,0.0947160580239662,1
138,741,18,0.0822348144084684,1
138,742,18,0.0679051978030077,1
138,746,18,0.0703331714656273,1
138,747,18,0.0748484622615842,1
138,748,18,0.0822631400590755,1
138,749,18,0.0851740753486984,1
138,750,18,0.0818618310582247,1
139,730,18,0.0757870361984684,1
139,731,18,0.0850992091387306,1
139,732,18,0.0870773865639454,1
139,733,18,0.0795520296859048,1
139,737,18,0.0756558601045173,1
139,738,18,0.09457118331235,1
139,739,18,0.105333133610243,1
139,740,18,0.10104929374791,1
139,741,18,0.0870779795517673,1
139,742,18,0.075542862980664,1
139,743,18,0.0717531496877602,1
139,744,18,0.0699741562729678,1
139,745,18,0.0706806743088541,1
139,746,18,0.0738931648701651,1
139,747,18,0.0774661980170104,1
139,748,18,0.0843408975099495,1
139,749,18,0.0874578032261796,1
140,730,18,0.0728345198839958,1
140,731,18,0.0824145855549412,1
140,732,18,0.084378453405341,1
140,733,18,0.0762911477244554,1
140,737,18,0.0838129526653401,1
140,738,18,0.102386044032808,1
140,739,18,0.106267622519909,1
140,740,18,0.0969165939028681,1
140,741,18,0.0871448494108025,1
140,742,18,0.0849925312285356,1
140,743,18,0.0853480903204549,1
140,744,18,0.080500534671363,1
140,745,18,0.0781026835921444,1
140,746,18,0.0785856571986997,1
140,747,18,0.0783063000367916,1
140,748,18,0.0809951164637666,1
141,731,18,0.0790608980044654,1
141,732,18,0.0855990499544442,1
141,733,18,0.0812607211000257,1
141,734,18,0.0700757249042522,1
141,736,18,0.0685513628561245,1
141,737,18,0.0820291853990921,1
141,738,18,0.0962095727257995,1
141,739,18,0.100867875413043,1
141,740,18,0.098299746982279,1
141,741,18,0.0978025776066523,1
141,742,18,0.103436806473788,1
141,743,18,0.102457801549042,1
141,744,18,0.0891543234155102,1
141,745,18,0.0822144970883459,1
141,746,18,0.081982435197572,1
142,731,18,0.0789114351244489,1
142,732,18,0.098552539487718,1
142,733,18,0.100722611365988,1
142,734,18,0.0832352567414449,1
142,735,18,0.0683734245811014,1
142,736,18,0.0704837424542,1
142,737,18,0.0815936508182944,1
142,738,18,0.0963785922243891,1
142,739,18,0.110026182987944,1
142,740,18,0.116364551949902,1
142,741,18,0.118061060159681,1
142,742,18,0.121415047198956,1
142,743,18,0.115663879935372,1
142,744,18,0.0946508113942215,1
143,731,18,0.0819583323390305,1
143,732,18,0.112626524433925,1
143,733,18,0.118820587712986,1
143,734,18,0.0968488615160918,1
143,735,18,0.076224637251979,1
143,736,18,0.0753050628845017,1
143,737,18,0.0859269542506661,1
143,738,18,0.103225511136335,1
143,739,18,0.121392980864247,1
143,740,18,0.129023260648121,1
143,741,18,0.127616945104997,1
143,742,18,0.126020142706173,1
144,732,18,0.102212244692987,1
144,733,18,0.108821099958627,1
144,734,18,0.0951499454163695,1
144,735,18,0.0828390989479366,1
144,736,18,0.0849425645173146,1
144,737,18,0.0959652138249396,1
144,740,18,0.12467748650216,1
126,744,19,0.0689272931761501,1
127,744,19,0.0683133171791471,1
127,745,19,0.0693885957732116,1
128,746,19,0.0683459854173393,1
129,746,19,0.0705894679900142,1
129,747,19,0.0704399512020139,1
130,745,19,0.0682078192548201,1
130,746,19,0.0752109994425196,1
130,747,19,0.0751127671164557,1
130,748,19,0.0718831338162914,1
131,733,19,0.0697001719401134,1
131,734,19,0.0698441421955567,1
131,746,19,0.0737388382920532,1
131,747,19,0.0760514249102037,1
131,748,19,0.0727634691613269,1
131,749,19,0.0703455583223529,1
132,732,19,0.0708050520070685,1
132,733,19,0.0785760016798207,1
132,734,19,0.0793218006665806,1
132,746,19,0.0733757201028478,1
132,747,19,0.0793552595552021,1
132,748,19,0.07539732939369,1
132,749,19,0.0723723547591933,1
132,750,19,0.0727648827484581,1
133,731,19,0.0954761486162132,1
133,732,19,0.0877878219133223,1
133,733,19,0.0805281475386285,1
133,734,19,0.0755241089920721,1
133,746,19,0.074435581013541,1
133,747,19,0.0806170058652845,1
133,748,19,0.0766283122143416,1
133,749,19,0.0728299616644754,1
133,750,19,0.0716379962445542,1
134,730,19,0.105633101591297,1
134,731,19,0.132239123453308,1
134,732,19,0.113092013884397,1
134,733,19,0.086747284019939,1
134,734,19,0.0721348781109339,1
134,740,19,0.0722602980301687,1
134,741,19,0.076168501071499,1
134,746,19,0.0723905337292911,1
134,747,19,0.0776919646532298,1
134,748,19,0.079381578630856,1
134,749,19,0.0791946736611916,1
134,750,19,0.0768012370468698,1
135,730,19,0.101646079087852,1
135,731,19,0.127186483864454,1
135,732,19,0.110897347985955,1
135,733,19,0.0872573613628015,1
135,734,19,0.0719984070550169,1
135,739,19,0.0694583586940448,1
135,740,19,0.0843385794666454,1
135,741,19,0.0889981280272927,1
135,742,19,0.0760959888434912,1
135,745,19,0.0692383901609736,1
135,746,19,0.0708401760534123,1
135,747,19,0.0753806778164669,1
135,748,19,0.0830372766759944,1
135,749,19,0.0870389681408128,1
135,750,19,0.0859645580642654,1
135,751,19,0.0902337649038804,1
136,730,19,0.0845899344258493,1
136,731,19,0.0994770194817224,1
136,732,19,0.0948327508395989,1
136,733,19,0.0866440083025004,1
136,734,19,0.0746083860505497,1
136,738,19,0.0689984337454587,1
136,739,19,0.0756041144298304,1
136,740,19,0.085300136173963,1
136,741,19,0.0847369654568182,1
136,742,19,0.0733279516394113,1
136,744,19,0.0706727737943372,1
136,745,19,0.0723329180741442,1
136,746,19,0.0720456603977192,1
136,747,19,0.0754731659473664,1
136,748,19,0.0837743246000483,1
136,749,19,0.0887439099551706,1
136,750,19,0.0909860148793702,1
136,751,19,0.0979389648057056,1
137,730,19,0.0766041913864721,1
137,731,19,0.0853720074959411,1
137,732,19,0.0889764270689189,1
137,733,19,0.0890344859674883,1
137,734,19,0.07760656841709,1
137,737,19,0.0691606967767434,1
137,738,19,0.0761093160950456,1
137,739,19,0.0851872348865254,1
137,740,19,0.0902819047334277,1
137,741,19,0.0825393525885943,1
137,742,19,0.0717123772826677,1
137,743,19,0.0683947362040365,1
137,744,19,0.0711807846644868,1
137,745,19,0.0729679601132671,1
137,746,19,0.0748756678240831,1
137,747,19,0.0790368790027876,1
137,748,19,0.0845568109646826,1
137,749,19,0.0856424339018637,1
137,750,19,0.0865910407135136,1
138,730,19,0.0745467213068407,1
138,731,19,0.0876337768546814,1
138,732,19,0.0956940806254515,1
138,733,19,0.0930995253030659,1
138,734,19,0.0779542150149404,1
138,737,19,0.0731392257778491,1
138,738,19,0.0874455780934054,1
138,739,19,0.105479978958157,1
138,740,19,0.110166020297961,1
138,741,19,0.0923903597861966,1
138,742,19,0.0768735815611503,1
138,743,19,0.0726195348445394,1
138,744,19,0.0721669773204081,1
138,745,19,0.073257002742934,1
138,746,19,0.0781519734586797,1
138,747,19,0.0834208679194978,1
138,748,19,0.0864284063161181,1
138,749,19,0.0841396110881583,1
139,731,19,0.0911611918676668,1
139,732,19,0.100216870620935,1
139,733,19,0.0923799854942001,1
139,734,19,0.0748257849697258,1
139,735,19,0.06823414432025,1
139,736,19,0.0725489034061891,1
139,737,19,0.0841871219912277,1
139,738,19,0.104382963467063,1
139,739,19,0.124790142208782,1
139,740,19,0.12517256544597,1
139,741,19,0.10113570225619,1
139,742,19,0.0828104618289786,1
139,743,19,0.0788429839645551,1
139,744,19,0.0764793045572995,1
139,745,19,0.075707378167717,1
139,746,19,0.0795983246644504,1
139,747,19,0.0834461747230112,1
139,748,19,0.085966133375348,1
140,731,19,0.0864243871764359,1
140,732,19,0.0935401032752383,1
140,733,19,0.0873252375042012,1
140,734,19,0.0731570453613881,1
140,735,19,0.0701030023440629,1
140,736,19,0.0782267977402157,1
140,737,19,0.0931105764397481,1
140,738,19,0.109096473919509,1
140,739,19,0.11995545858827,1
140,740,19,0.114943333844141,1
140,741,19,0.0959274722464928,1
140,742,19,0.0856244525943732,1
140,743,19,0.0870879405492213,1
140,744,19,0.0859788915981844,1
140,745,19,0.0837772655800542,1
140,746,19,0.0833525545244516,1
141,732,19,0.0913583393542561,1
141,733,19,0.0921793759170946,1
141,734,19,0.0799821075807851,1
141,735,19,0.0728598206977332,1
141,736,19,0.077020959999126,1
141,737,19,0.0883823790565997,1
141,738,19,0.0976176133244052,1
141,739,19,0.105870416515605,1
141,740,19,0.105644889470424,1
141,741,19,0.0977649797828289,1
141,742,19,0.0962660263644063,1
141,743,19,0.100664606375403,1
141,744,19,0.0973813346313417,1
142,732,19,0.100330155254035,1
142,733,19,0.108648594410418,1
142,734,19,0.0922665810655802,1
142,735,19,0.0773360701338557,1
142,736,19,0.0772366757912518,1
142,737,19,0.0870767216988116,1
142,738,19,0.101398653421691,1
142,739,19,0.12186098602063,1
142,740,19,0.130247714612955,1
142,741,19,0.121778950048814,1
142,742,19,0.115113611195687,1
143,732,19,0.11062978469295,1
143,733,19,0.124361358105513,1
143,734,19,0.105788560237069,1
143,735,19,0.0841373828914939,1
143,736,19,0.080667391860824,1
143,737,19,0.0907504789185282,1
143,740,19,0.147735009339738,1
127,744,20,0.0721727275053484,1
128,743,20,0.0698788649269099,1
128,744,20,0.0707865196401879,1
129,744,20,0.06912780691684,1
129,745,20,0.072957190496056,1
129,746,20,0.0778095319761555,1
130,744,20,0.0713506127828336,1
130,745,20,0.0798440971524413,1
130,746,20,0.0881243275278508,1
130,747,20,0.0850428273774355,1
131,734,20,0.0693534717268677,1
131,744,20,0.0724552053405418,1
131,745,20,0.0798773703580075,1
131,746,20,0.089911562874391,1
131,747,20,0.0893656127631872,1
132,732,20,0.0678870368022378,1
132,733,20,0.0748819510990856,1
132,734,20,0.0789403417833259,1
132,735,20,0.0696482825108029,1
132,744,20,0.0701589648210394,1
132,745,20,0.0771435527440985,1
132,746,20,0.0902022646720042,1
132,747,20,0.0936149515158781,1
133,732,20,0.0814713156336891,1
133,733,20,0.0765505649221276,1
133,734,20,0.0767950256491791,1
133,735,20,0.0701853318149012,1
133,744,20,0.068905113035698,1
133,745,20,0.0758440408964653,1
133,746,20,0.087761886183331,1
133,747,20,0.0913080012769244,1
133,748,20,0.0841834023403444,1
134,731,20,0.116599447004714,1
134,732,20,0.106331617286474,1
134,733,20,0.085677120694561,1
134,734,20,0.0767199737561559,1
134,735,20,0.0718896387130051,1
134,739,20,0.0701722920725938,1
134,740,20,0.0821658840664963,1
134,741,20,0.0864082387403952,1
134,742,20,0.0766946429935386,1
134,743,20,0.06944631325455,1
134,744,20,0.0701199773691888,1
134,745,20,0.0741030466204869,1
134,746,20,0.0800842811794434,1
134,747,20,0.0847985703027674,1
134,748,20,0.0902234984278515,1
135,731,20,0.115493794256658,1
135,732,20,0.109718715807364,1
135,733,20,0.0908865067310227,1
135,734,20,0.0787695493110464,1
135,735,20,0.0728077755342473,1
135,736,20,0.0693321002061729,1
135,737,20,0.0688681081996966,1
135,738,20,0.0708769772370304,1
135,739,20,0.0775914082940859,1
135,740,20,0.0932350320050502,1
135,741,20,0.100484763351618,1
135,742,20,0.0876245286405691,1
135,743,20,0.0753372938690474,1
135,744,20,0.0741108153599323,1
135,745,20,0.0756172080801215,1
135,746,20,0.0767331392837589,1
135,747,20,0.0821918677146954,1
135,748,20,0.0962521420636858,1
135,749,20,0.104330648763658,1
135,750,20,0.104977364876164,1
136,731,20,0.0957269824649069,1
136,732,20,0.0988632710962066,1
136,733,20,0.0928513628944591,1
136,734,20,0.0816659953325749,1
136,735,20,0.071837641467727,1
136,736,20,0.069235059845529,1
136,737,20,0.0743404034732267,1
136,738,20,0.0798489428812088,1
136,739,20,0.0842733687755566,1
136,740,20,0.0936508662126512,1
136,741,20,0.0967213272059363,1
136,742,20,0.0863368286311675,1
136,743,20,0.0776185240099451,1
136,744,20,0.0779191568561324,1
136,745,20,0.0788322742451037,1
136,746,20,0.0780733037409649,1
136,747,20,0.0811801586131014,1
136,749,20,0.0989732613525182,1
137,731,20,0.088377329675449,1
137,732,20,0.10045141826874,1
137,733,20,0.100835758234241,1
137,734,20,0.086465836426214,1
137,735,20,0.0725296223173111,1
137,736,20,0.0694544773192101,1
137,737,20,0.0771087820945374,1
137,738,20,0.0860499782595091,1
137,739,20,0.0927311301212225,1
137,740,20,0.0955348364412604,1
137,741,20,0.0890461780102002,1
137,742,20,0.0823112679090708,1
137,743,20,0.0809185551471966,1
137,744,20,0.0819063051448726,1
137,745,20,0.080321709909495,1
137,746,20,0.0806381318051642,1
138,731,20,0.0974748949321416,1
138,732,20,0.119670453067613,1
138,733,20,0.1149693773901,1
138,734,20,0.0906454541865036,1
138,735,20,0.0752258301278448,1
138,736,20,0.0724079519978395,1
138,737,20,0.07884915942359,1
138,738,20,0.0942534796046211,1
138,739,20,0.116728394902001,1
138,740,20,0.121907897946101,1
138,741,20,0.100206532267594,1
138,742,20,0.0868141239300942,1
138,743,20,0.0859286733163722,1
138,744,20,0.0841949985466408,1
138,745,20,0.080478342551359,1
139,731,20,0.102307398274197,1
139,732,20,0.125859832341858,1
139,733,20,0.114742580512412,1
139,734,20,0.0867887272799411,1
139,735,20,0.0760547731949762,1
139,736,20,0.078536175659333,1
139,737,20,0.0877238630854131,1
139,738,20,0.108099248096234,1
139,739,20,0.14110776546184,1
139,740,20,0.147555915037951,1
139,741,20,0.115882590615487,1
139,742,20,0.0924376670368827,1
139,743,20,0.0882933170775605,1
139,744,20,0.0858303271845647,1
140,732,20,0.106420805050809,1
140,733,20,0.100050522562432,1
140,734,20,0.0826021673692914,1
140,735,20,0.0781206828689628,1
140,736,20,0.08482585972213,1
140,737,20,0.0955875883983119,1
140,738,20,0.10833410721239,1
140,739,20,0.129764195936785,1
140,740,20,0.132968031271806,1
140,741,20,0.110166283848104,1
141,733,20,0.0998323150234986,1
141,739,20,0.108167435705984,1
141,740,20,0.112315810794765,1
142,740,20,0.134364787132466,1
132,734,21,0.0755619523967106,1
133,733,21,0.0751113475395486,1
133,734,21,0.0769314487868883,1
133,735,21,0.0748719901016316,1
133,747,21,0.102863788564933,1
134,733,21,0.0884123039773933,1
134,734,21,0.0822937597938827,1
134,735,21,0.0797302674497268,1
134,739,21,0.078930093276625,1
134,740,21,0.0872708024200995,1
134,741,21,0.0907374631353248,1
134,742,21,0.0830405710527831,1
135,732,21,0.108751690434577,1
135,733,21,0.0981035039518625,1
135,734,21,0.0867513870164849,1
135,735,21,0.0807777175445905,1
135,736,21,0.0775865985039744,1
135,737,21,0.0755375500493701,1
135,738,21,0.0787381688746898,1
135,739,21,0.0846857948006253,1
135,740,21,0.0953509323493617,1
135,741,21,0.103290224676018,1
135,742,21,0.0941149780146471,1
135,743,21,0.0831404146285855,1
136,733,21,0.106096326906447,1
136,734,21,0.0888685092750962,1
136,735,21,0.0784764036848335,1
136,736,21,0.0766436041124173,1
136,737,21,0.0810426812748198,1
136,738,21,0.0886996095720262,1
136,739,21,0.0923669757007726,1
136,740,21,0.0968682324516096,1
136,741,21,0.102887663811987,1
136,742,21,0.0960427155363384,1
136,743,21,0.0879662872886316,1
136,744,21,0.0844987640456653,1
137,732,21,0.140384476053211,1
137,733,21,0.132812596585138,1
137,734,21,0.0991566203748028,1
137,737,21,0.0837655375986864,1
137,738,21,0.0948178303076339,1
137,739,21,0.0998647975786355,1
137,740,21,0.0978132753465517,1
137,741,21,0.0952511187224392,1
137,742,21,0.0933975346273741,1
137,743,21,0.0947163036047814,1
137,744,21,0.0922045449557605,1
138,731,21,0.120408489304704,1
138,732,21,0.172664277273151,1
138,733,21,0.158821629454824,1
138,734,21,0.109121666917279,1
138,738,21,0.0992402256679247,1
138,739,21,0.120410034666907,1
138,740,21,0.123289463734877,1
138,741,21,0.105903683731395,1
138,742,21,0.097152453311613,1
138,743,21,0.0996282792945328,1
138,744,21,0.0955181968435893,1
139,731,21,0.116437986603411,1
139,732,21,0.162773479993717,1
139,733,21,0.147414340692899,1
139,734,21,0.104185875878233,1
139,738,21,0.109672558593666,1
139,739,21,0.14507904683401,1
139,740,21,0.154742723787854,1
139,741,21,0.125510951850156,1
140,732,21,0.11963710199496,1
140,733,21,0.113700778776297,1
140,739,21,0.132333414506777,1
140,740,21,0.141383894134495,1
140,741,21,0.121166603270878,1
141,740,21,0.117691598797713,1
136,732,22,0.144006864954127,1
136,733,22,0.13241806202092,1
137,731,22,0.142271519036898,1
137,732,22,0.232976553525069,1
137,733,22,0.206551339040775,1
137,734,22,0.122971646221405,1
137,739,22,0.10202666945359,1
138,731,22,0.162102661022668,1
138,732,22,0.27570354231518,4
138,733,22,0.243251942340596,1
138,734,22,0.140013121922034,1
138,738,22,0.100471160570369,1
138,739,22,0.116380472774456,1
138,740,22,0.118131080640881,1
139,731,22,0.128439089776392,1
139,732,22,0.209220143626203,1
139,733,22,0.188816774382006,1
139,734,22,0.124684554437815,1
139,738,22,0.107375431587318,1
139,739,22,0.135574386452871,1
139,740,22,0.148682076778961,1
139,741,22,0.129624813849742,1
140,732,22,0.128216845128448,1
140,733,22,0.126152325082489,1
140,739,22,0.127703952590875,1
140,740,22,0.148033803324699,1
140,741,22,0.138708177347587,1
141,740,22,0.134472507263682,1
141,741,22,0.13880836234062,1
136,732,23,0.180012678199429,1
136,733,23,0.157677294733492,1
136,742,23,0.123408564440454,1
136,743,23,0.121577142516513,1
137,731,23,0.188740081290365,1
137,732,23,0.334211434491929,4
137,733,23,0.281791023520461,4
137,734,23,0.146659688817242,1
137,742,23,0.128685856567195,1
137,743,23,0.135068202464395,1
138,731,23,0.205720892539873,4
138,732,23,0.375132985006297,4
138,733,23,0.320117443693949,4
138,734,23,0.167366308439729,1
138,735,23,0.101642652935992,1
138,739,23,0.113176170236909,1
138,740,23,0.114787587689122,1
139,731,23,0.133881771597479,1
139,732,23,0.238282752310688,4
139,733,23,0.213593566578085,1
139,734,23,0.137811388087936,1
139,739,23,0.125851674266974,1
139,740,23,0.143515739262464,1
139,741,23,0.136217053476816,1
140,732,23,0.128933905170058,1
140,733,23,0.131745733626324,1
140,739,23,0.126910163518968,1
140,740,23,0.164756682840979,1
140,741,23,0.167651697306048,1
140,742,23,0.127224638737443,1
141,739,23,0.123994580163185,1
141,740,23,0.167271538204181,1
141,741,23,0.17967635227818,1
141,742,23,0.135239833505312,1
142,740,23,0.13905045710616,1
142,741,23,0.150799582383235,1
135,742,24,0.118174590373596,1
135,743,24,0.123689484933893,1
136,732,24,0.205143933358423,4
136,733,24,0.173373802176579,4
136,734,24,0.109509169484497,1
136,741,24,0.113506710034561,1
136,742,24,0.156017372075396,1
136,743,24,0.173450339534045,1
136,744,24,0.137165486584962,1
137,731,24,0.22436078787884,4
137,732,24,0.400837246094594,4
137,733,24,0.332529241846741,4
137,734,24,0.163315279190167,4
137,735,24,0.0992018072447922,1
137,741,24,0.114315964708048,1
137,742,24,0.167209987266215,1
137,743,24,0.193039518529348,1
137,744,24,0.151628854888045,1
138,731,24,0.235671904797638,4
138,732,24,0.434201640010247,4
138,733,24,0.370060435402087,4
138,734,24,0.186756998238623,4
138,735,24,0.106903880483556,1
138,742,24,0.135672295331032,1
138,743,24,0.151847230140706,1
139,731,24,0.138262549994264,1
139,732,24,0.252064963289382,4
139,733,24,0.230517726526379,4
139,734,24,0.147023208321438,1
139,735,24,0.105285766461797,1
139,740,24,0.136637751382512,1
139,741,24,0.139262195687035,1
140,732,24,0.127831450962375,1
140,733,24,0.136058240556495,1
140,734,24,0.117567286987034,1
140,735,24,0.101746024489846,1
140,739,24,0.125540780934533,1
140,740,24,0.175261791544871,1
140,741,24,0.190316686164585,1
140,742,24,0.142075689301024,1
141,739,24,0.130586999483538,1
141,740,24,0.190409887078827,1
141,741,24,0.209895502847444,1
141,742,24,0.148860536164494,1
142,740,24,0.146184759479827,1
142,741,24,0.15822654521126,1
135,742,25,0.128273292777279,1
135,743,25,0.148763010631996,1
136,732,25,0.205537030376406,4
136,733,25,0.17572029691655,4
136,734,25,0.114850600132427,1
136,741,25,0.11949853451745,1
136,742,25,0.186615915055201,1
136,743,25,0.231846258838633,1
136,744,25,0.166433137280778,1
137,731,25,0.229297992505017,4
137,732,25,0.392519244191858,4
137,733,25,0.332944812504199,4
137,734,25,0.171687979727148,4
137,735,25,0.101709474876819,1
137,741,25,0.122354902947899,1
137,742,25,0.198846678218788,1
137,743,25,0.24923316492,1
137,744,25,0.179193181009018,1
137,745,25,0.108548433376488,1
138,731,25,0.233899434248887,4
138,732,25,0.418900589556878,4
138,733,25,0.369491598356865,4
138,734,25,0.197789949960932,4
138,735,25,0.112336978663076,1
138,742,25,0.148666431484103,1
138,743,25,0.172776921000222,1
138,744,25,0.142961649045704,1
139,731,25,0.139165892068837,1
139,732,25,0.245361229972226,4
139,733,25,0.235191189336627,4
139,734,25,0.157967403543283,1
139,735,25,0.117442495994277,1
139,740,25,0.13492238735795,1
139,741,25,0.14413817282315,1
139,742,25,0.131286820949879,1
139,743,25,0.121129454680253,1
140,732,25,0.126611129942967,1
140,733,25,0.139261932136892,1
140,734,25,0.125400176933191,1
140,735,25,0.1153399528504,1
140,736,25,0.108417377078057,1
140,739,25,0.1283220375742,1
140,740,25,0.176907254883752,1
140,741,25,0.200613925682885,1
140,742,25,0.156684094039675,1
140,743,25,0.114764491112945,1
141,734,25,0.10256963066658,1
141,735,25,0.103406558105092,1
141,739,25,0.134091389797658,1
141,740,25,0.194440227642155,1
141,741,25,0.219266028185298,1
141,742,25,0.159910271239099,1
142,740,25,0.144677468293241,1
142,741,25,0.157098227150897,1
135,742,26,0.133952918156564,1
135,743,26,0.166586367729885,1
135,744,26,0.127962028078728,1
136,732,26,0.178502607756789,1
136,733,26,0.161375226689062,1
136,734,26,0.116504688748719,1
136,741,26,0.130024847028309,1
136,742,26,0.207744478456788,1
136,743,26,0.268751496845017,1
136,744,26,0.183229151961767,1
136,745,26,0.102672127713141,1
137,731,26,0.193694883878369,1
137,732,26,0.316623799037937,4
137,733,26,0.285376383626272,4
137,734,26,0.16694810228084,1
137,735,26,0.104379752947137,1
137,741,26,0.142360023966771,1
137,742,26,0.221318964004513,1
137,743,26,0.278524463251383,1
137,744,26,0.189871585911549,1
137,745,26,0.110221976785162,1
138,731,26,0.195752659436576,4
138,732,26,0.341397847916617,4
138,733,26,0.322829997603131,4
138,734,26,0.194239773799225,1
138,735,26,0.116874018335615,1
138,741,26,0.135738434437398,1
138,742,26,0.161162937048796,1
138,743,26,0.181065620918866,1
138,744,26,0.14272075223536,1
139,732,26,0.214809754652067,4
139,733,26,0.220629948094039,1
139,734,26,0.16233492057605,1
139,735,26,0.129542178900329,1
139,736,26,0.115719644749741,1
139,740,26,0.13641154150287,1
139,741,26,0.147347243222377,1
139,742,26,0.138840263887487,1
139,743,26,0.123225996068599,1
140,733,26,0.136591606148366,1
140,734,26,0.132938813144578,1
140,735,26,0.133784857022131,1
140,736,26,0.123370816872231,1
140,737,26,0.10475884586888,1
140,739,26,0.126059363759287,1
140,740,26,0.165603421532545,1
140,741,26,0.190093842539044,1
140,742,26,0.161041680023867,1
140,743,26,0.119270348011735,1
141,734,26,0.111144138735862,1
141,735,26,0.117046428047409,1
141,736,26,0.110370056026927,1
141,739,26,0.129167518412811,1
141,740,26,0.178422380697319,1
141,741,26,0.203009225117536,1
141,742,26,0.160857350657874,1
142,735,26,0.102686599011907,1
142,740,26,0.137284790942922,1
142,741,26,0.148582382947558,1
135,742,27,0.133919267595111,1
135,743,27,0.168519100724744,1
135,744,27,0.131513414175183,1
136,733,27,0.137546951457993,1
136,734,27,0.113085365233059,1
136,741,27,0.152612951122374,1
136,742,27,0.211171804313156,1
136,743,27,0.259685851104519,1
136,744,27,0.17988267610157,1
136,745,27,0.104796246030096,1
137,732,27,0.216699984196575,1
137,733,27,0.213502210514846,1
137,734,27,0.149947261220456,1
137,735,27,0.106101346338718,1
137,740,27,0.157609262857917,1
137,741,27,0.197166342404154,1
137,742,27,0.243237087696166,1
137,743,27,0.269991021086216,1
137,744,27,0.183975010846286,1
137,745,27,0.109044219113864,1
138,732,27,0.239364002711404,4
138,733,27,0.24843245166706,1
138,734,27,0.175425516081494,1
138,735,27,0.118250361039737,1
138,736,27,0.101306890053685,1
138,740,27,0.157735826824364,1
138,741,27,0.183570545233494,1
138,742,27,0.189658589477717,1
138,743,27,0.185447513413984,1
138,744,27,0.141289315571779,1
139,732,27,0.168758164663638,1
139,733,27,0.186625127330658,1
139,734,27,0.154621993863211,1
139,735,27,0.131823013716012,1
139,736,27,0.117889069732205,1
139,737,27,0.105967426927369,1
139,740,27,0.140130701224511,1
139,741,27,0.154672535592926,1
139,742,27,0.149952604100629,1
139,743,27,0.132191301081888,1
140,733,27,0.126247406786387,1
140,734,27,0.132955919944775,1
140,735,27,0.141279001177542,1
140,736,27,0.130681733780429,1
140,737,27,0.107825766904561,1
140,739,27,0.11906778576766,1
140,740,27,0.144052471108435,1
140,741,27,0.159589818224195,1
140,742,27,0.148352411488601,1
140,743,27,0.121328794424851,1
141,733,27,0.100266178456798,1
141,734,27,0.118350797603361,1
141,735,27,0.128458784159812,1
141,736,27,0.117591365886472,1
141,737,27,0.100594106712124,1
141,739,27,0.121586330832865,1
141,740,27,0.152974338266321,1
141,741,27,0.166990030712696,1
141,742,27,0.146480678372318,1
142,734,27,0.109105805990485,1
142,735,27,0.116970274035605,1
142,736,27,0.107437150239011,1
142,740,27,0.129004596506168,1
142,741,27,0.134536789539494,1
143,735,27,0.109252759154366,1
135,741,28,0.104302796305353,1
135,742,28,0.124548442768457,1
135,743,28,0.148543557219659,1
136,740,28,0.141024950819147,1
136,741,28,0.183437057086015,1
136,742,28,0.20150768411589,1
136,743,28,0.217149193435934,1
136,744,28,0.153540995033086,1
137,733,28,0.15381112195021,1
137,734,28,0.129114880261503,1
137,739,28,0.120779831456329,1
137,740,28,0.223913399531379,1
137,741,28,0.292525588562575,5
137,742,28,0.271535137415524,1
137,743,28,0.240797308185091,1
137,744,28,0.16403106939927,1
137,745,28,0.103810532556253,1
138,733,28,0.179571543178091,1
138,734,28,0.150142743549323,1
138,735,28,0.114981440798923,1
138,739,28,0.123027195403839,1
138,740,28,0.218484338460869,1
138,741,28,0.276227551876971,5
138,742,28,0.234352572781289,1
138,743,28,0.18868305862304,1
138,744,28,0.138288557601567,1
139,733,28,0.149692551986703,1
139,734,28,0.141164500619918,1
139,735,28,0.126801317309868,1
139,736,28,0.115284691177213,1
139,739,28,0.110589126093601,1
139,740,28,0.152212834086943,1
139,741,28,0.179449926766603,1
139,742,28,0.161046064539884,1
139,743,28,0.140079308946607,1
139,744,28,0.118958640069761,1
140,733,28,0.114106645996669,1
140,734,28,0.129054203830831,1
140,735,28,0.139601875882833,1
140,736,28,0.131897442672333,1
140,737,28,0.10958819858877,1
140,740,28,0.12498660686091,1
140,741,28,0.132067013230313,1
140,742,28,0.128541059722667,1
140,743,28,0.119221974580924,1
141,733,28,0.0963255647376425,1
141,734,28,0.122227428535504,1
141,735,28,0.136064098557403,1
141,736,28,0.126515281547743,1
141,737,28,0.105998657619326,1
141,740,28,0.131650723799738,1
141,741,28,0.134113336336847,1
142,733,28,0.0886237251001419,1
142,734,28,0.121002411531728,1
142,735,28,0.133641461785181,1
142,736,28,0.121768108554291,1
142,737,28,0.106444800093383,1
143,734,28,0.107310885761363,1
143,735,28,0.124988619425639,1
143,736,28,0.121786892491763,1
143,737,28,0.113915715897546,1
144,735,28,0.11275093208102,1
135,741,29,0.107181542538862,1
135,742,29,0.11424540514701,1
135,743,29,0.122272531548629,1
136,740,29,0.157346970567774,1
136,741,29,0.210759396257415,5
136,742,29,0.189103469019489,1
136,743,29,0.172227394992758,1
136,744,29,0.128028981794627,1
137,739,29,0.135591756803212,1
137,740,29,0.280087099968019,5
137,741,29,0.381725787672313,5
137,742,29,0.295291379600663,5
137,743,29,0.209886302551539,1
137,744,29,0.143921306994036,1
138,734,29,0.121526852357389,1
138,735,29,0.105835112775981,1
138,739,29,0.137456134474592,1
138,740,29,0.280268973525861,5
138,741,29,0.376000424363649,5
138,742,29,0.281398717152907,5
138,743,29,0.191149480657672,1
138,744,29,0.136702896186065,1
139,733,29,0.117971620824755,1
139,734,29,0.122556854234824,1
139,735,29,0.114919362760671,1
139,736,29,0.107587960818623,1
139,739,29,0.112259530859661,1
139,740,29,0.171904306476424,1
139,741,29,0.21561085125067,5
139,742,29,0.176778774188992,1
139,743,29,0.147008437533872,1
139,744,29,0.121223206653884,1
140,733,29,0.102725029414592,1
140,734,29,0.119143748106632,1
140,735,29,0.126645846684544,1
140,736,29,0.122706143411337,1
140,737,29,0.108761381892112,1
140,740,29,0.119663001786295,1
140,741,29,0.121080829678851,1
140,742,29,0.118238716915233,1
140,743,29,0.11943138912872,1
141,733,29,0.0923907012034275,1
141,734,29,0.118653281290326,1
141,735,29,0.132177692310862,1
141,736,29,0.126876740569002,1
141,737,29,0.110248044290224,1
141,738,29,0.105429580983065,1
142,734,29,0.121211586488484,1
142,735,29,0.136051747639333,1
142,736,29,0.129275046871195,1
142,737,29,0.114707624179796,1
143,734,29,0.108309045989692,1
143,735,29,0.129333531043859,1
143,736,29,0.13623401652239,1
143,737,29,0.13149162337017,1
143,738,29,0.118794903553586,1
144,735,29,0.116174292705689,1
144,736,29,0.135071377045664,1
144,737,29,0.135810766972126,1
135,741,30,0.103954838239152,1
135,742,30,0.102361186462493,1
136,740,30,0.152953098520698,1
136,741,30,0.204100154996235,5
136,742,30,0.165394797635179,1
136,743,30,0.135754954239549,1
137,739,30,0.138371551937539,1
137,740,30,0.281744399104236,5
137,741,30,0.391585773544108,5
137,742,30,0.28123124301652,5
137,743,30,0.177408982478899,1
137,744,30,0.128707587474449,1
138,739,30,0.14105688830467,1
138,740,30,0.296470167513429,5
138,741,30,0.410123555182177,5
138,742,30,0.291958332818213,5
138,743,30,0.18191784624523,1
138,744,30,0.134163267109412,1
139,734,30,0.104975795554858,1
139,735,30,0.102625982478995,1
139,736,30,0.0983761046464657,1
139,739,30,0.109039451252184,1
139,740,30,0.177425669994778,1
139,741,30,0.233967214553871,5
139,742,30,0.183335781953754,1
139,743,30,0.149347217442381,1
139,744,30,0.127477754690785,1
140,734,30,0.106501571190117,1
140,735,30,0.112547926593522,1
140,736,30,0.110276831153582,1
140,737,30,0.102521341092633,1
140,740,30,0.114502067047731,1
140,741,30,0.118083485880948,1
140,742,30,0.114188011113574,1
140,743,30,0.120392520561943,1
141,734,30,0.10889700239984,1
141,735,30,0.124303844276558,1
141,736,30,0.121625755538363,1
141,737,30,0.108619579935573,1
141,738,30,0.104587526296315,1
142,734,30,0.109858289567238,1
142,735,30,0.130986840989273,1
142,736,30,0.132636700823724,1
142,737,30,0.121829707410465,1
142,738,30,0.109980636731396,1
143,734,30,0.100607439953454,1
143,735,30,0.131780749856701,1
143,736,30,0.153308328174938,1
143,737,30,0.152877279936349,1
143,738,30,0.125915082035493,1
144,735,30,0.12217983377557,1
144,736,30,0.155114545121557,1
144,737,30,0.158031338412088,1
144,738,30,0.124437799626564,1
145,736,30,0.123894502986119,1
145,737,30,0.119712908599756,1
135,741,31,0.10223990547846,1
136,740,31,0.139726535100518,1
136,741,31,0.17326190118173,1
136,742,31,0.140691943233791,1
137,739,31,0.133134367350757,1
137,740,31,0.234639219500564,1
137,741,31,0.320352841889944,5
137,742,31,0.238329185054081,1
137,743,31,0.152173768768005,1
138,739,31,0.135462737028613,1
138,740,31,0.258490339737218,5
138,741,31,0.36240310578989,5
138,742,31,0.27454222058917,5
138,743,31,0.174906705645254,1
138,744,31,0.129929873140378,1
139,739,31,0.108400749459938,1
139,740,31,0.168567126748547,1
139,741,31,0.230699001106623,5
139,742,31,0.19478594553214,1
139,743,31,0.160036631553162,1
139,744,31,0.137598643224696,1
140,735,31,0.101090982588728,1
140,736,31,0.0993846751054464,1
140,740,31,0.112492784715855,1
140,741,31,0.125491748628365,1
140,742,31,0.125649016186483,1
140,743,31,0.128848371169071,1
141,734,31,0.0995695854797097,1
141,735,31,0.11598106253259,1
141,736,31,0.115046106420398,1
141,737,31,0.105490473045673,1
142,734,31,0.097269038311278,1
142,735,31,0.120968281788196,1
142,736,31,0.130317040280141,1
142,737,31,0.125249857515209,1
142,738,31,0.111659511040691,1
143,735,31,0.125630783308401,1
143,736,31,0.159786522467362,1
143,737,31,0.166006006355679,1
143,738,31,0.130790148725658,1
144,735,31,0.120965778061837,1
144,736,31,0.16550377561935,1
144,737,31,0.171803798035488,1
144,738,31,0.127058733922363,1
145,736,31,0.125449939992028,1
145,737,31,0.123927434774454,1
136,740,32,0.127362619216907,1
136,741,32,0.142596883668104,1
136,742,32,0.119963604683602,1
137,739,32,0.115905531457489,1
137,740,32,0.169085134554807,1
137,741,32,0.219029360156796,1
137,742,32,0.182919959725705,1
137,743,32,0.13252440450366,1
138,739,32,0.116387636546527,1
138,740,32,0.189142210890524,1
138,741,32,0.263034591100036,5
138,742,32,0.230296823588255,1
138,743,32,0.167004981193541,1
138,744,32,0.128674619747458,1
139,740,32,0.141384073827774,1
139,741,32,0.193927430940998,1
139,742,32,0.18723579697132,1
139,743,32,0.163012591850819,1
140,741,32,0.122387343574604,1
140,742,32,0.12943082896487,1
141,735,32,0.10584672096183,1
141,736,32,0.107819932862757,1
142,735,32,0.109886381616582,1
142,736,32,0.123839145476516,1
142,737,32,0.123671419769538,1
143,735,32,0.114050258245597,1
143,736,32,0.154547097704363,1
143,737,32,0.167700777530424,1
143,738,32,0.13375647746354,1
144,735,32,0.111510713025808,1
144,736,32,0.163244060753771,1
144,737,32,0.178287874287923,1
144,738,32,0.133981932631408,1
145,736,32,0.118935795064175,1
145,737,32,0.124806314603927,1
137,740,33,0.122875234787239,1
137,741,33,0.144735760793073,1
137,742,33,0.133328088685486,1
138,740,33,0.125505824601917,1
138,741,33,0.164856568345213,1
138,742,33,0.16821320286547,1
138,743,33,0.145407741780662,1
139,741,33,0.143228493565591,1
139,742,33,0.155365444857787,1
142,736,33,0.108125627069647,1
142,737,33,0.111522333191208,1
143,736,33,0.128773067705457,1
143,737,33,0.14338540173715,1
143,738,33,0.120423391867341,1
144,736,33,0.137816479397519,1
144,737,33,0.159349652166521,1
144,738,33,0.130216184432198,1
145,737,33,0.116489354922211,1
143,737,34,0.109511493517577,1
144,737,34,0.122054671416703,1
