x,y,z,signal,cytoplasm.p
741,448,51,0.0692770841138011,1
742,441,51,0.0778253090460855,1
742,449,51,0.0683215890597748,1
742,450,51,0.0769433864104154,1
742,451,51,0.0744750895759018,1
743,440,51,0.0706813152148839,1
743,450,51,0.0685098596983626,1
743,451,51,0.0699573609411213,1
751,456,51,0.0685145556827305,1
751,457,51,0.0943073336804528,1
751,458,51,0.0803203202814677,1
752,456,51,0.0861793873695463,1
752,457,51,0.127896751500103,1
752,458,51,0.107314803074854,1
753,457,51,0.0921722121450231,1
753,458,51,0.077991171932734,1
759,460,51,0.0707312160385692,1
759,461,51,0.13052207031192,1
740,448,52,0.0742226804161255,1
741,441,52,0.068015259936631,1
741,448,52,0.0713800465419969,1
741,449,52,0.0791389088468225,1
741,450,52,0.0962172755777091,1
741,451,52,0.0987649249643992,1
742,439,52,0.0715136844338756,1
742,440,52,0.0905431907412056,1
742,441,52,0.077068890186514,1
742,449,52,0.0715461789685644,1
742,450,52,0.0796311366572661,1
742,451,52,0.0805899081187532,1
742,452,52,0.0752380792197229,1
743,440,52,0.068049473537026,1
743,450,52,0.0729124947876969,1
743,451,52,0.0753848646698766,1
743,452,52,0.0726627091497997,1
743,453,52,0.0688068268016503,1
744,451,52,0.0711961304705463,1
744,452,52,0.0710558439273303,1
744,453,52,0.0687861081665372,1
745,453,52,0.0690132764103359,1
745,454,52,0.0679863233288741,1
746,453,52,0.0680743670459968,1
746,454,52,0.0717437217803684,1
747,454,52,0.0740778476329412,1
747,455,52,0.0687652158279207,1
748,454,52,0.0726820261773336,1
748,455,52,0.0692964790084228,1
750,457,52,0.0691484896132972,1
751,456,52,0.0802499583830365,1
751,457,52,0.106049259246801,1
751,458,52,0.094690996801268,1
751,459,52,0.0699390442061759,1
752,427,52,0.0703714940523441,1
752,456,52,0.102290878472046,1
752,457,52,0.145642852467409,1
752,458,52,0.127588757219237,1
752,459,52,0.0806982451968945,1
753,456,52,0.0753632236092627,1
753,457,52,0.105237069583084,1
753,458,52,0.0944011575313958,1
757,461,52,0.086467902898927,1
758,460,52,0.0795415715370446,1
758,461,52,0.126810158219214,1
759,460,52,0.0828988349837802,1
759,461,52,0.136585472617763,1
759,462,52,0.194177384292622,1
760,460,52,0.0734376843353558,1
760,461,52,0.103754552109949,1
761,461,52,0.0817187652589543,1
762,461,52,0.0691621343229785,1
776,428,52,0.0692797974823199,1
777,427,52,0.0717806068208502,1
777,428,52,0.0817414185917088,1
778,427,52,0.0679361829141496,1
778,428,52,0.0712247975383842,1
741,448,53,0.0715271614298295,1
741,449,53,0.0805979044696858,1
742,440,53,0.074270772327465,1
742,441,53,0.0706163860432661,1
742,448,53,0.0680738519252626,1
742,449,53,0.0730870069108598,1
742,450,53,0.0818257306783963,1
742,451,53,0.0871211298979237,1
742,452,53,0.0822729453223539,1
743,449,53,0.0693128251070708,1
743,450,53,0.0746166160027455,1
743,451,53,0.0781184606620744,1
743,452,53,0.0770073691974285,1
743,453,53,0.0750509765874512,1
743,454,53,0.0728892364875685,1
744,450,53,0.0718576533092746,1
744,451,53,0.0745363170659643,1
744,452,53,0.0746504522472537,1
744,453,53,0.0747720446996376,1
744,454,53,0.074256169253627,1
744,455,53,0.0712973397152719,1
744,456,53,0.0691192595065172,1
745,449,53,0.0691729578481735,1
745,450,53,0.0711486495163567,1
745,451,53,0.0704753927064846,1
745,452,53,0.0714882817939465,1
745,453,53,0.0757134398210082,1
745,454,53,0.0776799551523909,1
745,455,53,0.0732982543301049,1
745,456,53,0.0702702009507547,1
745,457,53,0.0714637476715345,1
746,449,53,0.0721937875576923,1
746,450,53,0.0708564502747486,1
746,452,53,0.0691349706889114,1
746,453,53,0.0796060634550159,1
746,454,53,0.0869126437654051,1
746,455,53,0.0797512017167752,1
746,456,53,0.07181983386374,1
746,457,53,0.0720688647898638,1
746,458,53,0.0754531780649228,1
747,452,53,0.0683938377376396,1
747,453,53,0.087021082669738,1
747,454,53,0.0995336048954008,1
747,455,53,0.0894791609464306,1
747,456,53,0.0741067902304741,1
747,457,53,0.0713695883931367,1
747,458,53,0.0723147331142705,1
747,459,53,0.072619648650283,1
748,453,53,0.0856196967122455,1
748,454,53,0.100048653752326,1
748,455,53,0.0917012061108749,1
748,456,53,0.0753286685916369,1
748,457,53,0.0700923764814752,1
748,458,53,0.0683333050615907,1
748,459,53,0.0690136537662226,1
748,460,53,0.0702412703327737,1
749,453,53,0.0682387085295464,1
749,454,53,0.0804765276492372,1
749,455,53,0.0803216380321832,1
749,456,53,0.072807284372617,1
749,457,53,0.0707181343678299,1
749,458,53,0.0698011356040239,1
749,459,53,0.0698774812886586,1
749,460,53,0.0702611803481296,1
750,455,53,0.0716871962644499,1
750,456,53,0.0764262291523451,1
750,457,53,0.0817327394063145,1
750,458,53,0.0824882597994891,1
750,459,53,0.0759410812571093,1
750,460,53,0.0707633571764752,1
750,461,53,0.0677765673638478,1
751,455,53,0.0681865375807649,1
751,456,53,0.0895407238639479,1
751,457,53,0.109452973406257,1
751,458,53,0.10779989107233,1
751,459,53,0.0848410857326699,1
751,460,53,0.0713099721528127,1
752,427,53,0.0800839397622126,1
752,455,53,0.0688108758902125,1
752,456,53,0.107247034749422,1
752,457,53,0.139235038042744,1
752,458,53,0.133154492998048,1
752,459,53,0.093145389017741,1
752,460,53,0.071370966041612,1
753,456,53,0.0841142084482292,1
753,457,53,0.108402845881531,1
753,458,53,0.106773339305859,1
753,459,53,0.0804334491803926,1
753,460,53,0.0691101310879245,1
753,461,53,0.0686425092772046,1
754,457,53,0.073603325600293,1
754,458,53,0.0756140215193005,1
754,461,53,0.0692323644463382,1
755,461,53,0.0694134832924064,1
756,461,53,0.0732936122537208,1
757,460,53,0.0763725787288967,1
757,461,53,0.0910274341802685,1
758,460,53,0.0916590680368591,1
758,461,53,0.12630967649747,1
759,460,53,0.0952423077619734,1
759,461,53,0.135472919647778,1
760,460,53,0.0831740532104864,1
760,461,53,0.108073887384736,1
761,460,53,0.0702827135927759,1
761,461,53,0.0850531896898801,1
762,461,53,0.0712369987120544,1
776,427,53,0.0699064897737273,1
776,428,53,0.0773289123515602,1
777,427,53,0.0798415215487701,1
777,428,53,0.0951224283855196,1
777,429,53,0.0750654958044255,1
778,427,53,0.0712452646029061,1
778,428,53,0.0791128113928798,1
791,433,53,0.0680781406048639,1
792,433,53,0.0693710217704877,1
742,442,54,0.0698304076392357,1
742,448,54,0.0708506162329446,1
742,449,54,0.0768287061595119,1
743,442,54,0.0685802156070178,1
743,449,54,0.0726964675272202,1
743,450,54,0.0788808573180735,1
743,451,54,0.0840190908056747,1
743,452,54,0.0840899199066323,1
743,453,54,0.0835136675187482,1
744,442,54,0.0696431792216684,1
744,449,54,0.0705063119300908,1
744,450,54,0.07802331307064,1
744,451,54,0.0809382375510652,1
744,452,54,0.0808307929495449,1
744,453,54,0.0827445143954442,1
744,454,54,0.0840174316377284,1
744,455,54,0.0802031303144287,1
745,449,54,0.0721031203186906,1
745,450,54,0.0773604964403001,1
745,451,54,0.0774022930970851,1
745,452,54,0.0771465596116402,1
745,453,54,0.0827672935134943,1
745,454,54,0.0862858736069099,1
745,455,54,0.0817839100625074,1
745,456,54,0.0775738702300179,1
746,449,54,0.0729770286341001,1
746,450,54,0.0753125980226839,1
746,451,54,0.0735191033602452,1
746,452,54,0.0752507356163676,1
746,453,54,0.0894005151878197,1
746,454,54,0.100751170617858,1
746,455,54,0.0913041498509696,1
746,456,54,0.07981761036306,1
746,457,54,0.0800515530434914,1
747,450,54,0.0688995125951572,1
747,451,54,0.0700239133420295,1
747,452,54,0.0770801569551314,1
747,453,54,0.105113596341042,1
747,454,54,0.12625555288172,1
747,455,54,0.110442101052408,1
747,456,54,0.0856818825664647,1
747,457,54,0.0806958313171747,1
747,458,54,0.0797578144294566,1
748,452,54,0.0751901849709908,1
748,453,54,0.104269732741946,1
748,454,54,0.126657646543224,1
748,455,54,0.112401931793798,1
748,456,54,0.0876531657595271,1
748,457,54,0.0803438481215152,1
748,458,54,0.0768878432177575,1
748,459,54,0.0767590211057663,1
749,453,54,0.0797345381600002,1
749,454,54,0.0937516741423863,1
749,455,54,0.0910588086268491,1
749,456,54,0.0822921545339202,1
749,457,54,0.0805010557818732,1
749,458,54,0.079137573126779,1
749,459,54,0.0778135391362858,1
749,460,54,0.0764554412897971,1
750,454,54,0.0726754494033081,1
750,455,54,0.0793539777431425,1
750,456,54,0.0844462816285329,1
750,457,54,0.0890901848943217,1
750,458,54,0.0909774135610637,1
750,459,54,0.0844468985754588,1
750,460,54,0.0784848432791886,1
751,455,54,0.0756635689462029,1
751,456,54,0.0940776736898467,1
751,457,54,0.108486750663452,1
751,458,54,0.111171248461945,1
751,459,54,0.0946991069579442,1
751,460,54,0.0815462237720887,1
751,461,54,0.0760894120694657,1
752,455,54,0.0755379932927926,1
752,456,54,0.104475050282971,1
752,457,54,0.12491518477213,1
752,458,54,0.12443379845621,1
752,459,54,0.0984741872281301,1
752,460,54,0.0816132972835072,1
752,461,54,0.0779966885164111,1
753,456,54,0.0889450346530104,1
753,457,54,0.108310028312952,1
753,458,54,0.11006070805669,1
753,459,54,0.0904938469666864,1
753,460,54,0.0794460705488274,1
753,461,54,0.0805238888079071,1
754,456,54,0.0701599950625079,1
754,457,54,0.0804644283017586,1
754,458,54,0.083795163030681,1
754,459,54,0.0775020048978159,1
754,460,54,0.0759628720621227,1
754,461,54,0.0801224600115368,1
755,458,54,0.0683992105666932,1
755,459,54,0.0704994895752501,1
755,460,54,0.073968031080133,1
755,461,54,0.078312894780145,1
756,459,54,0.0693807611462304,1
756,460,54,0.0760986063755942,1
756,461,54,0.0811259691098148,1
757,459,54,0.0722413523687456,1
757,460,54,0.084491264846139,1
757,461,54,0.0945180959278436,1
758,459,54,0.0757072044642136,1
758,460,54,0.0980702606951763,1
758,461,54,0.119315870309179,1
759,459,54,0.076442635148753,1
759,460,54,0.101745760939703,1
759,461,54,0.127248825452849,1
760,459,54,0.0720146513274733,1
760,460,54,0.088787928818844,1
760,461,54,0.106197625997813,1
761,459,54,0.0679254372560424,1
761,460,54,0.0751757496108802,1
761,461,54,0.0861587945197287,1
762,461,54,0.0751444889700432,1
763,461,54,0.0678441679755525,1
776,427,54,0.0739818015751098,1
776,428,54,0.0760780374848806,1
777,426,54,0.0684881287911089,1
777,427,54,0.0867180838620389,1
777,428,54,0.0941243939424868,1
777,429,54,0.0716619613382482,1
778,427,54,0.0732135888466346,1
778,428,54,0.0770629902571741,1
791,433,54,0.104046302118359,1
791,434,54,0.0896173690373817,1
792,433,54,0.0962186532261844,1
792,434,54,0.0835914088211862,1
743,442,55,0.0867855347293441,1
743,443,55,0.0756781241018331,1
743,449,55,0.076729000348557,1
743,453,55,0.0930502534058585,1
743,454,55,0.093980555462115,1
744,441,55,0.0915484368745176,1
744,442,55,0.112503302762475,1
744,443,55,0.0909572939035485,1
744,449,55,0.0723924624371565,1
744,450,55,0.0817425865980248,1
744,451,55,0.0863540971553164,1
744,452,55,0.0869543745346543,1
744,453,55,0.0920313026651053,1
744,454,55,0.0961748020762384,1
744,455,55,0.0915131990224302,1
745,441,55,0.0946131776317422,1
745,442,55,0.113533903617508,1
745,443,55,0.0899169476829965,1
745,449,55,0.0723344155181391,1
745,450,55,0.0805692733405038,1
745,451,55,0.0844170575115289,1
745,452,55,0.0854532468275511,1
745,453,55,0.0920832999103834,1
745,454,55,0.0977332639190175,1
745,455,55,0.0926878000817868,1
746,441,55,0.0740754217736695,1
746,442,55,0.0805842058520207,1
746,449,55,0.0712542492668754,1
746,450,55,0.0773674505702123,1
746,451,55,0.0805477820242894,1
746,452,55,0.0842119795615427,1
746,453,55,0.0976276641684988,1
746,454,55,0.112819095731666,1
746,455,55,0.101422720341576,1
746,456,55,0.0903730631340597,1
747,449,55,0.0699468848229331,1
747,450,55,0.0751003742699541,1
747,451,55,0.0798999338441223,1
747,452,55,0.0893497398568415,1
747,453,55,0.117968446243486,1
747,454,55,0.146769685063329,1
747,455,55,0.125893399046447,1
747,456,55,0.0996501958848418,1
747,457,55,0.0900425652648387,1
748,442,55,0.0703342017070957,1
748,448,55,0.0681438244882551,1
748,449,55,0.0682097359831336,1
748,450,55,0.072384130658769,1
748,451,55,0.077103660836075,1
748,452,55,0.0876508057877912,1
748,453,55,0.114745407686675,1
748,454,55,0.143571264485794,1
748,455,55,0.123875647171335,1
748,456,55,0.0996035534992894,1
748,457,55,0.0891514063946082,1
748,458,55,0.0856009247543257,1
749,442,55,0.0684753286398407,1
749,448,55,0.0714946549155887,1
749,449,55,0.0726552219298253,1
749,450,55,0.0727963410519024,1
749,451,55,0.0714240713954463,1
749,452,55,0.0765310142933305,1
749,453,55,0.0884546756526723,1
749,454,55,0.103895251947707,1
749,455,55,0.0974277793542868,1
749,456,55,0.0909380008351185,1
749,457,55,0.0888443764676748,1
749,458,55,0.0882774561507668,1
749,459,55,0.0870362427927421,1
750,448,55,0.0680240050095611,1
750,449,55,0.0720695895527573,1
750,450,55,0.0698994877256073,1
750,453,55,0.0721591486832029,1
750,454,55,0.0801917796889476,1
750,455,55,0.0836185544859253,1
750,456,55,0.0883772757674652,1
750,457,55,0.0940601176564508,1
750,458,55,0.0973384837739844,1
750,459,55,0.0935383602504282,1
751,454,55,0.0702328726668505,1
751,455,55,0.0795499512336399,1
751,456,55,0.091624896364896,1
751,457,55,0.105981670614648,1
751,458,55,0.110885991370697,1
751,459,55,0.102579957040368,1
751,460,55,0.0907075561838591,1
752,455,55,0.0780742740846736,1
752,456,55,0.0955998015515341,1
752,457,55,0.114174869545075,1
752,458,55,0.117098000018592,1
752,459,55,0.104064331344057,1
752,460,55,0.0906541513412258,1
753,455,55,0.0725699335096532,1
753,456,55,0.0883544726903112,1
753,457,55,0.106378828700745,1
753,458,55,0.109440706345051,1
753,459,55,0.0981494874620572,1
753,460,55,0.0888395666775633,1
754,456,55,0.0771122501748296,1
754,457,55,0.0879507078813089,1
754,458,55,0.0922350269257202,1
754,459,55,0.0881857287214167,1
754,460,55,0.0859361665261226,1
754,461,55,0.091991656337897,1
755,456,55,0.0719060686685169,1
755,457,55,0.0754840912987531,1
755,458,55,0.0792138289647741,1
755,459,55,0.0812403438821434,1
755,460,55,0.0839458957432052,1
755,461,55,0.0881829494653622,1
756,457,55,0.0683094957020722,1
756,458,55,0.0732117679547368,1
756,459,55,0.0797957656500627,1
756,460,55,0.0858484402671268,1
756,461,55,0.0891128621861801,1
757,458,55,0.0688268985409577,1
757,459,55,0.0812557855246186,1
757,460,55,0.0918338137612851,1
757,461,55,0.0978719931204787,1
758,459,55,0.08344711511784,1
758,460,55,0.100903251029978,1
758,461,55,0.111557073891889,1
759,459,55,0.084465826267554,1
759,460,55,0.104506376811344,1
759,461,55,0.117937515040327,1
760,459,55,0.0800391362378859,1
760,460,55,0.0924041781993813,1
760,461,55,0.102286805424379,1
761,458,55,0.0691477708401796,1
761,459,55,0.0764874386730797,1
761,460,55,0.0800297921873579,1
761,461,55,0.0865630205414815,1
762,458,55,0.0682270524254903,1
762,459,55,0.0735336285669955,1
762,460,55,0.0739795673886695,1
762,461,55,0.07917292478461,1
763,460,55,0.069012072465364,1
763,461,55,0.0734801099186186,1
776,427,55,0.0763094824287286,1
776,428,55,0.0682087057416651,1
777,426,55,0.0758036578268115,1
777,427,55,0.087880256136238,1
777,428,55,0.0798985981240788,1
777,458,55,0.0835162371326434,1
777,459,55,0.0707804340277928,1
778,427,55,0.0730503914102971,1
778,428,55,0.0679928461949157,1
778,458,55,0.0785501797555731,1
783,456,55,0.0755304401852825,1
784,429,55,0.0695604664051674,1
784,456,55,0.0712770403644774,1
742,453,56,0.10270746739142,1
742,454,56,0.0996851102890263,1
743,452,56,0.0975112109439053,1
743,453,56,0.1014717885864,1
743,454,56,0.103856486117568,1
743,455,56,0.0995324788175166,1
744,442,56,0.159742749184504,1
744,443,56,0.120118416433569,1
744,452,56,0.0943295317902329,1
744,453,56,0.100629530247267,1
744,454,56,0.105776760378389,1
744,455,56,0.100285339750156,1
744,456,56,0.0938939433014514,1
745,440,56,0.0738121531500424,1
745,441,56,0.123467288204157,1
745,442,56,0.166079033704422,1
745,443,56,0.122999702332093,1
745,444,56,0.0700815769153842,1
745,449,56,0.0743887589347092,1
745,450,56,0.0837982537550864,1
745,451,56,0.0920391073432066,1
745,452,56,0.0954855405849491,1
745,453,56,0.101947245024101,1
745,454,56,0.10951983128574,1
745,455,56,0.103452008525224,1
746,441,56,0.087199649871239,1
746,442,56,0.105973728171699,1
746,443,56,0.082802142030143,1
746,449,56,0.0720553458654781,1
746,450,56,0.0807874928589891,1
746,451,56,0.0903520150612677,1
746,452,56,0.0957192556538933,1
746,453,56,0.107607367692797,1
746,454,56,0.124928266442869,1
746,455,56,0.114161943608511,1
746,456,56,0.101742694174401,1
747,442,56,0.0738757825402726,1
747,448,56,0.0703692778352317,1
747,449,56,0.0733056576932156,1
747,450,56,0.0808858988885563,1
747,451,56,0.0917272017386259,1
747,452,56,0.101672278367986,1
747,453,56,0.125550017169094,1
747,454,56,0.15489991946866,1
747,455,56,0.136748083056055,1
747,456,56,0.111877119602026,1
748,441,56,0.0741271255199245,1
748,442,56,0.0871965651366095,1
748,443,56,0.077211476803706,1
748,448,56,0.0722865811671668,1
748,449,56,0.0752188999570365,1
748,450,56,0.0808904990365086,1
748,451,56,0.089442239967293,1
748,452,56,0.0993530371087227,1
748,453,56,0.119209132501224,1
748,454,56,0.146340697307677,1
748,455,56,0.129852628989347,1
748,456,56,0.109313519441902,1
749,441,56,0.0764199518671186,1
749,442,56,0.0877341774796499,1
749,443,56,0.0744385878810827,1
749,447,56,0.0697172847300868,1
749,448,56,0.0776666219110606,1
749,449,56,0.0866193603743447,1
749,450,56,0.0861223527226694,1
749,451,56,0.0833005033711897,1
749,452,56,0.087544463305051,1
749,453,56,0.0959327013209229,1
749,454,56,0.10922410406608,1
749,455,56,0.103426863445662,1
749,456,56,0.0990009880255274,1
749,457,56,0.0966086714993138,1
750,448,56,0.0820449205405902,1
750,449,56,0.0999783996698627,1
750,450,56,0.0956246291729691,1
750,451,56,0.0797866731701258,1
750,452,56,0.0784029510619969,1
750,453,56,0.0824297396881694,1
750,454,56,0.0880814946398214,1
750,455,56,0.0893473559260016,1
750,456,56,0.0934334133854913,1
750,457,56,0.0993623272512669,1
750,458,56,0.103222108943579,1
751,448,56,0.0729993106007439,1
751,449,56,0.0896613519623992,1
751,450,56,0.0860886422634568,1
751,451,56,0.071937892348296,1
751,452,56,0.07059653592567,1
751,453,56,0.0753993000299872,1
751,454,56,0.0801477728048262,1
751,455,56,0.0849961490532273,1
751,456,56,0.0926841882468712,1
751,457,56,0.105549975480253,1
751,458,56,0.112533047989989,1
752,449,56,0.0688687431159505,1
752,450,56,0.0699321559637995,1
752,453,56,0.0699915925108441,1
752,454,56,0.0759248849028607,1
752,455,56,0.0840161498256688,1
752,456,56,0.0956726132683409,1
752,457,56,0.112927187228993,1
752,458,56,0.121110634804125,1
752,459,56,0.112835591574714,1
753,454,56,0.0732638790057585,1
753,455,56,0.0823155386193442,1
753,456,56,0.0932063409781084,1
753,457,56,0.108432603088597,1
753,458,56,0.115331519245821,1
753,459,56,0.107782376967366,1
754,454,56,0.0721049651696923,1
754,455,56,0.0802862324663684,1
754,456,56,0.088506205695424,1
754,457,56,0.0982204243789824,1
754,458,56,0.103812125836664,1
754,459,56,0.0998121414579996,1
754,460,56,0.0981445938150819,1
755,454,56,0.0712496670882511,1
755,455,56,0.0789063078762104,1
755,456,56,0.0844258205537869,1
755,457,56,0.0877304578287666,1
755,458,56,0.0918232537862332,1
755,459,56,0.0930829156542747,1
755,460,56,0.0951262498625945,1
756,454,56,0.0683477943296851,1
756,455,56,0.0746891222409774,1
756,456,56,0.0794758577047734,1
756,457,56,0.0807720512165139,1
756,458,56,0.0863677478547737,1
756,459,56,0.0925017157114316,1
756,460,56,0.0967271193193084,1
757,457,56,0.071106792961812,1
757,458,56,0.0807218209551498,1
757,459,56,0.0920502004083206,1
757,460,56,0.0995281362299315,1
758,458,56,0.0777343542978368,1
758,459,56,0.0928658821114334,1
758,460,56,0.104266797751716,1
759,458,56,0.078282790166072,1
759,459,56,0.0946344652955734,1
759,460,56,0.107148610750527,1
760,458,56,0.080640246196085,1
760,459,56,0.0922195433548132,1
760,460,56,0.0987082616836331,1
761,458,56,0.0802686704431965,1
761,459,56,0.087287903230521,1
761,460,56,0.0878761411601401,1
762,458,56,0.0768471486797527,1
762,459,56,0.082998546784511,1
762,460,56,0.0823732980291145,1
763,458,56,0.0685803893105212,1
763,459,56,0.075457233143261,1
763,460,56,0.0775627292466961,1
764,459,56,0.0684144365772331,1
764,460,56,0.0731348891800399,1
764,461,56,0.076536716560063,1
765,460,56,0.069877654992162,1
765,461,56,0.0721754947818509,1
767,458,56,0.0700694176701458,1
767,459,56,0.0679929300517795,1
776,427,56,0.0712749439428846,1
777,427,56,0.0797319086483452,1
777,457,56,0.0703849051607622,1
777,458,56,0.087840807471637,1
777,459,56,0.0760039499457901,1
778,457,56,0.0678800048052379,1
778,458,56,0.0829236027074554,1
782,456,56,0.0683144552365832,1
783,455,56,0.0740521455042131,1
785,437,56,0.0837734860314111,1
785,438,56,0.0937081344607913,1
786,438,56,0.0732224177764284,1
788,448,56,0.0836644840881361,1
788,449,56,0.0731050241570061,1
789,448,56,0.075940590095479,1
742,453,57,0.107125621990317,1
742,454,57,0.106343788511265,1
742,455,57,0.107084076904123,1
743,452,57,0.101806988429765,1
743,453,57,0.106643133555616,1
743,454,57,0.110665938980762,1
743,455,57,0.108248669047818,1
743,456,57,0.104844751235978,1
744,452,57,0.101038044948621,1
744,453,57,0.106900023067825,1
744,454,57,0.111929446284983,1
744,455,57,0.107166280589666,1
744,456,57,0.10199854146559,1
745,443,57,0.153055727342331,1
745,453,57,0.108893312697836,1
745,454,57,0.117190601955235,1
745,455,57,0.110875629058253,1
745,456,57,0.101986490036319,1
746,440,57,0.0756551832598316,1
746,441,57,0.0994669985865087,1
746,442,57,0.129768664309666,1
746,443,57,0.1038447581362,1
746,444,57,0.0741559662912658,1
746,448,57,0.0711322554995008,1
746,449,57,0.0759815122449709,1
746,451,57,0.0989637975064706,1
746,452,57,0.10576771581666,1
746,453,57,0.116203690526197,1
746,454,57,0.131729920617739,1
746,455,57,0.123193591380549,1
746,456,57,0.108539017448649,1
747,439,57,0.0678634310951026,1
747,440,57,0.0707439922307335,1
747,441,57,0.0782976448105012,1
747,442,57,0.087477862985935,1
747,443,57,0.0820521981184053,1
747,444,57,0.0689426270026576,1
747,447,57,0.0692037992046919,1
747,448,57,0.0736916208880068,1
747,449,57,0.077646047030571,1
747,450,57,0.0863401170181803,1
747,451,57,0.100901573892704,1
747,452,57,0.110044571600201,1
747,453,57,0.125536144847925,1
747,454,57,0.144850021759658,1
747,455,57,0.13428415276823,1
747,456,57,0.114359833827322,1
748,440,57,0.0705567757927181,1
748,441,57,0.0840112621684695,1
748,442,57,0.0974061862118807,1
748,443,57,0.0929787115215593,1
748,444,57,0.073593364602839,1
748,446,57,0.0678597234237713,1
748,447,57,0.0727002410860873,1
748,448,57,0.077596643358292,1
748,449,57,0.0828425370793488,1
748,450,57,0.0884420671742355,1
748,451,57,0.0996154911228166,1
748,452,57,0.108196498099037,1
748,453,57,0.119744858064831,1
748,454,57,0.134466589365014,1
748,455,57,0.125917945148411,1
749,440,57,0.0721504754875845,1
749,441,57,0.0883943466290068,1
749,442,57,0.0994012068871498,1
749,443,57,0.0907366305564636,1
749,444,57,0.0713631853226146,1
749,446,57,0.0707819793899955,1
749,447,57,0.075660604007093,1
749,448,57,0.0841217555659634,1
749,449,57,0.0979905906848729,1
749,450,57,0.0967435372952683,1
749,451,57,0.0944640501791806,1
749,452,57,0.0964261929740982,1
749,453,57,0.101750133476168,1
749,454,57,0.108091353571493,1
749,455,57,0.105498032142959,1
750,441,57,0.0744941310737407,1
750,442,57,0.0782311103789209,1
750,443,57,0.0718609117474074,1
750,446,57,0.0719777363381116,1
750,447,57,0.0778023502347561,1
750,448,57,0.0952334968015075,1
750,449,57,0.123793491404001,1
750,450,57,0.119943706647798,1
750,451,57,0.0999651203365162,1
750,452,57,0.0906492996226824,1
750,453,57,0.0915085449664941,1
750,454,57,0.094426811741916,1
750,455,57,0.0944708306055893,1
750,456,57,0.0970069616530708,1
751,446,57,0.0692248592570359,1
751,447,57,0.0741949836919963,1
751,448,57,0.0899026800366133,1
751,449,57,0.119182501957219,1
751,450,57,0.118464735122043,1
751,451,57,0.0985064062331238,1
751,452,57,0.0867484759853589,1
751,453,57,0.0869672345836823,1
751,454,57,0.0897100308717846,1
751,455,57,0.090837348639559,1
751,456,57,0.0951270465027998,1
751,457,57,0.104447209804219,1
752,448,57,0.0742248367354782,1
752,449,57,0.0901968259554148,1
752,450,57,0.0940900365874684,1
752,451,57,0.0873040396870098,1
752,452,57,0.082659836932422,1
752,453,57,0.0840411032323994,1
752,454,57,0.0881694604898563,1
752,455,57,0.0916371214976702,1
752,456,57,0.0990606402045072,1
752,457,57,0.111523279575813,1
753,450,57,0.0723641847047572,1
753,451,57,0.0750371162458346,1
753,452,57,0.0775136909507519,1
753,453,57,0.0811118512078311,1
753,454,57,0.086840203414709,1
753,455,57,0.0923672572202437,1
753,456,57,0.0998644861102845,1
753,457,57,0.110185750620038,1
753,458,57,0.11977560957471,1
754,451,57,0.0699575765730565,1
754,452,57,0.0748167883262045,1
754,453,57,0.0796935980411803,1
754,454,57,0.0867705782587233,1
754,455,57,0.0932805722718224,1
754,456,57,0.0999866715504904,1
754,457,57,0.106628566420434,1
754,458,57,0.111206372508289,1
755,452,57,0.0724588890527692,1
755,453,57,0.0787328918820518,1
755,454,57,0.0859750102233496,1
755,455,57,0.0920981246059326,1
755,456,57,0.0962775447036149,1
755,457,57,0.099461661696111,1
755,458,57,0.102285487673664,1
756,452,57,0.0720582509068281,1
756,453,57,0.0775986259741412,1
756,454,57,0.0828017107662725,1
756,455,57,0.0881184815064948,1
756,456,57,0.0914382609351507,1
756,457,57,0.0930631673628703,1
756,458,57,0.0978152040544171,1
756,459,57,0.103200485852293,1
757,433,57,0.0707899817307041,1
757,434,57,0.0768321263215962,1
757,435,57,0.0682735869950751,1
757,452,57,0.0679290131523022,1
757,453,57,0.070754941541224,1
757,454,57,0.0724255978778751,1
757,455,57,0.0761610497901805,1
757,456,57,0.0801290367855623,1
757,457,57,0.0839785759609493,1
757,458,57,0.0924094971204511,1
757,459,57,0.101873295249858,1
758,434,57,0.0710418338413143,1
758,456,57,0.0704762791933295,1
758,457,57,0.0783512053873099,1
758,458,57,0.0905891203434164,1
758,459,57,0.101978559572922,1
759,457,57,0.0778542935720503,1
759,458,57,0.0943076271794758,1
759,459,57,0.105353870214684,1
760,457,57,0.0792511632384543,1
760,458,57,0.0977254472613642,1
760,459,57,0.105629411889293,1
761,457,57,0.0751707840865932,1
761,458,57,0.091977604323449,1
761,459,57,0.0983781950782825,1
761,460,57,0.0969676687226453,1
762,457,57,0.0700180313820177,1
762,458,57,0.0845164578439087,1
762,459,57,0.0913451558573253,1
762,460,57,0.0913281209344396,1
763,458,57,0.0769999598445418,1
763,459,57,0.0839781926152867,1
763,460,57,0.0864321978443132,1
764,458,57,0.0704729069494531,1
764,459,57,0.0771965143433092,1
764,460,57,0.0824876787912191,1
765,458,57,0.0677602751731836,1
765,459,57,0.0735022601101908,1
765,460,57,0.0793564215717421,1
766,458,57,0.0716130548173756,1
766,459,57,0.0733142650012981,1
766,460,57,0.0756160640329095,1
767,458,57,0.0768676696522585,1
767,459,57,0.0748058210463861,1
767,460,57,0.0733892809556654,1
768,458,57,0.0679144939353279,1
776,458,57,0.0704415265130965,1
777,457,57,0.0720698471131244,1
777,458,57,0.0835902168557663,1
778,457,57,0.0713650002247364,1
784,437,57,0.0935066863150486,1
784,438,57,0.0896114691080419,1
785,436,57,0.0829492808770795,1
785,437,57,0.142425671911506,1
785,438,57,0.140163381442256,1
785,439,57,0.0788580722102475,1
786,437,57,0.108154186321518,1
786,438,57,0.103428109319066,1
787,448,57,0.0730066241172148,1
788,447,57,0.090447498080157,1
788,448,57,0.102256892483138,1
788,449,57,0.0790436773985243,1
789,447,57,0.0790014794267487,1
742,454,58,0.110423472849112,1
742,455,58,0.114094223201287,1
743,453,58,0.108846939852203,1
743,454,58,0.112347017527618,1
743,455,58,0.112982544738595,1
743,456,58,0.112604194549074,1
744,453,58,0.108860824152923,1
744,454,58,0.111743068415605,1
744,455,58,0.109523125662529,1
744,456,58,0.10744387076766,1
745,453,58,0.110202941277099,1
745,454,58,0.117109308715642,1
745,455,58,0.112999340070442,1
745,456,58,0.105098825553477,1
746,442,58,0.139516054372599,1
746,443,58,0.119378942650243,1
746,445,58,0.0719759214359899,1
746,446,58,0.070687718285406,1
746,447,58,0.0721787292608799,1
746,448,58,0.0754254214430338,1
746,449,58,0.0798414915998902,1
746,451,58,0.103414608364008,1
746,452,58,0.111604357183471,1
746,453,58,0.118623008962526,1
746,454,58,0.132023120151935,1
746,455,58,0.126946066236189,1
746,456,58,0.111697534138608,1
747,440,58,0.0774273782788872,1
747,441,58,0.0889165233193479,1
747,442,58,0.100398869964072,1
747,443,58,0.0953301538164888,1
747,444,58,0.0784247059283544,1
747,445,58,0.0722987703612851,1
747,446,58,0.072242670119461,1
747,447,58,0.0742992237633676,1
747,448,58,0.0774609030550445,1
747,449,58,0.081679406440993,1
747,450,58,0.0905710431995102,1
747,451,58,0.105024552331331,1
747,452,58,0.113748804800101,1
747,453,58,0.120516101619952,1
747,454,58,0.130953633671243,1
747,455,58,0.127024316669585,1
747,456,58,0.112977453429013,1
748,439,58,0.0721417004657746,1
748,440,58,0.0771020615658884,1
748,441,58,0.091984642310225,1
748,442,58,0.102775331553268,1
748,443,58,0.101175606143766,1
748,444,58,0.0820638542224614,1
748,445,58,0.0751293827550229,1
748,446,58,0.0751403081064095,1
748,447,58,0.077890340043895,1
748,448,58,0.0825205866204505,1
748,449,58,0.0884691709105427,1
748,450,58,0.0938333327583148,1
748,451,58,0.104229876772578,1
748,452,58,0.112335061934763,1
748,453,58,0.11758260883399,1
748,454,58,0.122397142848107,1
748,455,58,0.11974699042508,1
749,439,58,0.0714684316763505,1
749,440,58,0.0793394285772883,1
749,441,58,0.096432679901484,1
749,442,58,0.104958784591076,1
749,443,58,0.100828558523514,1
749,444,58,0.0820400688220468,1
749,445,58,0.0777175949046461,1
749,446,58,0.0786442012691233,1
749,447,58,0.0816046240878889,1
749,448,58,0.089778883346669,1
749,449,58,0.103026710471576,1
749,450,58,0.103523143104757,1
749,451,58,0.101776680163309,1
749,452,58,0.101966136777541,1
749,453,58,0.105239753002723,1
749,454,58,0.107641437538568,1
749,455,58,0.107733284763438,1
749,456,58,0.105652616281438,1
750,439,58,0.0682713168699788,1
750,440,58,0.0728898773935983,1
750,441,58,0.0850256007817185,1
750,442,58,0.0880496350213864,1
750,443,58,0.0834317273833486,1
750,444,58,0.0751461421482135,1
750,445,58,0.0791057494469999,1
750,446,58,0.0823762090602406,1
750,447,58,0.0874864822735695,1
750,448,58,0.10333402191798,1
750,449,58,0.131577408941748,1
750,450,58,0.135661741345756,1
750,451,58,0.119146742994622,1
750,452,58,0.101725491537788,1
750,453,58,0.0974233229609581,1
750,454,58,0.100349681923728,1
750,455,58,0.100615502191923,1
750,456,58,0.101538239161117,1
750,457,58,0.106745486847554,1
751,441,58,0.0724324861202515,1
751,442,58,0.0759783436534778,1
751,443,58,0.074141608798243,1
751,444,58,0.0726611817569249,1
751,445,58,0.078336865863615,1
751,446,58,0.081792205902239,1
751,447,58,0.0881709519440752,1
751,448,58,0.104806752097164,1
751,449,58,0.138079969642857,1
751,450,58,0.150774760751576,1
751,451,58,0.132988097021337,1
751,452,58,0.105998801373949,1
751,453,58,0.094628739069737,1
751,454,58,0.0972392152166761,1
751,455,58,0.0976871186848714,1
751,456,58,0.0992764458432728,1
751,457,58,0.105921724936645,1
752,442,58,0.071439345324194,1
752,443,58,0.071910135726407,1
752,444,58,0.0718172702396207,1
752,445,58,0.0746470500544974,1
752,446,58,0.0773945722758475,1
752,447,58,0.0814856072391762,1
752,448,58,0.0881744619527992,1
752,449,58,0.106416240841513,1
752,450,58,0.119264561888138,1
752,451,58,0.114228070735325,1
752,452,58,0.099892404456125,1
752,453,58,0.093400206067461,1
752,454,58,0.0974600283081605,1
752,455,58,0.0998013898101164,1
752,456,58,0.103572894184043,1
752,457,58,0.111840198622888,1
752,458,58,0.122542466792922,1
753,443,58,0.068093306717644,1
753,444,58,0.069424702142816,1
753,445,58,0.0714798841280233,1
753,446,58,0.0752741676199994,1
753,447,58,0.0779682011418526,1
753,448,58,0.0782863540827799,1
753,449,58,0.0812405834731826,1
753,450,58,0.0869652519678331,1
753,451,58,0.0897231005629718,1
753,452,58,0.0908810560348814,1
753,453,58,0.092585752268424,1
753,454,58,0.0976593500834304,1
753,455,58,0.102094126310671,1
753,456,58,0.107354599146462,1
753,457,58,0.114885065303413,1
753,458,58,0.122997510074084,1
754,445,58,0.0689023697182994,1
754,446,58,0.073724876124245,1
754,447,58,0.0747882170947823,1
754,448,58,0.0731849038094688,1
754,449,58,0.0725248963840633,1
754,450,58,0.0760671301028219,1
754,451,58,0.0804452909675041,1
754,452,58,0.0865985698619199,1
754,453,58,0.0922349071302006,1
754,454,58,0.0989450854463107,1
754,455,58,0.104404550619693,1
754,456,58,0.110290655556543,1
754,457,58,0.115615949747984,1
754,458,58,0.1178226910348,1
755,446,58,0.0682147374460764,1
755,450,58,0.0706466883199464,1
755,451,58,0.0765623887399112,1
755,452,58,0.0844981950169472,1
755,453,58,0.092507148438245,1
755,454,58,0.0999745662132358,1
755,455,58,0.104157508299194,1
755,456,58,0.107718466057665,1
755,457,58,0.111875358607888,1
755,458,58,0.11332141032486,1
755,459,58,0.113565721307512,1
756,444,58,0.0679178721689803,1
756,451,58,0.0731788301766256,1
756,452,58,0.0828335524153796,1
756,453,58,0.0907416859273903,1
756,454,58,0.0968138991936995,1
756,455,58,0.0997972748340185,1
756,456,58,0.102594224686751,1
756,457,58,0.106428256332128,1
756,458,58,0.110744956105484,1
756,459,58,0.113208323354367,1
757,434,58,0.0763172212192941,1
757,435,58,0.0708329823324609,1
757,444,58,0.0699668487462728,1
757,451,58,0.0698553850050702,1
757,452,58,0.079350312000243,1
757,453,58,0.0843963388764158,1
757,454,58,0.0866132687721736,1
757,455,58,0.0889482331933834,1
757,456,58,0.0935262249642937,1
757,457,58,0.100049695973347,1
757,458,58,0.107772074552681,1
757,459,58,0.112478517069472,1
758,434,58,0.0695479657426982,1
758,452,58,0.0720424618573462,1
758,453,58,0.0740939301814461,1
758,454,58,0.0744828762846752,1
758,455,58,0.0770745924532464,1
758,456,58,0.0850281404467338,1
758,457,58,0.0956047431167172,1
758,458,58,0.107302883420655,1
758,459,58,0.112287682806765,1
759,456,58,0.0781430966106781,1
759,457,58,0.0954245227370459,1
759,458,58,0.112531011466156,1
759,459,58,0.115740381354182,1
760,456,58,0.074122321719589,1
760,457,58,0.0952495494011326,1
760,458,58,0.116430822831339,1
760,459,58,0.118182341143714,1
760,460,58,0.112224083365415,1
761,456,58,0.0693024088866425,1
761,457,58,0.0866804800484396,1
761,458,58,0.105432072729873,1
761,459,58,0.109857379121289,1
761,460,58,0.107150024337658,1
762,456,58,0.0685496378006424,1
762,457,58,0.0809111757431898,1
762,458,58,0.0949714680615082,1
762,459,58,0.101162931777793,1
762,460,58,0.101887646753105,1
763,457,58,0.0775781888584992,1
763,458,58,0.0874437572015077,1
763,459,58,0.0931144158861509,1
763,460,58,0.095449601929072,1
764,457,58,0.0728392518070196,1
764,458,58,0.0809640415059849,1
764,459,58,0.0871824472346259,1
764,460,58,0.0923538700709295,1
765,457,58,0.0684201628030695,1
765,458,58,0.0760470883123945,1
765,459,58,0.0831426907434577,1
765,460,58,0.089932005979809,1
766,457,58,0.0683921486208133,1
766,458,58,0.0759891551991208,1
766,459,58,0.0808933980880827,1
766,460,58,0.0857418581933475,1
767,457,58,0.0719023789665135,1
767,458,58,0.0787053149534422,1
767,459,58,0.0802851183680362,1
768,457,58,0.0680792247543162,1
768,458,58,0.072145384178002,1
768,459,58,0.0731030774798128,1
773,454,58,0.084449761688377,1
773,455,58,0.0829906642393219,1
774,454,58,0.0777363129545821,1
774,455,58,0.0775789495600486,1
776,457,58,0.0683111967984504,1
776,458,58,0.0715269218387903,1
777,457,58,0.0713279235114233,1
778,457,58,0.0727095192490795,1
780,455,58,0.0690206797734465,1
784,436,58,0.070467665895471,1
784,437,58,0.113489351663773,1
784,438,58,0.097996418736901,1
785,436,58,0.10652690794251,1
785,437,58,0.187230909314121,1
785,438,58,0.16652298392047,1
785,439,58,0.0863901855555929,1
786,436,58,0.0820960911967831,1
786,437,58,0.140363152450724,1
786,438,58,0.123455859711588,1
787,447,58,0.0804539581733464,1
787,448,58,0.082764753848479,1
787,449,58,0.0709120952935982,1
788,446,58,0.0814528611338962,1
788,447,58,0.111201928094512,1
743,454,59,0.112122820212705,1
743,455,59,0.115676362628513,1
744,454,59,0.110817180824245,1
744,455,59,0.112376990366619,1
745,453,59,0.11111672952098,1
745,454,59,0.116110645346131,1
745,455,59,0.115993832734979,1
745,456,59,0.109690635737572,1
746,443,59,0.121996283080455,1
746,446,59,0.0758114385458089,1
746,447,59,0.0772112791410987,1
746,448,59,0.0800333021960819,1
746,453,59,0.119060238649926,1
746,454,59,0.129629725466045,1
746,455,59,0.12823086120424,1
746,456,59,0.114051647873625,1
747,440,59,0.0813466444364517,1
747,441,59,0.0945004081193761,1
747,442,59,0.106251150635966,1
747,443,59,0.101280091795952,1
747,444,59,0.0855570616248278,1
747,445,59,0.0785372358496813,1
747,446,59,0.0774916425853713,1
747,447,59,0.0790584062576579,1
747,448,59,0.0813069022728277,1
747,449,59,0.0855629256155118,1
747,450,59,0.0936648223906835,1
747,451,59,0.105739803460595,1
747,452,59,0.114489512477278,1
747,454,59,0.123094508506296,1
747,455,59,0.122157707543102,1
748,439,59,0.0750899820086297,1
748,440,59,0.0819335406562514,1
748,441,59,0.0950227105950128,1
748,442,59,0.102915240740597,1
748,443,59,0.0993144749309666,1
748,444,59,0.0863383560240423,1
748,445,59,0.0810474311671716,1
748,446,59,0.0806823782803248,1
748,447,59,0.0825827545053418,1
748,448,59,0.0862289347964487,1
748,449,59,0.0915712459414476,1
748,450,59,0.09683246150946,1
748,451,59,0.105265389243915,1
748,452,59,0.112846660680724,1
748,453,59,0.115364379156845,1
749,438,59,0.0681684963755147,1
749,439,59,0.0742027284723378,1
749,440,59,0.0831816602259804,1
749,441,59,0.0967644655725406,1
749,442,59,0.102742279969413,1
749,443,59,0.0990654200457389,1
749,444,59,0.0881308923223243,1
749,445,59,0.0851219523181248,1
749,446,59,0.0850486793885675,1
749,447,59,0.086786720704988,1
749,448,59,0.0942620929024796,1
749,449,59,0.103502502336731,1
749,450,59,0.106874302969769,1
749,451,59,0.106770464213389,1
749,452,59,0.105893776641925,1
749,453,59,0.107707936031493,1
749,454,59,0.108307919911807,1
749,455,59,0.109840092627812,1
750,439,59,0.0722550509864107,1
750,440,59,0.0787612953997466,1
750,441,59,0.0901097705513287,1
750,442,59,0.0935709266624288,1
750,443,59,0.0892052904193198,1
750,444,59,0.0841944355076987,1
750,445,59,0.0873909153978165,1
750,446,59,0.0900669436530752,1
750,447,59,0.0935936997907029,1
750,448,59,0.107251958345277,1
750,449,59,0.12549153299643,1
750,450,59,0.137403220793589,1
750,451,59,0.130577068434964,1
750,452,59,0.110096598794359,1
750,453,59,0.10307682093742,1
750,454,59,0.104770537911592,1
750,455,59,0.105849620013404,1
750,456,59,0.10553680995265,1
751,440,59,0.0708432308391619,1
751,441,59,0.0798650194399377,1
751,442,59,0.0837725935547902,1
751,443,59,0.0814802643590024,1
751,444,59,0.0815986522812373,1
751,445,59,0.0876718119321513,1
751,446,59,0.0918840080839933,1
751,447,59,0.0981110031513889,1
751,448,59,0.116004806004573,1
751,449,59,0.141565731753681,1
751,450,59,0.167354125235386,1
751,451,59,0.161257611447928,1
751,452,59,0.124459446676954,1
751,453,59,0.103898378610769,1
751,454,59,0.103251446866327,1
751,455,59,0.103873413224486,1
751,456,59,0.102904722693977,1
751,457,59,0.108180481438068,1
752,441,59,0.0736248828040432,1
752,442,59,0.0786033509969431,1
752,443,59,0.0781701344594496,1
752,444,59,0.0804775459111537,1
752,445,59,0.0855446088805665,1
752,446,59,0.0891623976335306,1
752,447,59,0.0931172969683971,1
752,448,59,0.10281625370276,1
752,449,59,0.117029405104075,1
752,450,59,0.137852418053396,1
752,451,59,0.140036194539107,1
752,452,59,0.116585886151897,1
752,453,59,0.103286726646846,1
752,454,59,0.104484753720058,1
752,455,59,0.106610429378768,1
752,456,59,0.106892799397994,1
752,457,59,0.113150689729892,1
753,441,59,0.0695386157023942,1
753,442,59,0.0749146672554856,1
753,443,59,0.0765272167753595,1
753,444,59,0.0797638042054361,1
753,445,59,0.0841459722302485,1
753,446,59,0.0884745856680282,1
753,447,59,0.0906752593117776,1
753,448,59,0.0929768726603336,1
753,449,59,0.0950226207483732,1
753,450,59,0.101741244648614,1
753,451,59,0.105900149763567,1
753,452,59,0.102817775105859,1
753,453,59,0.102444827694271,1
753,454,59,0.105339207243086,1
753,455,59,0.109592654982099,1
753,456,59,0.112394648226207,1
753,457,59,0.119102310836406,1
753,458,59,0.125269396164454,1
754,442,59,0.0695709724722355,1
754,443,59,0.073454845043537,1
754,444,59,0.0775586142705981,1
754,445,59,0.0826899115976151,1
754,446,59,0.0889872625736659,1
754,447,59,0.0895580582756326,1
754,448,59,0.0863081196348978,1
754,449,59,0.0845124087553466,1
754,450,59,0.086516420084361,1
754,451,59,0.0908620504756984,1
754,452,59,0.0962109982924826,1
754,453,59,0.10225097458447,1
754,454,59,0.107381541158818,1
754,455,59,0.112171565009626,1
754,456,59,0.11659532603884,1
754,457,59,0.121284074757388,1
754,458,59,0.122837127832457,1
755,443,59,0.0739026466855407,1
755,444,59,0.078174962218889,1
755,445,59,0.0800780278533208,1
755,446,59,0.0828942288460519,1
755,447,59,0.0818236701954593,1
755,448,59,0.0782285767036816,1
755,449,59,0.078028578083726,1
755,450,59,0.0820504371242673,1
755,451,59,0.0876299973060383,1
755,452,59,0.0952492379327817,1
755,453,59,0.104130434511767,1
755,454,59,0.110872993556822,1
755,455,59,0.113545092519038,1
755,456,59,0.116570552325389,1
755,457,59,0.120247340371751,1
755,458,59,0.120973648627474,1
756,443,59,0.077435051181917,1
756,444,59,0.0829112158507298,1
756,445,59,0.0801136730101749,1
756,446,59,0.0765720622281181,1
756,447,59,0.0740542658849099,1
756,448,59,0.0735675666376953,1
756,449,59,0.0753406481435959,1
756,450,59,0.0793532649598009,1
756,451,59,0.0845411357209443,1
756,452,59,0.0931322714083458,1
756,453,59,0.10229188475441,1
756,454,59,0.108668312752942,1
756,455,59,0.109299850773117,1
756,456,59,0.1126104718343,1
756,457,59,0.118415966366018,1
756,458,59,0.121964549247315,1
756,459,59,0.120889588111378,1
757,434,59,0.0690232074589099,1
757,435,59,0.0695726555992857,1
757,443,59,0.0754506863181154,1
757,444,59,0.0841044091747268,1
757,445,59,0.079958465934994,1
757,446,59,0.0719735914131338,1
757,447,59,0.0680846874300095,1
757,448,59,0.068972899330458,1
757,449,59,0.0710440320890987,1
757,450,59,0.0746438395345724,1
757,451,59,0.0809562008892278,1
757,452,59,0.0903872169746993,1
757,453,59,0.0969878842165761,1
757,454,59,0.099764390963891,1
757,455,59,0.100691356714927,1
757,456,59,0.108998648898212,1
757,457,59,0.122908346268854,1
757,458,59,0.130276453558104,1
757,459,59,0.125852596692474,1
758,444,59,0.0757249701397688,1
758,445,59,0.0732156313602436,1
758,451,59,0.0745163830915045,1
758,452,59,0.0833647856470017,1
758,453,59,0.0859459059018652,1
758,454,59,0.0864502150904595,1
758,455,59,0.090718703156957,1
758,456,59,0.106722869453455,1
758,457,59,0.128619154421887,1
758,458,59,0.139578707429344,1
758,459,59,0.130717504722579,1
759,452,59,0.0719561731445854,1
759,453,59,0.0730368065983756,1
759,454,59,0.074178140441942,1
759,455,59,0.0821578817257877,1
759,456,59,0.102087705270821,1
759,457,59,0.128458197161766,1
759,458,59,0.142695990501461,1
759,459,59,0.132063443323829,1
760,454,59,0.069500382962317,1
760,455,59,0.0765763329383915,1
760,456,59,0.093654436119135,1
760,457,59,0.118419057090424,1
760,458,59,0.136656703033711,1
760,459,59,0.130277423901813,1
761,455,59,0.0723746129047376,1
761,456,59,0.083101990215677,1
761,457,59,0.100720754535434,1
761,458,59,0.117650269343454,1
761,459,59,0.120258625109697,1
761,460,59,0.117910453232452,1
762,455,59,0.0715468258643702,1
762,456,59,0.0807775618104151,1
762,457,59,0.0926821457332622,1
762,458,59,0.104458147135157,1
762,459,59,0.11056269920198,1
762,460,59,0.112512287426444,1
763,455,59,0.069771869558588,1
763,456,59,0.0794495206597916,1
763,457,59,0.0893046548130438,1
763,458,59,0.0958610935490879,1
763,459,59,0.100712883969797,1
763,460,59,0.103185379637273,1
764,456,59,0.0736838221996815,1
764,457,59,0.0823960531880607,1
764,458,59,0.0888113847815797,1
764,459,59,0.0949004532774952,1
764,460,59,0.0997319263780821,1
765,456,59,0.0684666913828783,1
765,457,59,0.0758214654307986,1
765,458,59,0.0828113243567196,1
765,459,59,0.0912646053499529,1
765,460,59,0.098425682022248,1
766,450,59,0.067845180247693,1
766,451,59,0.0683938257580876,1
766,457,59,0.073302902396265,1
766,458,59,0.0796322148169424,1
766,459,59,0.0876994247994168,1
767,457,59,0.0745973528831954,1
767,458,59,0.0791233234497238,1
767,459,59,0.0849981256793005,1
768,447,59,0.072100065532941,1
768,457,59,0.0732648433596912,1
768,458,59,0.0755631623314585,1
768,459,59,0.0790670914328282,1
769,457,59,0.0677937939595649,1
769,458,59,0.0696619092511563,1
769,459,59,0.0732574939045644,1
772,454,59,0.0762431396699796,1
772,455,59,0.074656220401522,1
773,453,59,0.0717928379434004,1
773,454,59,0.0989025280879763,1
773,455,59,0.0956025029405008,1
773,456,59,0.0736247570187476,1
774,453,59,0.0689576433710383,1
774,454,59,0.0932078144629993,1
774,455,59,0.0916024406947488,1
774,456,59,0.0744819179205184,1
775,454,59,0.0740285457868539,1
775,455,59,0.075954025163001,1
775,456,59,0.0716560793782363,1
775,457,59,0.0697000281854898,1
776,455,59,0.0686546206042352,1
776,456,59,0.0704747338311268,1
776,457,59,0.0718270994620031,1
777,456,59,0.069540730093315,1
778,453,59,0.0686960339153575,1
778,456,59,0.0698730248953299,1
779,451,59,0.0689098329791699,1
779,455,59,0.0683032124270697,1
780,451,59,0.0713895882551323,1
784,436,59,0.0742016563024375,1
784,437,59,0.111491677517745,1
784,438,59,0.094364266501138,1
784,451,59,0.0720599699725342,1
785,436,59,0.110381424621736,1
785,437,59,0.183699804599132,1
785,438,59,0.15695882110475,1
785,439,59,0.0817975607619647,1
785,450,59,0.0742033034908319,1
786,436,59,0.0864409908354511,1
786,437,59,0.142637266737758,1
786,438,59,0.122949519988937,1
787,437,59,0.0736128014258925,1
787,438,59,0.0680245081507434,1
787,446,59,0.0705699113714412,1
787,447,59,0.0864857704006738,1
744,455,60,0.116280203924559,1
745,454,60,0.115647683581123,1
745,455,60,0.121409380870879,1
745,456,60,0.120380349337152,1
746,454,60,0.124771298373551,1
746,455,60,0.128250543608109,1
746,456,60,0.11984397687774,1
747,442,60,0.110267666796333,1
747,443,60,0.10501886204415,1
747,444,60,0.092603577841739,1
747,445,60,0.0861713251310779,1
747,446,60,0.0844572908367832,1
747,447,60,0.0856905138336512,1
747,448,60,0.088284703779702,1
747,455,60,0.119591843247658,1
748,440,60,0.0871254904548368,1
748,441,60,0.0998383167790301,1
748,442,60,0.106179716567634,1
748,443,60,0.099718527249216,1
748,444,60,0.0919549629702465,1
748,445,60,0.0882812776278417,1
748,446,60,0.0875945258526877,1
748,447,60,0.0888864786030347,1
748,448,60,0.0916077476362667,1
748,449,60,0.0959407455900634,1
748,450,60,0.100591974351875,1
748,451,60,0.106284609524587,1
748,452,60,0.111714772713877,1
749,439,60,0.0782101581425446,1
749,440,60,0.0878578663536266,1
749,441,60,0.0998305540293606,1
749,442,60,0.103987542416,1
749,443,60,0.0986577798516778,1
749,444,60,0.0952717954291205,1
749,445,60,0.0938863961837173,1
749,446,60,0.0926899444215875,1
749,447,60,0.0933411947945109,1
749,448,60,0.0980140406578327,1
749,449,60,0.103730209660368,1
749,450,60,0.108807035964628,1
749,451,60,0.111690118795946,1
749,452,60,0.109510846621771,1
749,453,60,0.108874049578286,1
749,454,60,0.108776715718619,1
750,438,60,0.0719307764944323,1
750,439,60,0.077060390694399,1
750,440,60,0.0849314594726486,1
750,441,60,0.0950905507977567,1
750,442,60,0.0988035290705871,1
750,443,60,0.0947677917191012,1
750,444,60,0.094565918299264,1
750,445,60,0.0962656849471755,1
750,446,60,0.0969622539651598,1
750,447,60,0.098882444369117,1
750,448,60,0.107763796682277,1
750,449,60,0.117326474033554,1
750,450,60,0.130897090185996,1
750,451,60,0.136022553471209,1
750,452,60,0.117113813027178,1
750,453,60,0.108107034805007,1
750,454,60,0.107047515311545,1
750,455,60,0.108471500693808,1
751,437,60,0.0685631447454762,1
751,438,60,0.0702607131456032,1
751,439,60,0.074567661563665,1
751,440,60,0.0797306148567337,1
751,441,60,0.0871367332643503,1
751,442,60,0.0910240379772881,1
751,443,60,0.0895141711870308,1
751,444,60,0.0917255365809036,1
751,445,60,0.0963855822929572,1
751,446,60,0.0996152515317774,1
751,447,60,0.104506245036273,1
751,448,60,0.119062418928382,1
751,449,60,0.136114460593839,1
751,450,60,0.163109482467063,1
751,451,60,0.17300769508916,1
751,452,60,0.136897731619127,1
751,453,60,0.113125293079739,1
751,454,60,0.106876423350466,1
751,455,60,0.107165657652964,1
751,456,60,0.105405609899595,1
752,436,60,0.0684071829585219,1
752,438,60,0.0697126785923586,1
752,439,60,0.0734734432979534,1
752,440,60,0.0767244660881406,1
752,441,60,0.0820591462585415,1
752,442,60,0.0860921462824048,1
752,443,60,0.0857740771983412,1
752,444,60,0.089225667637202,1
752,445,60,0.0949231245795776,1
752,446,60,0.0984681974521506,1
752,447,60,0.101816751764612,1
752,448,60,0.112187761363875,1
752,449,60,0.123607964082811,1
752,450,60,0.143822343915303,1
752,451,60,0.155964518292153,1
752,452,60,0.129155203433397,1
752,453,60,0.112863911235545,1
752,454,60,0.108903734908041,1
752,455,60,0.109910244884084,1
752,456,60,0.108427080515144,1
752,457,60,0.112519559014483,1
753,438,60,0.0687029640861658,1
753,439,60,0.0711497755942409,1
753,440,60,0.0740271381894987,1
753,441,60,0.0791588428212822,1
753,442,60,0.0836347448503979,1
753,443,60,0.0846084727825059,1
753,444,60,0.0885771126634694,1
753,445,60,0.0948550447857946,1
753,446,60,0.0989045945606892,1
753,447,60,0.100202003996954,1
753,448,60,0.103384887095598,1
753,449,60,0.10625233661161,1
753,450,60,0.111993165521853,1
753,451,60,0.119207215772911,1
753,452,60,0.112149582531782,1
753,453,60,0.110281706831229,1
753,454,60,0.110783194835337,1
753,455,60,0.113758783766883,1
753,456,60,0.114276216554648,1
753,457,60,0.118526849098951,1
754,435,60,0.068107023304637,1
754,436,60,0.0691784325034187,1
754,440,60,0.0694123811736262,1
754,441,60,0.075139565374188,1
754,442,60,0.0805963531177071,1
754,443,60,0.0841213542509728,1
754,444,60,0.0885016534656796,1
754,445,60,0.0950176192854303,1
754,446,60,0.100745156882775,1
754,447,60,0.100645271378541,1
754,448,60,0.0966781888393319,1
754,449,60,0.0952816306412788,1
754,450,60,0.096178144371235,1
754,451,60,0.100771715549468,1
754,452,60,0.104484058906045,1
754,453,60,0.110092370012517,1
754,454,60,0.113765216786285,1
754,455,60,0.116735067512442,1
754,456,60,0.118519218124353,1
754,457,60,0.120873918857415,1
754,458,60,0.123158946516284,1
755,435,60,0.0716399189626436,1
755,436,60,0.0714645922299476,1
755,441,60,0.0695702596888939,1
755,442,60,0.0772871097049992,1
755,443,60,0.0863757142568265,1
755,444,60,0.0904386571708113,1
755,445,60,0.092899610539974,1
755,446,60,0.095846466516146,1
755,447,60,0.0945476075540946,1
755,448,60,0.0906136245169485,1
755,449,60,0.0909121729210949,1
755,450,60,0.0933868488670267,1
755,451,60,0.0974462278643037,1
755,452,60,0.104635732013398,1
755,453,60,0.113854799875834,1
755,454,60,0.119984652756394,1
755,455,60,0.120990947100503,1
755,456,60,0.12254594086299,1
755,457,60,0.124078341190482,1
755,458,60,0.124019210122012,1
756,435,60,0.0713060668188741,1
756,436,60,0.0705837178050739,1
756,442,60,0.0780933994393761,1
756,443,60,0.0925502628457454,1
756,444,60,0.0966437476274497,1
756,445,60,0.093008025485203,1
756,446,60,0.0896503667132527,1
756,447,60,0.0870927144006769,1
756,448,60,0.088094761993616,1
756,449,60,0.092229815820618,1
756,450,60,0.0939721577961918,1
756,451,60,0.095452231440727,1
756,452,60,0.10294063739075,1
756,453,60,0.113339068184447,1
756,454,60,0.120695579267402,1
756,455,60,0.119451862183017,1
756,456,60,0.12271820682016,1
756,457,60,0.129642639423057,1
756,458,60,0.13123026548508,1
757,435,60,0.0707379066183383,1
757,436,60,0.0696581776207211,1
757,442,60,0.075039338452723,1
757,443,60,0.0895399511828466,1
757,444,60,0.0965745477455585,1
757,445,60,0.0921711519546747,1
757,446,60,0.0849643313632241,1
757,447,60,0.0810599198500888,1
757,448,60,0.0842488705918004,1
757,449,60,0.0891930832558736,1
757,450,60,0.0898381282208822,1
757,451,60,0.0918123643735025,1
757,452,60,0.101034079716922,1
757,453,60,0.110001421254044,1
757,454,60,0.115167339486223,1
757,455,60,0.113870013906822,1
757,456,60,0.127185669254921,1
757,457,60,0.153743161951946,1
757,458,60,0.161634152725104,1
757,459,60,0.140039764445591,1
758,442,60,0.0689788831166616,1
758,443,60,0.080522469231,1
758,444,60,0.0904941045270535,1
758,445,60,0.0887515648888724,1
758,446,60,0.0808729609724406,1
758,447,60,0.0752752637490037,1
758,448,60,0.0761368331258954,1
758,449,60,0.079007259560569,1
758,450,60,0.0807195448402776,1
758,451,60,0.085356823413833,1
758,452,60,0.0956075882603074,1
758,453,60,0.10047844413796,1
758,454,60,0.102702939120779,1
758,455,60,0.105825888520973,1
758,456,60,0.135267434393025,1
758,457,60,0.18379262216771,1
758,458,60,0.197691561900693,1
758,459,60,0.159634909257769,1
758,460,60,0.125895423590728,1
759,444,60,0.0757759670924583,1
759,445,60,0.0777303890661383,1
759,446,60,0.0737825936055835,1
759,447,60,0.0688785723383328,1
759,449,60,0.068776530514746,1
759,450,60,0.0713595854672509,1
759,451,60,0.0766018014658563,1
759,452,60,0.0852240420599194,1
759,453,60,0.0887801660691745,1
759,454,60,0.091720451261097,1
759,455,60,0.100262494744571,1
759,456,60,0.134707905459676,1
759,457,60,0.185224466136059,1
759,458,60,0.199014523721286,1
759,459,60,0.160261883068648,1
759,460,60,0.1275986163905,1
760,451,60,0.0696742481896741,1
760,452,60,0.0772310274325031,1
760,453,60,0.0813898486905918,1
760,454,60,0.0861516786658651,1
760,455,60,0.0945325133186263,1
760,456,60,0.118820336142395,1
760,457,60,0.153108808737061,1
760,458,60,0.166993624578284,1
760,459,60,0.146367830992864,1
760,460,60,0.128053432060175,1
761,452,60,0.0712987413228511,1
761,453,60,0.075415741965051,1
761,454,60,0.0805968382895615,1
761,455,60,0.0877234497908706,1
761,456,60,0.10147117762925,1
761,457,60,0.120002837716268,1
761,458,60,0.133219026844451,1
761,459,60,0.131730938879655,1
762,452,60,0.0680846934197854,1
762,453,60,0.0708468366843015,1
762,454,60,0.0761786357724564,1
762,455,60,0.0845257659557809,1
762,456,60,0.096876270730974,1
762,457,60,0.108417868239687,1
762,458,60,0.117273847861799,1
762,459,60,0.121608636758613,1
763,453,60,0.0683083456650841,1
763,454,60,0.0729222880714234,1
763,455,60,0.081840124110075,1
763,456,60,0.0938296131074316,1
763,457,60,0.102425109351746,1
763,458,60,0.105996537238629,1
763,459,60,0.109973952141402,1
764,454,60,0.0694209405635009,1
764,455,60,0.074974151720738,1
764,456,60,0.0838411704999795,1
764,457,60,0.0914415133835075,1
764,458,60,0.0965865033384136,1
764,459,60,0.103354423094966,1
765,451,60,0.0682751323572778,1
765,452,60,0.0685875590723687,1
765,455,60,0.0696822325610547,1
765,456,60,0.0760923710187996,1
765,457,60,0.0834457135102608,1
765,458,60,0.0905026279782724,1
765,459,60,0.10005283461596,1
766,450,60,0.0703597840403042,1
766,451,60,0.0729327282509557,1
766,452,60,0.0706685330329437,1
766,453,60,0.0680418485522041,1
766,455,60,0.0681691432713205,1
766,456,60,0.0731381296488448,1
766,457,60,0.0794996850336199,1
766,458,60,0.0857942268047363,1
766,459,60,0.0955728355800743,1
767,431,60,0.0849868109924752,1
767,432,60,0.0693194677686321,1
767,447,60,0.0733859805891007,1
767,448,60,0.0694590774671624,1
767,451,60,0.0687378545312464,1
767,452,60,0.0683558925068094,1
767,453,60,0.0689711982340799,1
767,454,60,0.0692562936013763,1
767,455,60,0.069610271392437,1
767,456,60,0.0732796680552405,1
767,457,60,0.0787514661773643,1
767,458,60,0.0829961029559113,1
767,459,60,0.0917322571095526,1
768,431,60,0.0717633143375974,1
768,446,60,0.0711106383979908,1
768,447,60,0.0902273079253745,1
768,448,60,0.0808227426906285,1
768,453,60,0.0683936280954803,1
768,454,60,0.0695897444301552,1
768,455,60,0.0697239872894079,1
768,456,60,0.0731291988928594,1
768,457,60,0.0776161640382092,1
768,458,60,0.0797288778216996,1
769,447,60,0.0769313709198005,1
769,448,60,0.0705547033302292,1
769,456,60,0.0703414792849108,1
769,457,60,0.0735545808033718,1
769,458,60,0.0755190116927136,1
770,457,60,0.0692850385363019,1
770,458,60,0.0728608629187536,1
771,455,60,0.0678846229225181,1
772,453,60,0.0697810219362847,1
772,454,60,0.07990585174279,1
772,455,60,0.0779621574578892,1
772,456,60,0.0688787580213882,1
773,453,60,0.0798549745856201,1
773,454,60,0.100190473678193,1
773,455,60,0.0962481768319874,1
773,456,60,0.0770546644685626,1
774,453,60,0.0774053239237307,1
774,454,60,0.0987378212280919,1
774,455,60,0.0969448716352673,1
774,456,60,0.0794544382658707,1
774,457,60,0.0696308702320305,1
775,453,60,0.0684920041761676,1
775,454,60,0.0816692777298117,1
775,455,60,0.0833772204219352,1
775,456,60,0.0762630436955595,1
776,453,60,0.0708588461851404,1
776,454,60,0.0717046085432223,1
776,455,60,0.0718051289637103,1
776,456,60,0.0723902282507161,1
777,452,60,0.0737792093821551,1
777,453,60,0.0811515334736953,1
777,454,60,0.0741543670210793,1
777,455,60,0.0698451664472492,1
778,451,60,0.0732396563516974,1
778,452,60,0.0785028844844389,1
778,453,60,0.081223806110664,1
778,454,60,0.075050132029038,1
778,455,60,0.0714493781989597,1
779,450,60,0.0832678291432215,1
779,451,60,0.0916958692204771,1
779,452,60,0.07867148469871,1
779,453,60,0.070811329292295,1
779,454,60,0.0706689942456941,1
780,450,60,0.0856191276835275,1
780,451,60,0.0928617551557835,1
780,452,60,0.075866352811989,1
781,450,60,0.0706290604092387,1
781,451,60,0.0755845578112573,1
781,452,60,0.0680032085073603,1
784,436,60,0.0679116188428577,1
784,437,60,0.0881354565316207,1
784,438,60,0.0798978793509613,1
784,450,60,0.0682370134229442,1
785,436,60,0.0927887098377135,1
785,437,60,0.13395632034932,1
785,438,60,0.118701031784435,1
785,439,60,0.0709696390714333,1
786,436,60,0.0815114830714076,1
786,437,60,0.11611198705595,1
786,438,60,0.103381892207608,1
745,455,61,0.120653698753753,1
746,455,61,0.122626575227226,1
748,442,61,0.106323387334278,1
748,443,61,0.0993894429671261,1
748,444,61,0.0942343243010387,1
748,445,61,0.091880593911685,1
748,446,61,0.0912132669800326,1
748,447,61,0.0931582670360969,1
748,448,61,0.0971816355001851,1
749,440,61,0.0896905161816434,1
749,441,61,0.101313993927996,1
749,442,61,0.104071099790914,1
749,443,61,0.0985503472297094,1
749,444,61,0.09878804549968,1
749,445,61,0.0981068162979792,1
749,446,61,0.0963042650942594,1
749,447,61,0.0972805746198145,1
749,448,61,0.100587302326611,1
749,449,61,0.104820277011326,1
749,450,61,0.11078883720431,1
749,451,61,0.115490535818525,1
750,439,61,0.079708584460681,1
750,440,61,0.0882257164658558,1
750,441,61,0.0975079165671166,1
750,442,61,0.100027839280798,1
750,443,61,0.0984968824893164,1
750,444,61,0.102497525743338,1
750,445,61,0.102508870379044,1
750,446,61,0.100283093584164,1
750,447,61,0.101561970653548,1
750,448,61,0.106834938162032,1
750,449,61,0.114327429139273,1
750,450,61,0.128155605658834,1
750,451,61,0.138666871852433,1
750,452,61,0.123203881815682,1
750,453,61,0.110130261335364,1
750,454,61,0.105948774764968,1
751,438,61,0.0739318109047849,1
751,439,61,0.079583823416804,1
751,440,61,0.0860490797931122,1
751,441,61,0.0921026289174692,1
751,442,61,0.0948865929358786,1
751,443,61,0.0962612405333987,1
751,444,61,0.100791673483032,1
751,445,61,0.102823369556623,1
751,446,61,0.103236712017417,1
751,447,61,0.10688452152759,1
751,448,61,0.116135514895998,1
751,449,61,0.129777301566628,1
751,450,61,0.15270802084672,1
751,451,61,0.168311231539151,1
751,452,61,0.141640196648658,1
751,453,61,0.117658631070722,1
751,454,61,0.107710739246651,1
751,455,61,0.105651082898787,1
752,438,61,0.0752093342847973,1
752,439,61,0.0808666717076621,1
752,440,61,0.0842298470632895,1
752,441,61,0.0878324517341456,1
752,442,61,0.0907709759319301,1
752,443,61,0.0923223099412935,1
752,444,61,0.0962305668906076,1
752,445,61,0.101563276424711,1
752,446,61,0.105675748796271,1
752,447,61,0.109601855278004,1
752,448,61,0.116947872273442,1
752,449,61,0.127625630280167,1
752,450,61,0.145250989343278,1
752,451,61,0.158881994417145,1
752,452,61,0.136972759553046,1
752,453,61,0.118596905518807,1
752,454,61,0.110768927188954,1
752,455,61,0.108428985263905,1
752,456,61,0.106946815197777,1
753,437,61,0.0719523157288546,1
753,438,61,0.0768412607299649,1
753,439,61,0.0813557668652685,1
753,440,61,0.0831332987747218,1
753,441,61,0.0862802252481612,1
753,442,61,0.0894687686851062,1
753,443,61,0.0906809675682861,1
753,444,61,0.0941718569273484,1
753,445,61,0.101963046053135,1
753,446,61,0.107956595591506,1
753,447,61,0.109731677682583,1
753,448,61,0.110455446273291,1
753,449,61,0.112862054404991,1
753,450,61,0.119169264552304,1
753,451,61,0.126752883981298,1
753,452,61,0.119376558719403,1
753,453,61,0.11468190408174,1
753,454,61,0.1131693898105,1
753,455,61,0.11304476653147,1
753,456,61,0.112462548326711,1
754,435,61,0.0709037934640906,1
754,436,61,0.0734299096061344,1
754,437,61,0.0719308363921921,1
754,438,61,0.072714358988071,1
754,439,61,0.0760657764134506,1
754,440,61,0.0793621897260104,1
754,441,61,0.0841357956008593,1
754,442,61,0.0886875581427554,1
754,443,61,0.0916577862247995,1
754,444,61,0.0953749453612635,1
754,445,61,0.103069225901478,1
754,446,61,0.108806029682263,1
754,447,61,0.108372058432996,1
754,448,61,0.103426683752383,1
754,449,61,0.101507415773926,1
754,450,61,0.103105296332427,1
754,451,61,0.108188675451608,1
754,452,61,0.111260711755975,1
754,453,61,0.114981165269228,1
754,454,61,0.116900433247684,1
754,455,61,0.117247995988671,1
754,456,61,0.116883841568221,1
754,457,61,0.117462705498432,1
755,435,61,0.0758838369680731,1
755,436,61,0.0779272071150488,1
755,437,61,0.0714277011996898,1
755,439,61,0.0696676474565446,1
755,440,61,0.0748748532145498,1
755,441,61,0.0804681359730899,1
755,442,61,0.0867346096539663,1
755,443,61,0.0941278979614349,1
755,444,61,0.0980194194766622,1
755,445,61,0.102158720054834,1
755,446,61,0.104805302571377,1
755,447,61,0.103211111714881,1
755,448,61,0.0998259538814084,1
755,449,61,0.100748870543882,1
755,450,61,0.101663689029232,1
755,451,61,0.104568957990778,1
755,452,61,0.111277674801549,1
755,453,61,0.119641007328898,1
755,454,61,0.12364525642806,1
755,455,61,0.123586748296292,1
755,456,61,0.12356502936859,1
755,457,61,0.123019947774904,1
756,435,61,0.0753827143403,1
756,436,61,0.0773649947620607,1
756,437,61,0.0702934832099871,1
756,439,61,0.0679035266555094,1
756,440,61,0.073026432306379,1
756,441,61,0.0781006410785354,1
756,442,61,0.0861981173990342,1
756,443,61,0.0981870493472246,1
756,444,61,0.10212769301526,1
756,445,61,0.101155983637657,1
756,446,61,0.0990213951922895,1
756,447,61,0.0974368478751198,1
756,448,61,0.100362607860292,1
756,449,61,0.106995955319913,1
756,450,61,0.10609909418295,1
756,451,61,0.104392451272214,1
756,452,61,0.110733539592467,1
756,453,61,0.121201918990053,1
756,454,61,0.127218732818328,1
756,455,61,0.126199512537655,1
756,456,61,0.128110838073163,1
756,457,61,0.133356072918862,1
757,435,61,0.0719657507963767,1
757,436,61,0.0749246342427155,1
757,437,61,0.0706366374758528,1
757,438,61,0.0682194094713405,1
757,439,61,0.0705567158949583,1
757,440,61,0.0729435817250306,1
757,441,61,0.075625252349262,1
757,442,61,0.083026590915647,1
757,443,61,0.095810815369516,1
757,444,61,0.101491027746847,1
757,445,61,0.0994499816329509,1
757,446,61,0.0941237230875771,1
757,447,61,0.0914733011246308,1
757,448,61,0.0968701671492509,1
757,449,61,0.104906865212886,1
757,450,61,0.102763340021757,1
757,451,61,0.100852924932198,1
757,452,61,0.10882839550577,1
757,453,61,0.119494006246809,1
757,454,61,0.1249076616135,1
757,455,61,0.122679704540164,1
757,456,61,0.13918835372876,1
757,457,61,0.180034648697722,1
757,458,61,0.188721105680061,1
758,436,61,0.0703533150822463,1
758,437,61,0.0687587768187428,1
758,438,61,0.0689220281630641,1
758,439,61,0.0701273268243156,1
758,440,61,0.0695216466670443,1
758,441,61,0.0704781480034352,1
758,442,61,0.0769845601304985,1
758,443,61,0.0881162413302785,1
758,444,61,0.0964099786505217,1
758,445,61,0.0969980788152932,1
758,446,61,0.0912142732623971,1
758,447,61,0.085362675424965,1
758,448,61,0.0865088310381949,1
758,449,61,0.0913016041961783,1
758,450,61,0.09152613094877,1
758,451,61,0.0937116085308594,1
758,452,61,0.104024702986176,1
758,453,61,0.113193899973808,1
758,454,61,0.117366485737098,1
758,455,61,0.118474893782105,1
758,456,61,0.163602476968832,1
758,457,61,0.258070959582238,1
758,458,61,0.280199611920018,2
758,459,61,0.194751624115777,1
759,442,61,0.0684741965721806,1
759,443,61,0.0757369736508317,1
759,444,61,0.0840173657501926,1
759,445,61,0.0880011657541602,1
759,446,61,0.0859867981024773,1
759,447,61,0.0797571315949949,1
759,448,61,0.0772015936733399,1
759,449,61,0.0797571795132028,1
759,450,61,0.082564264066893,1
759,451,61,0.0867975681892869,1
759,452,61,0.0963721472254351,1
759,453,61,0.106137883972193,1
759,454,61,0.112894111686034,1
759,455,61,0.118546663277891,1
759,456,61,0.170061539916778,1
759,457,61,0.270117165768344,2
759,458,61,0.29193159445824,2
759,459,61,0.202452583256209,1
760,444,61,0.0728837798016512,1
760,445,61,0.0773398077540669,1
760,446,61,0.0775313907387713,1
760,447,61,0.0724810632034453,1
760,448,61,0.0699052259309957,1
760,449,61,0.0726238474832447,1
760,450,61,0.0774618614192012,1
760,451,61,0.0813157012537416,1
760,452,61,0.0885896672339224,1
760,453,61,0.097692479534373,1
760,454,61,0.106994457875918,1
760,455,61,0.114374305126089,1
760,456,61,0.144811351765935,1
760,457,61,0.200657579170223,1
760,458,61,0.213560862401237,1
760,459,61,0.167381390695645,1
761,450,61,0.0729893915317218,1
761,451,61,0.0772961482769523,1
761,452,61,0.0820092693939602,1
761,453,61,0.0878529427577714,1
761,454,61,0.0961740833031209,1
761,455,61,0.104959659098369,1
761,456,61,0.119630165834375,1
761,457,61,0.138809332684329,1
761,458,61,0.146099584865398,1
761,459,61,0.139105778677107,1
762,450,61,0.0695893970231484,1
762,451,61,0.0736567603918061,1
762,452,61,0.0773898463425997,1
762,453,61,0.0806599944874894,1
762,454,61,0.0878971293351722,1
762,455,61,0.0991644370324561,1
762,456,61,0.113482894685267,1
762,457,61,0.123365653685337,1
762,458,61,0.126866186583726,1
763,451,61,0.0710286144057275,1
763,452,61,0.0745321302125546,1
763,453,61,0.0771990959367564,1
763,454,61,0.0831959937598993,1
763,455,61,0.0940639211641978,1
763,456,61,0.106541966239323,1
763,457,61,0.112661265134607,1
763,458,61,0.113252084657673,1
764,450,61,0.0677857077619926,1
764,451,61,0.0708151148307141,1
764,452,61,0.0742770556024675,1
764,453,61,0.0749163384029839,1
764,454,61,0.077487659384345,1
764,455,61,0.0841250439529761,1
764,456,61,0.0924901314846872,1
764,457,61,0.097844446140749,1
764,458,61,0.101522450111635,1
765,448,61,0.0677903977565845,1
765,449,61,0.0701899798810613,1
765,450,61,0.0714364462726199,1
765,451,61,0.0738874805727606,1
765,452,61,0.0764038812981656,1
765,453,61,0.0746838572278914,1
765,454,61,0.0736363951534758,1
765,455,61,0.0768627760052833,1
765,456,61,0.0831380486670736,1
765,457,61,0.0897361462950552,1
765,458,61,0.0961268539195225,1
766,431,61,0.0762511539902402,1
766,447,61,0.0695660189275004,1
766,448,61,0.0720679723132429,1
766,449,61,0.0733905867268289,1
766,450,61,0.07379006285623,1
766,451,61,0.0757296062263769,1
766,452,61,0.077301503136678,1
766,453,61,0.0746246003741262,1
766,454,61,0.0729923205321758,1
766,455,61,0.0740340983091869,1
766,456,61,0.0787898067334091,1
766,457,61,0.0850251036303122,1
766,458,61,0.091152949935919,1
767,430,61,0.0766670840342569,1
767,431,61,0.112421901706914,1
767,432,61,0.0891303403524882,1
767,446,61,0.0712737879161205,1
767,447,61,0.0817193941854322,1
767,448,61,0.0782892052161461,1
767,449,61,0.0723644422651244,1
767,450,61,0.0711836717365089,1
767,451,61,0.0737743097454039,1
767,452,61,0.0752501965365294,1
767,453,61,0.0747498465898576,1
767,454,61,0.0755319256497254,1
767,455,61,0.0756995615100637,1
767,456,61,0.0782391606378374,1
767,457,61,0.0825740214119637,1
767,458,61,0.0870555418509481,1
768,431,61,0.091993986360753,1
768,432,61,0.0729398441048194,1
768,445,61,0.068744113847145,1
768,446,61,0.079369599078897,1
768,447,61,0.0951753780051784,1
768,448,61,0.087101453483831,1
768,449,61,0.0727202169889789,1
768,450,61,0.0684410850905659,1
768,451,61,0.0710486502063789,1
768,452,61,0.0731590040181334,1
768,453,61,0.0745804736944852,1
768,454,61,0.0770505674617927,1
768,455,61,0.0766515166064862,1
768,456,61,0.0779635111472606,1
768,457,61,0.080422805348477,1
769,444,61,0.0695139857435665,1
769,445,61,0.0691828050398838,1
769,446,61,0.0718059735221234,1
769,447,61,0.0820770796478242,1
769,448,61,0.0779993839156018,1
769,449,61,0.0693342385561976,1
769,451,61,0.0696156262521627,1
769,452,61,0.071534894230619,1
769,453,61,0.0728852053683343,1
769,454,61,0.0746711708823668,1
769,455,61,0.074618826230082,1
769,456,61,0.0759629918576423,1
769,457,61,0.0778980968037885,1
770,443,61,0.0681841416703731,1
770,444,61,0.0822619660629835,1
770,445,61,0.0815731118764607,1
770,446,61,0.069226865831989,1
770,448,61,0.0681238246262595,1
770,452,61,0.0692059854729244,1
770,453,61,0.0698989666150971,1
770,454,61,0.0717824396922999,1
770,455,61,0.0726107478431775,1
770,456,61,0.073439660961429,1
770,457,61,0.0749314745668841,1
771,444,61,0.0893147176366893,1
771,445,61,0.0884131904642383,1
771,452,61,0.0695080858142267,1
771,453,61,0.071029926166667,1
771,454,61,0.0739599448825606,1
771,455,61,0.0745083148632601,1
771,456,61,0.0728697277872033,1
772,444,61,0.0701679734441126,1
772,445,61,0.0685682180857309,1
772,452,61,0.0714887549862489,1
772,453,61,0.0772873073676065,1
772,454,61,0.0825127460036933,1
772,455,61,0.0805124782846662,1
772,456,61,0.0740610163624388,1
773,452,61,0.0728878049311094,1
773,453,61,0.0858280630492445,1
773,454,61,0.0957749665602787,1
773,455,61,0.0918456735177245,1
773,456,61,0.0781911465935857,1
774,452,61,0.069547732141435,1
774,453,61,0.0848973956166532,1
774,454,61,0.0984088387721937,1
774,455,61,0.0969329220321882,1
774,456,61,0.0818571530431847,1
775,453,61,0.0769487173110372,1
775,454,61,0.0870143381819851,1
775,455,61,0.0884142207057068,1
776,452,61,0.0720333094796495,1
776,453,61,0.0803747853144493,1
776,454,61,0.0774635804849073,1
776,455,61,0.0754555919446426,1
777,451,61,0.068641526953944,1
777,452,61,0.0862158411461575,1
777,453,61,0.0968381517966405,1
777,454,61,0.0845510248410865,1
778,450,61,0.0741616565784464,1
778,451,61,0.0847694120732991,1
778,452,61,0.0892888477942338,1
778,453,61,0.0954318242739649,1
778,454,61,0.0865673691188426,1
778,455,61,0.0795989236420483,1
779,449,61,0.0712505955035279,1
779,450,61,0.10215851640245,1
779,451,61,0.111966582896056,1
779,452,61,0.0906064188164452,1
779,453,61,0.0808883127682761,1
779,454,61,0.0789521775806614,1
779,455,61,0.0784056883896195,1
780,449,61,0.072738312102213,1
780,450,61,0.103431535470926,1
780,451,61,0.112101412753354,1
780,452,61,0.0867196292242416,1
781,450,61,0.079136105631664,1
781,451,61,0.0845157510503432,1
749,442,62,0.106682210854107,1
750,440,62,0.0935270695227069,1
750,441,62,0.101628469146472,1
750,442,62,0.103551031501717,1
750,443,62,0.104057970201967,1
750,444,62,0.109637003283451,1
750,451,62,0.13544736726345,1
751,439,62,0.0865652726972498,1
751,440,62,0.0940004894365748,1
751,441,62,0.0989080147227735,1
751,442,62,0.100977536231676,1
751,443,62,0.104502124070399,1
751,444,62,0.110010346020254,1
751,450,62,0.140005910231754,1
751,451,62,0.153389297966629,1
751,452,62,0.13964882374696,1
752,439,62,0.0914385125057418,1
752,440,62,0.0957510374052405,1
752,441,62,0.0964029586330737,1
752,446,62,0.111283424986489,1
752,447,62,0.115237144335488,1
752,451,62,0.149870915535821,1
753,445,62,0.105779599532203,1
753,446,62,0.115836720911036,1
753,447,62,0.118929601635813,1
753,448,62,0.11322253110299,1
754,445,62,0.106069624485131,1
754,446,62,0.112866942062191,1
754,447,62,0.112434875561685,1
754,448,62,0.105448748266199,1
755,444,62,0.10173070264289,1
755,445,62,0.106301848099856,1
755,446,62,0.108305763592455,1
755,447,62,0.105983910790864,1
755,448,62,0.103674552661967,1
756,444,62,0.103455985736475,1
756,445,62,0.104950830168575,1
756,446,62,0.103832239504403,1
756,447,62,0.102394357841867,1
756,448,62,0.107362888996417,1
756,449,62,0.115936426721991,1
756,450,62,0.113545787333052,1
757,444,62,0.104070848220323,1
757,445,62,0.10397329872872,1
757,446,62,0.100026347826579,1
757,448,62,0.104378902398948,1
757,449,62,0.114812804645996,1
757,450,62,0.111523854594307,1
757,456,62,0.144738024928393,1
757,457,62,0.190764374000845,1
757,458,62,0.200006262909764,2
758,444,62,0.0998132855052117,1
758,445,62,0.101639382518307,1
758,446,62,0.0977707659064251,1
758,449,62,0.100065311319325,1
758,456,62,0.183977682286373,1
758,457,62,0.31375179729218,2
758,458,62,0.349390964370225,2
758,459,62,0.221857924047149,2
759,445,62,0.0956438743231913,1
759,446,62,0.0946066068474927,1
759,456,62,0.20003730192889,2
759,457,62,0.345023435357906,2
759,458,62,0.385721758901071,2
759,459,62,0.245736261825854,2
760,456,62,0.164486555923855,1
760,457,62,0.23900459219353,2
760,458,62,0.258694087956937,2
761,458,62,0.153134984058091,1
765,448,62,0.0778967011859852,1
765,449,62,0.0798109557219467,1
765,450,62,0.0798755554558857,1
765,451,62,0.0810769427934226,1
766,447,62,0.0804953055969329,1
766,448,62,0.082851258193175,1
766,449,62,0.0832587905712684,1
766,450,62,0.0812050820709521,1
767,430,62,0.0777227521017645,1
767,431,62,0.116888705266316,1
767,432,62,0.0953126576808527,1
767,446,62,0.0809891746059949,1
767,447,62,0.0880508749050141,1
767,448,62,0.0863937374927488,1
767,449,62,0.082070107548584,1
768,431,62,0.096713229028812,1
768,447,62,0.0933656570396112,1
768,448,62,0.0894491162301174,1
768,454,62,0.0835861557876522,1
770,444,62,0.0935775034364543,1
770,445,62,0.0945924769659571,1
771,444,62,0.105279692828954,1
771,445,62,0.10669696966212,1
772,452,62,0.0778887886919163,1
772,453,62,0.0821847219119518,1
772,454,62,0.0834172141561503,1
772,455,62,0.0808524939079186,1
773,452,62,0.079558983815817,1
773,453,62,0.0874505735665723,1
773,454,62,0.0891085495474748,1
773,455,62,0.0847529162302516,1
774,452,62,0.0754096084344479,1
774,453,62,0.0864714488463069,1
774,454,62,0.0920481638844876,1
774,455,62,0.0906791706354922,1
775,452,62,0.0710324718214583,1
775,453,62,0.0810730614185879,1
775,454,62,0.086436348759067,1
776,452,62,0.0761502801729694,1
776,453,62,0.0849875836735766,1
776,454,62,0.0796559522991492,1
777,452,62,0.0910362750896142,1
777,453,62,0.103494679689302,1
777,454,62,0.0904344463582977,1
777,455,62,0.081016050730815,1
778,451,62,0.0916008773632182,1
778,452,62,0.0941102760405031,1
778,453,62,0.103534978902092,1
778,454,62,0.0954286317233678,1
778,455,62,0.0878519484549588,1
778,456,62,0.078947325862118,1
779,450,62,0.111059455283064,1
779,451,62,0.121976313167339,1
779,452,62,0.0991179264219752,1
779,453,62,0.0912066003593674,1
779,454,62,0.0869591184372301,1
779,455,62,0.0844131162389344,1
779,456,62,0.0846577866081451,1
780,450,62,0.112216859695583,1
780,453,62,0.0812164027475534,1
780,454,62,0.0777173553136069,1
780,455,62,0.0779741609689522,1
757,457,63,0.186563456597173,2
757,458,63,0.193786731103239,2
758,456,63,0.195961451047669,2
758,457,63,0.31629611037365,2
758,458,63,0.358049209507701,2
758,459,63,0.224110846506767,2
759,456,63,0.221763045995634,2
759,457,63,0.365887717863726,2
759,458,63,0.419841128140284,2
759,459,63,0.264003353507857,2
760,457,63,0.251517857151414,2
760,458,63,0.278269059203617,2
776,453,63,0.0864070108363194,1
776,454,63,0.0824345075498491,1
777,452,63,0.0882692980758827,1
777,453,63,0.0994055255156311,1
777,454,63,0.0930382558845716,1
777,455,63,0.0852072347485209,1
778,452,63,0.0947812148070712,1
778,453,63,0.103670898898619,1
778,454,63,0.101112785373293,1
778,455,63,0.094627852582892,1
778,456,63,0.0815176585304425,1
779,451,63,0.117036053755412,1
779,452,63,0.102818481899424,1
779,453,63,0.097384479263731,1
779,454,63,0.0927421572988008,1
779,455,63,0.0902736867607838,1
779,456,63,0.0881657947469569,1
780,452,63,0.100539180466392,1
780,453,63,0.0885804849073458,1
780,454,63,0.0819142655571493,1
780,455,63,0.0837786911467373,1
758,457,64,0.28148832420156,2
758,458,64,0.306575853995904,2
759,456,64,0.247381701205632,2
759,457,64,0.338743298998021,2
759,458,64,0.378606096710252,2
759,459,64,0.247993041701204,2
760,457,64,0.245909102801519,2
760,458,64,0.264116224846415,2
776,454,64,0.0881314074430586,1
777,453,64,0.0942549051713042,1
777,454,64,0.0957720675087046,1
777,455,64,0.0898771755704926,1
778,452,64,0.095722274500987,1
778,453,64,0.100427381297734,1
778,454,64,0.103431787041517,1
778,455,64,0.0972269900839019,1
778,456,64,0.0848033800928789,1
779,451,64,0.106571040611927,1
779,452,64,0.104118119532353,1
779,453,64,0.0992021786109029,1
779,454,64,0.0957186387069674,1
779,455,64,0.0916396312138056,1
779,456,64,0.0898846388313631,1
780,452,64,0.102349326706054,1
780,453,64,0.0925078432522586,1
780,454,64,0.0853669820738943,1
780,455,64,0.0868316500146103,1
759,457,65,0.298267603448463,2
759,458,65,0.297555994102994,2
777,454,65,0.0957123913706208,1
778,453,65,0.0969421642565246,1
778,454,65,0.0998704519271601,1
778,455,65,0.0950402187102009,1
779,452,65,0.103544227116205,1
779,453,65,0.0994385112119502,1
779,454,65,0.0954811321098281,1
779,455,65,0.0903946922151217,1
780,453,65,0.0943624396194643,1
780,454,65,0.0876199883903766,1
778,454,66,0.09175407187367,1
779,453,66,0.0959581518790598,1
779,454,66,0.0910884759872756,1
