x,y,z,signal,cytoplasm.p
630,733,1,0.0682982828414386,1
630,734,1,0.0710198693327974,1
630,735,1,0.074062687509937,1
630,736,1,0.0796822114770433,1
630,737,1,0.0866491056018589,1
631,733,1,0.0700705497378059,1
631,734,1,0.0727540172948312,1
631,738,1,0.095364277570244,1
632,732,1,0.068645893500633,1
632,733,1,0.0717255428102706,1
632,738,1,0.0812588043717123,1
632,739,1,0.109125751944497,1
633,729,1,0.069045112069667,1
633,730,1,0.0695839343474551,1
633,731,1,0.0685432646790002,1
633,732,1,0.0690194458795948,1
633,733,1,0.0711441092661643,1
633,734,1,0.0706144932740566,1
633,738,1,0.0680584462214433,1
633,739,1,0.0741092939568335,1
633,740,1,0.0964343151103264,1
633,743,1,0.131221472493942,1
633,744,1,0.123988590387205,1
634,723,1,0.068640646456875,1
634,728,1,0.0682245786480108,1
634,729,1,0.0692579407897707,1
634,730,1,0.0684853734941583,1
634,741,1,0.074546056441707,1
634,742,1,0.0875588747060577,1
634,743,1,0.0949828725949732,1
634,744,1,0.0999064624603489,1
634,745,1,0.112535479839037,1
635,722,1,0.0749025199897992,1
635,723,1,0.0708756475067629,1
635,743,1,0.071810166365309,1
635,744,1,0.0782292056301594,1
635,745,1,0.088332328488515,1
635,746,1,0.097715570120774,1
636,721,1,0.0733307907932255,1
636,722,1,0.0711565380513217,1
636,745,1,0.0693074942064491,1
636,746,1,0.0782635450158499,1
636,747,1,0.084725602851785,1
637,721,1,0.0696327450319121,1
637,746,1,0.0688961163921768,1
637,747,1,0.077657427604932,1
637,748,1,0.084646711512359,1
638,719,1,0.0784113666972481,1
638,720,1,0.0718956045298807,1
638,747,1,0.0713448985365492,1
638,748,1,0.0815807069124027,1
638,749,1,0.0879358292777758,1
639,718,1,0.0806065177675444,1
639,719,1,0.0774444671097567,1
639,720,1,0.0717238896321003,1
639,748,1,0.0791207238869487,1
639,749,1,0.0873124014142772,1
640,717,1,0.0799360641728306,1
640,718,1,0.078634935085683,1
640,719,1,0.0762241580699006,1
640,720,1,0.0717663691233469,1
640,748,1,0.0747102062524253,1
640,749,1,0.0848271415341896,1
640,750,1,0.0898076103122667,1
641,717,1,0.0794149297035099,1
641,718,1,0.0778775938006106,1
641,719,1,0.076659740568906,1
641,720,1,0.0732986017371117,1
641,748,1,0.068488392341252,1
641,749,1,0.0809004300850826,1
641,750,1,0.0884102015660245,1
642,717,1,0.0784393389510723,1
642,718,1,0.077038480093866,1
642,719,1,0.0773582323049798,1
642,720,1,0.0749489766922962,1
642,721,1,0.0680760921014789,1
642,749,1,0.0759336719042226,1
642,750,1,0.0860083433266756,1
643,717,1,0.0777577863014686,1
643,718,1,0.0767571463058847,1
643,719,1,0.078359075952947,1
643,720,1,0.0763676551330416,1
643,721,1,0.0682830628206746,1
643,749,1,0.0709443801861277,1
643,750,1,0.0824582989400397,1
643,751,1,0.0883712680221578,1
644,716,1,0.0804083639985904,1
644,717,1,0.0773441922700839,1
644,718,1,0.0769493162886351,1
644,719,1,0.0783890068635166,1
644,720,1,0.0753244038711395,1
644,750,1,0.0766437059386089,1
644,751,1,0.0843275522890672,1
645,716,1,0.0809129127782239,1
645,717,1,0.0784903119446579,1
645,718,1,0.0783779437472824,1
645,719,1,0.078096963356084,1
645,720,1,0.072868338159176,1
645,728,1,0.0696713072096681,1
645,750,1,0.0722962965838055,1
645,751,1,0.0813221582322475,1
646,715,1,0.08463650493409,1
646,716,1,0.0811573076177396,1
646,717,1,0.0796493875046756,1
646,718,1,0.0794924913126685,1
646,719,1,0.0769416793242613,1
646,720,1,0.0696390882046744,1
646,750,1,0.0697327503316659,1
646,751,1,0.0788013729908255,1
646,752,1,0.0873861834747927,1
647,714,1,0.0874580667763227,1
647,715,1,0.0844261799403457,1
647,716,1,0.0807830664145402,1
647,717,1,0.0792986741415237,1
647,718,1,0.0780966698570609,1
647,719,1,0.0737395570651708,1
647,750,1,0.0685673315988859,1
647,751,1,0.0768232434838186,1
647,752,1,0.0853189620398666,1
648,714,1,0.0871864304356522,1
648,715,1,0.0842444501371275,1
648,716,1,0.0802842738096231,1
648,717,1,0.0784153439084985,1
648,718,1,0.0754121361199113,1
648,719,1,0.0694093024287727,1
648,751,1,0.0745057871777968,1
648,752,1,0.0832470446205726,1
649,715,1,0.084464376741767,1
649,716,1,0.0805516214706922,1
649,717,1,0.0788471768077407,1
649,718,1,0.0745666313221966,1
649,751,1,0.0728498477207273,1
649,752,1,0.0816099190498548,1
650,716,1,0.0809098220538185,1
650,717,1,0.079244820065692,1
650,718,1,0.074757914818102,1
650,751,1,0.0733188112412665,1
650,752,1,0.0806300815462477,1
651,717,1,0.0791373994232756,1
651,718,1,0.0747004489073547,1
651,751,1,0.0753398515033906,1
651,752,1,0.0815900449731548,1
652,717,1,0.0799226291053086,1
652,718,1,0.0752779831072984,1
652,719,1,0.0681173556682017,1
652,750,1,0.0686716974555528,1
652,751,1,0.0786158875980682,1
652,752,1,0.0842687746173803,1
653,716,1,0.0823575029898566,1
653,717,1,0.0825872348577744,1
653,718,1,0.0777189366144655,1
653,719,1,0.0702924829173985,1
653,750,1,0.0703751298463637,1
653,751,1,0.0824651033255524,1
653,752,1,0.0886108650511139,1
654,716,1,0.085918221157288,1
654,717,1,0.0870165064808897,1
654,718,1,0.0809679049114917,1
654,719,1,0.0720625216171015,1
654,750,1,0.071942276864313,1
654,751,1,0.0861802079688555,1
654,752,1,0.0925257706517653,1
655,717,1,0.0910999583878283,1
655,718,1,0.0831140955529316,1
655,719,1,0.0725273821410948,1
655,729,1,0.0832473261400436,1
655,730,1,0.0793018786716728,1
655,750,1,0.0735420082635908,1
655,751,1,0.0883803485225427,1
655,752,1,0.0946880977496939,1
656,717,1,0.0936159577982427,1
656,718,1,0.0833350823479194,1
656,719,1,0.071729226522498,1
656,728,1,0.0722917563336131,1
656,729,1,0.0974468448112296,1
656,730,1,0.0930092294301749,1
656,750,1,0.0752931611996304,1
656,751,1,0.088307782386551,1
657,717,1,0.0936549572296452,1
657,718,1,0.0823347178820305,1
657,719,1,0.0709561980141353,1
657,729,1,0.0781665945018457,1
657,730,1,0.0754668886621399,1
657,750,1,0.0766709534295397,1
657,751,1,0.0854024535272449,1
658,716,1,0.0908884054900082,1
658,717,1,0.0899376842874376,1
658,718,1,0.0793348703577679,1
658,719,1,0.068926466587065,1
658,749,1,0.0685827133436012,1
658,750,1,0.0779516873294771,1
658,751,1,0.0821551204390611,1
659,715,1,0.0841054693650751,1
659,716,1,0.0859239234240205,1
659,717,1,0.0839937840021613,1
659,718,1,0.0754930579933944,1
659,749,1,0.0718039489778423,1
659,750,1,0.0790283076333609,1
659,751,1,0.0798757351491651,1
660,716,1,0.0835422567194984,1
660,717,1,0.0800984529894109,1
660,718,1,0.0724130852358539,1
660,749,1,0.0720015397078542,1
660,750,1,0.0775953855053363,1
661,717,1,0.082875810284915,1
661,718,1,0.0719886377303943,1
661,749,1,0.0692349340602334,1
661,750,1,0.0740698153433526,1
662,717,1,0.0860607478767202,1
662,718,1,0.071498961564518,1
663,717,1,0.0819832797559852,1
663,718,1,0.0683705914170631,1
664,716,1,0.0811983315934232,1
664,717,1,0.0753529810923377,1
665,717,1,0.0734371452555176,1
666,748,1,0.0693586768421939,1
667,748,1,0.069669881642985,1
675,720,1,0.0744485368989847,1
676,720,1,0.0794803260776541,1
677,720,1,0.0833848454067571,1
677,721,1,0.0688013461566291,1
678,721,1,0.0717185886803584,1
679,721,1,0.0737029116157282,1
680,721,1,0.0775063235262971,1
680,722,1,0.0760012605363753,1
680,723,1,0.0716441237853813,1
681,720,1,0.0780813899385372,1
681,721,1,0.0812012486143252,1
681,722,1,0.0847988338529105,1
681,723,1,0.0803866031424569,1
682,724,1,0.0680768528030283,1
630,734,2,0.0706346608497796,1
631,733,2,0.0678865935588153,1
633,739,2,0.068494519882079,1
633,744,2,0.121464139402884,1
634,741,2,0.0704474264424363,1
634,742,2,0.082836343650986,1
634,743,2,0.0916428716826105,1
634,744,2,0.102224200285842,1
634,745,2,0.127469333065758,1
635,722,2,0.0722622926255699,1
635,743,2,0.0718070397022478,1
635,744,2,0.0795407149990795,1
635,745,2,0.0954413779666522,1
635,746,2,0.110233081829828,1
636,722,2,0.0690664057232741,1
636,745,2,0.0716033873189446,1
636,746,2,0.0825306913725279,1
636,747,2,0.0886874143881319,1
637,746,2,0.0727385337239242,1
637,747,2,0.0822786176402065,1
637,748,2,0.087729769004529,1
638,721,2,0.0679476952635822,1
638,747,2,0.0749690065031717,1
638,748,2,0.0830373725124101,1
639,719,2,0.0793457897193785,1
639,720,2,0.0735009842879072,1
639,721,2,0.0685663133369694,1
639,747,2,0.0683011339748048,1
639,748,2,0.0807313147500773,1
639,749,2,0.084165121544055,1
640,718,2,0.0796111787237024,1
640,719,2,0.0769050758032505,1
640,720,2,0.0731013104958988,1
640,721,2,0.0692887462076332,1
640,748,2,0.0769138867637164,1
640,749,2,0.0828830219751943,1
641,717,2,0.0793909226813841,1
641,718,2,0.0779133347938803,1
641,719,2,0.0762894346485252,1
641,720,2,0.074264033829488,1
641,721,2,0.0703068883286292,1
641,748,2,0.0706461133014524,1
641,749,2,0.0816679420097682,1
641,750,2,0.0835623823667895,1
642,717,2,0.0788087583846082,1
642,718,2,0.0773880194609259,1
642,719,2,0.0776838904352095,1
642,720,2,0.0766376382955417,1
642,721,2,0.0701274945380431,1
642,749,2,0.0774041499276387,1
642,750,2,0.082562826520658,1
643,717,2,0.0786574985717978,1
643,718,2,0.0777099759096002,1
643,719,2,0.0800923194588079,1
643,720,2,0.0794705807121355,1
643,721,2,0.0700674290645206,1
643,749,2,0.0718604685039849,1
643,750,2,0.0804261716025775,1
643,751,2,0.0828639804773554,1
644,716,2,0.0819286949274839,1
644,717,2,0.0786604096029239,1
644,718,2,0.0783124395571706,1
644,719,2,0.0811059213296114,1
644,720,2,0.0792227836798634,1
644,721,2,0.0684809051212776,1
644,728,2,0.0723894376002868,1
644,750,2,0.0759029743023277,1
644,751,2,0.0813885608887562,1
645,716,2,0.0826600885030132,1
645,717,2,0.0801584705447256,1
645,718,2,0.080279619753687,1
645,719,2,0.0811832133988509,1
645,720,2,0.0760182056126213,1
645,727,2,0.0706434957693493,1
645,728,2,0.0823652178213182,1
645,729,2,0.0737006953986158,1
645,750,2,0.0726827150015712,1
645,751,2,0.0802887421825038,1
646,716,2,0.0829641475010607,1
646,717,2,0.0817626583373321,1
646,718,2,0.0827519956256426,1
646,719,2,0.0808127098158628,1
646,720,2,0.0719323098770831,1
646,728,2,0.0728792395514587,1
646,750,2,0.0690602302642392,1
646,751,2,0.0776555767641543,1
647,715,2,0.0855421890110707,1
647,716,2,0.081837794087219,1
647,717,2,0.0808923079488544,1
647,718,2,0.0812981751692256,1
647,719,2,0.0766646222363293,1
647,751,2,0.0752032486724021,1
647,752,2,0.083298958008987,1
648,715,2,0.0848307833179851,1
648,716,2,0.0806207734343756,1
648,717,2,0.0799270495599815,1
648,718,2,0.0787090885123093,1
648,719,2,0.0716701254029083,1
648,751,2,0.0723234122996648,1
648,752,2,0.081087059525052,1
649,716,2,0.0807131896879633,1
649,717,2,0.0815729741116132,1
649,718,2,0.0791413526754221,1
649,719,2,0.0701262067362075,1
649,751,2,0.0700955211138645,1
649,752,2,0.0789830249269559,1
650,717,2,0.0825346086860185,1
650,718,2,0.079426010789072,1
650,719,2,0.0698229264090373,1
650,751,2,0.0699738927228247,1
650,752,2,0.0774581657274219,1
651,717,2,0.0818726965118516,1
651,718,2,0.0777933715605628,1
651,719,2,0.0690601164584956,1
651,751,2,0.071088961398721,1
651,752,2,0.0778801574247298,1
652,717,2,0.0821255668843782,1
652,718,2,0.0771528967946265,1
652,719,2,0.0693568858991761,1
652,751,2,0.073642468786319,1
652,752,2,0.0801757869870823,1
653,717,2,0.0837406321101636,1
653,718,2,0.0780062062704425,1
653,719,2,0.0705385548941884,1
653,751,2,0.0777169300395124,1
653,752,2,0.0849169162965704,1
654,717,2,0.0872535698346065,1
654,718,2,0.079941802378219,1
654,719,2,0.0713553147569775,1
654,751,2,0.0809840353782045,1
654,752,2,0.0877996577106578,1
655,717,2,0.0910402822497445,1
655,718,2,0.0811421235356315,1
655,719,2,0.0710572814735654,1
655,751,2,0.0826908999106517,1
655,752,2,0.0878895043503503,1
656,718,2,0.0814758319247776,1
656,719,2,0.0705170815473019,1
656,729,2,0.0749161347506006,1
656,730,2,0.0712262350846192,1
656,750,2,0.0700605528016962,1
656,751,2,0.0840118491665155,1
656,752,2,0.0876913146427405,1
657,718,2,0.0800759733601599,1
657,719,2,0.0693903208286936,1
657,750,2,0.072891159205658,1
657,751,2,0.0820622549522749,1
658,717,2,0.0898304073996447,1
658,718,2,0.0771433311223872,1
658,750,2,0.075243008805354,1
658,751,2,0.0801915880161162,1
659,716,2,0.0853586203466269,1
659,717,2,0.0834562195773288,1
659,718,2,0.073549543401773,1
659,750,2,0.077549587678197,1
659,751,2,0.0787890100932038,1
660,717,2,0.0798744713064334,1
660,718,2,0.0713588846634613,1
660,749,2,0.0698988048911456,1
660,750,2,0.0777494605128571,1
661,717,2,0.0813081481462314,1
661,718,2,0.0707502335773041,1
661,749,2,0.0693032354757277,1
661,750,2,0.0753542329555174,1
662,718,2,0.0714962062675674,1
663,718,2,0.0702040558546131,1
664,718,2,0.0689493595108586,1
664,749,2,0.07156150081552,1
665,718,2,0.0682055970479317,1
669,748,2,0.0684970475675424,1
670,748,2,0.0694739920093513,1
671,748,2,0.0714882578348426,1
672,748,2,0.070885279066538,1
673,748,2,0.0696222269852921,1
679,721,2,0.0680294497159265,1
680,721,2,0.0707884303787254,1
680,722,2,0.0695855755460735,1
681,723,2,0.0742461783072931,1
630,734,3,0.069801099665368,1
633,739,3,0.0705820646269036,1
634,741,3,0.0740874732029402,1
634,742,3,0.0851724700887359,1
634,743,3,0.0923065628202434,1
634,744,3,0.108101344517826,1
635,722,3,0.0701882069073713,1
635,743,3,0.0733241481316643,1
635,744,3,0.081566013991925,1
635,745,3,0.10326565461495,1
635,746,3,0.124425844033709,1
636,722,3,0.0682798403211977,1
636,745,3,0.0726353658224533,1
636,746,3,0.0852752486547682,1
636,747,3,0.0897070719224507,1
637,746,3,0.074614435724289,1
637,747,3,0.0849859724238381,1
637,748,3,0.0877696549227765,1
638,747,3,0.0820929525541699,1
638,748,3,0.0857760178857586,1
639,721,3,0.0705367819204985,1
639,747,3,0.076819008712201,1
639,748,3,0.0857965328684884,1
639,749,3,0.080492957604749,1
640,719,3,0.0773788071854694,1
640,720,3,0.073929720472968,1
640,721,3,0.0709237693669823,1
640,748,3,0.0816956806623293,1
640,749,3,0.0812146177943115,1
641,718,3,0.077464568797944,1
641,719,3,0.075441150594756,1
641,720,3,0.0737700510146824,1
641,721,3,0.0707083111352236,1
641,748,3,0.0726177019730897,1
641,749,3,0.0827432625322645,1
641,750,3,0.0797125556821555,1
642,718,3,0.0773957762208194,1
642,719,3,0.0773299485828046,1
642,720,3,0.0766421605764062,1
642,721,3,0.0705006396122382,1
642,749,3,0.0814808573468244,1
642,750,3,0.0822859251669015,1
643,717,3,0.0790231983544504,1
643,718,3,0.0787541016787952,1
643,719,3,0.0804434101778465,1
643,720,3,0.0798531417141704,1
643,721,3,0.0697136249769633,1
643,749,3,0.0743748985930927,1
643,750,3,0.0805784796261843,1
644,717,3,0.0797290095967711,1
644,718,3,0.0796399595972839,1
644,719,3,0.0818411423719915,1
644,720,3,0.0806113994349677,1
644,721,3,0.0691192055985334,1
644,728,3,0.0752898069250819,1
644,750,3,0.0782232757519397,1
644,751,3,0.0809132182567989,1
645,716,3,0.0826452638074639,1
645,717,3,0.0812691906432607,1
645,718,3,0.081151048301841,1
645,719,3,0.0817262404993767,1
645,720,3,0.0769523710743847,1
645,727,3,0.0763204017903392,1
645,728,3,0.0906379729563052,1
645,729,3,0.0759720543886993,1
645,750,3,0.0756169804686343,1
645,751,3,0.0812586965557446,1
646,715,3,0.0870579437511159,1
646,716,3,0.0835552844822538,1
646,717,3,0.0836564577883236,1
646,718,3,0.0845638729105625,1
646,719,3,0.0828826326397556,1
646,720,3,0.0730968061843622,1
646,728,3,0.0758898806520365,1
646,750,3,0.070272471075851,1
646,751,3,0.0784860831628164,1
647,715,3,0.085731489891127,1
647,716,3,0.0819589852246123,1
647,717,3,0.0821138928109942,1
647,718,3,0.0828356727960763,1
647,719,3,0.0783414420524634,1
647,751,3,0.0747235874119635,1
647,752,3,0.0821821522980566,1
648,715,3,0.0842704397751026,1
648,716,3,0.0800156862649262,1
648,717,3,0.0801789196399196,1
648,718,3,0.0800729065948584,1
648,719,3,0.0728571432678704,1
648,751,3,0.0704958238323507,1
648,752,3,0.0792811540467837,1
649,716,3,0.0798604911692972,1
649,717,3,0.0814203246707756,1
649,718,3,0.0803188048681449,1
649,719,3,0.0702962864251455,1
649,752,3,0.075688366618758,1
650,716,3,0.0804446380819223,1
650,717,3,0.0826666892361426,1
650,718,3,0.0803060646146365,1
650,719,3,0.0687282409407993,1
650,752,3,0.0735569767137636,1
651,717,3,0.08179542241194,1
651,718,3,0.0780611504855025,1
651,752,3,0.0734278251640935,1
652,717,3,0.0816500146102616,1
652,718,3,0.077503124985924,1
652,719,3,0.0680491381095711,1
652,752,3,0.0755988673860723,1
653,716,3,0.0805996474944959,1
653,717,3,0.0823347178820305,1
653,718,3,0.0773925417417904,1
653,719,3,0.0687868928271906,1
653,751,3,0.0727517112310791,1
653,752,3,0.082085621068371,1
654,716,3,0.0836713483714087,1
654,717,3,0.0849495665654347,1
654,718,3,0.0783827954658258,1
654,719,3,0.0693599586542536,1
654,751,3,0.0767526180352442,1
654,752,3,0.0860160581581372,1
655,717,3,0.0883040926845476,1
655,718,3,0.078626771021023,1
655,719,3,0.068597406264079,1
655,751,3,0.078130841529024,1
655,752,3,0.0844753679806893,1
656,717,3,0.0918471829412714,1
656,718,3,0.0791436108209664,1
656,719,3,0.0684078418338796,1
656,751,3,0.0793761758529225,1
656,752,3,0.0828429743329953,1
657,717,3,0.0914735766543258,1
657,718,3,0.0776259513321597,1
657,751,3,0.0783122898127711,1
657,752,3,0.0807269961215961,1
658,717,3,0.0884925909346226,1
658,718,3,0.0759219858512866,1
658,750,3,0.0709062732313461,1
658,751,3,0.0781115784094739,1
659,716,3,0.0860593402793651,1
659,717,3,0.0827265869959376,1
659,718,3,0.0729786338940626,1
659,750,3,0.0743004516674434,1
659,751,3,0.0776581164291697,1
660,717,3,0.0812535333688503,1
660,718,3,0.0719265716716947,1
660,750,3,0.0759925274429972,1
660,751,3,0.0769848895681774,1
661,718,3,0.0717676030171987,1
661,749,3,0.0678839340982804,1
661,750,3,0.0752465787118378,1
662,718,3,0.0744199177493546,1
664,749,3,0.0709263629399814,1
665,718,3,0.0734036863668961,1
668,748,3,0.0686941591154759,1
669,748,3,0.069883794512541,1
670,748,3,0.0692524481651974,1
671,748,3,0.0698950073731746,1
672,748,3,0.0697317500390773,1
673,748,3,0.069001853907543,1
680,720,3,0.0711077153873128,1
681,722,3,0.0686823173283644,1
633,739,4,0.0720367595906137,1
634,741,4,0.0751237343962742,1
634,742,4,0.0841594372466504,1
634,743,4,0.0892499082605911,1
634,744,4,0.107072025474853,1
635,743,4,0.0730404543719471,1
635,744,4,0.0805776530370991,1
635,745,4,0.104434787008837,1
636,745,4,0.0714091269043774,1
636,746,4,0.085633862532437,1
636,747,4,0.0885233005160695,1
637,746,4,0.0750877657915173,1
637,747,4,0.0846541388345736,1
637,748,4,0.085051734174317,1
638,747,4,0.0828062090880331,1
638,748,4,0.0831073031469708,1
639,747,4,0.0777767199833398,1
639,748,4,0.0836736604249367,1
639,749,4,0.0730901994614568,1
640,721,4,0.0706426092825044,1
640,748,4,0.0798759986993082,1
640,749,4,0.074677250504986,1
641,719,4,0.0739855032566652,1
641,720,4,0.0723194111293105,1
641,721,4,0.0706011720122782,1
641,748,4,0.0724744504907639,1
641,749,4,0.0799730270804001,1
642,718,4,0.0759384098170224,1
642,719,4,0.0769660457329459,1
642,720,4,0.0764848510898565,1
642,721,4,0.071525538200539,1
642,749,4,0.0834066721504264,1
642,750,4,0.0805918128675147,1
643,717,4,0.0767897786054211,1
643,718,4,0.0779401510209405,1
643,719,4,0.0802653521073038,1
643,720,4,0.0796804564726813,1
643,721,4,0.070604430450411,1
643,749,4,0.0764594783988073,1
643,750,4,0.0805550536123285,1
644,716,4,0.0779302798701263,1
644,717,4,0.0775847776120766,1
644,721,4,0.0700380671826691,1
644,728,4,0.0735727178450377,1
644,749,4,0.0682542280391093,1
644,750,4,0.0800688934449521,1
644,751,4,0.0790024976886652,1
645,716,4,0.0789021389921287,1
645,717,4,0.079081478874731,1
645,720,4,0.0767104739714524,1
645,727,4,0.0770189534241728,1
645,728,4,0.091648843489262,1
645,729,4,0.0733092275996993,1
645,750,4,0.0785161338689056,1
645,751,4,0.0809511215591971,1
646,715,4,0.0842969924520197,1
646,716,4,0.0804905197659253,1
646,717,4,0.0823104293404337,1
646,718,4,0.0829336894902049,1
646,719,4,0.0821408587824539,1
646,720,4,0.072838820543149,1
646,728,4,0.0740534213264967,1
646,750,4,0.0717007331581635,1
646,751,4,0.0783675095575261,1
647,715,4,0.0834135364336989,1
647,716,4,0.0793873288157964,1
647,717,4,0.0809964282247061,1
647,718,4,0.0813097534061939,1
647,719,4,0.07732955325759,1
647,751,4,0.0738857794763824,1
647,752,4,0.0810771404560299,1
648,715,4,0.0819325822920946,1
648,716,4,0.0773591008224969,1
648,718,4,0.0786095384355299,1
648,719,4,0.0718324483319528,1
648,751,4,0.068796710070021,1
648,752,4,0.0781984481305047,1
649,715,4,0.0810144514606284,1
649,716,4,0.0772277749841463,1
649,717,4,0.0797175511553224,1
649,718,4,0.0787633858315635,1
649,719,4,0.0687548714848041,1
649,752,4,0.0729255465095563,1
650,716,4,0.0782624488868457,1
650,717,4,0.0815109739404494,1
650,718,4,0.0791081573369437,1
650,752,4,0.0689816024749563,1
651,717,4,0.0806116330362309,1
651,718,4,0.0768502214348302,1
652,717,4,0.0802760139085473,1
652,718,4,0.0764327759774907,1
652,752,4,0.0689643219712554,1
653,716,4,0.0788514355384622,1
653,717,4,0.0800000349802917,1
653,718,4,0.0755740277850853,1
653,752,4,0.0765874200137295,1
654,716,4,0.0822934902539636,1
654,717,4,0.0820967800210208,1
654,718,4,0.0756958658182844,1
654,751,4,0.0695837187155199,1
654,752,4,0.0824918955935087,1
655,717,4,0.0846191285939734,1
655,718,4,0.074888821372134,1
655,751,4,0.0700836134392172,1
655,752,4,0.0808434912746215,1
656,717,4,0.0879184349683313,1
656,718,4,0.075278965430559,1
656,751,4,0.0704206880824638,1
656,752,4,0.0772361427011896,1
657,717,4,0.0871321750448299,1
657,718,4,0.0741715217394846,1
657,751,4,0.0711612939334495,1
657,752,4,0.0749025199897992,1
658,717,4,0.0845364517161283,1
658,718,4,0.073231899591804,1
658,751,4,0.0736072189546796,1
658,752,4,0.0746818746120422,1
659,717,4,0.0803671603296274,1
659,718,4,0.0708983906861571,1
659,750,4,0.0691352641879344,1
659,751,4,0.0756442040004612,1
660,718,4,0.070512373583382,1
660,750,4,0.0728697816951871,1
660,751,4,0.0759860105667315,1
661,718,4,0.0720266009305524,1
661,750,4,0.0742404760405607,1
661,751,4,0.0758440169373614,1
662,750,4,0.0704578606321926,1
665,749,4,0.077643711017939,1
680,720,4,0.0706744808804913,1
634,739,5,0.0706852145590466,1
634,740,5,0.070012389013045,1
634,741,5,0.0764886785567074,1
634,742,5,0.0841379998384198,1
634,743,5,0.0891459736677948,1
635,743,5,0.073909846396268,1
635,744,5,0.0828955046683356,1
636,745,5,0.0742464358676603,1
636,746,5,0.0874630143312818,1
636,747,5,0.0884140949204112,1
637,746,5,0.0759175534170618,1
637,747,5,0.0835244730746153,1
638,747,5,0.0812714188399251,1
638,748,5,0.0784758466356674,1
639,747,5,0.0771966940365886,1
639,748,5,0.0794419555727294,1
640,721,5,0.0699865910479012,1
640,748,5,0.0770366292530884,1
640,749,5,0.0695056659447309,1
641,719,5,0.0724184580649075,1
641,720,5,0.0716327791496761,1
641,721,5,0.0708498435518432,1
641,748,5,0.0737849415977675,1
641,749,5,0.0769668483629271,1
642,718,5,0.0730778006251793,1
642,719,5,0.0754622465857558,1
642,720,5,0.0758658556605827,1
642,748,5,0.0698749775622992,1
642,749,5,0.0826948052445903,1
642,750,5,0.0767027591399908,1
643,717,5,0.0729307456351065,1
643,749,5,0.0775351523180864,1
643,750,5,0.0787018229140461,1
644,716,5,0.0731866228751749,1
644,728,5,0.0683114423792655,1
644,749,5,0.0691850332365481,1
644,750,5,0.0798905957833702,1
644,751,5,0.0774943080356822,1
645,716,5,0.0744697407059521,1
645,727,5,0.0717697713161033,1
645,728,5,0.0819514920148619,1
645,750,5,0.0795327126583709,1
645,751,5,0.0810452389091631,1
646,715,5,0.0789942078387096,1
646,716,5,0.0763780893227978,1
646,720,5,0.0700679561648068,1
646,750,5,0.0715146248287044,1
646,751,5,0.0783069649019253,1
646,752,5,0.078532665650609,1
647,715,5,0.0786265014811039,1
647,719,5,0.0742525933573672,1
647,751,5,0.0732068743077616,1
647,752,5,0.0799630121749624,1
648,715,5,0.0780775205432545,1
648,719,5,0.0696969374610844,1
648,752,5,0.0765643833353124,1
649,718,5,0.0772131838898602,1
649,752,5,0.0694970885855283,1
650,717,5,0.0808848087493281,1
650,718,5,0.0771903508638263,1
651,717,5,0.0801744752261428,1
651,718,5,0.0751146359265613,1
652,718,5,0.0741000038142893,1
653,718,5,0.0729073435803546,1
653,752,5,0.0681680890707481,1
653,753,5,0.0741841002690416,1
654,717,5,0.0794127254659495,1
654,718,5,0.0728134538418759,1
654,752,5,0.0737092008805067,1
654,753,5,0.0775651910446236,1
655,717,5,0.0814959755413967,1
655,718,5,0.0720798560287862,1
655,752,5,0.0727686203686693,1
655,753,5,0.0775132477073294,1
656,717,5,0.0847295920425874,1
656,718,5,0.0726197624560267,1
656,752,5,0.0693683503304008,1
657,717,5,0.0848416068431801,1
657,718,5,0.0724210935663385,1
657,752,5,0.0682409546955387,1
658,717,5,0.0842023240426637,1
658,718,5,0.0729678642768515,1
658,752,5,0.0690053818855949,1
659,717,5,0.0829372534069127,1
659,718,5,0.0719431094431741,1
659,751,5,0.070514434066319,1
659,752,5,0.0700742334500333,1
660,718,5,0.0728384312077104,1
660,751,5,0.0725655729527401,1
661,718,5,0.0762119089780225,1
661,750,5,0.0713699058512636,1
661,751,5,0.0737805451021985,1
662,750,5,0.069360701386475,1
665,749,5,0.0706875505716786,1
666,749,5,0.0819886406054868,1
675,721,5,0.0679263417122153,1
679,720,5,0.0754757595203656,1
679,721,5,0.0691827151932441,1
680,720,5,0.072160280750863,1
680,721,5,0.068174540059478,1
634,739,6,0.0750468616113532,1
634,740,6,0.0754533757275302,1
634,741,6,0.0793616865848281,1
634,742,6,0.0867223725416402,1
634,743,6,0.0945327229607856,1
635,742,6,0.0698225071247187,1
635,743,6,0.0784791170533522,1
635,744,6,0.0889548818447207,1
636,744,6,0.0688996982782125,1
636,745,6,0.0809965719793296,1
636,746,6,0.0924985231608345,1
636,747,6,0.0906595481293834,1
637,746,6,0.080481259572261,1
637,747,6,0.0853544454727692,1
638,746,6,0.0706081680706222,1
638,747,6,0.0822255003068203,1
638,748,6,0.0782879533529664,1
639,747,6,0.0775679822802301,1
639,748,6,0.0781981845803616,1
640,747,6,0.0681097007344999,1
640,748,6,0.0764006168702568,1
640,749,6,0.0682906338975127,1
641,719,6,0.0688787041134044,1
641,748,6,0.07599755885482,1
641,749,6,0.0755773581005299,1
642,748,6,0.0737905240689804,1
642,749,6,0.081738429693495,1
642,750,6,0.0748720919278233,1
643,749,6,0.0787469798351556,1
643,750,6,0.0783514329987972,1
644,749,6,0.0702677691017071,1
644,750,6,0.0790682714186962,1
644,751,6,0.0767455201507085,1
645,728,6,0.0712261033095477,1
645,750,6,0.0774413883649033,1
645,751,6,0.079855573563218,1
646,750,6,0.0689147805341289,1
646,751,6,0.0773048035032427,1
646,752,6,0.0787089148088059,1
647,751,6,0.0721444677422771,1
647,752,6,0.0797750769638295,1
648,752,6,0.0758990450092851,1
651,718,6,0.0742747136000595,1
651,753,6,0.0682735750155231,1
653,753,6,0.0677685530435873,1
654,718,6,0.0709647274551301,1
654,753,6,0.0705091990021129,1
655,717,6,0.0792381534450268,1
655,718,6,0.0708853569336257,1
655,753,6,0.0709551557931149,1
656,717,6,0.0824712907641392,1
656,718,6,0.0722601183368893,1
657,717,6,0.0837778346087723,1
657,718,6,0.0730697863049187,1
658,718,6,0.0745874997017092,1
659,718,6,0.0748766800962236,1
660,718,6,0.0776344807731545,1
660,751,6,0.0694006531922583,1
660,752,6,0.0699304488776454,1
661,751,6,0.0716615839823615,1
666,749,6,0.0734527246628403,1
672,720,6,0.0852075402270959,1
673,720,6,0.0874878239833889,1
673,721,6,0.0678964048118698,1
674,720,6,0.0906208122481239,1
674,721,6,0.0721872706814266,1
675,720,6,0.0900939575427428,1
675,721,6,0.0738683252691781,1
676,721,6,0.071476440006835,1
677,721,6,0.0685236721217713,1
678,721,6,0.068993090865285,1
679,720,6,0.0767007705343657,1
679,721,6,0.0708839732953745,1
680,720,6,0.0740193574705013,1
680,721,6,0.0696616097623573,1
634,742,7,0.0920420962414204,1
635,742,7,0.0766591415913081,1
635,743,7,0.0862743732370292,1
636,744,7,0.079790117291314,1
637,745,7,0.0776927612934351,1
637,746,7,0.0884963165752819,1
637,747,7,0.0892355687368962,1
638,746,7,0.0779471171304047,1
638,747,7,0.0859629827531828,1
639,747,7,0.0814112321908387,1
639,748,7,0.080024221695697,1
640,747,7,0.0740981170348558,1
640,748,7,0.0794850999291098,1
640,749,7,0.0692347184282981,1
641,747,7,0.0677461872200798,1
641,748,7,0.0811211173912714,1
641,749,7,0.0764141837128503,1
642,748,7,0.0801034484625778,1
642,749,7,0.0829223388647237,1
643,748,7,0.0718336762360286,1
643,749,7,0.0822733406475686,1
643,750,7,0.0803630333739776,1
644,749,7,0.074855518217688,1
644,750,7,0.0815333217946289,1
644,751,7,0.0782852519639996,1
645,750,7,0.0796006307282025,1
645,751,7,0.0810340799565133,1
646,750,7,0.0723510071976023,1
646,751,7,0.0802384939518117,1
647,751,7,0.0763209887883852,1
647,752,7,0.0828371223218633,1
648,751,7,0.0686651566201831,1
648,752,7,0.0791069414124198,1
649,752,7,0.0699503529032253,1
655,718,7,0.0721669114328723,1
656,717,7,0.0831026970092426,1
656,718,7,0.0735849729266917,1
657,718,7,0.0751596131543914,1
658,718,7,0.0777533059490359,1
659,718,7,0.0797432293249465,1
659,719,7,0.0684686081111917,1
660,719,7,0.0700684413366612,1
661,719,7,0.0735769645962072,1
661,751,7,0.0708406252866108,1
662,750,7,0.0684106031206062,1
662,751,7,0.0719514472113376,1
663,750,7,0.068621065879198,1
664,750,7,0.0710397913277052,1
666,749,7,0.0723844600964478,1
667,749,7,0.0720047262686753,1
671,720,7,0.0874210559505453,1
672,720,7,0.0905035444139972,1
672,721,7,0.0695508288556164,1
673,720,7,0.0919003062644336,1
673,721,7,0.0734424641765874,1
674,720,7,0.0933619373887279,1
674,721,7,0.0781772802621931,1
675,720,7,0.0922224543859392,1
675,721,7,0.0801075155204679,1
676,720,7,0.0881836622487037,1
676,721,7,0.0772072839605204,1
677,721,7,0.0739053600540594,1
678,721,7,0.0739425445833402,1
679,720,7,0.0797093990702143,1
679,721,7,0.0743484237832633,1
680,720,7,0.0765999745841826,1
683,723,7,0.0709014574514586,1
684,723,7,0.0730088882525351,1
636,743,8,0.0777281728490259,1
637,744,8,0.0733679633429544,1
637,747,8,0.0933224947139029,1
638,745,8,0.0719423966598326,1
638,746,8,0.0862256583889879,1
638,747,8,0.0920416829468778,1
639,746,8,0.076295915586135,1
639,747,8,0.0891229309996016,1
639,748,8,0.0852728287852725,1
640,747,8,0.0827555475627985,1
640,748,8,0.0847570252165735,1
641,747,8,0.077177874160461,1
641,748,8,0.0873623860948261,1
641,749,8,0.0777916465050807,1
642,747,8,0.0695828741571067,1
642,748,8,0.087038902253277,1
642,749,8,0.084618361902648,1
643,748,8,0.0787511786681172,1
643,749,8,0.0856589596937912,1
643,750,8,0.0812282625039928,1
644,749,8,0.0785807395926205,1
644,750,8,0.0821594929755262,1
645,749,8,0.0696351289627519,1
645,750,8,0.0803409490699411,1
645,751,8,0.0794192603115431,1
646,750,8,0.0747078462806893,1
646,751,8,0.0798866305516718,1
647,751,8,0.0770226071875203,1
647,752,8,0.0809934752651482,1
648,751,8,0.0692940172104952,1
648,752,8,0.078000492024158,1
649,752,8,0.0705775004176072,1
657,718,8,0.076626149905213,1
658,718,8,0.0805980661936373,1
658,719,8,0.0691974979603615,1
659,719,8,0.0730835028919118,1
660,719,8,0.0765482888072554,1
662,751,8,0.071175465743417,1
663,750,8,0.0680781286253119,1
663,751,8,0.070351086885582,1
664,750,8,0.0698414827350218,1
666,749,8,0.0705656346713918,1
667,749,8,0.0715638547974799,1
668,749,8,0.0717483279180967,1
670,721,8,0.0677926918407847,1
671,721,8,0.0690043396645745,1
672,720,8,0.0934233565516218,1
672,721,8,0.0728832047831572,1
673,720,8,0.0951810922514629,1
673,721,8,0.0781498171393271,1
674,720,8,0.0961756106959957,1
674,721,8,0.0841961965018367,1
675,720,8,0.0949098093075752,1
675,721,8,0.0866666376761509,1
676,720,8,0.091273919451601,1
676,721,8,0.0837386375147624,1
677,721,8,0.0804939279484576,1
678,721,8,0.0790668099133572,1
679,720,8,0.0820715211357152,1
679,721,8,0.076625580876495,1
680,720,8,0.0776064965397783,1
682,723,8,0.0687438682663298,1
683,723,8,0.0701466857802814,1
684,723,8,0.0706443702766424,1
636,743,9,0.0874928613849876,1
637,743,9,0.0694526803864163,1
637,744,9,0.0838270945264277,1
638,745,9,0.0800572553102239,1
638,746,9,0.0912856833716248,1
638,747,9,0.0934754735924194,1
639,746,9,0.0808751292713452,1
639,747,9,0.0907923115139691,1
640,746,9,0.0707002369172032,1
640,747,9,0.0864404817044928,1
640,748,9,0.0870761646496455,1
641,747,9,0.0820779601448932,1
641,748,9,0.0897586498834102,1
641,749,9,0.0796690758983202,1
642,747,9,0.0755225636298694,1
642,748,9,0.0900068961488807,1
642,749,9,0.0856013500284203,1
643,748,9,0.0822133770002378,1
643,749,9,0.086451245331928,1
644,749,9,0.0795600799448212,1
644,750,9,0.0813478423916476,1
645,749,9,0.0727047394078479,1
645,750,9,0.0809010051035766,1
645,751,9,0.0794127314557254,1
646,750,9,0.078325766808725,1
646,751,9,0.0813050154933941,1
647,750,9,0.0700214156054461,1
647,751,9,0.080048174809839,1
648,751,9,0.0734801039288426,1
648,752,9,0.0794247828849962,1
649,752,9,0.0738929372586779,1
659,719,9,0.0775008907994837,1
659,720,9,0.0679761706585888,1
660,719,9,0.081988592687279,1
660,720,9,0.0707737434480236,1
661,720,9,0.0737730099640163,1
662,751,9,0.0710017263013555,1
662,752,9,0.0694599040562475,1
663,750,9,0.0678099184365017,1
663,751,9,0.071955142903117,1
664,750,9,0.0704147042962603,1
664,751,9,0.0726967789955711,1
665,750,9,0.0757147455921718,1
666,749,9,0.0705247005423479,1
666,750,9,0.0798061399420592,1
667,749,9,0.0724905390290449,1
668,749,9,0.0719632410802412,1
669,749,9,0.0718502858848198,1
670,749,9,0.0707570259832649,1
671,721,9,0.0729819701992832,1
672,720,9,0.0928034866150549,1
672,721,9,0.0757408969540983,1
673,720,9,0.0945932137084026,1
673,721,9,0.08072879305439,1
674,720,9,0.0965224906025207,1
674,721,9,0.0876490747425331,1
675,720,9,0.0968404099421848,1
675,721,9,0.0913106607374593,1
675,722,9,0.0724091799019153,1
676,720,9,0.0961502859231543,1
676,721,9,0.0898627042717261,1
676,722,9,0.0719799405756721,1
677,721,9,0.0915087426291015,1
677,722,9,0.0707263523404738,1
678,722,9,0.0701401209858079,1
679,721,9,0.0822525681044717,1
679,722,9,0.0690307485868681,1
680,720,9,0.0773175916749589,1
680,722,9,0.0694549984297203,1
682,723,9,0.0682712989006509,1
683,723,9,0.0687456831684516,1
636,743,10,0.0934620804533293,1
637,743,10,0.0767045980012166,1
637,744,10,0.0917957786838152,1
638,744,10,0.0731329484926226,1
638,745,10,0.0871737201310237,1
638,746,10,0.094861939017947,1
638,747,10,0.0923751038267768,1
639,745,10,0.0719708840343911,1
639,746,10,0.0857931845837158,1
639,747,10,0.0916408651076574,1
640,746,10,0.0775315764218267,1
640,747,10,0.0906644178172547,1
640,748,10,0.0892839661268106,1
641,746,10,0.068531345024801,1
641,747,10,0.0878813941936741,1
641,748,10,0.0922505344557311,1
642,747,10,0.0816618204587172,1
642,748,10,0.0929370346602939,1
642,749,10,0.086429921729441,1
643,747,10,0.0704672226520486,1
643,748,10,0.0866584676217149,1
643,749,10,0.0875433312373909,1
644,748,10,0.0726900644566981,1
644,749,10,0.0819549960338099,1
644,750,10,0.0819690420584819,1
645,749,10,0.0778830325172,1
645,750,10,0.082985674755931,1
646,749,10,0.0717151804978261,1
646,750,10,0.0840199892720716,1
646,751,10,0.0834673845197546,1
647,750,10,0.0781788136448439,1
647,751,10,0.0841018096119516,1
648,751,10,0.0793042446331847,1
648,752,10,0.0811839501412964,1
649,751,10,0.0709053927342772,1
649,752,10,0.0763392396357948,1
659,720,10,0.0714994347568204,1
660,720,10,0.0752579652759749,1
661,720,10,0.0801929357157116,1
662,721,10,0.0686496730492761,1
662,751,10,0.0679485098731155,1
663,751,10,0.071610299520425,1
664,750,10,0.0717486214171197,1
664,751,10,0.0743341621266561,1
665,721,10,0.070411871132222,1
665,750,10,0.0775333613750686,1
666,721,10,0.0683008943837656,1
666,749,10,0.0720760225721593,1
666,750,10,0.0811163914580236,1
667,749,10,0.0745360235669413,1
667,750,10,0.0818219750888571,1
668,749,10,0.0738819100810996,1
669,749,10,0.0738154894552629,1
670,749,10,0.0735877641622982,1
671,721,10,0.0772577478231477,1
671,749,10,0.0682909214067597,1
672,720,10,0.0921268036533225,1
672,721,10,0.0794656032082965,1
673,720,10,0.095299995294432,1
673,721,10,0.0843514035770176,1
674,720,10,0.100103292488811,1
674,721,10,0.0920241748316897,1
674,722,10,0.0720133695154137,1
675,720,10,0.103055425457621,1
675,721,10,0.0970045537631271,1
675,722,10,0.0774120744012596,1
676,721,10,0.0993159244567537,1
676,722,10,0.0780865890640874,1
677,722,10,0.0776603086871781,1
678,722,10,0.0748846045698445,1
679,721,10,0.084492702392374,1
679,722,10,0.0688381473402472,1
680,721,10,0.0710534120782826,1
635,744,11,0.109982397725534,1
636,743,11,0.0968191701965614,1
636,744,11,0.105849260626845,1
637,742,11,0.0699461301111597,1
637,743,11,0.0826814959623639,1
637,744,11,0.0959141270256105,1
637,745,11,0.10776473108733,1
638,744,11,0.0799557705358032,1
638,745,11,0.0934611041198446,1
638,746,11,0.0961035776500662,1
638,747,11,0.0900983839871917,1
639,745,11,0.079591406473194,1
639,746,11,0.0883607140368819,1
639,747,11,0.0897366075078056,1
640,746,11,0.0809491868615558,1
640,747,11,0.090551534499145,1
641,746,11,0.0726152521547141,1
641,747,11,0.0891086873123224,1
641,748,11,0.0922516605336152,1
642,726,11,0.0679542480785038,1
642,728,11,0.0677799695566042,1
642,747,11,0.0842403531303576,1
642,748,11,0.0927571497080775,1
643,728,11,0.0703131416547518,1
643,729,11,0.0708755576601232,1
643,747,11,0.075228998719338,1
643,748,11,0.0887446287282881,1
643,749,11,0.0888795184833465,1
644,728,11,0.0689115640244279,1
644,729,11,0.0686357528098998,1
644,748,11,0.0785988107467506,1
644,749,11,0.084910591093136,1
645,749,11,0.0823101777698425,1
645,750,11,0.0850696436044958,1
646,749,11,0.0778668241833995,1
646,750,11,0.0870397408219142,1
647,750,11,0.0838277893404413,1
647,751,11,0.0868714520759941,1
648,750,11,0.0741541214402642,1
648,751,11,0.0831626067485896,1
649,751,11,0.0761435057363366,1
649,752,11,0.076858762855377,1
650,752,11,0.0698431299234162,1
660,721,11,0.0716019677420375,1
660,725,11,0.0692584858593848,1
661,725,11,0.0704525417111228,1
661,726,11,0.0685200303379757,1
663,751,11,0.0694686431394016,1
663,752,11,0.0684872902224718,1
664,750,11,0.0727075126741264,1
664,751,11,0.0762792101009282,1
665,721,11,0.0773289063617842,1
665,750,11,0.0784678323154068,1
665,751,11,0.0780872239803413,1
666,721,11,0.0733701376316349,1
666,749,11,0.071291763233835,1
666,750,11,0.0810004054359565,1
667,749,11,0.0747174299222565,1
667,750,11,0.0812528145957328,1
668,749,11,0.0740485097101936,1
668,750,11,0.0783492347510127,1
669,749,11,0.07342474641924,1
669,750,11,0.0768505029543013,1
670,749,11,0.073309928403489,1
671,721,11,0.0791750212062029,1
671,749,11,0.0679172252731745,1
672,720,11,0.0904787287721141,1
672,721,11,0.081187873444563,1
673,720,11,0.0969516400821241,1
673,721,11,0.0875074464894977,1
673,722,11,0.0714316664313883,1
674,720,11,0.115583952364701,1
674,721,11,0.102792797740024,1
674,722,11,0.0787398759608439,1
675,721,11,0.116987440733563,1
675,722,11,0.0850066850691752,1
676,722,11,0.0876111474810309,1
677,722,11,0.0877266363516917,1
678,722,11,0.0810372425582304,1
679,721,11,0.0857050510199534,1
679,722,11,0.069461521295762,1
680,721,11,0.0686748001595101,1
636,743,12,0.0958330793668318,1
636,744,12,0.103603022757219,1
637,742,12,0.071384113599887,1
637,743,12,0.0847370672830098,1
637,744,12,0.0971587605457194,1
637,745,12,0.108778117326199,1
638,743,12,0.0713313017450757,1
638,744,12,0.0858161493848213,1
638,745,12,0.099390335443747,1
638,746,12,0.0983515944831576,1
639,744,12,0.0721278101752781,1
639,745,12,0.0874929093031955,1
639,746,12,0.0919668466857899,1
639,747,12,0.0886157467185372,1
640,745,12,0.0734263456894266,1
640,746,12,0.0846413925912892,1
640,747,12,0.0884635225517941,1
641,746,12,0.0778561024843962,1
641,747,12,0.0881059928235775,1
641,748,12,0.0903610476434448,1
642,726,12,0.0680918751611849,1
642,729,12,0.0678927390689703,1
642,746,12,0.0694896732428657,1
642,747,12,0.0851962914278064,1
642,748,12,0.090672240464684,1
643,729,12,0.0690153069443929,1
643,747,12,0.0791003826077223,1
643,748,12,0.0895425627251736,1
643,749,12,0.0886037611768022,1
644,729,12,0.0682087057416651,1
644,748,12,0.0829036447738917,1
644,749,12,0.0858953641721502,1
645,748,12,0.073003054210731,1
645,749,12,0.0836311869234661,1
645,750,12,0.0883925017780051,1
646,749,12,0.0796855957004717,1
646,750,12,0.0871258258822916,1
647,749,12,0.0719613423212557,1
647,750,12,0.0863384758195619,1
647,751,12,0.0858405337628338,1
648,750,12,0.0808052166061124,1
648,751,12,0.0830680641245291,1
649,751,12,0.0777442673770828,1
649,752,12,0.073086354025278,1
650,752,12,0.0690754203361232,1
652,753,12,0.0684793777284029,1
655,725,12,0.074977092700744,1
655,726,12,0.0762624147690817,1
656,724,12,0.070265151569604,1
656,725,12,0.0851581784832488,1
656,726,12,0.0905963799519035,1
656,727,12,0.0713568960578361,1
656,754,12,0.0698277242195969,1
657,724,12,0.0706539718875375,1
657,725,12,0.0847729340615751,1
657,726,12,0.0900707052323904,1
657,727,12,0.0727153892295394,1
658,724,12,0.0728213783154967,1
658,725,12,0.0877638747889562,1
658,726,12,0.0931093365561203,1
658,727,12,0.0762918125895891,1
659,723,12,0.0689273950023418,1
659,724,12,0.0760184092650047,1
659,725,12,0.100055404229855,1
659,726,12,0.110191464866322,1
659,727,12,0.0879545832663676,1
660,723,12,0.0717224281267613,1
660,724,12,0.0782958598572593,1
660,725,12,0.108520017879242,1
660,726,12,0.12297901364586,1
660,727,12,0.0952800972586281,1
661,724,12,0.0762160059847925,1
661,725,12,0.0968117308947949,1
661,726,12,0.10682373728095,1
661,727,12,0.0820431535566763,1
662,724,12,0.0684877514352222,1
662,725,12,0.0718902796190349,1
662,726,12,0.0706822795688166,1
664,750,12,0.0700014636616584,1
664,751,12,0.0771644810213709,1
665,750,12,0.0772804191252301,1
665,751,12,0.0788563711138693,1
666,750,12,0.0798888108301283,1
666,751,12,0.0786771390472346,1
667,749,12,0.0727279917182003,1
667,750,12,0.0807024080912002,1
668,749,12,0.0732689343766852,1
668,750,12,0.0791087024065578,1
669,749,12,0.0727539514072955,1
669,750,12,0.0777446986409534,1
670,749,12,0.0715013335158059,1
670,750,12,0.0769182413308535,1
671,721,12,0.0818795068871403,1
671,722,12,0.0686233419940702,1
672,720,12,0.0896933253865777,1
672,721,12,0.0829352468319596,1
672,722,12,0.0717127426590024,1
673,720,12,0.103791317354911,1
673,721,12,0.0918792761609695,1
673,722,12,0.0784428789086762,1
674,721,12,0.115553260752582,1
674,722,12,0.0868353696654935,1
675,722,12,0.09359570037588,1
676,723,12,0.0679692344980045,1
677,723,12,0.0685517761506671,1
678,722,12,0.0820550851904274,1
679,721,12,0.083443617088668,1
679,722,12,0.068619316864612,1
636,743,13,0.0919690748824542,1
636,744,13,0.100670656049142,1
637,742,13,0.0715560201704987,1
637,743,13,0.0829730363286142,1
637,744,13,0.0964722064331727,1
637,745,13,0.106177356595898,1
638,743,13,0.0737031272476634,1
638,744,13,0.0898187033773807,1
638,745,13,0.101670409557881,1
638,746,13,0.0992052393864284,1
639,744,13,0.0771535556699842,1
639,745,13,0.0915792542719322,1
639,746,13,0.0932082397370939,1
640,745,13,0.0788037209830094,1
640,746,13,0.0871309231816502,1
640,747,13,0.087563181354987,1
641,745,13,0.0689016269860779,1
641,746,13,0.0829735514493485,1
641,747,13,0.0873997023991784,1
642,730,13,0.0687555603090418,1
642,746,13,0.0758246819404996,1
642,747,13,0.0852889772213132,1
642,748,13,0.087925239353844,1
643,729,13,0.0678307269182545,1
643,730,13,0.0707802842833933,1
643,731,13,0.0698394522009647,1
643,747,13,0.0808559380291069,1
643,748,13,0.0865529876667158,1
644,729,13,0.0698988348400255,1
644,730,13,0.075078799096876,1
644,731,13,0.0734995467416721,1
644,747,13,0.0718795459404796,1
644,748,13,0.0847275674983063,1
644,749,13,0.0884934894010195,1
645,730,13,0.0718508728828658,1
645,731,13,0.0694948004911041,1
645,748,13,0.0771263680768133,1
645,749,13,0.0854900420213932,1
646,749,13,0.0791461804348616,1
646,750,13,0.0865616249236783,1
647,749,13,0.0735140479893185,1
647,750,13,0.0840474164562818,1
648,750,13,0.0807018210931542,1
648,751,13,0.0780903626229545,1
649,750,13,0.068629828921456,1
649,751,13,0.0737082844447818,1
654,725,13,0.0681504851191443,1
654,726,13,0.0693892187099134,1
655,725,13,0.0872532823253594,1
655,726,13,0.0965278694213503,1
655,727,13,0.0751973427532863,1
656,724,13,0.0787469079578439,1
656,725,13,0.109595494135913,1
656,726,13,0.127086322830525,1
656,727,13,0.0950882327544526,1
656,754,13,0.0693117529371705,1
657,724,13,0.0794005602309351,1
657,725,13,0.107385865777075,1
657,726,13,0.123648155479634,1
657,727,13,0.0936571255285498,1
658,724,13,0.0780838517364648,1
658,725,13,0.111900300035067,1
658,726,13,0.139214169663232,1
658,727,13,0.104070572690627,1
659,724,13,0.0792463414687908,1
659,725,13,0.149711851044909,1
659,726,13,0.209383472837612,1
659,727,13,0.152667769552138,1
660,724,13,0.0818126849463129,1
660,725,13,0.165778706336809,1
660,726,13,0.236438308613767,1
660,727,13,0.170518787435501,1
661,725,13,0.119964898475214,1
661,726,13,0.160198044036258,1
661,727,13,0.114477005825033,1
662,725,13,0.073784779873816,1
662,726,13,0.07605892410973,1
663,752,13,0.0702440076603964,1
664,751,13,0.0732248136868202,1
664,752,13,0.0736894945175341,1
665,750,13,0.0731596029957313,1
665,751,13,0.0773516495411784,1
666,750,13,0.0788984373105733,1
666,751,13,0.0781304521935853,1
667,749,13,0.0709260215227506,1
667,750,13,0.0814103277346658,1
668,749,13,0.0754354603075755,1
668,750,13,0.0822358985579207,1
669,749,13,0.0756292295605124,1
669,750,13,0.0811371340522406,1
670,722,13,0.0693584672000346,1
670,749,13,0.0716257291833482,1
670,750,13,0.0778307896911068,1
671,721,13,0.0822983180134031,1
671,722,13,0.0718949097158671,1
671,750,13,0.073768128296593,1
672,720,13,0.0897342295667418,1
672,721,13,0.0837108928724253,1
672,722,13,0.0750357805257912,1
673,721,13,0.0946296734747898,1
673,722,13,0.0828987571166924,1
674,722,13,0.0914918155221834,1
674,723,13,0.0693037925248937,1
675,722,13,0.0960701966285324,1
675,723,13,0.070095946387959,1
676,723,13,0.0714788239376749,1
677,723,13,0.0720806167303356,1
678,722,13,0.0801830645648974,1
678,723,13,0.0694629528522211,1
679,722,13,0.0679987461242555,1
636,743,14,0.0902338367811921,1
637,742,14,0.0717200022674896,1
637,743,14,0.0827734629827532,1
637,744,14,0.0970426667076846,1
638,743,14,0.0758123909201896,1
638,744,14,0.0930563569875816,1
638,745,14,0.10185532592192,1
639,744,14,0.0821707657339196,1
639,745,14,0.0940064073352426,1
639,746,14,0.0947586932493883,1
640,744,14,0.0692977308716025,1
640,745,14,0.0843538234465133,1
640,746,14,0.0905209926314255,1
641,745,14,0.0770246736602333,1
641,746,14,0.0900526280884842,1
641,747,14,0.086938687311364,1
642,746,14,0.0836139064197652,1
642,747,14,0.0858207255736696,1
642,748,14,0.0870180638226444,1
643,730,14,0.0723111452384587,1
643,731,14,0.0758127682760763,1
643,746,14,0.0718586775609671,1
643,747,14,0.08274399927471,1
643,748,14,0.0850884994192792,1
644,729,14,0.0688369913134831,1
644,730,14,0.0824266549535399,1
644,731,14,0.0844524211489119,1
644,732,14,0.0695134646330563,1
644,747,14,0.0767543490805023,1
644,748,14,0.0853626574556371,1
645,730,14,0.0765471447600433,1
645,731,14,0.0765006042006826,1
645,748,14,0.0811562474273912,1
645,749,14,0.0867328546496043,1
646,748,14,0.0690036807892167,1
646,749,14,0.0800288637720811,1
646,750,14,0.0852642873647257,1
647,749,14,0.0756655635416041,1
647,750,14,0.0810805486385623,1
648,750,14,0.0795216375625848,1
648,751,14,0.0709286690037335,1
649,750,14,0.0697719234665718,1
649,751,14,0.0683457278569722,1
654,726,14,0.0702023008502511,1
655,725,14,0.0926725740712469,1
655,726,14,0.108716554408681,1
655,727,14,0.0836775058611156,1
655,754,14,0.0693210191206108,1
656,724,14,0.0820419795605843,1
656,725,14,0.127657304215547,1
656,726,14,0.155083050879457,1
656,727,14,0.112424956492663,1
656,754,14,0.0686140219026461,1
657,724,14,0.0833879301413865,1
657,725,14,0.122908705655412,1
657,726,14,0.147056631271403,1
657,727,14,0.107286387577607,1
658,724,14,0.079832512925697,1
658,725,14,0.127998134448333,1
658,726,14,0.181768916455275,1
658,727,14,0.129145859382869,1
659,724,14,0.0816949618892118,1
659,725,14,0.193106268592864,1
659,726,14,0.315410725647464,1
659,727,14,0.222024176269236,1
659,728,14,0.0823027803965078,1
660,725,14,0.212926880552462,1
660,726,14,0.350929282596385,2
660,727,14,0.246743718186503,1
660,728,14,0.0871732110000655,1
661,725,14,0.128772037463988,1
661,726,14,0.198796531814288,1
661,727,14,0.136586131493121,1
662,725,14,0.070440490281852,1
662,726,14,0.0740947388012034,1
662,753,14,0.0709419183882002,1
663,752,14,0.0706956906772347,1
663,753,14,0.0729380232129216,1
664,751,14,0.0683766770294583,1
664,752,14,0.0734457525636002,1
665,751,14,0.0742771454491072,1
665,752,14,0.0735050753049012,1
666,750,14,0.0736568622179977,1
666,751,14,0.0763019532803224,1
667,750,14,0.07704960310786,1
667,751,14,0.0752160068952384,1
668,749,14,0.0724470113270018,1
668,750,14,0.0806888472383826,1
668,751,14,0.0761346588372148,1
669,722,14,0.0684832411339096,1
669,749,14,0.074063585976334,1
669,750,14,0.0800129249781996,1
670,722,14,0.0711176883643187,1
670,749,14,0.0693212347525461,1
670,750,14,0.0764034021160872,1
671,721,14,0.0814643615037769,1
671,722,14,0.0738171606027612,1
671,750,14,0.0736000432030562,1
672,720,14,0.0890345338856961,1
672,721,14,0.0838365883213552,1
672,722,14,0.0767766729755779,1
672,750,14,0.073110331098524,1
673,720,14,0.104236573342123,1
673,721,14,0.0919126452029513,1
673,722,14,0.0824355797197494,1
673,723,14,0.0684336158399195,1
673,750,14,0.070996012055071,1
674,721,14,0.107850001538174,1
674,722,14,0.0880800930322422,1
674,723,14,0.0711412940714539,1
675,722,14,0.0891572224670843,1
675,723,14,0.0709794563142637,1
676,723,14,0.072652700234138,1
677,723,14,0.0738511525814449,1
678,723,14,0.070266050036001,1
678,724,14,0.0677587178314289,1
636,743,15,0.0876069486480692,1
637,742,15,0.0725248844045113,1
637,743,15,0.0820815659900328,1
637,744,15,0.0937582928448436,1
638,743,15,0.0770003072515486,1
638,744,15,0.0917643742883547,1
638,745,15,0.0983921512563148,1
639,743,15,0.0683885667347776,1
639,744,15,0.084281149494554,1
639,745,15,0.094139847564514,1
639,746,15,0.0944869490927502,1
640,744,15,0.073572346478927,1
640,745,15,0.0881077358483876,1
640,746,15,0.09338295551264,1
641,745,15,0.0821211763785853,1
641,746,15,0.0944007442368532,1
641,747,15,0.0876424141116439,1
642,732,15,0.0704985611599733,1
642,745,15,0.0708956353892065,1
642,746,15,0.0880028129425546,1
642,747,15,0.0867001265136523,1
643,730,15,0.0728211746631134,1
643,731,15,0.0790750159064491,1
643,732,15,0.0733053641941926,1
643,746,15,0.0767432979438201,1
643,747,15,0.083452074652351,1
643,748,15,0.0827378897032109,1
644,730,15,0.0862638971188411,1
644,731,15,0.0905283061478965,1
644,732,15,0.0775363382937304,1
644,747,15,0.0784114086256799,1
644,748,15,0.0830777076638561,1
645,730,15,0.0787478902811045,1
645,731,15,0.0807084697444915,1
645,732,15,0.0701569642358622,1
645,747,15,0.0696521399265337,1
645,748,15,0.07994092188115,1
645,749,15,0.084857425841542,1
646,748,15,0.0700411339479706,1
646,749,15,0.0778680940159071,1
647,749,15,0.0739937871168448,1
647,750,15,0.0760312693140326,1
648,749,15,0.0687760153940118,1
648,750,15,0.0758771403985281,1
649,750,15,0.0691953715898888,1
654,726,15,0.0721102182032263,1
654,727,15,0.0678436648343702,1
655,724,15,0.0680846215424737,1
655,725,15,0.0928269126289108,1
655,726,15,0.112391557501801,1
655,727,15,0.0896968593544056,1
655,754,15,0.068197349126408,1
656,724,15,0.0819066765109833,1
656,725,15,0.132683037730701,1
656,726,15,0.163626112624847,1
656,727,15,0.121266213245417,1
656,728,15,0.069823315744476,1
657,724,15,0.0834351056170011,1
657,725,15,0.125239243632173,1
657,726,15,0.150552587980944,1
657,727,15,0.111867967224329,1
658,723,15,0.068448057189806,1
658,724,15,0.0781396584792658,1
658,725,15,0.121609571163666,1
658,726,15,0.183632850883233,1
658,727,15,0.132286909886073,1
658,728,15,0.0702898114773116,1
659,724,15,0.0790453485460226,1
659,725,15,0.187023219821808,1
659,726,15,0.332742549748923,2
659,727,15,0.238779759962363,1
659,728,15,0.0935448052493822,1
660,725,15,0.204652675891688,2
660,726,15,0.36610109764322,2
660,727,15,0.263222981534144,2
660,728,15,0.0994848900473595,1
661,725,15,0.116224798496748,1
661,726,15,0.192072145749554,2
661,727,15,0.135554620192139,1
662,725,15,0.0692962693662635,1
662,726,15,0.0728459423867887,1
662,753,15,0.073215817043299,1
663,752,15,0.0699061004382887,1
663,753,15,0.0750874663027183,1
664,752,15,0.0734702747064602,1
665,751,15,0.0722606933553834,1
665,752,15,0.0742589065812496,1
666,750,15,0.0684148019535678,1
666,751,15,0.0759257234714978,1
666,752,15,0.073451353004141,1
667,721,15,0.06948489939141,1
667,750,15,0.0747589390697945,1
667,751,15,0.0761852604646897,1
668,749,15,0.0687133862963701,1
668,750,15,0.0809757335486969,1
668,751,15,0.0783353025320844,1
669,722,15,0.069115803405777,1
669,749,15,0.0705906419861062,1
669,750,15,0.0795739223171099,1
669,751,15,0.0769139466614762,1
670,721,15,0.0792169735971633,1
670,722,15,0.0717455486620422,1
670,750,15,0.0755200838626139,1
670,751,15,0.0750889817160411,1
671,720,15,0.0818644366107758,1
671,721,15,0.0797679551201899,1
671,722,15,0.0742212728187704,1
671,750,15,0.0748926009207771,1
672,721,15,0.0826071209140264,1
672,722,15,0.0771087102172257,1
672,723,15,0.0696150512336686,1
672,750,15,0.0751962406345061,1
673,722,15,0.0801657361429887,1
673,723,15,0.0709943409075728,1
673,750,15,0.0718719868431935,1
674,723,15,0.0719891468613526,1
674,750,15,0.070010334519884,1
675,723,15,0.0718498666005012,1
675,750,15,0.0719625402764516,1
676,723,15,0.0742551270326065,1
677,724,15,0.0706523486582471,1
678,724,15,0.071159958213406,1
636,743,16,0.085818557274765,1
637,742,16,0.0737186886856582,1
637,743,16,0.0818924208441521,1
637,744,16,0.0912336801365707,1
638,742,16,0.0681542347189075,1
638,743,16,0.0787222839887921,1
638,744,16,0.0905863291078099,1
638,745,16,0.096329512000013,1
639,743,16,0.0719613543008077,1
639,744,16,0.0859074275809729,1
639,745,16,0.0952806123793623,1
640,744,16,0.0764553274840535,1
640,745,16,0.0911692720754631,1
640,746,16,0.0976915571088722,1
641,745,16,0.0844042214216048,1
641,746,16,0.0967563434363124,1
642,731,16,0.0704852458879709,1
642,732,16,0.0711905479993334,1
642,745,16,0.0737404315724638,1
642,746,16,0.0893570413937605,1
642,747,16,0.0877130215908903,1
643,731,16,0.077963115822046,1
643,732,16,0.0772867622979924,1
643,733,16,0.0677548364565942,1
643,746,16,0.0800102175994569,1
643,747,16,0.0848147966058958,1
643,748,16,0.081972528108102,1
644,731,16,0.0880673288196298,1
644,732,16,0.08248156921972,1
644,733,16,0.0691905677895532,1
644,746,16,0.067758118853831,1
644,747,16,0.0799082955713896,1
644,748,16,0.0821455547668219,1
645,730,16,0.0726286932120121,1
645,731,16,0.0796094476784443,1
645,732,16,0.0748208374147667,1
645,747,16,0.0718463805508811,1
645,748,16,0.0802073231576144,1
645,749,16,0.0837747977923507,1
646,748,16,0.0730080077554661,1
646,749,16,0.0780027801185822,1
647,749,16,0.0755990051509198,1
647,750,16,0.0731496959062612,1
648,749,16,0.0720919673558167,1
648,750,16,0.073931780955905,1
649,750,16,0.0704476181152676,1
654,726,16,0.0679458923410124,1
655,725,16,0.0816690501183244,1
655,727,16,0.0848351798135541,1
656,727,16,0.11125823198872,1
656,728,16,0.0711953997178768,1
657,724,16,0.0728521837333593,1
657,725,16,0.107769750519601,1
657,727,16,0.103285564630306,1
657,728,16,0.0680532411061171,1
658,724,16,0.0706282817383614,1
658,725,16,0.103925428439092,1
658,726,16,0.154576303852039,1
658,727,16,0.123541345794367,1
658,728,16,0.0744947180717866,1
659,724,16,0.0727104716234603,1
659,725,16,0.152592729638667,1
659,726,16,0.272422271156296,1
659,727,16,0.216539314445701,1
659,728,16,0.100789565081887,1
660,724,16,0.0749914921221987,1
660,725,16,0.16484523568906,1
660,726,16,0.296330845324146,2
660,727,16,0.23557621213659,1
660,728,16,0.105842971362066,1
660,754,16,0.0686157349785762,1
661,725,16,0.0985921319069425,1
661,726,16,0.158186581425925,1
661,727,16,0.125615341665926,1
661,754,16,0.0724504195095341,1
662,725,16,0.0677467921874537,1
662,726,16,0.0714986261370631,1
662,753,16,0.0721252585307108,1
662,754,16,0.0752219367734581,1
663,753,16,0.0743358033252745,1
664,752,16,0.0709682913718379,1
664,753,16,0.0734269686261284,1
665,751,16,0.0684014627224615,1
665,752,16,0.0736511000535055,1
666,751,16,0.0736339692942041,1
666,752,16,0.0731908875956723,1
667,750,16,0.0705473059568945,1
667,751,16,0.075975366734816,1
667,752,16,0.072571742421999,1
668,721,16,0.0695235454260298,1
668,750,16,0.0789046906366959,1
668,751,16,0.0792669942163682,1
669,721,16,0.072601847036072,1
669,750,16,0.0778422900609874,1
669,751,16,0.0776925816001557,1
670,721,16,0.0742009734679758,1
670,722,16,0.0696146798675579,1
670,750,16,0.0739809570166967,1
670,751,16,0.0755220544989112,1
671,721,16,0.0755743871716441,1
671,722,16,0.0720883076026933,1
671,723,16,0.0680721029106765,1
671,750,16,0.0746038458003572,1
671,751,16,0.0760018115957655,1
672,722,16,0.0748360155070987,1
672,723,16,0.0707907604015814,1
672,750,16,0.0752908491461023,1
673,723,16,0.0708563664178849,1
673,750,16,0.072754664190637,1
674,750,16,0.0717501727690984,1
674,751,16,0.0741405366283426,1
675,750,16,0.0740877726917392,1
676,724,16,0.0693125735364797,1
678,725,16,0.069376184957382,1
636,742,17,0.0793893054418696,1
637,741,17,0.0703946984444887,1
637,742,17,0.0747926135903513,1
637,743,17,0.0819076109160361,1
638,742,17,0.0698565050931784,1
638,743,17,0.0793321450096972,1
638,744,17,0.0895458091837545,1
639,743,17,0.0741491678955291,1
639,744,17,0.0871898925261684,1
639,745,17,0.0978296933225115,1
640,744,17,0.0785350376018969,1
640,745,17,0.0938483251675915,1
640,746,17,0.103898737997328,1
641,744,17,0.0680604468066204,1
641,745,17,0.0846736295656109,1
641,746,17,0.0974441613915908,1
642,745,17,0.0746246123536782,1
642,746,17,0.0883461708608036,1
642,747,17,0.0884788743476295,1
643,732,17,0.074819591541363,1
643,733,17,0.0712855817850242,1
643,746,17,0.0806675535847755,1
643,747,17,0.0850355138609646,1
644,732,17,0.0804202057857019,1
644,733,17,0.075411345469482,1
644,746,17,0.0696692587062831,1
644,747,17,0.0799387535822454,1
644,748,17,0.0806558435727356,1
645,733,17,0.0719300936599707,1
645,747,17,0.0731626877303608,1
645,748,17,0.0789479607783719,1
646,748,17,0.0749380453511336,1
646,749,17,0.075555986579835,1
647,748,17,0.0686590949668919,1
647,749,17,0.0749758947455481,1
647,750,17,0.0690229978167506,1
648,749,17,0.0736882366645784,1
648,750,17,0.0710947535120932,1
649,750,17,0.0699014224232487,1
656,728,17,0.0719147179050313,1
657,728,17,0.0702952022756932,1
658,727,17,0.109662759320163,1
658,728,17,0.0777972229865176,1
659,727,17,0.17091296261316,1
659,728,17,0.101453160383104,1
660,726,17,0.198841143665783,1
660,727,17,0.185070840361736,1
660,728,17,0.106329173457875,1
660,754,17,0.0687640298522768,1
661,726,17,0.120089198306341,1
661,727,17,0.112106384267417,1
661,728,17,0.0715046818005784,1
661,754,17,0.0723947145929248,1
662,726,17,0.0708302330252863,1
662,753,17,0.0678447849224784,1
662,754,17,0.0746619526171344,1
663,753,17,0.0712360643070016,1
664,753,17,0.0729795143911316,1
665,752,17,0.0712419522567895,1
665,753,17,0.0731824240422133,1
666,752,17,0.0723189019983522,1
667,751,17,0.0711187485546671,1
667,752,17,0.072349054530633,1
668,750,17,0.0708641890653142,1
668,751,17,0.0758188778475754,1
668,752,17,0.0744835710986888,1
669,750,17,0.0722808729106583,1
669,751,17,0.0758905395273942,1
670,750,17,0.0712126083442659,1
670,751,17,0.0752636555631554,1
671,723,17,0.0685772626474599,1
671,750,17,0.072927085881983,1
671,751,17,0.0761392050771833,1
672,723,17,0.0703306797188198,1
672,724,17,0.0679235864152647,1
672,750,17,0.0738544469582336,1
672,751,17,0.0761992825302577,1
673,750,17,0.0730753388272517,1
673,751,17,0.0749680900674468,1
674,750,17,0.0734682801110591,1
674,751,17,0.0750531868147876,1
675,751,17,0.0758470956822149,1
636,741,18,0.0752952396518953,1
637,741,18,0.0704392983164321,1
637,742,18,0.0757774166182453,1
637,743,18,0.0832572511988417,1
638,742,18,0.0701232537766496,1
638,743,18,0.0797425704495888,1
638,744,18,0.0908167438101895,1
639,743,18,0.0758010462844845,1
639,744,18,0.0904269890872032,1
639,745,18,0.102133658832136,1
640,744,18,0.0816703918281438,1
640,745,18,0.0966613935074854,1
640,746,18,0.111288947559943,1
641,744,18,0.0702575924723179,1
641,745,18,0.0848467879994024,1
641,746,18,0.098795963983525,1
642,745,18,0.0737969930270382,1
642,746,18,0.087147928155656,1
642,747,18,0.0891661592128457,1
643,733,18,0.0700852127094038,1
643,746,18,0.0799792744167468,1
643,747,18,0.0851392627707055,1
644,733,18,0.075643970399198,1
644,746,18,0.0699059207450093,1
644,747,18,0.0806445049268064,1
644,748,18,0.081057535919249,1
645,747,18,0.0769078251104251,1
645,748,18,0.0805806479250889,1
646,747,18,0.0705081507913165,1
646,748,18,0.0788993417667462,1
646,749,18,0.0747857972252866,1
647,748,18,0.0743216674539628,1
647,749,18,0.0753352813043183,1
648,749,18,0.0753343708583694,1
648,750,18,0.068768647969557,1
649,749,18,0.0694268105439608,1
649,750,18,0.069847550378089,1
660,754,18,0.068692386141786,1
661,754,18,0.0717986120874446,1
662,754,18,0.074432094963921,1
663,753,18,0.0704704631208535,1
663,754,18,0.076850574831613,1
664,753,18,0.0756227486229026,1
665,752,18,0.0706610218538654,1
665,753,18,0.0763106025168368,1
666,752,18,0.0733038008626619,1
667,751,18,0.0679224124191728,1
667,752,18,0.0737068229394428,1
668,751,18,0.0738154415370551,1
668,752,18,0.0757885695811192,1
669,751,18,0.0759085807326445,1
670,750,18,0.0687951048100584,1
670,751,18,0.0775770148624072,1
671,750,18,0.0712721047890703,1
671,751,18,0.0779287944056834,1
672,750,18,0.0723563141391202,1
672,751,18,0.0767466881570245,1
673,750,18,0.0730450664994513,1
673,751,18,0.0751459504753822,1
674,751,18,0.0748549851276258,1
637,741,19,0.0696285641682784,1
638,742,19,0.0704503734122182,1
638,743,19,0.0808661745562558,1
639,743,19,0.0776021180135373,1
639,744,19,0.0923883412316915,1
640,743,19,0.0692028528200872,1
640,744,19,0.084498248924931,1
640,745,19,0.0980743636917222,1
641,744,19,0.0732097553900077,1
641,745,19,0.0859662771299715,1
641,746,19,0.0987979765482541,1
642,745,19,0.0753161978780476,1
642,746,19,0.0874738438462527,1
643,746,19,0.0801701685772135,1
643,747,19,0.0859322971308398,1
644,746,19,0.0705878567402757,1
644,747,19,0.0813478304120956,1
644,748,19,0.0816005630197748,1
645,747,19,0.0796164377470124,1
645,748,19,0.0822028110354099,1
646,747,19,0.0742916826354094,1
646,748,19,0.0811990982847486,1
646,749,19,0.0740218552070848,1
647,748,19,0.0772369453311709,1
647,749,19,0.0748565245000526,1
648,748,19,0.069153503055792,1
648,749,19,0.0749429689469888,1
649,749,19,0.0704275104373044,1
649,750,19,0.0689155891538862,1
660,754,19,0.0687626342344736,1
661,754,19,0.0714630947859527,1
662,754,19,0.0749155357730026,1
663,753,19,0.0693970772959985,1
663,754,19,0.0782378249177939,1
664,753,19,0.0764256122054192,1
665,752,19,0.06792554507201,1
665,753,19,0.0780401024127105,1
666,752,19,0.0728123397435437,1
666,753,19,0.0759214168225686,1
667,752,19,0.0744932266175678,1
668,751,19,0.0722987523919571,1
668,752,19,0.0760191220483462,1
669,727,19,0.0681388469844161,1
669,728,19,0.0678706367956059,1
669,751,19,0.0753339276149469,1
669,752,19,0.0769870039590982,1
670,727,19,0.0734503766706563,1
670,728,19,0.0729370588589889,1
670,751,19,0.0776470772720394,1
671,726,19,0.0706007946563915,1
671,750,19,0.0680946124888075,1
671,751,19,0.0775376680239978,1
671,752,19,0.0764343333192454,1
672,750,19,0.0698775411864184,1
672,751,19,0.0760966956370568,1
673,734,19,0.0704595437592428,1
673,735,19,0.0786573608069503,1
673,736,19,0.074246232215277,1
673,750,19,0.0723807344557886,1
673,751,19,0.0747977288590378,1
674,734,19,0.0703887925253729,1
674,735,19,0.0771064281125775,1
674,736,19,0.0708945512397542,1
674,751,19,0.0748287618883876,1
639,743,20,0.0759865017283618,1
640,743,20,0.0680587397204663,1
640,744,20,0.0824680203464544,1
641,744,20,0.0729461333695978,1
641,745,20,0.0853482041261985,1
642,745,20,0.0752160488236703,1
642,746,20,0.0861170098424957,1
643,746,20,0.0779718189665442,1
643,747,20,0.0848558684997873,1
644,746,20,0.069076953718774,1
644,747,20,0.0795847218832009,1
645,740,20,0.0679973564962283,1
645,747,20,0.0781830484164614,1
645,748,20,0.0806581196876078,1
646,747,20,0.0737049421497852,1
646,748,20,0.0800741344989341,1
646,749,20,0.0713313736223875,1
647,748,20,0.0771474041700533,1
647,749,20,0.0729088050856936,1
648,748,20,0.0707903171581589,1
648,749,20,0.0736606477564168,1
649,749,20,0.0717819964488774,1
660,754,20,0.0681699698604056,1
661,754,20,0.0708147374748274,1
662,754,20,0.0745925430930839,1
664,753,20,0.0746306740069694,1
665,753,20,0.0774790460864864,1
666,728,20,0.0682922571268032,1
666,752,20,0.0711904282038138,1
666,753,20,0.0753847927925649,1
667,727,20,0.0698865498094916,1
667,728,20,0.0684631514252744,1
667,752,20,0.0739410950575531,1
668,727,20,0.0686157289888003,1
668,728,20,0.0697535528236427,1
668,751,20,0.0709397680586235,1
668,752,20,0.0751436264423021,1
669,727,20,0.0706557807998833,1
669,728,20,0.0744613610093568,1
669,729,20,0.0680371046496283,1
669,751,20,0.0743096699326759,1
669,752,20,0.0758829804301081,1
670,727,20,0.078864038027123,1
670,728,20,0.0852690013184216,1
670,729,20,0.0764567111223048,1
670,751,20,0.0763119382368802,1
670,752,20,0.0768437165381165,1
671,726,20,0.0712420301238772,1
671,730,20,0.071055346775924,1
671,751,20,0.0753591625411486,1
671,752,20,0.0754512972752653,1
672,730,20,0.0751235666825468,1
672,733,20,0.0694160648858536,1
672,734,20,0.0833974778442978,1
672,735,20,0.085884606534491,1
672,736,20,0.0746433962911499,1
672,751,20,0.0736995573411797,1
673,731,20,0.0689170626387771,1
673,733,20,0.078639906599746,1
673,734,20,0.101062423336857,1
673,735,20,0.108488499678038,1
673,736,20,0.0936188448702648,1
673,750,20,0.0701342150666921,1
673,751,20,0.0726614093684121,1
674,733,20,0.0769020869050367,1
674,734,20,0.0951659500977867,1
674,735,20,0.0983518580333007,1
674,736,20,0.0834562734853126,1
674,751,20,0.0731429993367162,1
675,734,20,0.0739396994397499,1
675,735,20,0.0707681430074828,1
681,731,20,0.0682818409063748,1
682,732,20,0.0717191756784044,1
641,744,21,0.0738052229792341,1
642,745,21,0.0776644895508118,1
643,745,21,0.0683470456076877,1
643,746,21,0.0775792610283995,1
644,746,21,0.0694532254560304,1
644,747,21,0.0788771616262941,1
645,747,21,0.0764844917032977,1
645,748,21,0.0807526024139085,1
646,747,21,0.0721333087896273,1
646,748,21,0.0793797816980622,1
647,748,21,0.0759471788490564,1
647,749,21,0.0728076976671596,1
648,748,21,0.0706582366080349,1
648,749,21,0.0727251885030419,1
649,749,21,0.0717578995801119,1
660,754,21,0.0677712843814339,1
661,754,21,0.0698452742632168,1
662,754,21,0.0726435718155452,1
664,753,21,0.0705084862187713,1
665,753,21,0.0747126500810249,1
666,752,21,0.069404528577317,1
666,753,21,0.0741229206971869,1
667,728,21,0.0697224299476532,1
667,752,21,0.0735979767303433,1
667,753,21,0.0719648104015479,1
668,728,21,0.0711841748776912,1
668,751,21,0.0684139394258268,1
668,752,21,0.0743678366472128,1
668,753,21,0.0692194145506705,1
669,728,21,0.0795052854741607,1
669,729,21,0.0746919793641196,1
669,751,21,0.071835311444871,1
669,752,21,0.0742535097930921,1
670,730,21,0.0761583064727819,1
670,751,21,0.0734030873892982,1
670,752,21,0.0743849314678583,1
671,734,21,0.0724741869406208,1
671,735,21,0.0733072629531781,1
671,751,21,0.0729180652793579,1
671,752,21,0.073194487451036,1
672,731,21,0.0713397173803269,1
672,733,21,0.0800200408320633,1
672,734,21,0.103073155194521,1
672,735,21,0.108747749161982,1
672,736,21,0.0853373386725717,1
672,751,21,0.0721421796478529,1
672,752,21,0.0714821422735675,1
673,731,21,0.0754011868094208,1
673,732,21,0.0732403930941429,1
673,733,21,0.0907730783432989,1
673,734,21,0.119830883227448,1
673,735,21,0.125240729096616,1
673,736,21,0.097570042523576,1
673,750,21,0.0695487024851437,1
673,751,21,0.0716075681825783,1
674,732,21,0.0735211698329581,1
674,733,21,0.0870403397995121,1
674,734,21,0.106922892032515,1
674,735,21,0.105592239339564,1
674,736,21,0.0831056379892485,1
674,750,21,0.0737621924285973,1
674,751,21,0.0723912045842008,1
675,733,21,0.0737789817706679,1
675,734,21,0.0803712753057254,1
675,735,21,0.0741824710499751,1
675,749,21,0.0679904862231798,1
676,733,21,0.0678254559153925,1
676,749,21,0.0724336301674636,1
677,733,21,0.067988677310834,1
677,748,21,0.0704248270176656,1
678,731,21,0.0681512877491256,1
678,733,21,0.0681085866361677,1
681,732,21,0.0703086732818711,1
643,745,22,0.0704077621459,1
643,746,22,0.0761481118740648,1
644,746,22,0.0688083122660933,1
644,747,22,0.0768750550460413,1
645,747,22,0.0741587275779924,1
645,748,22,0.0795490946956748,1
646,747,22,0.0703055885472417,1
646,748,22,0.0773852941128552,1
647,748,22,0.074343817645535,1
647,749,22,0.0725312036181697,1
648,748,22,0.0708296819658962,1
648,749,22,0.0726392951154958,1
649,749,22,0.0729135250291654,1
649,750,22,0.0683592707404619,1
650,749,22,0.0692080100172055,1
650,750,22,0.069216928793639,1
651,750,22,0.0694060439906398,1
652,751,22,0.0680280900367791,1
654,752,22,0.0689639026869368,1
655,752,22,0.0682662734786041,1
660,754,22,0.0678160399875528,1
661,754,22,0.0697781288744866,1
662,754,22,0.0717097477710127,1
664,753,22,0.0685377421055471,1
665,753,22,0.0726082141679382,1
666,753,22,0.0727637626603499,1
667,752,22,0.0719467931554015,1
667,753,22,0.0712811912792312,1
668,752,22,0.0729448934859701,1
668,753,22,0.0684654155605946,1
669,729,22,0.0766042992024398,1
669,751,22,0.0683220562623012,1
669,752,22,0.072569981427861,1
670,730,22,0.0858199229436883,1
670,751,22,0.0702598805667421,1
670,752,22,0.0724001293504102,1
671,731,22,0.0689925457956708,1
671,734,22,0.0749742295878258,1
671,735,22,0.0789380536889018,1
671,751,22,0.0703034202483371,1
671,752,22,0.0712770583338053,1
672,733,22,0.0829160615794972,1
672,734,22,0.10947200891432,1
672,735,22,0.118673478814929,1
672,736,22,0.0877094636639584,1
672,751,22,0.0700890761149105,1
672,752,22,0.069968537863099,1
673,732,22,0.0729308235021942,1
673,733,22,0.092318057200348,1
673,734,22,0.121269184174303,1
673,735,22,0.1261701266967,1
673,736,22,0.092796736137526,1
673,750,22,0.0679964640196074,1
673,751,22,0.0699731440008273,1
674,732,22,0.0739332185021401,1
674,733,22,0.0873692863167545,1
674,734,22,0.104142222390894,1
674,735,22,0.100819466043577,1
674,736,22,0.0776311863963658,1
674,750,22,0.0718555389183538,1
674,751,22,0.0712311826395783,1
675,732,22,0.0696121761411985,1
675,733,22,0.0742138634658837,1
675,734,22,0.0790263729357195,1
675,735,22,0.0723731154607427,1
675,750,22,0.0739500138339866,1
676,733,22,0.0690026505477482,1
676,749,22,0.0713424606977255,1
677,733,22,0.068597987272349,1
677,748,22,0.0717347431061752,1
677,749,22,0.072638366700219,1
678,733,22,0.0696383814111088,1
678,734,22,0.0689452565143126,1
644,746,23,0.0707088442252857,1
645,747,23,0.0737203897820364,1
646,747,23,0.0695391967106642,1
646,748,23,0.0763518181653517,1
647,748,23,0.0729434858886149,1
647,749,23,0.0717930236264557,1
648,748,23,0.0705148353813096,1
648,749,23,0.0720969867880876,1
649,749,23,0.073018567730518,1
649,750,23,0.0697185485728185,1
650,749,23,0.0707364091743434,1
650,750,23,0.0714061919141474,1
651,750,23,0.0711228874898689,1
651,751,23,0.0700750660288945,1
652,751,23,0.0696817533789764,1
653,751,23,0.0679780155095905,1
653,752,23,0.0681877894439447,1
654,752,23,0.0698298146514137,1
655,752,23,0.0694284517425792,1
661,754,23,0.0696235986439914,1
664,753,23,0.068150862475031,1
665,753,23,0.0719379702153837,1
666,753,23,0.0732358648235024,1
667,752,23,0.0715315758947264,1
667,753,23,0.0724502637753587,1
668,752,23,0.0729249595115103,1
668,753,23,0.0694821740433393,1
669,752,23,0.0726694176988967,1
670,751,23,0.0696560093218165,1
670,752,23,0.07251766073468,1
671,734,23,0.075706785179895,1
671,735,23,0.0802128936492753,1
671,751,23,0.0704610771418936,1
671,752,23,0.0711095782076424,1
672,733,23,0.0816616707143177,1
672,734,23,0.107942196170051,1
672,735,23,0.118149337478067,1
672,736,23,0.0870199625816299,1
672,751,23,0.070151471611289,1
673,732,23,0.0700481419858666,1
673,733,23,0.0868704038651976,1
673,734,23,0.113226436436929,1
673,735,23,0.118936933121612,1
673,736,23,0.0876653489638694,1
673,750,23,0.0687882584961139,1
673,751,23,0.0703220843902892,1
674,732,23,0.0705293665778359,1
674,733,23,0.0802967145743325,1
674,734,23,0.0935985395296943,1
674,735,23,0.091744404375239,1
674,736,23,0.0733020758071798,1
674,750,23,0.0717991451775068,1
675,732,23,0.0677714281360574,1
675,733,23,0.0704006163431565,1
675,734,23,0.0739042878841591,1
675,735,23,0.0693960410647541,1
675,749,23,0.068478167793655,1
675,750,23,0.0738717154823825,1
676,748,23,0.0678873482705887,1
676,749,23,0.071940815358974,1
677,733,23,0.068384367901816,1
677,734,23,0.0684965144774802,1
677,748,23,0.0730714095342091,1
678,734,23,0.0731035806209951,1
646,747,24,0.0685999399393183,1
647,748,24,0.0710997370057081,1
648,748,24,0.068733877319996,1
648,749,24,0.0710453378602623,1
649,749,24,0.0725619311689445,1
649,750,24,0.07039959808124,1
650,749,24,0.0713446769148379,1
650,750,24,0.0724092278201231,1
651,750,24,0.0714910131317932,1
651,751,24,0.0715125823150954,1
652,751,24,0.0705351047832243,1
652,752,24,0.0693155264960376,1
653,751,24,0.068964723286246,1
653,752,24,0.0697755772299193,1
654,751,24,0.0677435696879768,1
654,752,24,0.0717771806689899,1
655,752,24,0.0718118674616872,1
655,753,24,0.0691934848104552,1
664,753,24,0.068226860752659,1
665,753,24,0.0704205323482883,1
666,753,24,0.0719923813403815,1
667,752,24,0.0678754945039253,1
667,753,24,0.0718466680601282,1
668,752,24,0.0703185983406691,1
668,753,24,0.0693594255641914,1
669,752,24,0.0707887358573003,1
670,752,24,0.0710236668507684,1
671,734,24,0.0710004684483998,1
671,735,24,0.0746367476398126,1
671,751,24,0.0689873466701206,1
671,752,24,0.0695277502487674,1
672,733,24,0.0734733953797456,1
672,734,24,0.0942784569704556,1
672,735,24,0.103500873117665,1
672,736,24,0.0800719542204776,1
672,751,24,0.0687915708422305,1
673,733,24,0.0757772848431738,1
673,734,24,0.0969758507566333,1
673,735,24,0.104162300119978,1
673,736,24,0.0810815609107028,1
673,751,24,0.0686842280669019,1
674,733,24,0.0692988749188146,1
674,734,24,0.0792667007173452,1
674,735,24,0.0805971018397046,1
674,736,24,0.0694486013489742,1
674,750,24,0.0690542584575876,1
676,748,24,0.0681942943406584,1
647,748,25,0.0700566893961894,1
648,748,25,0.0683797318152078,1
648,749,25,0.0707716350468789,1
649,749,25,0.0722962187167178,1
649,750,25,0.0709251170665777,1
650,749,25,0.0710047032200173,1
650,750,25,0.0719227382150678,1
651,750,25,0.0697184407568508,1
651,751,25,0.070648269620805,1
652,751,25,0.0687819452722315,1
654,752,25,0.070704669351428,1
655,752,25,0.0706734506390228,1
655,753,25,0.0682273758733932,1
665,753,25,0.0688987339242798,1
666,753,25,0.0709364736818348,1
667,753,25,0.0711931415723325,1
668,752,25,0.0678013830057309,1
668,753,25,0.069375322429641,1
669,752,25,0.0687626581935775,1
670,752,25,0.0690709220143626,1
671,751,25,0.0682604094879202,1
671,752,25,0.0685888169253244,1
672,734,25,0.0766491686143022,1
672,735,25,0.0837583858061668,1
672,736,25,0.0694684155279144,1
672,751,25,0.0683973357668116,1
672,752,25,0.0681748515278289,1
673,734,25,0.0784503361797707,1
673,735,25,0.0859967231612753,1
673,736,25,0.0720650912309967,1
673,751,25,0.0681730965234669,1
674,735,25,0.0702142085248983,1
674,750,25,0.0677690442052176,1
675,750,25,0.0684970295982145,1
647,748,26,0.0690663338459623,1
648,748,26,0.068641514974392,1
648,749,26,0.0696724272977763,1
649,748,26,0.0693219295665597,1
649,749,26,0.0717934968187581,1
649,750,26,0.0704741887615127,1
650,749,26,0.0707260887903307,1
650,750,26,0.0705068869485848,1
654,752,26,0.0683023798482085,1
655,752,26,0.0679092409017938,1
666,753,26,0.0689523543988484,1
667,753,26,0.0696308462729266,1
668,753,26,0.0689893831939536,1
672,751,26,0.0687102835924127,1
673,735,26,0.068403355491671,1
674,749,26,0.0706122830467202,1
674,750,26,0.0698126599330084,1
674,751,26,0.0697453468305508,1
675,749,26,0.0702109141481096,1
675,750,26,0.069522006053603,1
675,751,26,0.0696227960140101,1
676,750,26,0.0677608621712296,1
647,747,27,0.068675716595235,1
648,747,27,0.0679995427644608,1
648,748,27,0.071898144194896,1
649,748,27,0.0733323720940841,1
649,749,27,0.0727449188251184,1
650,748,27,0.069963578328588,1
650,749,27,0.071650047673825,1
650,750,27,0.071130153088132,1
673,750,27,0.0678164772411993,1
674,748,27,0.0685453371414892,1
674,749,27,0.0747989507733376,1
674,750,27,0.0722097083822458,1
674,751,27,0.0705335115028137,1
675,748,27,0.0684307647065532,1
675,749,27,0.0742162593762755,1
675,750,27,0.0718516635332951,1
675,751,27,0.0707218300596093,1
676,750,27,0.0681434770812483,1
648,747,28,0.0708919756360831,1
649,747,28,0.0694677985809885,1
649,748,28,0.0764544110483287,1
650,748,28,0.0713922417258912,1
650,749,28,0.0706669337627572,1
673,750,28,0.0680968227161439,1
674,749,28,0.0751427339656812,1
674,750,28,0.0732422858633524,1
674,751,28,0.0708760847604094,1
675,749,28,0.0748790460577355,1
675,750,28,0.0727480694472836,1
650,748,29,0.068820070196341,1
672,746,29,0.0720112850733728,1
672,747,29,0.071464478424204,1
674,749,29,0.0701068956984496,1
674,750,29,0.0703201856313037,1
675,749,29,0.0699689571474176,1
672,747,30,0.0701162517285295,1
