x,y,z,signal,cytoplasm.p
678,825,23,0.129037156928393,1
677,824,24,0.131758467890057,1
677,825,24,0.192435976722101,1
678,824,24,0.152266238929576,1
678,825,24,0.230753795577284,2
678,826,24,0.183300346439059,1
679,824,24,0.132787679117063,1
679,825,24,0.197742798444422,1
679,826,24,0.160057452014467,1
680,824,24,0.0811419258730242,1
680,825,24,0.110769765757591,1
680,826,24,0.097708843602349,1
681,825,24,0.0687394418218809,1
681,826,24,0.0720571967062557,1
698,815,24,0.0762059611304749,1
699,815,24,0.15697117202282,1
699,816,24,0.109798140236852,1
700,817,24,0.0755324886886675,1
676,824,25,0.0929956625875813,1
676,825,25,0.138576198623655,1
677,824,25,0.168993982143951,1
677,825,25,0.290115542299463,2
677,826,25,0.223459518266756,1
678,824,25,0.205442631506969,2
678,825,25,0.361378326997109,2
678,826,25,0.274805195713774,2
678,827,25,0.114008808995819,1
679,824,25,0.151858790408347,1
679,825,25,0.258634405829077,2
679,826,25,0.198635730288342,1
679,827,25,0.0952328738648057,1
680,824,25,0.0770877999092812,1
680,825,25,0.110743842007152,1
680,826,25,0.0935163178748236,1
680,827,25,0.0688237299494645,1
699,814,25,0.0918369703732263,1
699,815,25,0.112085635683424,1
699,816,25,0.0877003172760377,1
700,813,25,0.0690308683823877,1
700,814,25,0.115088945298203,1
700,815,25,0.149721266972749,1
700,816,25,0.117514349346928,1
700,817,25,0.0691947845918428,1
701,815,25,0.111054543666761,1
701,816,25,0.0911994605463998,1
676,824,26,0.0866286744759928,1
676,825,26,0.140513723439297,2
677,824,26,0.177643661901776,2
677,825,26,0.344894655174347,2
677,826,26,0.263152973032495,2
678,824,26,0.230440769884595,2
678,825,26,0.453602907753521,2
678,826,26,0.348716323922102,2
678,827,26,0.13283108103381,2
679,824,26,0.148676781816995,1
679,825,26,0.290018483969491,2
679,826,26,0.222619368328767,2
679,827,26,0.096646892259839,1
680,825,26,0.10197340836558,1
680,826,26,0.0856785821999,1
699,815,26,0.0755599637910854,1
700,814,26,0.0829888613167521,1
700,815,26,0.100509147729631,1
700,816,26,0.085119825947652,1
701,814,26,0.0746830366285822,1
701,815,26,0.087847809519757,1
701,816,26,0.0755065829075561,1
676,824,27,0.0835492767369464,1
676,825,27,0.130769951201056,2
677,824,27,0.169277394384197,2
677,825,27,0.340392643711737,2
677,826,27,0.273525899360071,2
678,824,27,0.234181840206769,2
678,825,27,0.48052158394211,2
678,826,27,0.393200904657429,2
678,827,27,0.15741121690493,2
679,824,27,0.148916875997358,1
679,825,27,0.307530193023166,2
679,826,27,0.253472872112916,2
679,827,27,0.112211732447345,1
680,824,27,0.0691738143861385,1
680,825,27,0.108518831903598,1
680,826,27,0.0959815838826916,1
676,824,28,0.0800713372735517,1
676,825,28,0.118194847795959,1
677,824,28,0.148553871613896,1
677,825,28,0.298386656235831,2
677,826,28,0.264585248264714,2
678,824,28,0.214242307234873,2
678,825,28,0.448121064777079,2
678,826,28,0.404698351527398,2
678,827,28,0.184677491773162,2
679,824,28,0.146177308198508,1
679,825,28,0.307715253141829,2
679,826,28,0.282281370541247,2
679,827,28,0.137590293476981,1
680,824,28,0.0733363612848865,1
680,825,28,0.119012883481032,1
680,826,28,0.112577971309836,1
680,827,28,0.0729001618389551,1
681,792,28,0.076993185407909,1
682,791,28,0.0801094262590054,1
682,792,28,0.0790792806269465,1
682,793,28,0.0768375350893056,1
686,790,28,0.0813043626078124,1
687,790,28,0.0872944919840984,1
687,791,28,0.0792406511816103,1
676,824,29,0.0751074721544898,1
676,825,29,0.101325122931766,1
677,824,29,0.118823762294255,1
677,825,29,0.222810993241903,2
677,826,29,0.218973415649147,2
678,824,29,0.172107875002863,2
678,825,29,0.348743541464152,2
678,826,29,0.346798421612568,2
678,827,29,0.182913610563166,2
679,824,29,0.130587598461136,1
679,825,29,0.262401735329146,2
679,826,29,0.263559726739711,2
679,827,29,0.144297848271212,1
679,828,29,0.068282356027109,1
680,792,29,0.0679550207596052,1
680,824,29,0.0744033500289953,1
680,825,29,0.116305133372185,1
680,826,29,0.116395375337093,1
680,827,29,0.0775581290987438,1
681,791,29,0.0750343908977639,1
681,792,29,0.0756930925520059,1
681,793,29,0.0705416635879218,1
682,790,29,0.0698047115002836,1
682,791,29,0.0748501274193065,1
682,792,29,0.0761073274894204,1
682,793,29,0.0713798728384935,1
683,791,29,0.0711111415391731,1
683,792,29,0.0691915561025898,1
684,789,29,0.0760888789794035,1
684,790,29,0.0718010738853722,1
684,791,29,0.0694925962535437,1
685,789,29,0.076463365763418,1
685,790,29,0.0738139381032843,1
685,791,29,0.0714126069642215,1
686,789,29,0.0831444277784918,1
686,790,29,0.07956453633815,1
686,791,29,0.0738811134408944,1
687,789,29,0.0892701357340739,1
687,790,29,0.0840776408658744,1
687,791,29,0.0754711833315172,1
688,790,29,0.083341910692536,1
688,791,29,0.0769251535323338,1
695,834,29,0.0707208896647805,1
695,836,29,0.151330204657707,1
695,837,29,0.138270408580349,1
696,836,29,0.128676368762044,1
696,837,29,0.122060493478955,1
676,825,30,0.0807613594663905,1
676,826,30,0.0850922190701625,1
677,824,30,0.084360615852474,1
677,825,30,0.142948495497653,1
677,826,30,0.153089389883335,1
677,827,30,0.102189914808135,1
678,824,30,0.119778340912556,1
678,825,30,0.227686670889219,2
678,826,30,0.244735418177887,2
678,827,30,0.147990030041841,1
678,828,30,0.0749932531163367,1
679,824,30,0.102080062316671,1
679,825,30,0.189328265312,1
679,826,30,0.201687976372873,1
679,827,30,0.12288013442399,1
680,825,30,0.0975813512206253,1
680,826,30,0.100384380695977,1
680,827,30,0.069792318653782,1
681,791,30,0.0709342454851704,1
681,792,30,0.0731729901450455,1
682,791,30,0.0694265410040417,1
682,792,30,0.0718790128504175,1
684,788,30,0.067932277580211,1
684,789,30,0.0684254397957074,1
685,788,30,0.0713001010019985,1
685,789,30,0.0708730539337638,1
685,790,30,0.0684917286464726,1
686,788,30,0.076908735556374,1
686,789,30,0.0784729775329732,1
686,790,30,0.0753676380741596,1
687,788,30,0.0819884070042236,1
687,789,30,0.0853608006250834,1
687,790,30,0.0812225841963642,1
687,791,30,0.0700780369577803,1
688,789,30,0.0847082325014445,1
688,790,30,0.0815646543127777,1
688,791,30,0.0727576590786268,1
689,790,30,0.0796727895594275,1
693,835,30,0.0837785354125619,1
694,834,30,0.0772881758851236,1
694,835,30,0.140256762049776,1
694,836,30,0.183846937456293,1
694,837,30,0.163240610642806,1
695,834,30,0.0901334481357757,1
695,835,30,0.18438535841909,1
695,836,30,0.256061341822906,1
695,837,30,0.231342566596965,1
695,838,30,0.136806854737965,1
696,834,30,0.0792724089738536,1
696,835,30,0.16003264236236,1
696,836,30,0.224207305859141,1
696,837,30,0.208124469844928,1
696,838,30,0.126861885924573,1
697,836,30,0.130521123927315,1
697,837,30,0.123564238718161,1
674,826,31,0.0717744792800232,1
676,826,31,0.0699209970111497,1
676,831,31,0.076037295028668,1
677,825,31,0.0882947666033475,1
677,826,31,0.096463377503379,1
677,827,31,0.0761535086622224,1
677,831,31,0.0740346972867848,1
677,832,31,0.0762893687609894,1
678,824,31,0.0799612511808244,1
678,825,31,0.130137203246133,1
678,826,31,0.14208153532238,1
678,827,31,0.0993968702893407,1
678,833,31,0.0705572489850205,1
679,824,31,0.0768515751242016,1
679,825,31,0.121720346080631,1
679,826,31,0.129175125428305,1
679,827,31,0.0886019462746804,1
680,825,31,0.0769471839283864,1
680,826,31,0.0783122898127711,1
686,788,31,0.0694038337633034,1
686,789,31,0.0719984549732247,1
686,790,31,0.0695766208309841,1
687,788,31,0.0750459092369725,1
687,789,31,0.0795112932194682,1
687,790,31,0.0771899675181636,1
688,788,31,0.0781328600835291,1
688,789,31,0.0828673048030241,1
688,790,31,0.0810387280226734,1
688,791,31,0.0703756928853058,1
689,789,31,0.0824576520442339,1
689,791,31,0.0716584513295242,1
693,835,31,0.0884708001296092,1
693,836,31,0.107260367990752,1
694,834,31,0.0832107345985849,1
694,835,31,0.165012637948135,1
694,836,31,0.225811942884946,1
694,837,31,0.202368414924145,1
695,834,31,0.0998129860164128,1
695,835,31,0.227696877467488,1
695,836,31,0.328988565469737,3
695,837,31,0.299235503328542,1
695,838,31,0.169530977540065,1
696,834,31,0.0911645940604231,1
696,835,31,0.20824678107043,1
696,836,31,0.302199627828863,1
696,837,31,0.278829079298596,1
696,838,31,0.159561857949923,1
697,836,31,0.165093380128338,1
697,837,31,0.153094037949496,1
669,802,32,0.0861714209674935,1
670,800,32,0.0884842651460111,1
673,827,32,0.0717939280826286,1
673,828,32,0.0679406153483745,1
675,831,32,0.0726343415707608,1
676,831,32,0.0741768765992103,1
676,832,32,0.0753873084984762,1
676,833,32,0.0723685871901022,1
677,831,32,0.0738487027630693,1
677,832,32,0.0767276286898577,1
677,833,32,0.0726151742876264,1
678,825,32,0.0730963090329559,1
678,826,32,0.0758985718169827,1
678,833,32,0.0683433559056843,1
678,834,32,0.0684695365264685,1
679,825,32,0.0726443025682147,1
679,826,32,0.0727381563680375,1
687,789,32,0.0729248037773348,1
687,790,32,0.0721637428413791,1
688,789,32,0.0796351977253802,1
688,790,32,0.0793463108298887,1
693,835,32,0.083787573984515,1
693,836,32,0.105328437625875,1
693,837,32,0.0963051276220005,1
694,834,32,0.0804068845239235,1
694,835,32,0.16236341993016,1
694,836,32,0.231587931780189,3
694,837,32,0.210737234086291,1
695,834,32,0.0985906224833956,1
695,835,32,0.233193670924774,3
695,836,32,0.349692873038696,3
695,837,32,0.318711930780807,3
695,838,32,0.179290407052717,1
696,834,32,0.0939422688140541,1
696,835,32,0.224665140375911,1
696,836,32,0.335836005492193,3
696,837,32,0.304599874818474,1
696,838,32,0.169342359494471,1
697,835,32,0.127715213369717,1
697,836,32,0.181413578985067,1
697,837,32,0.162601956768768,1
668,802,33,0.0723576079307317,1
669,800,33,0.10255838186729,1
669,801,33,0.0794674480592982,1
669,802,33,0.0699051899923398,1
670,798,33,0.0864656207942788,1
670,799,33,0.0837918147459084,1
670,800,33,0.0721212873092364,1
674,831,33,0.0702673677867164,1
675,831,33,0.0713777704271247,1
675,832,33,0.0731951583059457,1
675,833,33,0.0747384899746005,1
676,831,33,0.0700747845094234,1
676,832,33,0.071807273303511,1
676,833,33,0.0691277649884081,1
676,834,33,0.0678496066921419,1
677,831,33,0.0688007471790311,1
677,832,33,0.0737591675917277,1
677,833,33,0.070684513755257,1
693,835,33,0.0717461117009842,1
693,836,33,0.0915168827346576,1
693,837,33,0.0866253321809963,1
694,834,33,0.0692345686838986,1
694,835,33,0.13244906510139,1
694,836,33,0.18980090655499,1
694,837,33,0.176292009054241,1
694,838,33,0.111141443336671,1
695,834,33,0.0855973248989621,1
695,835,33,0.194502593189653,1
695,836,33,0.293829730507041,3
695,837,33,0.268753126064084,1
695,838,33,0.154293215059696,1
696,834,33,0.0842490802339597,1
696,835,33,0.194815918371141,1
696,836,33,0.291851786683089,1
696,837,33,0.261298825898488,1
696,838,33,0.146357684312355,1
697,835,33,0.116800895150457,1
697,836,33,0.165417450967933,1
697,837,33,0.145359500124923,1
669,798,34,0.114108946070645,1
669,799,34,0.0915569483461845,1
670,797,34,0.0750342531329164,1
670,798,34,0.0789734592547166,1
674,832,34,0.0686627547200153,1
674,833,34,0.0741992304431658,1
675,832,34,0.069145919999402,1
675,833,34,0.0721719488344711,1
675,834,34,0.077191327197311,1
693,836,34,0.0700116882092554,1
693,837,34,0.0701717649723076,1
694,835,34,0.0919058168583347,1
694,836,34,0.127249304634927,1
694,837,34,0.122200606318667,1
694,838,34,0.082677069517915,1
695,835,34,0.134372118618265,1
695,836,34,0.19721792635489,1
695,837,34,0.182135406888357,1
695,838,34,0.109063530151622,1
696,835,34,0.138388323310282,1
696,836,34,0.201017624604351,1
696,837,34,0.178997902332534,1
696,838,34,0.103290763755856,1
697,835,34,0.0904467912865914,1
697,836,34,0.122727634727552,1
697,837,34,0.107238876674538,1
667,824,35,0.0796477043776254,1
668,799,35,0.0701439244935549,1
669,797,35,0.0831812469314378,1
669,798,35,0.0840802464184254,1
669,799,35,0.0682070825123746,1
670,797,35,0.0699653033840701,1
670,798,35,0.0685082005304162,1
674,833,35,0.0680426931106172,1
675,834,35,0.076085506735527,1
694,788,35,0.090572582571937,1
694,836,35,0.0759520784858076,1
694,837,35,0.0758025976364631,1
695,835,35,0.0795400441441698,1
695,836,35,0.109507911631541,1
695,837,35,0.10260742615301,1
695,838,35,0.0683001636310961,1
696,835,35,0.0825126501672777,1
696,836,35,0.112781623693139,1
696,837,35,0.100881352408997,1
697,836,35,0.0754413901857952,1
667,823,36,0.071117017509409,1
667,824,36,0.0936605456906341,1
667,825,36,0.0839147489081118,1
668,823,36,0.0722448204490377,1
668,824,36,0.095466277465399,1
693,786,36,0.0885752079147079,1
693,787,36,0.0802972836030506,1
694,786,36,0.101123926356615,1
694,787,36,0.0876419588886694,1
694,788,36,0.0690438721860392,1
695,786,36,0.0827014958243595,1
695,787,36,0.0722680188514063,1
696,786,36,0.0713176330762905,1
667,823,37,0.0729100030408895,1
667,824,37,0.0951515926047638,1
667,825,37,0.0832526091224576,1
668,823,37,0.0716958035725324,1
668,824,37,0.0937268465209512,1
668,825,37,0.0842138124329924,1
694,785,37,0.0718288005583813,1
694,786,37,0.0714590217382867,1
694,787,37,0.068277983490644,1
695,785,37,0.0757643169781781,1
695,786,37,0.0730436409327682,1
696,785,37,0.0794568162069346,1
696,786,37,0.0738782323586482,1
697,786,37,0.075757626398409,1
711,792,37,0.0726800974694682,1
711,793,37,0.0749551401717791,1
711,794,37,0.0749735287840362,1
711,795,37,0.0713477616494674,1
712,793,37,0.0769164264287317,1
712,794,37,0.0801198245101058,1
712,795,37,0.0780847502028617,1
712,796,37,0.06875258339038,1
713,795,37,0.0716473762337381,1
664,813,38,0.0688326726850019,1
664,814,38,0.0901560176116664,1
665,813,38,0.0770922982310419,1
665,814,38,0.10386224828206,1
665,815,38,0.101715919875773,1
666,814,38,0.080738430603941,1
666,815,38,0.0810954631807512,1
667,824,38,0.0840014149767592,1
667,825,38,0.073461565572186,1
668,824,38,0.0803237823719839,1
668,825,38,0.0719356102436478,1
671,796,38,0.0687486960257693,1
695,784,38,0.0752290765864257,1
695,785,38,0.0724621055624702,1
695,786,38,0.068857476347333,1
696,784,38,0.0782811669367816,1
696,785,38,0.077563615733541,1
696,786,38,0.0724746661226992,1
697,785,38,0.0791845329704583,1
697,786,38,0.0707295688501748,1
711,792,38,0.0698907366629013,1
711,793,38,0.0688299653062592,1
711,794,38,0.0684402824605846,1
712,792,38,0.0701449128065915,1
712,793,38,0.0710577666454197,1
712,794,38,0.0710253379982667,1
712,795,38,0.0684504471104218,1
663,814,39,0.0775886170584795,1
664,813,39,0.114352670055251,1
664,814,39,0.180629433452487,1
664,815,39,0.150309894237807,1
665,813,39,0.141058325850905,1
665,814,39,0.224727122577747,1
665,815,39,0.189151447125085,1
665,816,39,0.0857294952957258,1
666,813,39,0.0996023375747656,1
666,814,39,0.149432020690699,1
666,815,39,0.128012773460826,1
666,816,39,0.0685199225220081,1
695,784,39,0.0728256130871142,1
695,785,39,0.0708379658260759,1
696,784,39,0.0760690588106873,1
696,785,39,0.0768747974856741,1
696,786,39,0.0735923583204745,1
697,784,39,0.0766491865836302,1
697,785,39,0.0769445604065074,1
697,786,39,0.0720339384061273,1
698,785,39,0.0724753968753687,1
699,785,39,0.0682560129923512,1
712,792,39,0.0682774623801338,1
718,798,39,0.0697094021848978,1
663,814,40,0.094244758490795,1
663,815,40,0.072660576789551,1
664,813,40,0.154737884048862,1
664,814,40,0.270652939250159,1
664,815,40,0.200872324618641,1
664,816,40,0.0720000362740833,1
665,805,40,0.0717414396757202,1
665,806,40,0.0800307265924107,1
665,807,40,0.0728733815505508,1
665,813,40,0.210914267905142,1
665,814,40,0.36207184721912,4
665,815,40,0.272464702729335,1
665,816,40,0.0968103232974397,1
666,805,40,0.0813417747485804,1
666,806,40,0.0916126951912258,1
666,807,40,0.0808560458450745,1
666,813,40,0.133567080747068,1
666,814,40,0.222685878801244,1
666,815,40,0.167708660075613,1
666,816,40,0.069257263945085,1
667,805,40,0.0718250150199622,1
667,806,40,0.0773773396903545,1
667,807,40,0.0680287608916888,1
667,814,40,0.0733073408202658,1
681,840,40,0.0699873757085546,1
695,784,40,0.0695719308363922,1
696,784,40,0.0757623882703127,1
696,785,40,0.0753828880438034,1
696,786,40,0.0719140171012417,1
697,784,40,0.0770909086030146,1
697,785,40,0.0757651435672633,1
697,786,40,0.0723695635235868,1
697,787,40,0.0694800896012985,1
698,784,40,0.0773750336266023,1
698,785,40,0.0735339280557944,1
698,786,40,0.068017308440016,1
699,785,40,0.0702830490202308,1
714,793,40,0.0679239637711515,1
718,797,40,0.0740765897799855,1
663,814,41,0.101184447053112,1
663,815,41,0.0737849236284395,1
664,813,41,0.169257089043626,1
664,814,41,0.305754176527036,4
664,815,41,0.213954965701584,1
664,816,41,0.076130831370364,1
665,804,41,0.0707246153054398,1
665,805,41,0.115947843235008,1
665,806,41,0.139525530198198,1
665,807,41,0.0992320017055048,1
665,812,41,0.0789685715975173,1
665,813,41,0.249064948051392,4
665,814,41,0.435865264349898,4
665,815,41,0.31376775405539,4
665,816,41,0.109397963303661,1
666,804,41,0.08499127337558,1
666,805,41,0.150749435978735,1
666,806,41,0.183259496166879,1
666,807,41,0.124474121628104,1
666,813,41,0.152597617295866,1
666,814,41,0.264615796122209,4
666,815,41,0.190738785677861,1
666,816,41,0.076927136148183,1
667,804,41,0.0756588849413869,1
667,805,41,0.11492161491644,1
667,806,41,0.135424677992039,1
667,807,41,0.0941099346232723,1
667,814,41,0.0900870393514865,1
667,815,41,0.075629343366256,1
681,840,41,0.0695472529593566,1
682,841,41,0.0687977822399213,1
695,783,41,0.0707745400882289,1
695,784,41,0.06923882741462,1
696,784,41,0.0772834978700836,1
696,785,41,0.0745501893871328,1
697,784,41,0.0786893581902328,1
697,785,41,0.0749316243112836,1
697,786,41,0.0685250318009186,1
698,784,41,0.0794113358379222,1
698,785,41,0.0738323446848693,1
699,784,41,0.0763772747132646,1
699,785,41,0.0705178961568351,1
714,792,41,0.0684117232087144,1
714,793,41,0.0720991071687843,1
715,793,41,0.0715538458818182,1
718,797,41,0.0680570266445361,1
719,796,41,0.069640669505533,1
720,796,41,0.0703248756258956,1
663,814,42,0.0954145797089199,1
663,815,42,0.0703922366465611,1
664,805,42,0.0686691218518816,1
664,806,42,0.0777250222268607,1
664,813,42,0.159788558991195,1
664,814,42,0.280341401897005,4
664,815,42,0.200175941283712,1
664,816,42,0.0801001660653411,1
665,804,42,0.0829072925474632,1
665,805,42,0.169622896642247,1
665,806,42,0.217078106774609,1
665,807,42,0.131246030575458,1
665,812,42,0.090989309256159,1
665,813,42,0.248620866060271,4
665,814,42,0.425319281414722,4
665,815,42,0.317448399517483,4
665,816,42,0.123810873733893,1
666,803,42,0.0710070572019773,1
666,804,42,0.112847331535634,1
666,805,42,0.253782854999407,1
666,806,42,0.324177697198519,5
666,807,42,0.190724625847445,1
666,812,42,0.0773465582315958,1
666,813,42,0.165016519322969,1
666,814,42,0.276952410606906,4
666,815,42,0.210354415523889,1
666,816,42,0.0927393001756586,1
667,802,42,0.0710042899254747,1
667,803,42,0.0758232384044885,1
667,804,42,0.0933432792365518,1
667,805,42,0.179218841209314,1
667,806,42,0.226975756357764,1
667,807,42,0.133331934121665,1
667,813,42,0.0880828183803128,1
667,814,42,0.117886841535541,1
667,815,42,0.0985592180879351,1
668,805,42,0.0683759163279089,1
668,806,42,0.0782675222271003,1
673,836,42,0.0717752519611245,1
673,837,42,0.0763893740607432,1
680,840,42,0.067744066839383,1
681,841,42,0.0760230992595966,1
693,783,42,0.0678354947799342,1
694,783,42,0.0702307283270498,1
695,783,42,0.0732248196765962,1
695,784,42,0.0690783373570252,1
696,783,42,0.0775926661470416,1
696,784,42,0.0788377129616931,1
696,785,42,0.0727535500923048,1
697,784,42,0.0803487297889385,1
697,785,42,0.0750507070475321,1
698,784,42,0.0789640253575489,1
698,785,42,0.0738973337542469,1
699,784,42,0.07417112641427,1
699,785,42,0.0692599833033797,1
714,792,42,0.0694323211378619,1
714,793,42,0.0720961781683303,1
715,792,42,0.068336731213451,1
715,793,42,0.0709462969144412,1
718,795,42,0.0720673014583331,1
718,796,42,0.0702384191994075,1
719,795,42,0.0784045802810633,1
719,796,42,0.082754523311106,1
719,797,42,0.068228016779423,1
720,795,42,0.0736969278295247,1
720,796,42,0.0841276315361993,1
720,797,42,0.0720709073034728,1
721,796,42,0.0689669335135825,1
722,801,42,0.06893726016338,1
663,814,43,0.0862988354821295,1
663,815,43,0.0703502782658247,1
664,805,43,0.0762156585777857,1
664,806,43,0.0888194110813922,1
664,812,43,0.0688244127839262,1
664,813,43,0.134417053917663,1
664,814,43,0.213941572562494,4
664,815,43,0.167908191493042,1
664,816,43,0.0841766159241597,1
665,804,43,0.0973526495941759,1
665,805,43,0.20503604551348,1
665,806,43,0.271786803843079,5
665,807,43,0.153334048272994,1
665,812,43,0.102301863721192,1
665,813,43,0.225202135772025,4
665,814,43,0.351862561571303,4
665,815,43,0.283103119887427,4
665,816,43,0.132885516117912,1
666,802,43,0.0723055627672458,1
666,803,43,0.0814254339496861,1
666,804,43,0.144380063936306,1
666,805,43,0.339899277843857,5
666,806,43,0.443918590031652,5
666,807,43,0.24772805401187,5
666,808,43,0.0774732779322182,1
666,812,43,0.101431513332714,1
666,813,43,0.196166265447512,1
666,814,43,0.283179190042366,4
666,815,43,0.224157926145966,1
666,816,43,0.11027167994624,1
667,801,43,0.077244228898762,1
667,802,43,0.0890143183917653,1
667,803,43,0.089809269480213,1
667,804,43,0.11605059185216,1
667,805,43,0.239716249457206,1
667,806,43,0.313155934377739,5
667,807,43,0.171064815413792,1
667,812,43,0.0858103991998809,1
667,813,43,0.144640523354999,1
667,814,43,0.175093922083269,1
667,815,43,0.135288206936122,1
667,816,43,0.0741614229771832,1
668,801,43,0.0782555247058133,1
668,802,43,0.0785143848543195,1
668,803,43,0.068847257789512,1
668,805,43,0.0892108369518768,1
668,806,43,0.107716717043079,1
668,813,43,0.0822437930826617,1
668,814,43,0.0902813836229174,1
668,815,43,0.0688680423121609,1
672,837,43,0.0687346080726655,1
673,836,43,0.0776555647846024,1
673,837,43,0.0809921515246567,1
673,838,43,0.0754830610572846,1
673,839,43,0.0719896619820868,1
674,836,43,0.0749034424153,1
674,837,43,0.0789519200202943,1
693,783,43,0.076454315211913,1
693,784,43,0.0690158999322149,1
694,783,43,0.0814478896198332,1
694,784,43,0.0703892537381234,1
695,783,43,0.0811684845397173,1
695,784,43,0.0747755008003778,1
696,783,43,0.0812512093357703,1
696,784,43,0.0822303280662598,1
696,785,43,0.0748218556766832,1
697,783,43,0.0792594171497541,1
697,784,43,0.0824061639299141,1
697,785,43,0.0769685973775132,1
698,784,43,0.0792435023149765,1
698,785,43,0.075633733872049,1
699,784,43,0.0726508733524642,1
699,785,43,0.0702416297193325,1
718,795,43,0.0775544513762924,1
718,796,43,0.0714091029452735,1
719,794,43,0.0713533920388881,1
719,795,43,0.0960122754948106,1
719,796,43,0.0951242432876414,1
719,797,43,0.0706712284321344,1
720,795,43,0.0888599858238774,1
720,796,43,0.0960228833880703,1
720,797,43,0.0762477997156917,1
721,796,43,0.0715975772362445,1
722,801,43,0.0761679560018849,1
723,801,43,0.0716890710643314,1
663,814,44,0.0734513050859332,1
664,806,44,0.0906953669897408,1
664,807,44,0.0691991810874117,1
664,813,44,0.103076377693998,1
664,814,44,0.142277436935565,1
664,815,44,0.124483154210281,1
664,816,44,0.0778220386284007,1
665,804,44,0.0991739248376076,1
665,805,44,0.197067019938862,5
665,806,44,0.262813712121016,5
665,807,44,0.149041678969667,1
665,808,44,0.0694942793805939,1
665,812,44,0.104362190923966,1
665,813,44,0.207353897144717,1
665,814,44,0.279439102043453,4
665,815,44,0.227038002109743,1
665,816,44,0.120034487692544,1
666,802,44,0.0735300466809597,1
666,803,44,0.0827467485818846,1
666,804,44,0.156899138976891,5
666,805,44,0.353869304238164,5
666,806,44,0.458888333996042,5
666,807,44,0.253178726194115,5
666,808,44,0.0844370094553166,1
666,812,44,0.126090175166925,1
666,813,44,0.259604294314783,6
666,814,44,0.321706770852351,6
666,815,44,0.234174604557386,6
666,816,44,0.111576804213966,1
667,801,44,0.0891507355396985,1
667,802,44,0.0993792004502011,1
667,803,44,0.0944984973808387,1
667,804,44,0.134561395539217,1
667,805,44,0.270971164068398,5
667,806,44,0.345956043477915,5
667,807,44,0.183464142852995,5
667,812,44,0.109025351319528,1
667,813,44,0.223027966886985,1
667,814,44,0.257754459819481,6
667,815,44,0.17367448893075,1
667,816,44,0.0798060860340754,1
668,801,44,0.0959482807282456,1
668,802,44,0.0966292224206994,1
668,803,44,0.0772413777653957,1
668,804,44,0.076952856246239,1
668,805,44,0.113726019692275,1
668,806,44,0.134101344805336,5
668,807,44,0.07777491706077,1
668,813,44,0.107981441182269,1
668,814,44,0.121346560100406,1
668,815,44,0.0813522688360964,1
669,801,44,0.0691860514984647,1
672,838,44,0.0684029421971284,1
672,839,44,0.0714914443956637,1
673,835,44,0.0688505521663007,1
673,836,44,0.0807824135289585,1
673,837,44,0.0825190771969037,1
673,838,44,0.0763014501391401,1
673,839,44,0.0738033541691285,1
673,840,44,0.0726365697674251,1
674,836,44,0.0798556514303058,1
674,837,44,0.0839280641801142,1
674,838,44,0.0754857384871474,1
674,839,44,0.0693630913070908,1
675,837,44,0.0694676009183812,1
693,783,44,0.0882606488393683,1
693,784,44,0.0875335499332164,1
693,785,44,0.0704679114762862,1
694,783,44,0.105812986543513,1
694,784,44,0.106891170178928,1
694,785,44,0.083516081398468,1
695,783,44,0.103114891953546,1
695,784,44,0.107161548666642,1
695,785,44,0.0865627510015624,1
696,783,44,0.0908143119611418,1
696,784,44,0.0950954983527158,1
696,785,44,0.0820683225953421,1
697,783,44,0.082646395875124,1
697,784,44,0.0841834143198964,1
697,785,44,0.0769845301816186,1
698,783,44,0.0791178068660467,1
698,784,44,0.0781418447474984,1
698,785,44,0.0752132635778398,1
699,784,44,0.0702716983947496,1
699,785,44,0.0704048990329818,1
718,795,44,0.075681945578908,1
719,794,44,0.0748229098772556,1
719,795,44,0.103204499002199,1
719,796,44,0.0959219496730397,1
719,797,44,0.0686389154116169,1
720,795,44,0.0970909502918554,1
720,796,44,0.0972175082685263,1
720,797,44,0.0748410948371294,1
721,796,44,0.0686957583856624,1
722,801,44,0.0727133347363785,1
723,801,44,0.0782995435694867,1
723,802,44,0.0723552419692198,1
664,813,45,0.0819883830451197,1
664,814,45,0.0996549397874176,1
664,815,45,0.0920220185123371,1
664,816,45,0.0696038982707948,1
665,806,45,0.205023419065716,5
665,807,45,0.12887074897213,1
665,808,45,0.0720125369365526,1
665,812,45,0.102243571221359,1
665,813,45,0.207112221663496,6
665,814,45,0.252495340673061,6
665,815,45,0.184168205080729,1
665,816,45,0.100370047162059,1
666,804,45,0.147529967328408,1
666,805,45,0.295114441618229,5
666,806,45,0.362600768397214,5
666,807,45,0.210682200024592,5
666,808,45,0.0863513897765737,1
666,812,45,0.151367556900715,6
666,813,45,0.346060313498166,6
666,814,45,0.40897821417848,6
666,815,45,0.259215462017297,6
666,816,45,0.109700626683906,1
667,801,45,0.0900803487717174,1
667,802,45,0.0957754816810129,1
667,803,45,0.092000107911804,1
667,804,45,0.142578710687782,1
667,805,45,0.26204646973625,1
667,806,45,0.308699565008093,5
667,807,45,0.171209875808464,1
667,808,45,0.0722308642710054,1
667,812,45,0.131722157868069,1
667,813,45,0.308397800094246,6
667,814,45,0.359381647153893,6
667,815,45,0.216671904126783,6
667,816,45,0.0857069497789389,1
668,800,45,0.0711782989074553,1
668,801,45,0.104022390932648,1
668,802,45,0.103366210974094,1
668,803,45,0.0823520882323711,1
668,804,45,0.0911905417699663,1
668,805,45,0.134053845881818,1
668,806,45,0.145564074933727,1
668,807,45,0.0866179887156454,1
668,813,45,0.134829270300573,1
668,814,45,0.157680493273865,6
668,815,45,0.0977102631792562,1
669,801,45,0.0749055388368928,1
669,802,45,0.0721586635113485,1
672,839,45,0.0704153452022901,1
673,835,45,0.0703658816322513,1
673,836,45,0.0775360148458275,1
673,837,45,0.0776408359254688,1
673,838,45,0.0744323046060802,1
673,839,45,0.0743004217185635,1
673,840,45,0.07116056318078,1
674,836,45,0.0783272402936159,1
674,837,45,0.0815559871069353,1
674,838,45,0.0755832460503178,1
674,839,45,0.0709503100643474,1
674,840,45,0.0679131462357325,1
675,837,45,0.070019403040717,1
675,838,45,0.0685233846125243,1
692,784,45,0.0685810721449829,1
693,783,45,0.103542226531027,1
693,784,45,0.121718165802174,1
693,785,45,0.0902300392632211,1
694,782,45,0.0868929673513124,1
694,783,45,0.153575735733767,1
694,784,45,0.18996068981902,1
694,785,45,0.132815232086569,1
695,782,45,0.087910941758581,1
695,783,45,0.149120600257972,1
695,784,45,0.183721475608626,1
695,785,45,0.130262713012007,1
696,783,45,0.10758176739026,1
696,784,45,0.122517429529327,1
696,785,45,0.0948523673559317,1
697,783,45,0.08244182106632,1
697,784,45,0.0819808359273855,1
697,785,45,0.0739706126735801,1
698,783,45,0.0798628032228253,1
698,784,45,0.076864309387934,1
698,785,45,0.0737610364018333,1
699,784,45,0.0697609921254092,1
699,785,45,0.0706562240433058,1
719,795,45,0.0874227690264755,1
719,796,45,0.0805885544293818,1
720,796,45,0.0832159157548071,1
720,797,45,0.0681065620918866,1
723,801,45,0.0743343358301595,1
723,802,45,0.0731739485092023,1
665,812,46,0.094988473035514,1
665,813,46,0.203949595987214,6
665,814,46,0.244845462342183,6
665,815,46,0.153614980745985,1
665,816,46,0.0783835322082713,1
666,806,46,0.226291292677034,5
666,807,46,0.145314504927765,1
666,812,46,0.164554372167495,6
666,813,46,0.404900230937011,6
666,814,46,0.486241820002536,6
666,815,46,0.281083055958787,6
666,816,46,0.104075208777236,1
667,801,46,0.0801487431485348,1
667,802,46,0.0815316805960105,1
667,804,46,0.129479394068512,1
667,805,46,0.213295251775202,1
667,806,46,0.228339604389193,1
667,807,46,0.137624602913791,1
667,808,46,0.0711420967014352,1
667,812,46,0.143823230402148,6
667,813,46,0.364675770551137,6
667,814,46,0.440483333711887,6
667,815,46,0.251570327588994,6
667,816,46,0.0895578725925773,1
668,800,46,0.0734777379673307,1
668,801,46,0.0953483747150184,1
668,802,46,0.0921198854620662,1
668,803,46,0.0769966115597693,1
668,804,46,0.0917269441782588,1
668,805,46,0.132092996878512,1
668,806,46,0.133564397327429,1
668,807,46,0.0851863483996804,1
668,812,46,0.06961056489146,1
668,813,46,0.154349039771825,6
668,814,46,0.189493954495145,6
668,815,46,0.113487051589797,1
668,827,46,0.0682240635272765,1
669,801,46,0.073570291985766,1
669,802,46,0.0700009185920442,1
673,835,46,0.0691459798971618,1
673,836,46,0.0690873040516666,1
673,837,46,0.0677737401895855,1
673,838,46,0.0687950209531947,1
673,839,46,0.0711757712219919,1
674,837,46,0.0719021453652503,1
674,838,46,0.071029620688092,1
674,839,46,0.0702118665224904,1
693,783,46,0.115515836632262,1
693,784,46,0.151709752802425,1
693,785,46,0.099775501998333,1
694,782,46,0.0978618284706415,1
694,783,46,0.219702323467645,1
694,784,46,0.296859359197474,7
694,785,46,0.181937708342378,1
695,782,46,0.10385539597834,1
695,783,46,0.226278642270165,1
695,784,46,0.30031217754041,7
695,785,46,0.184005402969606,1
696,783,46,0.137222030070209,1
696,784,46,0.167965741260653,1
696,785,46,0.110397848587472,1
697,783,46,0.0811171821084529,1
697,784,46,0.0787136347522777,1
697,785,46,0.0687913432307433,1
698,783,46,0.0799415807565077,1
698,784,46,0.0749958107506799,1
698,785,46,0.0708860517476393,1
699,784,46,0.0707360378082327,1
699,785,46,0.0710757719120141,1
723,802,46,0.067775351439324,1
665,813,47,0.186722640883604,6
665,814,47,0.225670919599285,6
666,812,47,0.161436969299858,6
666,813,47,0.388859802536732,6
666,814,47,0.476125663391649,6
666,815,47,0.272720993263946,6
667,812,47,0.145633089132563,6
667,813,47,0.359238946730958,6
667,814,47,0.444837134157661,6
667,815,47,0.256435750739833,6
668,801,47,0.0759907784284112,1
668,802,47,0.0707956720178846,1
668,804,47,0.0786858541712848,1
668,805,47,0.105743205653352,1
668,806,47,0.1027073475959,1
668,807,47,0.0740213281067986,1
668,812,47,0.0758307196346869,1
668,813,47,0.158885959648844,6
668,814,47,0.199088497454633,6
668,815,47,0.122429535556604,1
674,838,47,0.0678277739586966,1
674,839,47,0.0686574058500656,1
678,840,47,0.068901615006526,1
683,785,47,0.0701126578629419,1
684,785,47,0.0697045624459063,1
693,783,47,0.127564905931287,1
693,784,47,0.169734234598154,7
693,785,47,0.106329149498771,1
694,782,47,0.114709636744525,1
694,783,47,0.27110828202012,7
694,784,47,0.369198291006701,7
694,785,47,0.212751499911783,7
695,782,47,0.127544792263548,1
695,783,47,0.296564973687633,7
695,784,47,0.395064731269419,7
695,785,47,0.226603743351229,7
696,782,47,0.0976416023772031,1
696,783,47,0.164239178175901,1
696,784,47,0.20706595663383,7
696,785,47,0.124373924655518,1
697,783,47,0.0830440810615071,1
697,784,47,0.081106933601752,1
697,785,47,0.0693955259440198,1
698,783,47,0.0792915343285562,1
698,784,47,0.0740027358421582,1
698,785,47,0.0697356553730159,1
699,784,47,0.0725791397953337,1
699,785,47,0.0714494261171675,1
700,785,47,0.0679741940325156,1
703,786,47,0.067789379494668,1
665,814,48,0.180885460436955,6
666,813,48,0.309241328265887,6
666,814,48,0.383087287711558,6
666,815,48,0.233399383791015,6
667,813,48,0.305679687672955,6
667,814,48,0.384291616029101,6
667,815,48,0.238031876533562,6
668,814,48,0.19027378738902,6
673,834,48,0.0707363971947914,1
674,834,48,0.0782726734344427,1
674,835,48,0.0702785207495903,1
675,834,48,0.0759795715575536,1
675,835,48,0.069729491893533,1
677,837,48,0.0691946827656511,1
677,838,48,0.0685457684053597,1
678,838,48,0.0692003251346238,1
678,839,48,0.0681679992241084,1
678,840,48,0.0685253792079254,1
683,784,48,0.0728372931502743,1
683,785,48,0.0764202932843494,1
684,784,48,0.0732764096171076,1
684,785,48,0.0788373775342383,1
685,785,48,0.068133905419233,1
692,784,48,0.0688245445589977,1
693,783,48,0.130796953111171,1
693,784,48,0.167208861188331,7
693,785,48,0.105605560601343,1
694,782,48,0.122802710579679,1
694,783,48,0.280694487211445,7
694,784,48,0.371041297157386,7
694,785,48,0.211078771112643,7
695,782,48,0.141736212757609,1
695,783,48,0.323790661833828,7
695,784,48,0.419375219405494,7
695,785,48,0.237343387723374,7
695,786,48,0.071563543329129,1
696,782,48,0.100921100562397,1
696,783,48,0.174679070198929,1
696,784,48,0.217965911370291,7
696,785,48,0.127951078768238,1
697,783,48,0.0852777284220237,1
697,784,48,0.0845613092864433,1
697,785,48,0.0702985325911378,1
698,784,48,0.0722325114593998,1
699,784,48,0.0738099429227059,1
699,785,48,0.0710754245050073,1
700,784,48,0.0707964087603301,1
700,785,48,0.0697001539707854,1
701,785,48,0.0683061593968516,1
702,785,48,0.0681211591759487,1
702,786,48,0.0711660258564733,1
703,785,48,0.0686825629091796,1
703,786,48,0.0740261319071341,1
703,787,48,0.0719362751087815,1
704,786,48,0.0687404780531254,1
666,814,49,0.250740096720027,6
667,814,49,0.275404460820971,6
673,834,49,0.0698587093307388,1
674,833,49,0.0754375148007364,1
674,834,49,0.0868091883546871,1
674,835,49,0.0728180420102762,1
675,833,49,0.0722380819510608,1
675,834,49,0.0872733840135467,1
675,835,49,0.0748852035474424,1
677,836,49,0.0680179792949257,1
677,837,49,0.0731804114774842,1
677,838,49,0.0681527612340165,1
678,837,49,0.0678668632367389,1
678,838,49,0.0693976942429244,1
679,839,49,0.0680176678265748,1
683,784,49,0.0751055075079686,1
683,785,49,0.0781657978616404,1
683,786,49,0.0681483347895677,1
684,784,49,0.077685196206373,1
684,785,49,0.0824198146293714,1
684,786,49,0.070738002454754,1
685,785,49,0.0728888711112338,1
692,783,49,0.0733802304041604,1
692,784,49,0.0736973111751873,1
693,783,49,0.121293598501195,1
693,784,49,0.145036363690381,1
693,785,49,0.100163861103516,1
694,782,49,0.119086977009898,1
694,783,49,0.236762810717233,1
694,784,49,0.298003526205078,7
694,785,49,0.17980219747151,1
694,786,49,0.0734861655821339,1
695,782,49,0.139883179721934,1
695,783,49,0.284232408291498,7
695,784,49,0.352189866889927,7
695,785,49,0.210057178880682,7
695,786,49,0.0800679770092272,1
696,783,49,0.166079992068578,1
696,784,49,0.19719621940674,7
696,785,49,0.124058778582133,1
697,784,49,0.0924797332335868,1
697,785,49,0.0772771187586654,1
698,784,49,0.0737824678202879,1
698,785,49,0.0694263972494182,1
699,784,49,0.0742801403370969,1
699,785,49,0.0715102163535835,1
700,785,49,0.0726035361528982,1
701,785,49,0.0725473700235384,1
701,786,49,0.069566713741514,1
702,785,49,0.0715031304485997,1
702,786,49,0.0731431311117877,1
702,787,49,0.0703380770921545,1
703,786,49,0.0761417088035427,1
703,787,49,0.0749443166465841,1
704,786,49,0.0713196696001235,1
704,787,49,0.0706873588988473,1
673,793,50,0.0713216342466448,1
674,792,50,0.0745376527860077,1
674,793,50,0.080246316599241,1
674,794,50,0.0685902185329036,1
674,833,50,0.0827487072386299,1
674,834,50,0.0885913503609727,1
674,835,50,0.069467942335612,1
675,792,50,0.074939399040505,1
675,793,50,0.079187563797104,1
675,833,50,0.0791923376485596,1
675,834,50,0.090330607601917,1
675,835,50,0.0735635235389092,1
677,836,50,0.0750044420178664,1
677,837,50,0.0764241926285121,1
678,837,50,0.0701909622043219,1
678,838,50,0.0681413267516717,1
679,838,50,0.0684064342365245,1
679,839,50,0.0680434298530627,1
683,784,50,0.0732114984148178,1
683,785,50,0.0761555332065034,1
683,786,50,0.0694742435799425,1
684,784,50,0.0764571363963994,1
684,785,50,0.080989456125466,1
684,786,50,0.0729819941583871,1
685,784,50,0.0685973523560952,1
685,785,50,0.0748033832075624,1
685,786,50,0.0716397033307084,1
691,783,50,0.0682966416428202,1
692,783,50,0.0759480054381416,1
692,784,50,0.0748964822956118,1
693,783,50,0.104157292667259,1
693,784,50,0.114459431822309,1
693,785,50,0.0886965368169487,1
694,782,50,0.108375640319032,1
694,783,50,0.171573131762517,1
694,784,50,0.201071221119816,1
694,785,50,0.13651916579767,1
694,786,50,0.0760407571191842,1
695,783,50,0.208451559531617,1
695,784,50,0.242947278375174,7
695,785,50,0.160466074531789,1
695,786,50,0.0827004116749072,1
696,783,50,0.141321600464308,1
696,784,50,0.156811963777285,1
696,785,50,0.10971685897681,1
696,786,50,0.0693538730418584,1
697,784,50,0.0946586400314267,1
697,785,50,0.0799141056540898,1
698,784,50,0.0758895332450297,1
698,785,50,0.0707958996293718,1
699,784,50,0.074245621258127,1
699,785,50,0.0709769585776803,1
700,785,50,0.0729821079641307,1
700,786,50,0.069540730093315,1
701,785,50,0.0744122508361009,1
701,786,50,0.0727393303641295,1
701,787,50,0.0703106439181684,1
702,786,50,0.0745703629526318,1
702,787,50,0.0730988666672992,1
703,786,50,0.0761354195387643,1
703,787,50,0.0761977132089511,1
704,786,50,0.0711646901364298,1
704,787,50,0.0723221364773811,1
673,792,51,0.116090088434969,1
673,793,51,0.114007982406734,1
673,794,51,0.0760775043948184,1
674,791,51,0.0905884554782826,1
674,792,51,0.1343549040021,1
674,793,51,0.133049108879464,1
674,794,51,0.0855182418867047,1
674,832,51,0.0682379957462049,1
674,833,51,0.0828909164999353,1
674,834,51,0.0810205370730236,1
675,791,51,0.0790862527261866,1
675,792,51,0.110906140977093,1
675,793,51,0.111477793217024,1
675,794,51,0.0787736403280404,1
675,833,51,0.0794533720857464,1
675,834,51,0.0829538630557039,1
675,835,51,0.0677932908183826,1
676,792,51,0.0744083694612661,1
676,793,51,0.0735132273900093,1
677,836,51,0.0776139298517689,1
677,837,51,0.0744444458819907,1
678,836,51,0.0707528331400792,1
678,837,51,0.06956965472152,1
680,838,51,0.0680023639489472,1
683,784,51,0.0694256245683168,1
683,785,51,0.0719160116966429,1
683,786,51,0.0704490257126228,1
684,784,51,0.0718452005650132,1
684,785,51,0.0762404981787727,1
684,786,51,0.0744939933088931,1
684,787,51,0.0688966674515669,1
685,785,51,0.0738855638444472,1
685,786,51,0.0743329042737004,1
685,787,51,0.0681666754836169,1
686,785,51,0.0690107666942005,1
686,786,51,0.0705564942732471,1
691,783,51,0.0711870799190412,1
691,784,51,0.0688307978851203,1
692,783,51,0.0787174801884566,1
692,784,51,0.0766303307688467,1
692,785,51,0.0692655597848166,1
693,783,51,0.0930175851676663,1
693,784,51,0.0949844299367278,1
693,785,51,0.0820275741493536,1
694,783,51,0.122792515980962,1
694,784,51,0.132926078880845,1
694,785,51,0.106507680761616,1
694,786,51,0.0775533552472881,1
695,783,51,0.1435110672372,1
695,784,51,0.156077701099062,1
695,785,51,0.119974470137229,1
695,786,51,0.08247221318964,1
696,784,51,0.120347285773745,1
696,785,51,0.095463923483439,1
696,786,51,0.0723611958065435,1
697,784,51,0.0909176236172363,1
697,785,51,0.0792024723495169,1
698,784,51,0.0772885951694421,1
698,785,51,0.0719980117298023,1
699,785,51,0.0714657362771597,1
699,786,51,0.0686979805925508,1
700,785,51,0.0736671406735786,1
700,786,51,0.0719250023503881,1
700,787,51,0.0687003106154068,1
701,786,51,0.0756025091698678,1
701,787,51,0.0740500610621722,1
702,786,51,0.0751998165307658,1
702,787,51,0.0734773186830121,1
703,786,51,0.0746908173475796,1
703,787,51,0.0740917019847818,1
704,787,51,0.0713307387061336,1
670,827,52,0.0679191719503679,1
673,793,52,0.193621353388445,1
673,794,52,0.0935967246275725,1
674,792,52,0.250720282541087,1
674,793,52,0.225938926135712,1
674,794,52,0.107506559763062,1
674,832,52,0.0695799032282209,1
674,833,52,0.0797715130471217,1
674,834,52,0.0722897497586599,1
675,791,52,0.100287202570486,1
675,792,52,0.164961952463796,1
675,793,52,0.152841976196726,1
675,794,52,0.0869045395985048,1
675,833,52,0.0774014545284479,1
675,834,52,0.0738236295608191,1
676,792,52,0.0800912233298037,1
676,793,52,0.0774036108478006,1
677,836,52,0.0717714065249457,1
678,836,52,0.0711001622798027,1
680,790,52,0.0693189346785699,1
680,838,52,0.0699161452926063,1
683,785,52,0.0701828460578697,1
683,786,52,0.0712422337762605,1
683,787,52,0.0705037063775397,1
683,788,52,0.0727695008657383,1
683,789,52,0.0702872957714002,1
684,784,52,0.0702284462224016,1
684,785,52,0.073774842835466,1
684,786,52,0.0755438632732525,1
684,787,52,0.0737910930976984,1
684,788,52,0.0742786249237741,1
684,789,52,0.0700151323304436,1
685,784,52,0.0680987094955775,1
685,785,52,0.0730156926380478,1
685,786,52,0.0753745802245198,1
685,787,52,0.0744564014748458,1
685,788,52,0.0740864010330399,1
686,785,52,0.0707898379760806,1
686,786,52,0.072394049727791,1
686,787,52,0.0729030129723214,1
686,788,52,0.0720007430676489,1
691,783,52,0.0728653732200662,1
691,784,52,0.0705113433419136,1
692,783,52,0.0790452706789349,1
692,784,52,0.0759945579770543,1
692,785,52,0.0704832572823457,1
693,783,52,0.0860311763527094,1
693,784,52,0.0837403625702445,1
693,785,52,0.0782741469193336,1
694,784,52,0.0976629439490181,1
694,785,52,0.0914018730460752,1
694,786,52,0.0769920653198009,1
695,784,52,0.107854026667633,1
695,785,52,0.0983460180017206,1
695,786,52,0.0811651841731526,1
696,784,52,0.0970339515836345,1
696,785,52,0.0870743976657316,1
696,786,52,0.0734979235123816,1
697,785,52,0.0780888891380636,1
697,786,52,0.0685878465816157,1
698,785,52,0.0723787518399394,1
699,785,52,0.0714024363246083,1
699,786,52,0.0692205106796747,1
700,786,52,0.0737328425262977,1
700,787,52,0.0719411807353087,1
701,786,52,0.0775878443773781,1
701,787,52,0.0763172391886221,1
702,786,52,0.0762793778146556,1
702,787,52,0.073564164444939,1
703,787,52,0.0718413551288343,1
670,827,53,0.0701881649789395,1
671,827,53,0.0702863913152273,1
674,793,53,0.320568689457141,1
674,794,53,0.131470599256482,1
675,792,53,0.210140748235148,1
675,793,53,0.182264127174157,1
675,794,53,0.091084546694233,1
675,833,53,0.0705390580353707,1
676,792,53,0.0785046634479048,1
676,793,53,0.0747962793332507,1
678,836,53,0.0696792616321689,1
680,790,53,0.0681133305387435,1
680,838,53,0.0690466155034378,1
681,786,53,0.0678836885174653,1
681,789,53,0.067745234845699,1
681,790,53,0.069059397685378,1
682,785,53,0.06955678269294,1
682,786,53,0.069612906893868,1
682,787,53,0.0693138852974192,1
682,788,53,0.0701284349328719,1
682,789,53,0.0700220625012519,1
683,785,53,0.0715719170359483,1
683,786,53,0.0737411922740132,1
683,787,53,0.0790658814980803,1
683,788,53,0.0865913162432087,1
683,789,53,0.082681466013484,1
684,785,53,0.073624349713981,1
684,786,53,0.0779323643121672,1
684,787,53,0.097165301381089,1
684,788,53,0.120056098804278,1
684,789,53,0.110657936640054,1
684,790,53,0.0680752894714976,1
685,785,53,0.0725250401386868,1
685,786,53,0.0770891176599967,1
685,787,53,0.104956376701132,1
685,788,53,0.136685705529004,1
685,789,53,0.122581304500373,1
685,790,53,0.0687352968969031,1
686,785,53,0.071191236823571,1
686,786,53,0.0734278730823013,1
686,787,53,0.0925305624725489,1
686,788,53,0.114481809625369,1
686,789,53,0.099764989941489,1
687,785,53,0.069307518165553,1
687,786,53,0.068191778634747,1
687,787,53,0.0712599754927118,1
687,788,53,0.0745223429186041,1
691,784,53,0.0727143230494151,1
691,785,53,0.0685729919371865,1
692,784,53,0.0776727913803194,1
692,785,53,0.0721371063075983,1
693,784,53,0.0828336841904511,1
693,785,53,0.0783808787375124,1
693,786,53,0.0682189362790381,1
694,784,53,0.0888019149457561,1
694,785,53,0.0870832924830612,1
694,786,53,0.0769821222916749,1
695,784,53,0.0915914314864985,1
695,785,53,0.091084858162584,1
695,786,53,0.0811000094207197,1
696,785,53,0.0846268853538669,1
696,786,53,0.0752588697321478,1
697,785,53,0.078284844659233,1
697,786,53,0.0701093215577213,1
699,786,53,0.0687632272222955,1
700,786,53,0.0735353057042697,1
700,787,53,0.0723752897494232,1
701,787,53,0.0740016516927059,1
702,787,53,0.0715640105316554,1
670,827,54,0.0691551981623942,1
671,827,54,0.0708715984182008,1
675,793,54,0.198047737939538,1
675,794,54,0.0956006041815153,1
676,792,54,0.077675852155845,1
676,793,54,0.0731032332139882,1
676,796,54,0.0716142168339156,1
676,797,54,0.0770916453454601,1
677,795,54,0.0722460243940096,1
677,796,54,0.0849061287100313,1
677,797,54,0.0893018096694535,1
677,798,54,0.0707827341017689,1
677,834,54,0.0698131630741907,1
677,835,54,0.0754752084609755,1
678,795,54,0.0762849243472127,1
678,796,54,0.0873915862527262,1
678,797,54,0.084932819151796,1
678,835,54,0.0692973834645957,1
678,836,54,0.0685623900337028,1
679,796,54,0.0715890298259218,1
681,787,54,0.0713236647807018,1
681,788,54,0.0704505830543775,1
681,789,54,0.0680561281781392,1
682,786,54,0.0731654490170873,1
682,787,54,0.0730455636508576,1
682,788,54,0.0743225958692396,1
682,789,54,0.071114076529403,1
683,786,54,0.0730234913263731,1
683,787,54,0.0922219991629648,1
683,788,54,0.116847291955194,1
683,789,54,0.105039574689488,1
683,790,54,0.0689837108761011,1
684,785,54,0.0693744958405558,1
684,786,54,0.0757002683036293,1
684,787,54,0.143731958195772,1
684,788,54,0.227633457719417,8
684,789,54,0.20113710865559,1
684,790,54,0.0947787350398157,1
685,786,54,0.0746688408595108,1
685,787,54,0.165931577399358,1
685,788,54,0.278143705171918,8
685,789,54,0.245314126373923,8
685,790,54,0.107961375432737,1
686,786,54,0.0693785569086699,1
686,787,54,0.121594584744165,1
686,788,54,0.191871835661248,1
686,789,54,0.167317359990424,1
686,790,54,0.0772636657218154,1
687,785,54,0.0683462130288265,1
687,787,54,0.0728169878097038,1
687,788,54,0.0863866935161969,1
687,789,54,0.0724272989742533,1
691,785,54,0.0708238539138682,1
692,785,54,0.0744438528941687,1
693,785,54,0.0793226392352177,1
693,786,54,0.0718834872130742,1
694,785,54,0.0845999133926312,1
694,786,54,0.0786615536501359,1
695,785,54,0.0863722761254142,1
695,786,54,0.0817649224726524,1
695,787,54,0.0689013394768309,1
696,785,54,0.0822241466174489,1
696,786,54,0.0774499178058981,1
697,786,54,0.072074656903236,1
699,786,54,0.0699632369113572,1
699,787,54,0.0679436401852441,1
700,787,54,0.0739575429823928,1
671,827,55,0.0679121699022478,1
676,796,55,0.0810912343989097,1
676,797,55,0.0918193065238627,1
676,798,55,0.0772784245298289,1
676,834,55,0.0798168436717346,1
677,794,55,0.0700657639067983,1
677,795,55,0.0888072338668259,1
677,796,55,0.110133627589464,1
677,797,55,0.114191808631545,1
677,798,55,0.0834535661065699,1
677,834,55,0.0866691593718383,1
677,835,55,0.0949056464132694,1
678,794,55,0.0759472447365922,1
678,795,55,0.105271522774518,1
678,796,55,0.1285253665096,1
678,797,55,0.116458184128014,1
678,798,55,0.0723173446565975,1
678,834,55,0.0678386334225475,1
678,835,55,0.0760768874478925,1
679,794,55,0.069832653805228,1
679,795,55,0.09409949444374,1
679,796,55,0.109389505739978,1
679,797,55,0.0905423282134645,1
681,788,55,0.0693189406683459,1
682,787,55,0.0762443496047275,1
682,788,55,0.0763027020023198,1
682,789,55,0.0705400942666152,1
683,787,55,0.109118971518088,1
683,788,55,0.153640521150762,8
683,789,55,0.12938123361976,1
683,790,55,0.0767250231373067,1
684,786,55,0.081142860278077,1
684,787,55,0.203838210113099,8
684,788,55,0.360639979291667,8
684,789,55,0.306176431774487,8
684,790,55,0.125407292787054,1
685,786,55,0.0812462018830514,1
685,787,55,0.247531589359743,8
685,788,55,0.458032610640506,8
685,789,55,0.395279476717837,8
685,790,55,0.156332374394158,8
686,786,55,0.0703175980480805,1
686,787,55,0.158055764718533,1
686,788,55,0.282440722541405,8
686,789,55,0.244274253345673,8
686,790,55,0.100333832976486,1
687,787,55,0.0756782079586968,1
687,788,55,0.0979990123099001,1
687,789,55,0.0848164857227221,1
693,786,55,0.0748252159410077,1
694,786,55,0.0789767656110573,1
694,787,55,0.0698726415496672,1
695,786,55,0.079624446077497,1
695,787,55,0.0704854555301302,1
696,786,55,0.0768236268294812,1
696,787,55,0.0684462782263401,1
671,826,56,0.0684087942082604,1
676,833,56,0.0701147303254308,1
677,795,56,0.113823784815812,1
677,796,56,0.15004366067507,1
677,797,56,0.138642780973443,1
677,798,56,0.0853538884236031,1
677,834,56,0.0910357839279839,1
678,795,56,0.132176099030452,1
678,796,56,0.171862989001717,1
678,797,56,0.141458071520225,1
678,798,56,0.0745605996177852,1
678,834,56,0.0683027871529751,1
678,835,56,0.0732907191919227,1
679,794,56,0.0735884589763118,1
679,795,56,0.109266248129872,1
679,796,56,0.133896602282804,1
679,797,56,0.103324258583133,1
680,795,56,0.0679171414163108,1
680,796,56,0.0728243552341585,1
683,788,56,0.169691323843036,8
683,789,56,0.138000940538583,8
683,790,56,0.0801620224818814,1
684,787,56,0.233422480367191,8
684,788,56,0.426403526703428,8
684,789,56,0.351376000088936,8
684,790,56,0.139501008055338,8
685,787,56,0.297344435215398,8
685,788,56,0.561713668199187,8
685,789,56,0.473616905620394,8
685,790,56,0.184317985418873,8
686,787,56,0.177977903380984,8
686,788,56,0.330113708948831,8
686,789,56,0.279586234900613,8
686,790,56,0.111273529876571,1
687,787,56,0.0790355253134162,1
687,788,56,0.107652183196675,8
687,789,56,0.0946757288622962,1
694,787,56,0.0747146866048579,1
695,787,56,0.0733718207586851,1
696,787,56,0.0699885437148706,1
675,832,57,0.0754204379494189,1
676,796,57,0.118169594900429,1
676,833,57,0.0850102250267791,1
677,795,57,0.135064848189847,1
677,796,57,0.184354858479803,1
677,797,57,0.150880252686127,1
677,834,57,0.0823425764681157,1
678,795,57,0.148549499077431,1
678,796,57,0.199658819964297,1
678,797,57,0.152437798093181,1
679,795,57,0.111245078440669,1
679,796,57,0.138766481826972,1
683,788,57,0.166882921538631,8
683,789,57,0.139894919682854,8
684,787,57,0.221931047232307,8
684,788,57,0.389530753282852,8
684,789,57,0.320790862227773,8
684,790,57,0.139399086027271,8
685,787,57,0.286124219136865,8
685,788,57,0.517674630960318,8
685,789,57,0.432540315744572,8
685,790,57,0.181145249000738,8
686,788,57,0.302495666516874,8
686,789,57,0.253332208213813,8
676,796,58,0.121823897327764,1
676,832,58,0.0678636407372619,1
677,795,58,0.148123602046184,1
677,796,58,0.197133985634313,1
677,797,58,0.148254155203433,1
678,795,58,0.158040359014713,1
678,796,58,0.207250513611311,1
678,797,58,0.148895839904118,1
679,796,58,0.131414966217184,1
684,788,58,0.293103673821909,8
684,789,58,0.25341865266075,8
685,787,58,0.225813763776844,8
685,788,58,0.374182096089999,8
685,789,58,0.319876319272119,8
686,788,58,0.224279542557454,8
676,795,59,0.099592849769614,1
676,796,59,0.112902449454197,1
677,794,59,0.0916525092321615,1
677,795,59,0.142691438271717,1
677,796,59,0.176120797297643,1
677,797,59,0.130094999284581,1
678,794,59,0.0940090548162255,1
678,795,59,0.152143975622283,1
678,796,59,0.186883130941199,1
678,797,59,0.133067533430377,1
679,795,59,0.10231542457401,1
679,796,59,0.116441173164232,1
685,788,59,0.212280727478898,8
676,795,60,0.0996175216568736,1
676,796,60,0.102697668117918,1
677,794,60,0.0960844522953636,1
677,795,60,0.12771248203187,1
677,796,60,0.142165260411021,1
677,797,60,0.10873275076293,1
678,794,60,0.095717602475723,1
678,795,60,0.134417784670333,1
678,796,60,0.152814291452149,1
679,795,60,0.0949891139415438,1
675,795,61,0.0812167561443362,1
676,794,61,0.0900810675448349,1
676,795,61,0.0965082409254654,1
676,796,61,0.0914797581031367,1
677,793,61,0.0808226468542128,1
677,794,61,0.097043726898033,1
677,795,61,0.109939307277137,1
677,796,61,0.109081775009255,1
678,794,61,0.0914753436382398,1
678,795,61,0.110344395826631,1
708,834,61,0.0699230874429665,1
676,794,62,0.0897463049551165,1
676,795,62,0.0936721718458103,1
677,793,62,0.0798847737211181,1
677,794,62,0.094815170847099,1
677,795,62,0.0988789643092729,1
677,796,62,0.0900160425368014,1
678,794,62,0.0857797375366419,1
678,795,62,0.0934027038040444,1
708,834,62,0.0708054413425072,1
708,835,62,0.0692078183443742,1
677,794,63,0.0884323337882688,1
677,795,63,0.0902975620078381,1
680,809,63,0.0772278947796659,1
680,810,63,0.0839523287626072,1
681,809,63,0.0782138178956681,1
681,810,63,0.0819153077781697,1
684,796,63,0.0783494683522759,1
679,809,64,0.0695954407071117,1
679,810,64,0.077596649348068,1
680,809,64,0.122414908523662,1
680,810,64,0.136638482135182,1
680,811,64,0.0850189521303812,1
681,808,64,0.0721598854256483,1
681,809,64,0.13264169629689,1
681,810,64,0.144854789621338,1
681,811,64,0.0861681745089126,1
682,809,64,0.080092013980233,1
682,810,64,0.0848461770422525,1
683,796,64,0.0742558937239319,1
684,795,64,0.239278540587728,1
684,796,64,0.0862574401403352,1
679,809,65,0.0868832399551217,1
679,810,65,0.0980944474105815,1
680,808,65,0.0828167451039811,1
680,809,65,0.176362592574384,1
680,810,65,0.202311152665781,1
680,811,65,0.116378388332415,1
681,808,65,0.0914444004555297,1
681,809,65,0.198617173962358,1
681,810,65,0.226122141403373,1
681,811,65,0.127015966921869,1
682,796,65,0.068230053303256,1
682,809,65,0.108670588867814,1
682,810,65,0.121503013048991,1
682,811,65,0.0733895984137923,1
683,795,65,0.153216816377523,1
683,796,65,0.0794604460111782,1
684,794,65,0.302550029723664,1
684,795,65,0.198004491756966,1
684,796,65,0.0893120521863784,1
685,795,65,0.12980550143194,1
685,796,65,0.0702871220678968,1
686,795,65,0.0710627261799308,1
689,829,65,0.0764229587346603,1
689,830,65,0.0685601079290546,1
679,809,66,0.105474180855008,1
679,810,66,0.124243491293789,1
679,811,66,0.0822614689115772,1
680,808,66,0.0938575913510318,1
680,809,66,0.220962332742694,1
680,810,66,0.26992848782499,1
680,811,66,0.15762414146145,1
681,808,66,0.104456961159513,1
681,809,66,0.253948076980026,1
681,810,66,0.310522685102526,1
681,811,66,0.180343553424537,1
682,809,66,0.13404444193353,1
682,810,66,0.162310626044677,1
682,811,66,0.0986708495428651,1
683,796,66,0.081828731556162,1
684,795,66,0.146012014340578,1
684,796,66,0.0880843877016195,1
685,795,66,0.106507560966096,1
685,796,66,0.0726477526791789,1
686,795,66,0.072437026370444,1
689,829,66,0.0873807806968592,1
689,830,66,0.0789691645853393,1
690,829,66,0.0698531987368377,1
679,808,67,0.0694588738147791,1
679,809,67,0.113058471138911,1
679,810,67,0.139155781326984,1
679,811,67,0.0962191743366946,1
680,808,67,0.0981172265286316,1
680,809,67,0.219705917333233,1
680,810,67,0.285783784229294,1
680,811,67,0.176206810480709,1
680,812,67,0.0759321385215719,1
681,808,67,0.106963969916182,1
681,809,67,0.249159562552764,1
681,810,67,0.325696345000363,1
681,811,67,0.201131262634234,1
681,812,67,0.0784112588812804,1
682,808,67,0.0690045433169578,1
682,809,67,0.133889282776557,1
682,810,67,0.172307610072676,1
682,811,67,0.110981073074596,1
684,796,67,0.0830059741067255,1
685,795,67,0.0907438841751748,1
685,796,67,0.0729833119091026,1
689,829,67,0.0812273999762517,1
689,830,67,0.0769430809318405,1
678,810,68,0.0689191830194739,1
679,808,68,0.0685037680961914,1
679,809,68,0.106262207762424,1
679,810,68,0.132616383503601,1
679,811,68,0.0998414194829875,1
680,808,68,0.0884569158288887,1
680,809,68,0.179329508310311,1
680,810,68,0.240571110285001,1
680,811,68,0.164435594909821,1
680,812,68,0.0836021724486214,1
681,808,68,0.091320987111248,1
681,809,68,0.193597334386767,1
681,810,68,0.26305155414561,1
681,811,68,0.179608344361709,1
681,812,68,0.0852538232260895,1
682,809,68,0.109770766960626,1
682,810,68,0.145097675037307,1
682,811,68,0.103805477185327,1
685,796,68,0.0723053770841905,1
678,809,69,0.0684066738275636,1
678,810,69,0.0727349757969924,1
679,809,69,0.092766942991804,1
679,810,69,0.110868788734084,1
679,811,69,0.0934173667756423,1
679,812,69,0.0710482129527324,1
680,808,69,0.0755388917591895,1
680,809,69,0.124873448013105,1
680,810,69,0.162110483670098,1
680,811,69,0.127833164038305,1
680,812,69,0.0838718860712024,1
681,808,69,0.072369803114626,1
681,809,69,0.123938012718834,1
681,810,69,0.164516420946889,1
681,811,69,0.130344233863088,1
681,812,69,0.0829420871561282,1
682,809,69,0.0808429162561274,1
682,810,69,0.102615835798486,1
682,811,69,0.0859790712914637,1
680,810,70,0.105205419606808,1
681,810,70,0.0981300566287797,1
