x,y,z,signal,cytoplasm.p
527,447,11,0.0682329403752781,1
527,447,12,0.0677950997307284,1
528,446,13,0.0691664289923558,1
529,443,13,0.0684948612993099,1
532,464,13,0.0709611515588703,1
532,465,13,0.0703625093883749,1
533,463,13,0.0711051038449858,1
533,464,13,0.0713040782132489,1
534,462,13,0.0706828965157425,1
534,463,13,0.0758987155716062,1
534,464,13,0.0701732085083187,1
535,463,13,0.0743160430543181,1
523,446,14,0.0700942932097887,1
528,446,14,0.069496872953593,1
529,443,14,0.0693599287053736,1
530,441,14,0.0733780980439117,1
530,442,14,0.070328858826922,1
530,443,14,0.0687930982351053,1
531,441,14,0.0758466464490164,1
531,442,14,0.0702861457344122,1
532,464,14,0.0712534286675662,1
532,465,14,0.0708336292282667,1
533,463,14,0.075090772659059,1
533,464,14,0.0723451971149022,1
534,462,14,0.0708448001604685,1
534,463,14,0.0792445205768931,1
534,464,14,0.0711782449994715,1
535,463,14,0.0754877151132207,1
540,450,14,0.0685240734367619,1
541,447,14,0.0690621110538968,1
541,448,14,0.0682607029869431,1
541,449,14,0.0681302097274537,1
542,447,14,0.0742770256535876,1
542,448,14,0.0735122510565246,1
542,449,14,0.0708291368962821,1
523,446,15,0.0711718119800695,1
529,440,15,0.0682380556439647,1
529,441,15,0.069102661837278,1
529,442,15,0.0677674329554791,1
529,443,15,0.0677924881884014,1
530,440,15,0.0720925423743108,1
530,441,15,0.0765191725062191,1
530,442,15,0.0703249594827594,1
531,440,15,0.0715530372620609,1
531,441,15,0.0794756241035102,1
531,442,15,0.0720149867549282,1
532,464,15,0.0695058576175623,1
532,465,15,0.0677687387266426,1
533,463,15,0.0747333387672581,1
533,464,15,0.0706132773495328,1
534,463,15,0.074648912874827,1
535,463,15,0.0683179113373234,1
542,447,15,0.0691331138583578,1
542,448,15,0.0677805445750982,1
543,446,15,0.069749958958055,1
543,447,15,0.0748331823430604,1
543,448,15,0.0719838159607308,1
523,446,16,0.0731677311217355,1
523,447,16,0.0687904926825542,1
524,446,16,0.0715235975131217,1
524,447,16,0.069367439884452,1
527,442,16,0.0725858183955508,1
527,443,16,0.0722021852236156,1
528,442,16,0.0704064923133924,1
528,443,16,0.0704063725178728,1
529,440,16,0.0697154398790851,1
529,441,16,0.069534291084137,1
530,440,16,0.0752137427599182,1
530,441,16,0.0741753192574556,1
531,440,16,0.0709379291973978,1
531,441,16,0.0742444173131552,1
531,442,16,0.0692218643690461,1
533,463,16,0.067874134824778,1
543,447,16,0.0689793622987399,1
543,448,16,0.0684357901286,1
544,447,16,0.0699387806560328,1
544,448,16,0.0683379171890949,1
523,446,17,0.0705357936074619,1
523,447,17,0.068999212416336,1
524,446,17,0.0699506943204561,1
524,447,17,0.0694236659115715,1
526,442,17,0.068906568551261,1
526,443,17,0.0686648211927283,1
527,442,17,0.0743957669726053,1
527,443,17,0.0739095888359009,1
528,442,17,0.0695851023537711,1
528,443,17,0.0693489314766753,1
530,440,17,0.070908645182634,1
523,446,18,0.0707737793866795,1
523,447,18,0.0679251497467954,1
524,446,18,0.0694066369784618,1
524,447,18,0.0683453145624296,1
526,442,18,0.0769108679166227,1
526,443,18,0.0764343872272292,1
527,442,18,0.0783772609128208,1
527,443,18,0.0778527302405197,1
528,442,18,0.0688568534106311,1
528,443,18,0.0682674474746961,1
526,442,19,0.0797259608007976,1
526,443,19,0.0781207008382907,1
527,442,19,0.0781002996613045,1
527,443,19,0.0761053328940192,1
526,442,20,0.0780064518512577,1
526,443,20,0.0741093838034732,1
527,442,20,0.0742681727646899,1
527,443,20,0.070513248090675,1
526,442,21,0.0681914491970681,1
519,443,26,0.147431243840713,1
519,444,26,0.155193981530598,1
518,443,27,0.145813513164617,1
518,444,27,0.176624801007662,1
519,442,27,0.137243281795384,1
519,443,27,0.225480205132098,1
519,444,27,0.251065389473922,2
519,445,27,0.181763693370621,1
519,446,27,0.0893993891099356,1
520,443,27,0.235116508809715,1
520,444,27,0.23922259608008,2
520,445,27,0.166106179369161,1
520,446,27,0.0820492990668312,1
521,445,27,0.115204068792529,1
522,444,27,0.0949500845612614,1
522,445,27,0.0698928989720299,1
517,443,28,0.097753575249364,1
517,444,28,0.115684424866981,1
518,442,28,0.119584368007236,1
518,443,28,0.196712544996395,1
518,444,28,0.235224013308995,2
518,445,28,0.182970417598556,1
519,441,28,0.0863335102952749,1
519,442,28,0.18583947237453,1
519,443,28,0.296793208111556,2
519,444,28,0.333018247157708,2
519,445,28,0.250733531925554,2
519,446,28,0.125383177948961,1
520,442,28,0.207259426397968,1
520,443,28,0.313798996726899,2
520,444,28,0.327270985228062,2
520,445,28,0.234427277267305,2
520,446,28,0.113639419511163,1
521,443,28,0.265626774471134,2
521,444,28,0.266796098537853,2
521,445,28,0.180189807854695,1
521,446,28,0.0843697921892746,1
522,444,28,0.171242232578305,1
522,445,28,0.111102102488038,1
523,443,28,0.083317071091549,1
523,444,28,0.0820448366837265,1
517,443,29,0.120862130978288,1
517,444,29,0.138188444485846,1
518,442,29,0.141496585779773,1
518,443,29,0.214730905241073,2
518,444,29,0.247861673934421,2
518,445,29,0.196984768335112,1
519,441,29,0.107380055694375,1
519,442,29,0.212456443547032,2
519,443,29,0.31100145987612,2
519,444,29,0.340179599359698,2
519,445,29,0.265567212138794,2
519,446,29,0.142100990114761,1
520,441,29,0.110899564203067,1
520,442,29,0.236346593163969,2
520,443,29,0.343470166650902,2
520,444,29,0.358160427668088,2
520,445,29,0.263715341119659,2
520,446,29,0.135250555204315,1
521,442,29,0.210096519729316,2
521,443,29,0.323603229763877,2
521,444,29,0.332378922428759,2
521,445,29,0.22278638724218,2
521,446,29,0.104079030254311,1
522,443,29,0.230048511435249,2
522,444,29,0.234892467228977,2
522,445,29,0.145645739539431,1
523,443,29,0.105650699553124,1
523,444,29,0.107059267252016,1
523,445,29,0.0689626328544292,1
517,443,30,0.128777128773571,1
517,444,30,0.138754106949798,1
518,442,30,0.15469481755957,1
518,443,30,0.20920802031962,1
518,444,30,0.226990539124881,1
518,445,30,0.182447522135097,1
519,441,30,0.12117817551807,1
519,442,30,0.21515845545049,1
519,443,30,0.292661700231934,2
519,444,30,0.30751761449361,2
519,445,30,0.244944245727637,1
519,446,30,0.137839180648481,1
520,441,30,0.121549230160448,1
520,442,30,0.2398911029976,2
520,443,30,0.338688768077503,2
520,444,30,0.347257885348404,2
520,445,30,0.260072167696094,2
520,446,30,0.138332199109354,1
521,442,30,0.216639487459182,2
521,443,30,0.335837395120221,2
521,444,30,0.343452652545937,2
521,445,30,0.231587764066462,2
521,446,30,0.10918337358942,1
522,443,30,0.248659248544748,2
522,444,30,0.255647232670787,2
522,445,30,0.158514725313186,1
522,446,30,0.0684343945107968,1
523,443,30,0.108614967808069,1
523,444,30,0.111457008694375,1
523,445,30,0.0711955255031723,1
518,442,31,0.140249095136522,1
518,443,31,0.168572577444689,1
518,444,31,0.171695239335635,1
519,441,31,0.117470360432134,1
519,442,31,0.181605719018938,1
519,443,31,0.232821753754655,1
519,444,31,0.238242453097898,1
519,445,31,0.191303118411546,1
519,446,31,0.112177794376645,1
520,441,31,0.117622333028286,1
520,442,31,0.200987388215207,1
520,443,31,0.274690215974071,2
520,444,31,0.280708958510211,2
520,445,31,0.214982260200277,1
520,446,31,0.118645398745137,1
521,442,31,0.18501606985018,1
521,443,31,0.276682583178581,2
521,444,31,0.283104725147389,2
521,445,31,0.198954410329556,1
521,446,31,0.099517174939889,1
522,443,31,0.20630908854106,1
522,444,31,0.212304542828192,1
522,445,31,0.140026419224708,1
523,444,31,0.0956710259777063,1
519,442,32,0.154876355689957,1
519,443,32,0.190370642066609,1
519,444,32,0.193507619522146,1
519,446,32,0.08519466220874,1
520,442,32,0.167528870959812,1
520,443,32,0.230548202506563,1
520,444,32,0.240391129496369,1
520,445,32,0.17538769663596,1
520,446,32,0.0938016109047274,1
521,443,32,0.224235409888037,1
521,444,32,0.231284393892652,1
521,445,32,0.160960997741423,1
521,446,32,0.0825027011493757,1
522,444,32,0.158861329690016,1
522,445,32,0.109697955243819,1
523,444,32,0.074826875108954,1
521,445,33,0.117056814318957,1
522,445,33,0.0769782409168401,1
520,462,54,0.0740762962809625,1
520,463,54,0.0918632714795523,1
520,464,54,0.0808137580266592,1
521,462,54,0.0903671811740479,1
521,463,54,0.114894936454227,1
521,464,54,0.0957549726880591,1
522,462,54,0.0803013626404926,1
522,463,54,0.100985718265664,1
522,464,54,0.0844752122465139,1
519,463,55,0.0721456117894892,1
520,462,55,0.103803548477461,1
520,463,55,0.145223316578253,1
520,464,55,0.114408506746932,1
520,465,55,0.0711052895280411,1
521,462,55,0.142150621398527,1
521,463,55,0.203499140874452,1
521,464,55,0.154452938425965,1
521,465,55,0.0818342661091671,1
522,462,55,0.118079868056256,1
522,463,55,0.165825929730632,1
522,464,55,0.127221404258414,1
522,465,55,0.0794889034368568,1
522,466,55,0.0707261367085386,1
523,463,55,0.0839952275381724,1
523,464,55,0.0737832225320613,1
523,465,55,0.0688936486044732,1
523,466,55,0.0711832883908462,1
519,463,56,0.078740145500763,1
520,462,56,0.125590891400378,1
520,463,56,0.190598505124421,1
520,464,56,0.141386397860855,1
521,461,56,0.0697988834482556,1
521,462,56,0.188897300930275,1
521,463,56,0.289945959761931,1
521,464,56,0.211593604337633,1
521,465,56,0.0978840385599735,1
522,462,56,0.14870695830838,1
522,463,56,0.225010870245448,1
522,464,56,0.166241212878843,1
522,465,56,0.0935140836883833,1
522,466,56,0.0787419723824368,1
523,462,56,0.0774811425080792,1
523,463,56,0.102581574279883,1
523,464,56,0.0877374898257665,1
523,465,56,0.0789689070249722,1
523,466,56,0.0815825517634044,1
523,467,56,0.0680741933424934,1
524,466,56,0.0678231199027605,1
519,462,57,0.0720713804957752,1
520,461,57,0.0679861675946986,1
520,462,57,0.135727784615706,1
520,463,57,0.204222418303529,1
521,461,57,0.0834043960355542,1
521,462,57,0.210712292659113,1
521,463,57,0.323207497244463,1
521,464,57,0.234700267297347,1
522,461,57,0.0733845729917455,1
522,462,57,0.164180083046088,1
522,463,57,0.249483801106086,1
522,464,57,0.183837473610245,1
522,465,57,0.10180041165574,1
523,462,57,0.0871526241400239,1
523,463,57,0.115787880277699,1
523,464,57,0.0991193100602265,1
523,465,57,0.0863284848732281,1
523,466,57,0.0865865064530971,1
524,465,57,0.0689420160455077,1
524,466,57,0.0716713473172081,1
520,461,58,0.079606021526584,1
520,462,58,0.138056178252666,1
521,461,58,0.0974938885117726,1
521,462,58,0.210706829983419,1
521,463,58,0.306893911100416,1
522,461,58,0.0868024079282783,1
522,462,58,0.171797628566229,1
522,463,58,0.249167229466018,1
522,464,58,0.189229673599377,1
523,462,58,0.0989453789453337,1
523,463,58,0.129277454761139,1
523,464,58,0.112210270942006,1
523,465,58,0.0914596324558455,1
524,463,58,0.0694907154638861,1
524,464,58,0.0716512456290209,1
524,465,58,0.0716969536095205,1
524,466,58,0.070658218638707,1
521,460,59,0.0686612273271406,1
521,461,59,0.102741417441672,1
521,462,59,0.181766221056085,1
522,461,59,0.0954400721954887,1
522,462,59,0.160245926305438,1
522,463,59,0.215242096682268,1
523,461,59,0.077101306854115,1
523,462,59,0.104376087204238,1
523,463,59,0.129833461706212,1
523,464,59,0.114850576173323,1
524,462,59,0.0686267142379467,1
524,463,59,0.0762712676579794,1
524,464,59,0.0776203928200507,1
524,465,59,0.0746397844562342,1
522,461,60,0.0943182710113914,1
522,462,60,0.133029138966349,1
523,461,60,0.0799031024356154,1
523,462,60,0.0989624617864272,1
524,462,60,0.0713486062078805,1
524,463,60,0.0784214055617897,1
537,465,60,0.0780935252246717,1
537,466,60,0.068374412894138,1
538,465,60,0.0827498153471861,1
538,466,60,0.0722538470414388,1
524,462,61,0.0740070424910875,1
536,465,61,0.0747986213356587,1
537,464,61,0.0963503025124379,1
537,465,61,0.137796437607091,1
537,466,61,0.103757882425394,1
538,464,61,0.105454905755906,1
538,465,61,0.150069500568645,1
538,466,61,0.111730178417697,1
539,464,61,0.0705758232803329,1
539,465,61,0.0940495816405029,1
539,466,61,0.0741809556366523,1
536,464,62,0.0724624649490289,1
536,465,62,0.0968104550725113,1
536,466,62,0.0754512134184016,1
537,464,62,0.13468267652325,1
537,465,62,0.201206614016057,1
537,466,62,0.139206969952504,1
538,464,62,0.153757501475641,1
538,465,62,0.228168033246036,1
538,466,62,0.156359364324722,1
538,467,62,0.0679051558745758,1
539,464,62,0.0913633827456309,1
539,465,62,0.129308577637128,1
539,466,62,0.0910857087107731,1
530,462,63,0.0680007586889847,1
536,464,63,0.0849529507888631,1
536,465,63,0.108730462668506,1
536,466,63,0.0827632384351562,1
537,463,63,0.0715645975297014,1
537,464,63,0.15044328654887,1
537,465,63,0.220336281357316,1
537,466,63,0.149340640668356,1
537,467,63,0.071986703032753,1
538,463,63,0.0758372425007286,1
538,464,63,0.175891053450173,1
538,465,63,0.257172253594273,1
538,466,63,0.173746761567719,1
538,467,63,0.0769118622194353,1
539,464,63,0.103391499808279,1
539,465,63,0.145253049826215,1
539,466,63,0.100417186699017,1
525,457,64,0.0679685636430948,1
525,458,64,0.0677743751058393,1
526,457,64,0.0680737980172787,1
526,458,64,0.0687211789949194,1
527,458,64,0.068334694689618,1
528,458,64,0.0683300885518897,1
528,459,64,0.0678043958630486,1
529,458,64,0.0678091876838322,1
530,461,64,0.0679357157116232,1
530,462,64,0.0681186255007093,1
531,461,64,0.0693966640014559,1
531,462,64,0.0693052779893367,1
536,463,64,0.0686372861925505,1
536,464,64,0.087312437352933,1
536,465,64,0.104766392986614,1
536,466,64,0.081795721900739,1
537,463,64,0.0773310806504647,1
537,464,64,0.136329649285678,1
537,465,64,0.188187236947008,1
537,466,64,0.131344742083601,1
537,467,64,0.0712679598640925,1
538,463,64,0.0819168351710445,1
538,464,64,0.16017243175417,1
538,465,64,0.223207348698019,1
538,466,64,0.155173580353611,1
538,467,64,0.0772714404510368,1
539,464,64,0.101444319473758,1
539,465,64,0.134658992949027,1
539,466,64,0.0971268050908687,1
540,465,64,0.0679982369932973,1
541,458,64,0.0708542340576362,1
541,459,64,0.0730948894560488,1
542,458,64,0.0805921423051936,1
542,459,64,0.0811331927796461,1
543,458,64,0.0683185702126811,1
524,456,65,0.0688324989814985,1
525,455,65,0.0682074478887094,1
525,456,65,0.0703099251450508,1
525,457,65,0.0700994444171311,1
525,458,65,0.0681814941893902,1
526,455,65,0.068796710070021,1
526,456,65,0.069995719466494,1
526,457,65,0.0711009768893359,1
526,458,65,0.0709003912713343,1
527,455,65,0.0677710807290506,1
527,456,65,0.0688830287316616,1
527,457,65,0.0719537772341936,1
527,458,65,0.0738802688824813,1
527,459,65,0.0688408966474218,1
528,456,65,0.0679917261068076,1
528,457,65,0.0720484456435497,1
528,458,65,0.074046047912266,1
528,459,65,0.0698937734793229,1
529,457,65,0.0710663380148464,1
529,458,65,0.0723859874893226,1
529,459,65,0.068967352797901,1
530,457,65,0.0701895006989829,1
530,458,65,0.0714428852817979,1
530,459,65,0.0695701279138224,1
531,458,65,0.0695791125777916,1
531,459,65,0.0698126838921123,1
531,460,65,0.0699078494528747,1
531,461,65,0.0691227635254652,1
532,458,65,0.0680294616954785,1
532,459,65,0.069378826448589,1
532,460,65,0.0698219081471208,1
532,461,65,0.0689270715544389,1
535,463,65,0.0685472239209227,1
535,464,65,0.0692052726895829,1
536,463,65,0.0728807250159017,1
536,464,65,0.0834249769058197,1
536,465,65,0.0913948350592993,1
536,466,65,0.0746898769527508,1
537,463,65,0.0776454061245411,1
537,464,65,0.107483726737028,1
537,465,65,0.132310569501192,1
537,466,65,0.0998022044196497,1
538,463,65,0.081761226780873,1
538,464,65,0.122727874318591,1
538,465,65,0.154417502911271,1
538,466,65,0.115707006322424,1
538,467,65,0.0698649027591017,1
539,463,65,0.0700034941957154,1
539,464,65,0.0890887952662944,1
539,465,65,0.106081759771265,1
539,466,65,0.0833803830236523,1
540,458,65,0.0677523746586666,1
540,459,65,0.0705360212189491,1
541,457,65,0.0689406503765844,1
541,458,65,0.106072499577601,1
541,459,65,0.11303675221121,1
541,460,65,0.07889649063338,1
542,457,65,0.0758812973030578,1
542,458,65,0.127312496771511,1
542,459,65,0.134980032961977,1
542,460,65,0.087207550385756,1
543,458,65,0.094157068170455,1
543,459,65,0.097557763482818,1
527,457,66,0.0684666314851185,1
527,458,66,0.0696673359881937,1
528,457,66,0.0681638962275624,1
528,458,66,0.0701997372261319,1
529,452,66,0.0687750450503031,1
530,451,66,0.0758347028357133,1
530,452,66,0.0806339509415305,1
530,453,66,0.0722737091385868,1
531,450,66,0.0704546321429396,1
531,451,66,0.0964594961285442,1
531,452,66,0.0988039483549056,1
531,453,66,0.0788248529126651,1
532,450,66,0.0755053490137043,1
532,451,66,0.104307648023896,1
532,452,66,0.100694567234852,1
532,453,66,0.0754992514217572,1
533,450,66,0.0691604392163763,1
533,451,66,0.0895442578317758,1
533,452,66,0.0834850603486701,1
536,464,66,0.0730287204008032,1
536,465,66,0.0747073371497311,1
537,463,66,0.0703414972542388,1
537,464,66,0.0790149923613585,1
537,465,66,0.0842120095104225,1
537,466,66,0.0700434939197065,1
538,463,66,0.074543726418851,1
538,464,66,0.0861964702106398,1
538,465,66,0.0932248014676772,1
538,466,66,0.0773625149948052,1
539,463,66,0.0688684795658074,1
539,464,66,0.0740993868673634,1
539,465,66,0.0777140369777143,1
540,458,66,0.0799210178555701,1
540,459,66,0.0837564570983014,1
540,460,66,0.069792624132357,1
541,457,66,0.0811441001617048,1
541,458,66,0.138622787101223,1
541,459,66,0.154597543597663,1
541,460,66,0.0966027116722142,1
542,457,66,0.0910613063634326,1
542,458,66,0.177143503627935,1
542,459,66,0.199345327069082,1
542,460,66,0.117516278054793,1
543,457,66,0.0689339418274874,1
543,458,66,0.119299985423281,1
543,459,66,0.133054272066359,1
543,460,66,0.0821213021638808,1
530,451,67,0.0882739760909227,1
530,452,67,0.0932744147821154,1
530,453,67,0.0753582640747516,1
531,450,67,0.0871948580504554,1
531,451,67,0.142266056361204,1
531,452,67,0.143507425453404,1
531,453,67,0.0934788338567439,1
532,450,67,0.0968235307534745,1
532,451,67,0.157931524785166,1
532,452,67,0.151460638019437,1
532,453,67,0.0923558227378988,1
533,450,67,0.079720570002416,1
533,451,67,0.114581958679746,1
533,452,67,0.105511089854594,1
533,453,67,0.0742520422979771,1
534,451,67,0.0695068998385827,1
539,459,67,0.0698915572622104,1
539,460,67,0.0685333515997542,1
540,457,67,0.0724349359386271,1
540,458,67,0.0886089842614563,1
540,459,67,0.0934766356089594,1
540,460,67,0.076743034393677,1
541,457,67,0.0896346974592904,1
541,458,67,0.152178464752373,1
541,459,67,0.174530775325228,1
541,460,67,0.106786049610487,1
542,457,67,0.10105571478776,1
542,458,67,0.201053826810371,1
542,459,67,0.235609443413724,1
542,460,67,0.137626088378234,1
543,457,67,0.0751787864273018,1
543,458,67,0.134299127208179,1
543,459,67,0.157881030973659,1
543,460,67,0.0947989744928505,1
544,458,67,0.0712446177071003,1
544,459,67,0.0743004756265473,1
530,450,68,0.0684419655876349,1
530,451,68,0.101697627099932,1
530,452,68,0.103436087700671,1
530,453,68,0.0723065271211785,1
531,450,68,0.107532818940956,1
531,451,68,0.199322925306919,1
531,452,68,0.1946689053095,1
531,453,68,0.106394509934259,1
532,450,68,0.122589570391224,1
532,451,68,0.22611301298478,1
532,452,68,0.214750503788078,1
532,453,68,0.111945043661633,1
533,450,68,0.086707823375786,1
533,451,68,0.140234719674172,1
533,452,68,0.130066452012263,1
533,453,68,0.0806315190924828,1
534,451,68,0.0687502952959558,1
540,457,68,0.0718111307192418,1
540,458,68,0.0864168220893738,1
540,459,68,0.0898543964524426,1
540,460,68,0.0729914040964509,1
541,457,68,0.0864755817917327,1
541,458,68,0.135486851866707,1
541,459,68,0.154127501917447,1
541,460,68,0.0967703175836726,1
542,457,68,0.0965906901918233,1
542,458,68,0.178642301312183,1
542,459,68,0.211952463796117,1
542,460,68,0.128231699772877,1
543,457,68,0.0738524403832805,1
543,458,68,0.124451971436531,1
543,459,68,0.149174136875677,1
543,460,68,0.0933045014268605,1
544,458,68,0.0712009462504338,1
544,459,68,0.0772410183788369,1
530,450,69,0.0740808604902588,1
530,451,69,0.108855840659309,1
530,452,69,0.105824846299952,1
530,453,69,0.072225144034945,1
531,450,69,0.117037083996881,1
531,451,69,0.212483062111485,1
531,452,69,0.202277562002088,1
531,453,69,0.110370056026927,1
532,450,69,0.130407593713399,1
532,451,69,0.238915847672617,1
532,452,69,0.226316066390485,1
532,453,69,0.120460971721836,1
533,450,69,0.0873868543297024,1
533,451,69,0.143135568181045,1
533,452,69,0.135811976906874,1
533,453,69,0.0863736537738895,1
534,451,69,0.0707313118749848,1
534,452,69,0.0703139382949571,1
540,458,69,0.0780172394377967,1
540,459,69,0.0783508040723193,1
541,457,69,0.0749925942409789,1
541,458,69,0.102573631836934,1
541,459,69,0.110307570683909,1
541,460,69,0.077939144738576,1
542,457,69,0.0792435622127363,1
542,458,69,0.124547556281612,1
542,459,69,0.143088656255573,1
542,460,69,0.097158586842216,1
543,458,69,0.0931457484042997,1
543,459,69,0.108621975845965,1
530,450,70,0.0722574109581466,1
530,451,70,0.098597247175629,1
530,452,70,0.0940381172092781,1
530,453,70,0.0678734160516604,1
531,450,70,0.105403369723379,1
531,451,70,0.173318816033087,1
531,452,70,0.163973052429132,1
531,453,70,0.098224060173002,1
532,450,70,0.114106957465019,1
532,451,70,0.191837394449366,1
532,452,70,0.182955538995023,1
532,453,70,0.1077981779964,1
533,450,70,0.0811844113540468,1
533,451,70,0.121844753727725,1
533,452,70,0.118137405844315,1
533,453,70,0.0815790657137844,1
534,451,70,0.0695992262455308,1
534,452,70,0.0699888911218774,1
