x,y,z,signal,cytoplasm.p
934,698,4,0.0714634242236316,1
934,699,4,0.0706879339173413,1
935,697,4,0.0680599256961102,1
935,698,4,0.0751074062669541,1
935,699,4,0.0734212064616362,1
936,698,4,0.0720708174568331,1
936,699,4,0.0700346530103608,1
934,698,5,0.0745803538989656,1
934,699,5,0.0733792720400036,1
935,697,5,0.0695438567563763,1
935,698,5,0.0800150932771042,1
935,699,5,0.0743427394858587,1
936,698,5,0.077137269469096,1
936,699,5,0.0721745004790383,1
892,714,6,0.0701312740866862,1
892,715,6,0.0839214874060887,1
892,716,6,0.0858499437008976,1
893,714,6,0.0806325133952954,1
893,715,6,0.0986667225872152,1
893,716,6,0.0953702793257755,1
893,717,6,0.0854820516602365,1
893,718,6,0.0949867599595839,1
894,714,6,0.0854093178105174,1
894,715,6,0.106794111848956,1
894,716,6,0.0987231283076142,1
894,717,6,0.0844446703787944,1
894,718,6,0.0924834528844701,1
894,719,6,0.0992478266936427,1
895,720,6,0.0809618612275284,1
923,720,6,0.0893789340249656,1
924,720,6,0.107694938217617,1
934,698,6,0.0715547443482151,1
934,699,6,0.0699660161674116,1
935,698,6,0.0794638901323664,1
935,699,6,0.0718870990479898,1
936,698,6,0.0764800592690729,1
936,699,6,0.0703488706684695,1
891,716,7,0.0736113519001055,1
892,715,7,0.0815877808378345,1
892,716,7,0.0876473676563789,1
892,717,7,0.0869890852864555,1
892,718,7,0.0887224425980601,1
893,714,7,0.0771859304091534,1
893,715,7,0.0989504522855883,1
893,716,7,0.0992904439497369,1
893,717,7,0.0937651092099083,1
893,718,7,0.104089033180196,1
893,719,7,0.112517199042748,1
894,714,7,0.0772507996830115,1
894,715,7,0.100213648121458,1
894,716,7,0.0958282575971683,1
894,717,7,0.0871104800762321,1
894,718,7,0.0952707292489961,1
894,719,7,0.105081035918818,1
894,720,7,0.0821527964059811,1
895,715,7,0.0777696879863399,1
895,716,7,0.0752483816344077,1
895,717,7,0.0740891203913346,1
895,718,7,0.0896745234797781,1
895,719,7,0.105051194854888,1
895,720,7,0.0872109166398564,1
896,718,7,0.0859526443998422,1
896,719,7,0.108928053398517,1
896,720,7,0.0926697948151924,1
896,721,7,0.0710800126734076,1
897,719,7,0.0877197121706594,1
897,720,7,0.0806756637414518,1
897,721,7,0.070932316777305,1
897,722,7,0.0715213812960093,1
897,723,7,0.0741128039655575,1
898,721,7,0.0684883144741643,1
898,722,7,0.072846445527971,1
898,723,7,0.0716191943377546,1
899,722,7,0.0707254898127328,1
899,723,7,0.068119613813746,1
905,722,7,0.068256665877933,1
905,723,7,0.0757186030079026,1
906,723,7,0.0700511728125122,1
912,723,7,0.0903211916740772,1
912,724,7,0.107041094271695,1
913,723,7,0.107383781335034,1
922,721,7,0.068331478179917,1
923,685,7,0.0708868723469485,1
923,720,7,0.102364025616307,1
923,721,7,0.110043816888427,1
924,691,7,0.0790758065568784,1
924,719,7,0.0742672263800851,1
924,720,7,0.121448793596824,1
924,721,7,0.132135140942304,1
925,690,7,0.0724695268949088,1
925,691,7,0.096077324461948,1
925,720,7,0.100645379194508,1
925,721,7,0.109438238557348,1
926,720,7,0.0737687811821748,1
927,718,7,0.0769105863971517,1
927,719,7,0.0739061207556088,1
927,720,7,0.0700421102814553,1
928,718,7,0.0683651467106978,1
931,699,7,0.0746298234587803,1
931,709,7,0.081956152060574,1
931,710,7,0.0892270213265734,1
932,698,7,0.0747706550716104,1
932,699,7,0.0938210537175569,1
932,700,7,0.0829966779744054,1
932,708,7,0.0692337660539174,1
932,709,7,0.0997130166553148,1
932,710,7,0.109163583369583,1
932,711,7,0.0758466224899125,1
933,699,7,0.0769332337401302,1
933,700,7,0.0701203187864196,1
933,709,7,0.0724269934956783,1
933,710,7,0.0795717719875332,1
935,698,7,0.0742622548660221,1
935,699,7,0.0696603039911938,1
936,698,7,0.07314421526124,1
936,699,7,0.0690667890689368,1
940,697,7,0.0718445776283113,1
940,698,7,0.0806444629983745,1
940,699,7,0.0762615762004445,1
940,700,7,0.0697562901512653,1
940,701,7,0.0701439304833308,1
940,702,7,0.0691241651330444,1
941,699,7,0.0833017911730253,1
941,700,7,0.0756941048241464,1
891,717,8,0.0723437296197872,1
891,718,8,0.0681163134471812,1
892,715,8,0.0796412833377754,1
892,716,8,0.0846231297643277,1
892,717,8,0.0853842446082672,1
892,718,8,0.0857617861780313,1
892,719,8,0.0871370147838213,1
893,714,8,0.0798258463050318,1
893,715,8,0.10760512751658,1
893,716,8,0.104492720122111,1
893,717,8,0.0952257220722861,1
893,718,8,0.106408573928259,1
893,719,8,0.11621153713273,1
893,720,8,0.0846686520617719,1
894,714,8,0.0778630326552044,1
894,715,8,0.104378806562533,1
894,716,8,0.0962540468124473,1
894,717,8,0.083613666828726,1
894,718,8,0.095411914258609,1
894,719,8,0.110464766364715,1
894,720,8,0.0837326477387829,1
895,715,8,0.069334094801574,1
895,718,8,0.0862706236372661,1
895,719,8,0.112230827853168,1
895,720,8,0.093293833635841,1
895,721,8,0.0691004755690455,1
896,718,8,0.0796310348310744,1
896,719,8,0.115856966353847,1
896,720,8,0.102064381083157,1
896,721,8,0.077628802465526,1
896,722,8,0.0684616360119516,1
896,723,8,0.073482925113329,1
897,719,8,0.0908737784570663,1
897,720,8,0.0853745890893882,1
897,721,8,0.0753614266764688,1
897,722,8,0.0744185401008793,1
897,723,8,0.0776265203608778,1
897,724,8,0.0726707773780441,1
898,722,8,0.0739819513195093,1
898,723,8,0.0761841882947894,1
898,724,8,0.0720020188899325,1
899,723,8,0.0686761418693295,1
899,724,8,0.0691146294096851,1
905,723,8,0.0733266219091438,1
912,723,8,0.0762083809999706,1
912,724,8,0.0922656047320955,1
912,725,8,0.0740045747033839,1
913,723,8,0.0891898427870686,1
913,724,8,0.101910515717795,1
913,725,8,0.0769276033507094,1
914,724,8,0.0683009123530936,1
922,685,8,0.0873227996653776,1
923,684,8,0.0996390549015199,1
923,685,8,0.0719219715237425,1
923,720,8,0.0986803133889127,1
923,721,8,0.10770975692339,1
923,722,8,0.0805082495028246,1
924,684,8,0.0953490695290321,1
924,691,8,0.0722976742322808,1
924,720,8,0.118455367112411,1
924,721,8,0.133197930853451,1
924,722,8,0.0969126466404976,1
925,684,8,0.0820624046966744,1
925,691,8,0.0918129154328926,1
925,720,8,0.090155568378468,1
925,721,8,0.102172568416898,1
925,722,8,0.0832807251309054,1
926,720,8,0.0681687659154337,1
926,721,8,0.0745408573161568,1
927,720,8,0.0686117338082219,1
927,721,8,0.0719832050035809,1
928,720,8,0.0691556653649206,1
929,720,8,0.0723964695972868,1
931,709,8,0.0734214340731234,1
931,710,8,0.0823011990956492,1
932,699,8,0.0802110008800658,1
932,700,8,0.0757587404967412,1
932,709,8,0.0889746241463491,1
932,710,8,0.102168579226096,1
933,710,8,0.0720705838555699,1
940,696,8,0.0686239589409961,1
940,697,8,0.0780021152534485,1
940,698,8,0.0833220545851639,1
940,699,8,0.0770099747499796,1
940,700,8,0.0724544446389924,1
940,701,8,0.0721382922832422,1
940,702,8,0.0705780335076694,1
940,703,8,0.0693186950875307,1
941,697,8,0.0813613553262574,1
941,698,8,0.091718396767936,1
941,699,8,0.083384851396533,1
941,700,8,0.0778876087060483,1
941,701,8,0.0797617317429472,1
941,702,8,0.076363707870671,1
941,703,8,0.0735990668695715,1
942,699,8,0.0788449366315244,1
942,700,8,0.077306450691637,1
892,715,9,0.0717868541571968,1
892,716,9,0.0727245535867881,1
892,717,9,0.074442595041213,1
892,718,9,0.0761175460472414,1
892,719,9,0.0804012181958469,1
893,714,9,0.0756116435782366,1
893,715,9,0.102160684701355,1
893,716,9,0.0948555778758568,1
893,717,9,0.0867057509132971,1
893,718,9,0.100641881165336,1
893,719,9,0.117014502541438,1
893,720,9,0.0864626618449449,1
894,714,9,0.0713422570453422,1
894,715,9,0.0960081605187127,1
894,716,9,0.0858922554784168,1
894,717,9,0.0777514191696024,1
894,718,9,0.0978230446711742,1
894,719,9,0.121377563180876,1
894,720,9,0.0919371673458114,1
895,718,9,0.0782905229668616,1
895,719,9,0.106601552530767,1
895,720,9,0.089769245797118,1
896,719,9,0.0992210823438942,1
896,720,9,0.0956761711952727,1
896,721,9,0.0762476799201721,1
896,722,9,0.0705636520555426,1
896,723,9,0.08082519849878,1
896,724,9,0.0837442139961993,1
897,719,9,0.0758677005115844,1
897,720,9,0.0789108421366269,1
897,721,9,0.0727606359972886,1
897,722,9,0.0768064301826441,1
897,723,9,0.0912821853424527,1
897,724,9,0.0936611087295762,1
897,725,9,0.0821695438196198,1
898,722,9,0.0750680773978726,1
898,723,9,0.087092384962998,1
898,724,9,0.0882135093024096,1
898,725,9,0.0788085786913288,1
899,723,9,0.0713622569073378,1
899,724,9,0.0742344443361493,1
899,725,9,0.0699043933521345,1
912,724,9,0.0748940444567882,1
913,723,9,0.072750884641994,1
913,724,9,0.0837338337144268,1
921,685,9,0.104608083207476,1
921,686,9,0.0700168633757016,1
922,684,9,0.13331973893777,1
922,685,9,0.092208767747826,1
923,684,9,0.108110640650147,1
923,685,9,0.0749505460136028,1
923,720,9,0.08535130084038,1
923,721,9,0.095385619142059,1
923,722,9,0.0727692552849231,1
924,684,9,0.0980941119831267,1
924,720,9,0.105381327347774,1
924,721,9,0.121389063550756,1
924,722,9,0.0900350181471045,1
924,723,9,0.071253770084797,1
925,683,9,0.123955646619318,1
925,684,9,0.0840455416564002,1
925,691,9,0.0772489248831299,1
925,720,9,0.0788102618183791,1
925,721,9,0.0915548758836956,1
925,722,9,0.0774123559207306,1
926,684,9,0.0710687279354622,1
926,721,9,0.0722155723729298,1
926,722,9,0.073453677037221,1
927,721,9,0.0725660760939224,1
927,722,9,0.0771749092213512,1
928,720,9,0.0699365045411606,1
928,721,9,0.0748896299918913,1
929,720,9,0.0742879330356463,1
929,721,9,0.0768163492516661,1
930,682,9,0.0720118481123149,1
930,720,9,0.0767100786462378,1
932,709,9,0.0700156654205058,1
932,710,9,0.0807075173701108,1
939,697,9,0.0698208659261003,1
939,698,9,0.0678173936769241,1
940,692,9,0.0741049453794724,1
940,693,9,0.0765444852995084,1
940,694,9,0.0732576795876197,1
940,695,9,0.0684045414673149,1
940,696,9,0.0742947074722791,1
940,697,9,0.0822866918582269,1
940,698,9,0.0847550485905003,1
940,699,9,0.0800576745945425,1
940,700,9,0.0780709737181089,1
940,701,9,0.0816532550790665,1
940,702,9,0.0843703971566486,1
940,703,9,0.0786471362593533,1
941,693,9,0.0771851637178281,1
941,696,9,0.0717401219250047,1
941,697,9,0.0844108041854063,1
941,698,9,0.0952280820440221,1
941,699,9,0.0915890176067788,1
941,700,9,0.0867578859234227,1
941,701,9,0.0940286833121104,1
941,702,9,0.0974699473771825,1
941,703,9,0.088519359243475,1
942,697,9,0.0703156214220073,1
942,698,9,0.0867156160743353,1
942,699,9,0.0911285475885785,1
942,700,9,0.0881536714403744,1
942,701,9,0.0909126880418291,1
942,702,9,0.0918265601425739,1
942,703,9,0.0837015128832414,1
943,699,9,0.0770471293303804,1
943,700,9,0.0755829046330869,1
892,719,10,0.0754942858974702,1
893,714,10,0.0699476754733624,1
893,715,10,0.0905228734210831,1
893,716,10,0.0838689930094043,1
893,717,10,0.0752409243633132,1
893,718,10,0.0858360054921933,1
893,719,10,0.104668448169798,1
893,720,10,0.0811561935194074,1
894,707,10,0.06789340992388,1
894,715,10,0.0809308521572825,1
894,716,10,0.0737516444330974,1
894,717,10,0.0693393538248841,1
894,718,10,0.0895663061971564,1
894,719,10,0.11477778841562,1
894,720,10,0.0884877212467513,1
895,719,10,0.0892731845300474,1
895,720,10,0.0782223772855428,1
896,719,10,0.07678543002806,1
896,720,10,0.0836970984183446,1
896,721,10,0.0721219102459383,1
896,722,10,0.0719952744021796,1
896,723,10,0.0964885405522688,1
896,724,10,0.114280672947977,1
897,720,10,0.0721543508726433,1
897,721,10,0.0683313883332773,1
897,722,10,0.0768568940452714,1
897,723,10,0.120054864910426,1
897,724,10,0.148006430048473,1
897,725,10,0.115274233028353,1
898,722,10,0.0716038305623671,1
898,723,10,0.104707956732158,1
898,724,10,0.125901077939253,1
898,725,10,0.100746558490354,1
899,723,10,0.0706735464754385,1
899,724,10,0.0798732254330297,1
899,725,10,0.0734519579715149,1
921,685,10,0.10055904256354,1
921,686,10,0.0715522885400635,1
922,684,10,0.138988906168195,1
922,685,10,0.0927479134735171,1
923,685,10,0.0759933779911863,1
923,721,10,0.0741392847651629,1
924,684,10,0.0955726738561229,1
924,720,10,0.0808507628626606,1
924,721,10,0.0953998688191142,1
924,722,10,0.0780952742392577,1
924,723,10,0.0688084620104927,1
924,724,10,0.0721165673657646,1
925,683,10,0.118683517679471,1
925,684,10,0.0830400858809288,1
925,721,10,0.0761717654994079,1
925,722,10,0.0714768173627218,1
925,723,10,0.0715824830007762,1
926,683,10,0.0909265004652379,1
926,684,10,0.0708638835867392,1
926,721,10,0.0681072569059002,1
926,722,10,0.0730103437680981,1
926,723,10,0.0772536448266017,1
927,683,10,0.0755358609325439,1
927,721,10,0.070796726218457,1
927,722,10,0.0768604399926513,1
928,683,10,0.071145061640545,1
928,721,10,0.0743524549024975,1
928,722,10,0.0800889711740354,1
929,682,10,0.0781293081463733,1
929,683,10,0.0693251400864847,1
929,720,10,0.0717271540600091,1
929,721,10,0.0767594583594128,1
930,682,10,0.0748111639265598,1
930,683,10,0.0680445199922909,1
930,720,10,0.0754763045899797,1
939,692,10,0.068280043973581,1
940,690,10,0.0687468092463357,1
940,691,10,0.0721524760727617,1
940,692,10,0.0816253007945701,1
940,693,10,0.0873934850117117,1
940,694,10,0.0817344884209005,1
940,695,10,0.0706083297945737,1
940,696,10,0.0737139387933064,1
940,697,10,0.0805182644082624,1
940,698,10,0.0818571171045289,1
940,699,10,0.0836910187957254,1
940,700,10,0.0826471865255533,1
940,701,10,0.0841659301638122,1
940,702,10,0.0915314977880476,1
940,703,10,0.0799200834505173,1
941,691,10,0.0722155364342739,1
941,692,10,0.0850388022479773,1
941,693,10,0.0939762068847539,1
941,694,10,0.0877392268608006,1
941,695,10,0.073203238513742,1
941,696,10,0.0713857547985054,1
941,697,10,0.0809077615708815,1
941,698,10,0.095272508212462,1
941,699,10,0.10839660453496,1
941,700,10,0.103970375718042,1
941,701,10,0.106116236921803,1
941,702,10,0.117252560197967,1
941,703,10,0.0995306938642747,1
942,693,10,0.0871941991750976,1
942,698,10,0.0906507491484695,1
942,699,10,0.113855195201049,1
942,700,10,0.108140960896155,1
942,701,10,0.100043346810808,1
942,702,10,0.103590576002734,1
942,703,10,0.089137138748225,1
943,699,10,0.086437792295078,1
943,700,10,0.0834067619970661,1
892,719,11,0.0681297005964954,1
893,706,11,0.069144147025712,1
893,707,11,0.073652393845117,1
893,715,11,0.0731154164183306,1
893,716,11,0.0697193991210076,1
893,718,11,0.069713121835781,1
893,719,11,0.0831361139694322,1
893,720,11,0.0710684164671113,1
894,718,11,0.0728951783453402,1
894,719,11,0.0901481290767014,1
894,720,11,0.0757805492710826,1
895,719,11,0.0680533369425328,1
896,720,11,0.0715114382678833,1
896,721,11,0.0690026625273002,1
896,722,11,0.0720145255421778,1
896,723,11,0.100532699528782,1
896,724,11,0.134508290185383,1
897,720,11,0.0681583616745574,1
897,721,11,0.0678520085923097,1
897,722,11,0.0772767773414346,1
897,723,11,0.138725919064039,1
897,724,11,0.19585559972656,1
897,725,11,0.139733770749902,1
898,723,11,0.109477747119708,1
898,724,11,0.153904754128321,1
898,725,11,0.112259914205324,1
899,724,11,0.0798654806526882,1
899,725,11,0.0715271434605016,1
904,727,11,0.0682050579680936,1
920,725,11,0.0677712304734501,1
921,685,11,0.089050358873834,1
921,686,11,0.06917162212813,1
922,684,11,0.131352984015348,1
922,685,11,0.0906083235652067,1
923,685,11,0.0777068492465389,1
923,724,11,0.0682549767611067,1
924,684,11,0.0914698390341146,1
924,685,11,0.0700156354716259,1
924,721,11,0.070071981294265,1
924,722,11,0.0692945443107814,1
924,723,11,0.0699992773934258,1
924,724,11,0.0742653096517717,1
925,683,11,0.108112233930557,1
925,684,11,0.0790510328434272,1
925,722,11,0.0698258793685952,1
925,723,11,0.0745870025503029,1
925,724,11,0.0784796381638624,1
926,682,11,0.107710847062619,1
926,683,11,0.0869956440911531,1
926,684,11,0.0688675990687384,1
926,722,11,0.0739999386167758,1
926,723,11,0.0792665389933937,1
927,682,11,0.0925381694880428,1
927,683,11,0.07532015711997,1
927,721,11,0.0700776955405495,1
927,722,11,0.0773081817368951,1
927,723,11,0.0819795660948779,1
928,682,11,0.084414386071442,1
928,683,11,0.0715326061361949,1
928,721,11,0.0749190338021747,1
928,722,11,0.080438582418407,1
929,682,11,0.0784158230905768,1
929,683,11,0.0710915070535123,1
929,720,11,0.0695341113908576,1
929,721,11,0.0776397278169126,1
930,681,11,0.0844962363602019,1
930,682,11,0.07615068148796,1
930,683,11,0.0706237953961528,1
930,684,11,0.0680713002806953,1
930,720,11,0.0733883645199405,1
930,721,11,0.0819144751993086,1
931,682,11,0.0728834623435243,1
931,719,11,0.0682152885054666,1
931,720,11,0.0751307723830501,1
932,719,11,0.0741941571029112,1
940,690,11,0.0693879009591979,1
940,691,11,0.0704319428715293,1
940,692,11,0.0791381241861691,1
940,693,11,0.0895175314513553,1
940,694,11,0.0847829968852207,1
940,695,11,0.0703011561130168,1
940,696,11,0.0683360363994374,1
940,697,11,0.0743522572398901,1
940,698,11,0.0773393345617645,1
940,699,11,0.0855619432922511,1
940,700,11,0.0828107613177776,1
940,701,11,0.0775593929414755,1
940,702,11,0.0868126624247552,1
940,703,11,0.0722817534077273,1
941,691,11,0.0719050024883925,1
941,692,11,0.0851929251737059,1
941,693,11,0.104384281217778,1
941,694,11,0.100432772096116,1
941,695,11,0.0778105682074,1
941,697,11,0.0742770136740356,1
941,698,11,0.0962850558826932,1
941,699,11,0.12858804352545,1
941,700,11,0.122293184296207,1
941,701,11,0.106788840846094,1
941,702,11,0.119657155764939,1
941,703,11,0.0978041768768388,1
942,691,11,0.0719479132435097,1
942,692,11,0.0822366053514863,1
942,693,11,0.0968335336793603,1
942,694,11,0.0929190234039236,1
942,695,11,0.0734825118187864,1
942,698,11,0.0957703244838946,1
942,699,11,0.139104568742359,1
942,700,11,0.131037754085099,1
942,701,11,0.101079709830334,1
942,702,11,0.102893174405888,1
942,703,11,0.0853280365504756,1
943,698,11,0.0684453797599432,1
943,699,11,0.0935315678444675,1
943,700,11,0.0902204975500858,1
943,701,11,0.0730170583069711,1
943,702,11,0.0711344956757172,1
890,719,12,0.0699982231928534,1
891,720,12,0.0688477609306943,1
896,723,12,0.0851447494055027,1
896,724,12,0.124378297191983,1
896,725,12,0.0890121920212926,1
897,723,12,0.126844539533336,1
897,724,12,0.195510744364316,1
897,725,12,0.135426798372736,1
897,726,12,0.0728101594650871,1
898,723,12,0.0891675548306489,1
898,724,12,0.142317256966277,1
898,725,12,0.10043462892667,1
908,727,12,0.0684487400242677,1
908,728,12,0.0862363920675432,1
909,727,12,0.0742157382657653,1
909,728,12,0.0981177955573496,1
910,727,12,0.0720988496084172,1
910,728,12,0.0970694110574331,1
920,725,12,0.0720097576804981,1
921,725,12,0.0730130451570649,1
922,685,12,0.0902348071249008,1
923,685,12,0.0848640205848954,1
924,684,12,0.0975705696238622,1
924,685,12,0.0763281585502327,1
925,682,12,0.121170556523024,1
925,683,12,0.100466236974513,1
925,684,12,0.0776863941615689,1
925,723,12,0.0740466528796399,1
926,682,12,0.0999044019774119,1
926,683,12,0.0828023636518543,1
926,722,12,0.0725554622108867,1
926,723,12,0.0795634761478016,1
927,682,12,0.0902118543033474,1
927,683,12,0.0742710837958159,1
927,721,12,0.0679154582892606,1
927,722,12,0.0764898226039195,1
928,682,12,0.083999126882335,1
928,683,12,0.0710205222183792,1
928,721,12,0.0743296458355675,1
928,722,12,0.0811819255970153,1
929,682,12,0.0789900449444039,1
929,683,12,0.0714260120828636,1
929,721,12,0.0772737884432208,1
930,681,12,0.0865361863450933,1
930,682,12,0.0775662332656441,1
930,683,12,0.0710762391145405,1
930,720,12,0.0702386348313428,1
931,682,12,0.0737989816326634,1
933,718,12,0.0704275044475285,1
934,683,12,0.0759828359854624,1
935,684,12,0.0683665722773809,1
940,691,12,0.0688258862688171,1
940,692,12,0.0729953872974773,1
940,693,12,0.0827002140122998,1
940,694,12,0.0795310894290804,1
940,699,12,0.0770275307833755,1
940,700,12,0.0727538915095357,1
940,702,12,0.0720721232279967,1
941,691,12,0.0731524631827638,1
941,692,12,0.0828417104902636,1
941,693,12,0.10557766022483,1
941,694,12,0.105461494509484,1
941,695,12,0.0767399376794956,1
941,698,12,0.0869931523443456,1
941,699,12,0.126532040940933,1
941,700,12,0.118012674749318,1
941,701,12,0.0917024220353987,1
941,702,12,0.101288657175603,1
941,703,12,0.085268863553574,1
942,693,12,0.0961449490327566,1
942,694,12,0.0942601282559584,1
942,695,12,0.0713545660349801,1
942,698,12,0.0888406628065675,1
942,699,12,0.1389837429813,1
942,700,12,0.130458207320426,1
942,701,12,0.0902581852205488,1
942,702,12,0.0901001928995375,1
942,703,12,0.0777244651776946,1
943,692,12,0.0762964726353011,1
943,693,12,0.0689503178750153,1
943,699,12,0.0867543579453708,1
943,700,12,0.083884278917704,1
891,720,13,0.0685261279299229,1
896,723,13,0.0707024830831955,1
896,724,13,0.101311981363267,1
896,725,13,0.0771850618916364,1
897,723,13,0.104852166578641,1
897,724,13,0.15966671496822,1
897,725,13,0.115793546605776,1
897,726,13,0.0713886478603035,1
898,723,13,0.0695575733433693,1
898,724,13,0.111840114766024,1
898,725,13,0.084017539453696,1
905,728,13,0.0737840071927147,1
906,728,13,0.0688696715312273,1
907,728,13,0.0717115506935825,1
908,728,13,0.0956646708253921,1
909,727,13,0.0806895660115002,1
909,728,13,0.122671031344546,1
909,729,13,0.10803428298596,1
910,727,13,0.0743760845687366,1
910,728,13,0.113475155894701,1
910,729,13,0.103281228032497,1
911,728,13,0.0819104440800744,1
918,726,13,0.0713201368026499,1
919,725,13,0.0716538931100038,1
919,726,13,0.081650775311811,1
920,725,13,0.0765503373106404,1
920,726,13,0.0881723894903103,1
921,725,13,0.0748975604552881,1
922,685,13,0.0860157526795622,1
922,725,13,0.0738533747883333,1
923,685,13,0.0899686873679075,1
924,684,13,0.111323508567344,1
924,685,13,0.0821904421480123,1
924,724,13,0.0687949191270031,1
925,683,13,0.0958806142290051,1
925,684,13,0.08052656623777,1
925,723,13,0.0706400516481611,1
925,724,13,0.0749533372492093,1
926,682,13,0.0918663801732857,1
926,683,13,0.0774091394110296,1
926,722,13,0.0693580179668362,1
926,723,13,0.0779995875679852,1
927,682,13,0.0864430812672679,1
927,683,13,0.0718575574728589,1
927,722,13,0.0743275554037507,1
927,723,13,0.0817044616739152,1
928,682,13,0.082256856784073,1
928,683,13,0.0705254612438973,1
928,721,13,0.0695868453785812,1
928,722,13,0.0800647844586301,1
929,682,13,0.0793541394670939,1
929,683,13,0.0726627750373355,1
929,721,13,0.073394084756001,1
930,681,13,0.0844780633798801,1
930,682,13,0.0779071773041734,1
930,683,13,0.0716077179269778,1
931,682,13,0.0741884308770747,1
932,719,13,0.0727149519758929,1
933,682,13,0.074371017218258,1
933,683,13,0.0699564984133802,1
933,718,13,0.0680719292071731,1
933,719,13,0.0786851054492873,1
934,682,13,0.0988421990643107,1
934,683,13,0.0865633559689364,1
934,684,13,0.0699516826334927,1
934,685,13,0.0680586019556187,1
934,718,13,0.0754029837422146,1
935,683,13,0.0943384325973384,1
935,716,13,0.071848764481721,1
935,717,13,0.0770173900926422,1
936,716,13,0.0807917935181424,1
940,691,13,0.0688510193688271,1
940,692,13,0.0702928123550774,1
940,693,13,0.0749037958120828,1
940,694,13,0.071502465583466,1
941,693,13,0.107764838903298,1
941,694,13,0.100691644224174,1
941,695,13,0.0722611905067897,1
941,698,13,0.0744547542864514,1
941,699,13,0.108060266634159,1
941,700,13,0.0990525120785031,1
941,701,13,0.0741046279213455,1
941,702,13,0.077837749810795,1
941,703,13,0.0694221864369046,1
942,694,13,0.0884841453504915,1
942,698,13,0.0785027646889193,1
942,699,13,0.120754494703936,1
942,700,13,0.112945959186912,1
942,701,13,0.0784999494942089,1
942,702,13,0.0754348014322177,1
942,703,13,0.0692708307876785,1
943,693,13,0.0785056876995973,1
943,699,13,0.0754111418170987,1
943,700,13,0.0732807641842447,1
892,723,14,0.0700536585695437,1
893,724,14,0.0747267560034566,1
896,724,14,0.0822513581697238,1
896,725,14,0.0719248106775568,1
897,723,14,0.0804352401234105,1
897,724,14,0.116138378008916,1
897,725,14,0.0953694167980344,1
897,726,14,0.0705029696350942,1
898,724,14,0.0832574129227931,1
898,725,14,0.0736308725800227,1
899,727,14,0.0694861752136936,1
900,727,14,0.0689860229296291,1
903,728,14,0.0739668151556091,1
907,728,14,0.0681329770039562,1
908,728,14,0.0966056107237882,1
908,729,14,0.0884044274219803,1
909,727,14,0.0801309894525316,1
909,728,14,0.135736913034299,1
910,727,14,0.068687408637947,1
910,728,14,0.116758367741002,1
911,728,14,0.0738845994905144,1
918,726,14,0.0718219123160049,1
919,725,14,0.0727054941196213,1
919,726,14,0.0816772980398482,1
920,725,14,0.0793494015542942,1
920,726,14,0.0879885093575156,1
921,725,14,0.0761554313803118,1
921,726,14,0.0893088656255573,1
922,685,14,0.082229681170454,1
922,725,14,0.0720587600377864,1
923,685,14,0.0901477756799186,1
924,685,14,0.081630607736088,1
925,684,14,0.0800990639465608,1
925,724,14,0.0723915040729998,1
926,683,14,0.0716873699679533,1
926,723,14,0.075819896109492,1
926,724,14,0.0824624977730013,1
927,681,14,0.13174356532742,1
927,682,14,0.084800445102649,1
927,683,14,0.0686852702879223,1
927,722,14,0.0709181749162174,1
927,723,14,0.0800893485299221,1
928,681,14,0.110629509163255,1
928,682,14,0.0827420406179647,1
928,683,14,0.0704239944388045,1
928,722,14,0.0769738623905991,1
929,681,14,0.0899537967848224,1
929,682,14,0.0809267192118567,1
929,683,14,0.0742371337455641,1
929,721,14,0.0689261131902821,1
929,722,14,0.0836118159879484,1
930,681,14,0.0840791083609893,1
930,682,14,0.0787234340257802,1
930,683,14,0.0729116861679397,1
930,721,14,0.0776411054653879,1
931,682,14,0.0736579283981221,1
931,683,14,0.0677428868535151,1
931,720,14,0.0697060838490051,1
932,682,14,0.0684209115250669,1
933,682,14,0.0706019506831555,1
934,682,14,0.109376016764473,1
934,683,14,0.08845594548518,1
934,684,14,0.0690438661962632,1
934,686,14,0.069712846306086,1
934,687,14,0.0714468505134963,1
934,718,14,0.0717941616838918,1
935,683,14,0.108313107057806,1
935,685,14,0.0719903567961005,1
935,688,14,0.0826796391318102,1
935,716,14,0.0700282020216308,1
935,717,14,0.0767089944967855,1
936,685,14,0.0830032846973107,1
936,688,14,0.104850513400471,1
936,716,14,0.0819184224616791,1
937,685,14,0.0749373864757759,1
937,688,14,0.0742335518595283,1
937,715,14,0.0764181669138767,1
940,690,14,0.075662370991007,1
940,691,14,0.0677893136071322,1
940,692,14,0.0694029412866825,1
941,693,14,0.103712551800781,1
941,694,14,0.0879588360073131,1
941,698,14,0.0684661582928161,1
941,699,14,0.0900973657252751,1
941,700,14,0.0819984398789893,1
942,694,14,0.0792101991605305,1
942,698,14,0.0739541827180683,1
942,699,14,0.100120465176545,1
942,700,14,0.093201495249341,1
942,701,14,0.0701585694958247,1
943,693,14,0.0841000426280377,1
943,699,14,0.0691847157784212,1
896,725,15,0.0684268414032866,1
896,726,15,0.0678520744798455,1
897,724,15,0.080466926038342,1
897,725,15,0.0784873230464442,1
897,726,15,0.071472360969393,1
898,726,15,0.0683903816368994,1
898,727,15,0.0761358867412907,1
899,727,15,0.0745478893131567,1
900,727,15,0.0745381259783101,1
901,727,15,0.0723783385453968,1
901,728,15,0.0814640081069941,1
902,728,15,0.0827824416569465,1
903,728,15,0.0781375141394652,1
908,728,15,0.0883732925664388,1
908,729,15,0.0846892509013654,1
909,727,15,0.0734017995874626,1
909,728,15,0.128589229501094,1
909,729,15,0.113980285682605,1
910,728,15,0.104435877148065,1
910,729,15,0.0961101124956598,1
918,726,15,0.0677732130892993,1
918,727,15,0.0733528092097262,1
919,726,15,0.0773369266718208,1
920,725,15,0.076609785837237,1
920,726,15,0.0843804480007422,1
921,725,15,0.0739770037645502,1
921,726,15,0.0854804703593779,1
922,685,15,0.0851194845304212,1
922,725,15,0.0697405849586471,1
923,685,15,0.0904282888685907,1
923,725,15,0.068465008255828,1
924,685,15,0.0783382435120903,1
925,684,15,0.0756214129028592,1
925,724,15,0.0701180067328915,1
926,683,15,0.0696853172956842,1
926,723,15,0.0713824484421647,1
926,724,15,0.0814875419368175,1
927,682,15,0.0849218878106334,1
927,723,15,0.0770692915015046,1
928,681,15,0.105606303333564,1
928,682,15,0.0834786273292681,1
928,683,15,0.0697042509775554,1
928,722,15,0.0726358390147556,1
928,723,15,0.0833744052272248,1
929,682,15,0.0819284074182369,1
929,683,15,0.0731979615211041,1
929,722,15,0.079236356512233,1
930,682,15,0.0774050424042597,1
930,683,15,0.0711633544163864,1
930,721,15,0.0710152092870854,1
930,722,15,0.0862339482389436,1
931,681,15,0.0747501221195527,1
931,682,15,0.0711939142534338,1
931,721,15,0.0780199647858674,1
933,719,15,0.0701502496969892,1
934,683,15,0.0821210565830657,1
934,718,15,0.0683734665095333,1
934,719,15,0.0778465787405887,1
935,683,15,0.110387162827124,1
935,686,15,0.0990820776127379,1
935,687,15,0.113747163601483,1
935,688,15,0.0683349103215532,1
935,717,15,0.0770366352428643,1
935,718,15,0.077008375479793,1
936,685,15,0.0748370876769991,1
936,686,15,0.122667581233581,1
936,687,15,0.142939654588307,1
936,688,15,0.0865922446584855,1
936,716,15,0.0833186404128556,1
936,717,15,0.0874599236068763,1
937,685,15,0.0712858093965114,1
937,686,15,0.0885314945296095,1
937,687,15,0.0966353739206304,1
937,715,15,0.0743033267599136,1
937,716,15,0.0945054455209749,1
938,688,15,0.0756230541014775,1
938,714,15,0.0683423316539918,1
938,715,15,0.0917428889619162,1
939,689,15,0.0808240724208959,1
940,690,15,0.0727736278213881,1
941,693,15,0.0878892048615514,1
941,694,15,0.0730921042102183,1
941,699,15,0.0762437745862335,1
941,700,15,0.0701613188029993,1
942,694,15,0.0715472092100329,1
942,698,15,0.0713001189713264,1
942,699,15,0.0833968728769239,1
942,700,15,0.0780802638606531,1
943,693,15,0.0769127007880724,1
889,717,16,0.0682126470142596,1
890,718,16,0.0742632072404029,1
890,720,16,0.0681212550123643,1
896,726,16,0.0686358606258674,1
897,726,16,0.069870359445019,1
897,727,16,0.0758708391541976,1
898,727,16,0.0776339836217482,1
899,727,16,0.075334484664113,1
900,727,16,0.077793323642355,1
900,728,16,0.0926870573495653,1
901,727,16,0.0776369186119782,1
901,728,16,0.09865305391843,1
902,728,16,0.089165763887631,1
903,728,16,0.076744501888792,1
904,728,16,0.0680947023354472,1
904,729,16,0.0773840721985554,1
908,728,16,0.073542229885302,1
908,729,16,0.0769211104335477,1
909,728,16,0.102370039351391,1
909,729,16,0.0989971605586765,1
910,728,16,0.082468715160468,1
910,729,16,0.0828077544502358,1
918,727,16,0.0696393517548175,1
919,726,16,0.0700669498824423,1
919,727,16,0.0765900315560566,1
920,726,16,0.0767853461711962,1
921,685,16,0.0729957347044841,1
921,726,16,0.0771881406364899,1
922,685,16,0.0821263036268237,1
923,684,16,0.0887681445887837,1
923,685,16,0.0810072337805731,1
924,684,16,0.0856859616039067,1
924,685,16,0.0682602477639687,1
926,724,16,0.0761821996891642,1
927,723,16,0.0713323679252001,1
927,724,16,0.0836827169662178,1
928,683,16,0.0679761466994849,1
928,723,16,0.0789259243925433,1
929,683,16,0.0693955858417796,1
929,722,16,0.0731065934783127,1
934,683,16,0.0759748456243057,1
935,686,16,0.0761604568023586,1
935,687,16,0.0794475080950624,1
935,717,16,0.0706765233941003,1
935,718,16,0.0730539912656607,1
936,685,16,0.0678355846265739,1
936,686,16,0.0889561696465563,1
936,687,16,0.0953205522055936,1
936,716,16,0.0787824452987303,1
936,717,16,0.0839306697326653,1
937,686,16,0.0723667662982044,1
937,687,16,0.0737165922640654,1
937,715,16,0.0695659710092926,1
937,716,16,0.0904776386328859,1
938,685,16,0.0747213292664192,1
938,686,16,0.0770942029798033,1
938,688,16,0.0694028993582506,1
938,715,16,0.0876302368970775,1
939,689,16,0.0737086078926847,1
941,690,16,0.0757977339383678,1
941,691,16,0.0815859359868328,1
941,692,16,0.0984051370906383,1
941,693,16,0.072326550942278,1
942,693,16,0.0923802131056874,1
942,709,16,0.0680309771088013,1
943,693,16,0.0703107157954801,1
887,718,17,0.08079422536719,1
888,717,17,0.0695587413496853,1
889,718,17,0.111069230597462,1
889,720,17,0.108505989823898,1
889,721,17,0.0763150888590454,1
890,718,17,0.0687827538919887,1
890,719,17,0.0845182547767026,1
890,720,17,0.0687100559809255,1
897,727,17,0.0752192952822512,1
898,727,17,0.0761506575288561,1
899,727,17,0.0750197878239259,1
899,728,17,0.0857440025331481,1
900,727,17,0.0785352232849522,1
900,728,17,0.102127585199292,1
901,727,17,0.0799673008545637,1
901,728,17,0.11354583525126,1
902,728,17,0.0901080934140544,1
903,728,17,0.0707789186144699,1
903,729,17,0.0787764734920787,1
904,729,17,0.0764199937955505,1
905,729,17,0.0743225479510318,1
908,729,17,0.0680489164878599,1
909,728,17,0.0711903982549339,1
909,729,17,0.0778915919070747,1
919,727,17,0.0718745324979848,1
921,726,17,0.0682059983629223,1
922,685,17,0.0721055042495304,1
923,685,17,0.0680761220503588,1
926,724,17,0.0683920767435016,1
928,723,17,0.0722311877189083,1
934,683,17,0.0716675438094611,1
935,683,17,0.0890604756054633,1
936,683,17,0.0787936042513801,1
936,717,17,0.0718417804029289,1
937,716,17,0.0785611051069597,1
938,685,17,0.0697726661987933,1
938,686,17,0.0692081238229491,1
938,687,17,0.0756225210114154,1
938,715,17,0.0752479264114332,1
939,688,17,0.0938664741888094,1
940,689,17,0.0749831663335872,1
941,688,17,0.0924949233054708,1
941,689,17,0.0746059721708299,1
941,690,17,0.0691856142448181,1
941,691,17,0.0718191809781582,1
941,692,17,0.07996431195635,1
942,691,17,0.0920079006103534,1
942,692,17,0.10297445566593,1
942,693,17,0.0813757367783841,1
943,692,17,0.0845143913711958,1
943,693,17,0.0683957185272971,1
887,718,18,0.0730056537735062,1
887,719,18,0.0875744900520363,1
888,718,18,0.090432002529698,1
888,720,18,0.103338490290861,1
889,718,18,0.0871085693376947,1
889,719,18,0.116328613294025,1
889,720,18,0.100009810055099,1
889,721,18,0.0799208441520667,1
890,719,18,0.0768304551740979,1
890,720,18,0.0699376066599409,1
895,726,18,0.0689790089019571,1
896,726,18,0.067865353813192,1
896,727,18,0.0738992025643525,1
897,727,18,0.0742065140107569,1
898,727,18,0.0740909053445765,1
899,727,18,0.0749300010819931,1
899,728,18,0.0896125292983902,1
900,727,18,0.0775295039593378,1
900,728,18,0.10822140358756,1
901,727,18,0.0762300759685683,1
901,728,18,0.115604712928246,1
902,728,18,0.0824154301133544,1
902,729,18,0.0851942369346454,1
905,729,18,0.0681764268389115,1
919,727,18,0.0680288387587766,1
927,724,18,0.0709756947349486,1
935,683,18,0.0786246446505502,1
939,686,18,0.0822998693653818,1
939,687,18,0.0966328043067352,1
939,688,18,0.0778880818983507,1
940,688,18,0.091465915730848,1
941,688,18,0.0755177658193098,1
942,691,18,0.0823026785703162,1
942,692,18,0.0824600120159698,1
942,693,18,0.0713743442752644,1
943,692,18,0.0760338329381519,1
887,719,19,0.0758608302385359,1
887,720,19,0.080078566933159,1
888,718,19,0.0689429504505605,1
888,719,19,0.0874308432444958,1
888,720,19,0.0900514421128403,1
888,721,19,0.0846024051394386,1
889,719,19,0.0859652888169349,1
889,720,19,0.085876717999526,1
889,721,19,0.0782751591914742,1
889,722,19,0.0754804674842855,1
895,726,19,0.0687299839656093,1
897,727,19,0.0721905710479913,1
898,727,19,0.0722811184914735,1
898,728,19,0.0879377999140731,1
899,727,19,0.0752493819269962,1
899,728,19,0.105037669940726,1
900,727,19,0.0739948413174172,1
900,728,19,0.114738902789961,1
901,728,19,0.102900601728103,1
901,729,19,0.108452045901426,1
902,728,19,0.0679164525920732,1
902,729,19,0.0738641204464405,1
936,683,19,0.0717460278441205,1
939,685,19,0.0759222314321018,1
939,686,19,0.0730883725797831,1
939,687,19,0.0757396870193504,1
940,686,19,0.0864352286709588,1
940,687,19,0.0894304101597334,1
940,688,19,0.073236847146763,1
941,687,19,0.0823577425808958,1
941,688,19,0.0680470716368582,1
942,691,19,0.0746720334101079,1
942,692,19,0.0717731255906518,1
942,708,19,0.068161961529921,1
942,709,19,0.0778590314848501,1
943,692,19,0.0714986500961671,1
943,708,19,0.103331398396101,1
944,692,19,0.0695577350673208,1
945,700,19,0.0679574765677568,1
887,720,20,0.0768137976070989,1
888,719,20,0.0705268448821485,1
888,720,20,0.0821793430931222,1
888,721,20,0.0849294588874715,1
889,719,20,0.0694232885556848,1
889,720,20,0.0763814555768983,1
889,721,20,0.077236334374021,1
889,722,20,0.0734453572383855,1
895,726,20,0.068006808362724,1
895,727,20,0.0700555393592013,1
896,727,20,0.0740008131240688,1
897,727,20,0.0731174709114915,1
897,728,20,0.0794840277592095,1
898,727,20,0.0719091174644905,1
898,728,20,0.0905389499798121,1
899,727,20,0.0731520319188933,1
899,728,20,0.112110157826284,1
900,727,20,0.070052107217565,1
900,728,20,0.115504156569102,1
900,729,20,0.131378811929372,1
901,728,20,0.0869037249889716,1
901,729,20,0.098079682612792,1
937,683,20,0.0680938038690503,1
938,684,20,0.0693578023349009,1
939,685,20,0.0725162950657567,1
940,686,20,0.0782600709457818,1
940,687,20,0.072807266403289,1
941,687,20,0.0749266288381167,1
942,690,20,0.070601531398837,1
942,708,20,0.0708479747417376,1
942,709,20,0.084500009919069,1
943,691,20,0.0732940435175913,1
943,708,20,0.119941107085023,1
944,692,20,0.0690645548824964,1
887,720,21,0.072465076491356,1
888,720,21,0.0765864257109169,1
888,721,21,0.0827336429520414,1
889,720,21,0.0705348052944253,1
889,721,21,0.0755724944024345,1
889,722,21,0.0719259966532007,1
896,727,21,0.074132234798835,1
897,727,21,0.073923874451612,1
897,728,21,0.0785154690037718,1
898,727,21,0.0683001756106481,1
898,728,21,0.0852532961258033,1
899,728,21,0.101421079142958,1
899,729,21,0.119818256779684,1
900,728,21,0.100936889611879,1
900,729,21,0.121865753882309,1
900,730,21,0.100485727705551,1
901,728,21,0.0719858584743398,1
901,729,21,0.0875639959645202,1
919,728,21,0.0687784292737315,1
937,683,21,0.0687325176408486,1
938,683,21,0.0732420163234333,1
938,684,21,0.0678718167814739,1
939,684,21,0.0737881640972444,1
939,685,21,0.0712616466402101,1
940,686,21,0.0751069989621874,1
941,687,21,0.0717504722578973,1
942,687,21,0.0775811897362649,1
942,688,21,0.0707141631463555,1
942,709,21,0.0816708051226864,1
943,691,21,0.0689064008375336,1
943,708,21,0.116017049106675,1
943,709,21,0.147732541552034,1
944,692,21,0.0700558628071042,1
944,708,21,0.112291528242944,1
945,692,21,0.0716484543934144,1
887,720,22,0.0679318223572366,1
887,721,22,0.072442560923449,1
888,720,22,0.0704769979664471,1
888,721,22,0.0776508029126987,1
888,722,22,0.0748030358005556,1
889,721,22,0.0716031716870094,1
889,722,22,0.0699573130229134,1
895,726,22,0.0679939722727999,1
895,727,22,0.0695811431118487,1
896,727,22,0.0756669891082872,1
896,728,22,0.0750936297822012,1
897,727,22,0.0760757793393363,1
897,728,22,0.0798360528833009,1
898,728,22,0.0796518073741713,1
899,728,22,0.0857511123972358,1
899,729,22,0.101582431728294,1
900,728,22,0.0835170038239688,1
900,729,22,0.10320597248709,1
901,729,22,0.0831488003149568,1
902,729,22,0.0681951149399676,1
902,730,22,0.0750350018549138,1
907,730,22,0.0686332610630923,1
908,730,22,0.0700480521392269,1
915,729,22,0.068990143895503,1
938,683,22,0.0726588756931728,1
939,684,22,0.072277153259775,1
939,685,22,0.0708225241836007,1
940,686,22,0.073397876284196,1
941,687,22,0.0714481862335397,1
942,687,22,0.0775205133055925,1
942,688,22,0.0720719016062854,1
942,709,22,0.0710269133093493,1
943,688,22,0.0859827729730191,1
943,690,22,0.0736670687962668,1
943,708,22,0.0999301220754679,1
943,709,22,0.124130224630016,1
944,691,22,0.0769103168572326,1
944,692,22,0.0693102195545198,1
945,692,22,0.0714052335499907,1
945,693,22,0.0680994102993671,1
887,721,23,0.0682606011607515,1
888,721,23,0.0709780067884767,1
888,722,23,0.0712115301845896,1
889,722,23,0.0678860844278571,1
894,725,23,0.0681791881256381,1
894,726,23,0.0692269317195248,1
895,726,23,0.070135419011664,1
895,727,23,0.0715579548681401,1
896,727,23,0.077527958597135,1
896,728,23,0.0777702989434898,1
897,727,23,0.0773233777985551,1
897,728,23,0.0812154683425006,1
898,728,23,0.0771818453819354,1
899,728,23,0.0762640260188202,1
899,729,23,0.0870042993174435,1
900,728,23,0.0732755171404867,1
900,729,23,0.0882584505915838,1
901,729,23,0.080266160727061,1
902,729,23,0.0708739883388166,1
902,730,23,0.075856984802357,1
907,730,23,0.073516222277999,1
928,724,23,0.0692436551740595,1
939,683,23,0.0738951594655663,1
939,684,23,0.0712874206462499,1
939,685,23,0.0719582515968503,1
940,686,23,0.0720847257166575,1
941,687,23,0.0707205901759815,1
942,688,23,0.0742846446486335,1
943,688,23,0.0840856731554629,1
943,689,23,0.0799355849907523,1
943,690,23,0.0681521862155225,1
943,708,23,0.081726737650783,1
944,690,23,0.0846110903146089,1
944,691,23,0.0734494302860516,1
945,691,23,0.0768854173584858,1
945,692,23,0.0709879617961546,1
946,696,23,0.0695037731755214,1
946,698,23,0.069015271005737,1
946,699,23,0.0703178556084477,1
946,700,23,0.0694118181346841,1
891,723,24,0.0677747045435182,1
891,724,24,0.0726793008292629,1
892,723,24,0.0709853023356197,1
892,724,24,0.0753368925540568,1
893,723,24,0.0702573708506067,1
893,724,24,0.0759748815629616,1
893,725,24,0.0778597861966236,1
894,724,24,0.0745780897636454,1
894,725,24,0.0783547693040177,1
894,726,24,0.0748508641617519,1
895,725,24,0.0718822652987743,1
895,726,24,0.0732892217479278,1
895,727,24,0.073849086108732,1
896,726,24,0.0696977760297216,1
896,727,24,0.0802599313600424,1
897,727,24,0.0791865515249634,1
897,728,24,0.0839478304408466,1
898,727,24,0.0679883119344993,1
898,728,24,0.0776992602003729,1
899,728,24,0.0737893440831124,1
899,729,24,0.0825220481257895,1
900,728,24,0.0708432547982658,1
900,729,24,0.0828968583577069,1
901,729,24,0.0802042923309688,1
902,729,24,0.0724984635026657,1
907,729,24,0.0684546399536075,1
907,730,24,0.077397621071821,1
908,729,24,0.0693305847928501,1
938,685,24,0.0709477045117964,1
939,684,24,0.0700675608395922,1
939,685,24,0.0735082019679625,1
942,688,24,0.0736988924760459,1
943,688,24,0.0804752877656094,1
943,689,24,0.0751892745250419,1
944,688,24,0.0850002041315654,1
944,689,24,0.087291395269917,1
944,690,24,0.078649556128849,1
944,691,24,0.0690539469892367,1
945,690,24,0.08457162368068,1
945,691,24,0.0759248429744288,1
945,692,24,0.0706415850308119,1
946,692,24,0.0769731136686017,1
946,695,24,0.0687804178793567,1
947,696,24,0.0765368962533424,1
891,723,25,0.0677515001513736,1
892,723,25,0.0766637117903805,1
892,724,25,0.089000380183061,1
893,723,25,0.0822074830606739,1
893,724,25,0.100649044937408,1
894,723,25,0.0801083900277609,1
894,724,25,0.0994667050874857,1
894,725,25,0.0999107691092781,1
895,723,25,0.0678506608927143,1
895,724,25,0.0815801139245808,1
895,725,25,0.0830038417464768,1
895,726,25,0.0806371854205594,1
896,725,25,0.068069030155599,1
896,726,25,0.0766610104014137,1
896,727,25,0.0870235564472176,1
897,726,25,0.0694589337125389,1
897,727,25,0.0830501247454705,1
898,727,25,0.0722823044671174,1
898,728,25,0.0800717445783183,1
899,728,25,0.0748229937341193,1
900,728,25,0.0723875927492851,1
900,729,25,0.0839622478316292,1
901,729,25,0.0808365371447092,1
902,729,25,0.0718602109436178,1
939,685,25,0.0722296842851375,1
943,689,25,0.0706087670482202,1
944,688,25,0.0795931075695722,1
944,689,25,0.0806572092416589,1
944,690,25,0.0744293576362983,1
945,690,25,0.0807978911100895,1
945,691,25,0.074673165477768,1
945,692,25,0.0694008808037455,1
946,692,25,0.0749774460975268,1
891,723,26,0.0696024906734396,1
892,722,26,0.0706487907313152,1
892,723,26,0.088746114192731,1
892,724,26,0.127812259720137,1
893,722,26,0.0719421690483454,1
893,723,26,0.105980053375133,1
893,724,26,0.170314236585801,1
893,725,26,0.17781668257072,1
894,722,26,0.0685509615411339,1
894,723,26,0.101319145135339,1
894,724,26,0.1542767311962,1
894,725,26,0.157314074718095,1
895,723,26,0.0808257615377221,1
895,724,26,0.104849099813339,1
895,725,26,0.103010741728814,1
895,726,26,0.0936293868759887,1
896,724,26,0.0735461172499127,1
896,725,26,0.0750591466418872,1
896,726,26,0.0821548269400381,1
896,727,26,0.0945415818394593,1
897,726,26,0.0726473453744123,1
897,727,26,0.0865865903099608,1
898,727,26,0.0749064612623937,1
898,728,26,0.0857014331952618,1
899,728,26,0.0766362187186345,1
900,728,26,0.0754872179618144,1
901,728,26,0.0715268739205825,1
901,729,26,0.0842076848921653,1
902,729,26,0.0728444449427938,1
938,686,26,0.0697810758442685,1
939,685,26,0.0706898985638626,1
944,689,26,0.0764308412798493,1
944,690,26,0.0732046820497531,1
944,707,26,0.0687535836829685,1
945,690,26,0.0803467771219692,1
945,691,26,0.0777520780449601,1
945,692,26,0.0734474177213225,1
945,693,26,0.0678910080237122,1
946,692,26,0.0851650487562973,1
892,722,27,0.0708829909721138,1
892,723,27,0.10441462542289,1
893,722,27,0.0786288614528398,1
893,723,27,0.137367078485328,1
893,724,27,0.251073583487462,2
893,725,27,0.28127796326916,2
894,722,27,0.0783989738507465,1
894,723,27,0.126680419671498,1
894,724,27,0.204261375806499,1
894,725,27,0.221921559427155,1
895,723,27,0.0963623359723807,1
895,724,27,0.120639958207656,1
895,725,27,0.121038745512819,1
895,726,27,0.103670431696093,1
896,724,27,0.0742569119858484,1
896,725,27,0.0773516794900583,1
896,726,27,0.0830918914533755,1
897,726,27,0.0739127214887382,1
897,727,27,0.0882592292624612,1
898,727,27,0.0768026027157932,1
899,727,27,0.0697014777112769,1
899,728,27,0.0796694772133109,1
900,728,27,0.079729362993554,1
901,728,27,0.0769077292740094,1
903,729,27,0.0686100387016197,1
944,689,27,0.0714490667306087,1
944,690,27,0.0721542610260036,1
945,690,27,0.078796257722139,1
945,691,27,0.0797060028672339,1
945,692,27,0.0765001489777082,1
945,693,27,0.0685408627788325,1
892,722,28,0.0740934270402639,1
892,723,28,0.133491357999135,1
892,724,28,0.227905225835159,2
892,725,28,0.25780551666993,2
893,722,28,0.0908842246263745,1
893,723,28,0.187163428497936,2
893,724,28,0.328550640968323,2
893,725,28,0.367791484301947,2
893,726,28,0.216193392903333,2
894,722,28,0.0935621157019629,1
894,723,28,0.169404437532722,1
894,724,28,0.251024083978768,2
894,725,28,0.268705016183416,2
895,722,28,0.0741621177911968,1
895,723,28,0.116838247393465,1
895,724,28,0.135613799178816,1
895,725,28,0.132096231357541,1
895,726,28,0.11186938081146,1
896,724,28,0.0738908288575331,1
896,725,28,0.0770799113743162,1
896,726,28,0.0833545251607488,1
897,726,28,0.0751533358691649,1
897,727,28,0.0884363888666069,1
898,726,28,0.0683373541501529,1
898,727,28,0.0793438190830813,1
899,727,28,0.0792328045750771,1
900,727,28,0.0793964332752852,1
900,728,28,0.0897936721035624,1
901,727,28,0.0702717642822854,1
901,728,28,0.0870148293436154,1
902,728,28,0.0799386757151577,1
903,728,28,0.0707466157526125,1
903,729,28,0.0807460376194349,1
919,727,28,0.072565614881172,1
929,687,28,0.070292638651574,1
930,686,28,0.0859745310412713,1
930,687,28,0.077951986818276,1
931,686,28,0.0829555102440982,1
931,687,28,0.0731345178139292,1
932,686,28,0.0691697293589205,1
944,689,28,0.0688504383605571,1
944,690,28,0.073093649572421,1
944,691,28,0.0709012777581792,1
945,690,28,0.0801060540151289,1
945,691,28,0.0879231129833713,1
945,693,28,0.0742528209688544,1
892,722,29,0.0850198206478983,1
892,723,29,0.167737782366425,1
892,724,29,0.267323893638062,2
892,725,29,0.273732714345092,2
893,722,29,0.10940247959475,1
893,723,29,0.253567342859665,2
893,724,29,0.398398089520221,2
893,725,29,0.389054302542339,2
893,726,29,0.223506214560292,2
894,722,29,0.109748197484735,1
894,723,29,0.232335072476769,2
894,724,29,0.315393499051747,2
894,725,29,0.28506175267362,2
895,722,29,0.0758121932575823,1
895,723,29,0.137178580235253,1
895,724,29,0.159612974698132,2
895,725,29,0.138075058026554,1
895,726,29,0.116806705233157,1
896,724,29,0.0742718684564692,1
896,725,29,0.0781158670890753,1
896,726,29,0.0871663766656728,1
897,726,29,0.0788929087473443,1
898,726,29,0.0731678509172551,1
898,727,29,0.090479363688368,1
899,726,29,0.0704038568119614,1
899,727,29,0.0991173633830331,1
900,727,29,0.0979499919832838,1
901,727,29,0.080287502298876,1
901,728,29,0.0991491391446044,1
902,727,29,0.0686898943949785,1
902,728,29,0.0961855237752418,1
903,728,29,0.0870703306078415,1
904,728,29,0.072664092788051,1
918,727,29,0.0700075133353976,1
923,688,29,0.0696800822314781,1
927,687,29,0.0703481998135598,1
929,688,29,0.074575568067958,1
930,687,29,0.138101856284286,1
930,688,29,0.0804339523215749,1
931,687,29,0.111314595780687,1
932,686,29,0.0757998962474964,1
932,687,29,0.0687389686295786,1
944,690,29,0.0744384620957872,1
944,691,29,0.0754974185503075,1
945,690,29,0.0827322952524461,1
891,722,30,0.0686739915397529,1
892,722,30,0.0915932463886203,1
892,723,30,0.180013672502242,1
892,724,30,0.267826124374392,2
892,725,30,0.2379880792916,2
893,722,30,0.124402052643518,1
893,723,30,0.298759603647419,2
893,724,30,0.430268465592858,2
893,725,30,0.344659472610288,2
893,726,30,0.195250704229941,2
894,722,30,0.117787998252327,1
894,723,30,0.27428489981309,2
894,724,30,0.360719954780546,2
894,725,30,0.263781659919304,2
895,722,30,0.0717864049239984,1
895,723,30,0.142202636613133,1
895,724,30,0.174272124818881,2
895,725,30,0.130912435992056,1
895,726,30,0.10962054337906,1
896,724,30,0.0722411547061382,1
896,725,30,0.0751816734993239,1
896,726,30,0.0831627145645572,1
897,726,30,0.0773929969647649,1
898,726,30,0.0742992776713514,1
899,726,30,0.0742395655946118,1
899,727,30,0.138749434924534,1
900,726,30,0.0679359493128864,1
900,727,30,0.116353554721204,1
901,727,30,0.0851173821190524,1
902,727,30,0.0769938742321467,1
902,728,30,0.104779666330185,1
903,727,30,0.0720070443119794,1
903,728,30,0.100395755280563,1
904,728,30,0.0905522652518145,1
905,728,30,0.0793740614620018,1
919,726,30,0.0680048736650826,1
922,688,30,0.0689173022298163,1
923,688,30,0.0754842470329285,1
924,688,30,0.0682382053883641,1
927,687,30,0.0815756036232682,1
927,688,30,0.0742817695561633,1
928,688,30,0.0825010779200853,1
929,688,30,0.102979199568506,1
930,688,30,0.118791645115453,1
931,688,30,0.0854486886080307,1
932,687,30,0.0766646461954333,1
944,690,30,0.0738138302873166,1
944,691,30,0.0763440134872505,1
944,692,30,0.068103818774488,1
888,709,31,0.0694846777696988,1
892,722,31,0.0943211880322934,1
892,724,31,0.234627551416956,2
893,722,31,0.129750718940831,1
893,723,31,0.298548044759823,2
893,724,31,0.400635127093942,2
893,725,31,0.274190500943653,2
894,722,31,0.116443820645215,1
894,723,31,0.269447508813836,2
894,724,31,0.348247012994555,2
894,725,31,0.222932394021456,2
895,722,31,0.0695891274832293,1
895,723,31,0.131756179795633,1
895,724,31,0.166692841987697,2
895,725,31,0.11790995009127,1
896,724,31,0.0700852486480596,1
896,725,31,0.0743868481961718,1
898,726,31,0.0795206133108923,1
899,726,31,0.0816887145528651,1
900,726,31,0.0726169951795241,1
900,727,31,0.119718634825593,1
901,727,31,0.0859238395671567,1
902,727,31,0.0810668620004491,1
903,727,31,0.0782432636343833,1
904,727,31,0.0732947323418289,1
904,728,31,0.107533992937048,1
906,728,31,0.071629874108326,1
923,688,31,0.0707500778431286,1
924,688,31,0.0679735710958137,1
927,688,31,0.0853083002386231,1
928,688,31,0.0986377260816984,1
929,688,31,0.120561971324403,1
930,688,31,0.143186301583591,1
931,688,31,0.0959697361058042,1
944,690,31,0.0772042112054429,1
944,691,31,0.0793254424503761,1
944,692,31,0.0733053582044166,1
945,694,31,0.0705220590511409,1
889,709,32,0.0680628726658921,1
892,722,32,0.0891591751340536,1
893,722,32,0.118442704725991,1
893,723,32,0.251749206258846,1
893,724,32,0.318972749586059,2
894,722,32,0.103548000675072,1
894,723,32,0.222845063087675,1
894,724,32,0.279662808196735,2
895,723,32,0.111301394314428,1
895,724,32,0.138720516286105,1
896,724,32,0.0683791747660417,1
896,725,32,0.0739438084260718,1
899,726,32,0.0813469559048026,1
900,726,32,0.0706189137287295,1
902,727,32,0.0795188762758582,1
903,727,32,0.0793942290377248,1
904,727,32,0.0790396342997382,1
905,727,32,0.070967374936113,1
912,694,32,0.130332577759032,1
912,695,32,0.0836852326721292,1
913,693,32,0.091055933534379,1
913,694,32,0.108141715607928,1
928,689,32,0.0679411424486607,1
944,690,32,0.0782685285094648,1
944,691,32,0.0773437310573335,1
944,692,32,0.074078776048218,1
945,694,32,0.0738110330619342,1
889,710,33,0.0719581737297626,1
892,722,33,0.0813161205380601,1
893,722,33,0.0994819909957854,1
893,723,33,0.179759789857575,1
894,722,33,0.0882452670946529,1
894,723,33,0.159945479142306,1
894,724,33,0.189446467551179,1
895,723,33,0.0923972899570049,1
895,724,33,0.109635326146177,1
896,724,33,0.0695339017486983,1
896,725,33,0.0751198410418875,1
897,725,33,0.0679633944664245,1
899,726,33,0.0823184017322624,1
900,726,33,0.0745087161782508,1
901,726,33,0.0728099977411357,1
902,726,33,0.0687214305655106,1
902,727,33,0.0817560875530826,1
903,727,33,0.0813589234772097,1
904,727,33,0.0812260822255362,1
905,727,33,0.0744894590484766,1
906,727,33,0.0693638280495363,1
911,695,33,0.0752492321825967,1
912,695,33,0.114257444596729,1
913,694,33,0.150361801636445,1
913,695,33,0.0870688092047427,1
914,694,33,0.0706117799055379,1
941,689,33,0.0683946763062767,1
944,692,33,0.0749007709752132,1
944,693,33,0.0703295895795915,1
945,695,33,0.0681981457666132,1
893,722,34,0.0817460966067488,1
894,722,34,0.0743368695053988,1
894,723,34,0.106345944830617,1
895,723,34,0.0742298262188691,1
895,724,34,0.0858780117911376,1
898,725,34,0.0707028664288582,1
899,725,34,0.0709585819449751,1
899,726,34,0.0848893992657205,1
900,726,34,0.0812134497879955,1
901,726,34,0.0808922779999745,1
902,726,34,0.0758414712825701,1
903,726,34,0.0700444163452074,1
903,727,34,0.0848356110774246,1
906,727,34,0.0726140841483981,1
907,727,34,0.0679959548886491,1
908,727,34,0.068948365208046,1
909,727,34,0.0704741348535289,1
911,695,34,0.0752566595048113,1
913,695,34,0.0912871748258437,1
913,726,34,0.0681143008824521,1
914,694,34,0.0779138439248386,1
914,726,34,0.0713649283474246,1
915,726,34,0.0731140627289592,1
922,723,34,0.0677508951839997,1
922,724,34,0.0724567686720724,1
923,723,34,0.073158812345302,1
942,690,34,0.0701708665059107,1
944,693,34,0.0757933494223508,1
944,694,34,0.0686030546228276,1
945,694,34,0.0829229797707535,1
945,695,34,0.071416272707121,1
945,702,34,0.0696945355609166,1
894,722,35,0.0687610888722709,1
898,724,35,0.0692287586011985,1
898,725,35,0.078460177381705,1
899,724,35,0.0691277170702003,1
899,725,35,0.0806316987857622,1
899,726,35,0.0881177747129292,1
900,725,35,0.0748615678914273,1
900,726,35,0.0849289497565132,1
902,726,35,0.0782329911685785,1
903,726,35,0.0740930017661693,1
904,726,35,0.0693235647754021,1
911,695,35,0.0719671763630598,1
912,726,35,0.0798715363162034,1
913,725,35,0.0682542100697814,1
913,726,35,0.08512919994706,1
914,693,35,0.0690366425264319,1
919,724,35,0.0685413180018069,1
920,724,35,0.0737473018455123,1
921,723,35,0.0683870992396626,1
921,724,35,0.0763357356168468,1
922,722,35,0.072982605115537,1
922,723,35,0.0843217961143509,1
923,721,35,0.0691874650855958,1
923,722,35,0.101093929558509,1
923,723,35,0.104963672248275,1
924,721,35,0.0842675167644246,1
924,722,35,0.117921702031742,1
925,721,35,0.0821087296240999,1
925,722,35,0.109321318130228,1
926,721,35,0.0760630510653799,1
942,690,35,0.0768738690703973,1
943,704,35,0.0745594495807971,1
944,694,35,0.070425000721169,1
891,707,36,0.0717622122188172,1
891,708,36,0.0699748930154133,1
892,707,36,0.0678661983716051,1
898,724,36,0.0750517852072084,1
899,724,36,0.0761834874909998,1
899,725,36,0.0905302707944178,1
900,725,36,0.0808912297891781,1
901,725,36,0.0684885061469956,1
905,726,36,0.0719269789764613,1
906,726,36,0.0698358463558251,1
907,726,36,0.0683014753920356,1
910,726,36,0.068728300838559,1
911,725,36,0.0708941918531955,1
911,726,36,0.0848074950689768,1
912,695,36,0.0846791880777199,1
912,725,36,0.0887368959274986,1
912,726,36,0.106432413236657,1
913,725,36,0.0905817529189616,1
913,726,36,0.108952503664066,1
914,725,36,0.0769304964125075,1
915,725,36,0.0686559982527105,1
916,725,36,0.0694172328921696,1
919,724,36,0.0747616344689853,1
921,723,36,0.0736576947968589,1
922,721,36,0.0710995932510846,1
922,722,36,0.111320873065913,1
922,723,36,0.109473877724426,1
923,721,36,0.119636994178992,1
923,722,36,0.197214164775575,1
923,723,36,0.172509597298256,1
924,721,36,0.141303116015636,1
924,722,36,0.226743353049759,1
925,721,36,0.108257749548203,1
943,702,36,0.0694776936909067,1
891,707,37,0.0728071885362013,1
891,708,37,0.0718119692878789,1
892,707,37,0.072477050053539,1
892,708,37,0.0714402976985747,1
893,707,37,0.0697108936391167,1
893,708,37,0.068136552900216,1
899,724,37,0.0788225767977929,1
900,724,37,0.0686634794829089,1
910,725,37,0.0707231957285326,1
910,726,37,0.0802598415134027,1
911,725,37,0.0904291394167798,1
911,726,37,0.102005717217213,1
912,725,37,0.105002294323791,1
912,726,37,0.121135037151466,1
913,724,37,0.0708200144674653,1
913,725,37,0.10515461432695,1
913,726,37,0.122800398526151,1
914,724,37,0.0684454755963589,1
914,725,37,0.0907620811146005,1
914,726,37,0.105704020538894,1
915,725,37,0.0773554829978052,1
917,724,37,0.0710417080560187,1
918,724,37,0.0792459701026801,1
919,723,37,0.070749083540316,1
919,724,37,0.083930466080282,1
920,723,37,0.0747796397355797,1
921,722,37,0.0738867438303151,1
921,723,37,0.0820740907496104,1
922,721,37,0.0935362338799555,1
922,722,37,0.15828800031281,1
922,723,37,0.140491010208783,1
922,724,37,0.11416689116347,1
923,721,37,0.170583381179664,1
923,722,37,0.307691605506262,3
923,723,37,0.251786534542751,1
924,721,37,0.189866386785998,1
924,722,37,0.337772595902782,3
925,721,37,0.121823633777621,1
891,707,38,0.0725532459937743,1
891,708,38,0.0732499348072782,1
892,706,38,0.0698118213643713,1
892,707,38,0.0779301181461749,1
892,708,38,0.0767089705376816,1
892,709,38,0.0689534744869565,1
893,706,38,0.0768281491103458,1
893,707,38,0.08242194698962,1
893,708,38,0.0750234355974974,1
894,706,38,0.0770786595111365,1
894,707,38,0.081034445332848,1
894,708,38,0.0704711519450911,1
894,719,38,0.069097408803744,1
894,720,38,0.0685246664245839,1
895,706,38,0.0697641726964544,1
895,707,38,0.0776277243058497,1
895,708,38,0.0700643383401152,1
896,706,38,0.0717813076246398,1
896,707,38,0.0847751922071194,1
896,708,38,0.0792332538082756,1
897,706,38,0.0784961639557899,1
897,707,38,0.0907759115073372,1
897,708,38,0.0829373372637764,1
897,722,38,0.0700954612161047,1
898,706,38,0.0719968137746064,1
898,707,38,0.0786612960897688,1
898,708,38,0.0707395478169567,1
898,723,38,0.0779544665855316,1
906,725,38,0.0702765381337411,1
907,725,38,0.0682546353438759,1
909,725,38,0.0684451102200241,1
910,725,38,0.0829818412993041,1
910,726,38,0.089050634403529,1
911,724,38,0.0721458034623205,1
911,725,38,0.104967290072967,1
911,726,38,0.113298577298826,1
911,727,38,0.0995849252959932,1
912,724,38,0.0790872290596713,1
912,725,38,0.113761047902203,1
912,726,38,0.124822630753695,1
912,727,38,0.11252810043503,1
913,724,38,0.0850529980170487,1
913,725,38,0.111896035314569,1
913,726,38,0.124524291991708,1
914,724,38,0.0840970776889278,1
914,725,38,0.100677951596285,1
915,724,38,0.070914509173318,1
915,725,38,0.081909964897996,1
916,724,38,0.0696695162666503,1
917,723,38,0.0740170693760771,1
917,724,38,0.0813079085551922,1
917,725,38,0.0813820200533866,1
918,723,38,0.0797225466284893,1
918,724,38,0.0878344463295467,1
918,725,38,0.0881167265021328,1
919,723,38,0.080305621371214,1
919,724,38,0.0911904279642227,1
920,722,38,0.0706065568208838,1
920,723,38,0.082710696120264,1
921,722,38,0.0872539471904932,1
921,723,38,0.093377391010755,1
922,721,38,0.110872706047575,1
922,722,38,0.191131655084357,3
922,723,38,0.163687519808189,1
923,721,38,0.200844999260622,3
923,722,38,0.371084279789815,3
923,723,38,0.299863830828792,3
924,720,38,0.070628970562599,1
924,721,38,0.211197919736427,3
924,722,38,0.389284693285614,3
924,723,38,0.314947644086936,3
925,721,38,0.124519703823308,1
925,722,38,0.214336394635959,3
926,720,38,0.0707706167849623,1
926,721,38,0.0926498308918527,1
927,720,38,0.0850127167735866,1
892,706,39,0.0722439758906246,1
892,707,39,0.0784742473654809,1
892,708,39,0.0774483005663836,1
893,706,39,0.0849920041282494,1
893,707,39,0.0891667581904436,1
893,708,39,0.079124419578728,1
893,719,39,0.0681712337031373,1
894,706,39,0.0882734489906365,1
894,707,39,0.0909002352975678,1
894,708,39,0.076641938954695,1
894,718,39,0.0712533148618226,1
894,719,39,0.0737479068128862,1
894,720,39,0.0696227361162503,1
895,706,39,0.076570630671659,1
895,707,39,0.083951514153074,1
895,708,39,0.0752342697222,1
895,719,39,0.069448673226286,1
896,706,39,0.0787956228058852,1
896,707,39,0.0949298271388987,1
896,708,39,0.0891685072050297,1
896,709,39,0.069632774980792,1
897,708,39,0.0965442334893263,1
897,709,39,0.0691842964941027,1
898,705,39,0.0701293633481487,1
898,708,39,0.0912015929066485,1
898,722,39,0.0803756238830865,1
899,706,39,0.0925476752625223,1
899,707,39,0.0990690917784143,1
899,708,39,0.0757054913882834,1
900,706,39,0.0721131412139043,1
900,707,39,0.0724035794613744,1
907,725,39,0.0714845561532873,1
908,725,39,0.0702236364322901,1
910,724,39,0.0695998731413366,1
910,725,39,0.0887185672130013,1
910,726,39,0.0925902625697366,1
911,724,39,0.081018368774119,1
911,725,39,0.109674583137947,1
911,726,39,0.11623820361539,1
911,727,39,0.102404636297448,1
912,724,39,0.0886058875472749,1
912,725,39,0.1131797880616,1
912,726,39,0.120075853085458,1
912,727,39,0.111584423209011,1
913,723,39,0.0686571123510427,1
913,724,39,0.0970521425332842,1
913,725,39,0.110319346583484,1
913,726,39,0.117211182825501,1
914,723,39,0.072785954780354,1
914,724,39,0.0972570288104391,1
914,725,39,0.104187768647442,1
915,724,39,0.0808232278624828,1
916,723,39,0.0719132803587962,1
916,724,39,0.0776337380409331,1
917,723,39,0.0867228277646147,1
917,724,39,0.089090388546705,1
918,722,39,0.0692640024430619,1
918,723,39,0.0879040595059805,1
918,724,39,0.0921809212792973,1
919,722,39,0.0728091471929466,1
919,723,39,0.0876067030672541,1
920,722,39,0.0775198544302348,1
921,721,39,0.0788716690017209,1
921,722,39,0.0999591784787445,1
922,721,39,0.120734345097541,1
922,722,39,0.192732937835613,1
923,720,39,0.0783884558041265,1
923,721,39,0.196304365722496,1
923,722,39,0.341871088137206,3
924,720,39,0.0814137478967501,1
924,721,39,0.199465505934335,3
924,722,39,0.348470814984254,3
924,723,39,0.291961663133657,3
925,720,39,0.0737578139023563,1
925,722,39,0.199796668668689,3
926,720,39,0.0790920987475426,1
893,706,40,0.0856143418525198,1
893,707,40,0.0898220995803611,1
894,706,40,0.0881723295925505,1
894,707,40,0.0909690757929002,1
894,708,40,0.0791330328765866,1
894,709,40,0.0685409765845761,1
894,718,40,0.0715527976710218,1
894,719,40,0.0723203754832431,1
894,720,40,0.0678307628569104,1
895,706,40,0.077855281885087,1
895,707,40,0.0850599820958408,1
895,708,40,0.0780906321628736,1
895,718,40,0.0718858951030179,1
895,719,40,0.070973520446268,1
896,709,40,0.074865748755061,1
897,709,40,0.0782024912292908,1
898,709,40,0.0727129993089236,1
899,705,40,0.0789486675719375,1
899,708,40,0.102210292026017,1
900,706,40,0.0896163387959132,1
900,707,40,0.0929577173567512,1
900,708,40,0.0689306654200266,1
910,726,40,0.0888492521453221,1
911,724,40,0.0807062175887232,1
911,725,40,0.103803656293429,1
911,726,40,0.11042988190941,1
911,727,40,0.0979044936449435,1
912,724,40,0.0890303829709423,1
912,725,40,0.104456481977435,1
912,726,40,0.110171003791576,1
913,723,40,0.0815229834412883,1
913,724,40,0.0991968716693851,1
913,725,40,0.100601018913604,1
913,726,40,0.104297513322939,1
914,723,40,0.0846672684235207,1
914,724,40,0.0988211809403987,1
914,725,40,0.0957169855287971,1
915,723,40,0.0751928683906296,1
915,724,40,0.0830550363617737,1
916,723,40,0.0766318881106014,1
917,722,40,0.0727367787195622,1
917,723,40,0.0875906744267329,1
918,721,40,0.0679853410056134,1
918,722,40,0.0743104905319851,1
918,723,40,0.0872051784344681,1
919,721,40,0.0728303150612582,1
919,722,40,0.0777651716952513,1
921,721,40,0.0842546806745005,1
922,720,40,0.0728454991433662,1
922,721,40,0.116021313827173,1
923,720,40,0.0833378556141979,1
923,721,40,0.160766545654025,1
924,720,40,0.0855965701871887,1
924,722,40,0.253980565524939,3
894,706,41,0.0806117468419745,1
894,718,41,0.0684479074454065,1
894,719,41,0.0677545489473472,1
895,706,41,0.0806608689947824,1
895,709,41,0.0754936689505443,1
895,718,41,0.070712276366922,1
895,719,41,0.0685224981256793,1
899,705,41,0.0827743554593741,1
900,705,41,0.0726019308929357,1
900,706,41,0.0943627031696074,1
900,708,41,0.0714905698883707,1
901,706,41,0.0747648030604784,1
901,707,41,0.0703254686137176,1
909,719,41,0.0734390440145031,1
909,720,41,0.0839805525870226,1
909,721,41,0.068576352201511,1
910,719,41,0.0763961305280481,1
910,720,41,0.0866092975506991,1
910,721,41,0.0692618940419171,1
911,726,41,0.093633118506424,1
912,723,41,0.071813694343361,1
912,724,41,0.0821153063981254,1
912,725,41,0.0890582953270068,1
913,723,41,0.0892103757391264,1
913,724,41,0.0931481982226753,1
913,725,41,0.087337564463167,1
914,722,41,0.0693774727592176,1
914,723,41,0.0908356175943009,1
914,724,41,0.0921175374698822,1
914,725,41,0.0834208499501699,1
915,723,41,0.0787264648524258,1
915,724,41,0.0791027425794582,1
916,717,41,0.0703628268465018,1
916,718,41,0.0969479204312409,1
916,719,41,0.0845349303130295,1
916,722,41,0.0697760863608776,1
917,717,41,0.0711306682088663,1
917,718,41,0.0973708105949458,1
917,719,41,0.0861091632359626,1
917,722,41,0.0739058871543456,1
918,718,41,0.070398136575901,1
918,719,41,0.0713033833992352,1
918,720,41,0.0707253760069892,1
918,721,41,0.0733399311913703,1
919,720,41,0.0726016493734646,1
896,710,42,0.0768295686872529,1
897,710,42,0.0719392699967713,1
898,705,42,0.0721043003045585,1
899,705,42,0.0804428112002486,1
900,705,42,0.0790264448130313,1
900,708,42,0.0729631083947237,1
904,715,42,0.0705388963114193,1
908,720,42,0.0752832301510564,1
909,719,42,0.108090227493608,1
909,720,42,0.123865308817995,1
909,721,42,0.0872046573239579,1
910,719,42,0.115271345956331,1
910,720,42,0.130634007245425,1
910,721,42,0.0904259768150626,1
911,719,42,0.0780439897773212,1
911,720,42,0.0861022809833621,1
912,723,42,0.072697102443474,1
912,724,42,0.0759347021456911,1
913,722,42,0.0688698212756268,1
913,723,42,0.0914775299064723,1
913,724,42,0.088115504587833,1
913,725,42,0.0779553231234966,1
914,722,42,0.0722722176843679,1
914,723,42,0.0910869725535048,1
914,724,42,0.0856012482022286,1
915,717,42,0.0680454903359996,1
915,718,42,0.094610032999353,1
915,719,42,0.0788325198259189,1
915,723,42,0.0782386275477752,1
916,717,42,0.113772488374324,1
916,718,42,0.157850554993475,1
916,719,42,0.115767323366538,1
916,720,42,0.0701198096554614,1
917,717,42,0.107265147831984,1
917,718,42,0.148259198594808,1
917,719,42,0.110243024857954,1
917,720,42,0.071591605429593,1
918,718,42,0.0899409966335542,1
918,719,42,0.0810711506800504,1
918,720,42,0.0747895528148257,1
939,701,42,0.0687837302254734,1
939,702,42,0.0777654951431542,1
940,701,42,0.0691218410999644,1
897,705,43,0.0690964743986912,1
898,705,43,0.0681194640693465,1
898,710,43,0.0692176595463085,1
899,705,43,0.073973266144339,1
899,709,43,0.069368302412193,1
903,714,43,0.0733305152635305,1
903,715,43,0.0767759242535805,1
904,714,43,0.117053232432921,1
904,715,43,0.122235874119635,1
904,716,43,0.0719513513749219,1
905,714,43,0.106484260737536,1
905,715,43,0.110844350448088,1
908,719,43,0.0762030321300209,1
908,720,43,0.0855130667202584,1
909,718,43,0.0724253103686281,1
909,719,43,0.128473063785747,1
909,720,43,0.145745325554866,1
909,721,43,0.0997355921209816,1
910,718,43,0.0784843401380064,1
910,719,43,0.138826439484527,1
910,720,43,0.155058373002422,1
910,721,43,0.104120299810809,1
911,719,43,0.0923944627827426,1
911,720,43,0.100227310800467,1
911,721,43,0.0763929080285711,1
912,723,43,0.0721937755781404,1
913,722,43,0.0701496626989432,1
913,723,43,0.0859432584208823,1
913,724,43,0.0815050500520056,1
914,723,43,0.0835007236128565,1
915,717,43,0.0853937024645389,1
915,718,43,0.11408623284013,1
915,719,43,0.0887180461024911,1
915,720,43,0.0721849765972265,1
916,717,43,0.14591204497948,1
916,718,43,0.195198389526536,1
916,719,43,0.134270987240627,1
917,717,43,0.130176220646863,1
917,718,43,0.175306966435308,1
917,719,43,0.124369623996365,1
918,717,43,0.0755781906793911,1
918,718,43,0.0994306526258651,1
938,697,43,0.0730288881145306,1
938,701,43,0.0869247850413156,1
938,702,43,0.114339372752576,1
938,703,43,0.08216306288201,1
939,701,43,0.120080333437891,1
899,705,44,0.0678043838834966,1
909,719,44,0.122202678781156,1
909,720,44,0.132498205223526,1
910,719,44,0.134051521848738,1
910,720,44,0.142881110517884,1
911,719,44,0.0918546821407977,1
911,720,44,0.0954581613189468,1
913,723,44,0.0733215126302333,1
916,718,44,0.184558522842658,1
917,718,44,0.1663262557182,1
