x,y,z,signal,mito.p
719,581,23,0.198778076022755,1
718,581,24,0.173620850473794,1
719,580,24,0.18295381831054,1
719,581,24,0.22169982504171,1
719,582,24,0.173546062430136,1
720,581,24,0.178659467651009,1
717,581,25,0.15722794708616,1
718,580,25,0.170187761378914,1
718,581,25,0.213454133703042,1
718,582,25,0.196975109735978,1
719,580,25,0.175412651535858,1
719,581,25,0.239441668270622,1
719,582,25,0.205644276520655,1
719,583,25,0.131158452407499,1
720,581,25,0.17564223577189,1
720,582,25,0.145609621715494,1
713,579,26,0.196678210683619,1
714,579,26,0.191581135022167,1
714,580,26,0.185750143820587,1
715,579,26,0.157422931395059,1
715,580,26,0.177103530566749,1
716,580,26,0.158561137379691,1
716,581,26,0.162531953066169,1
717,580,26,0.163069947355464,1
717,581,26,0.201424446207085,1
717,582,26,0.171357265685769,1
718,579,26,0.124172646810101,1
718,580,26,0.180015311862015,1
718,581,26,0.257166468079593,1
718,582,26,0.236544576886392,1
718,583,26,0.143777621382835,1
719,580,26,0.160101324916204,1
719,581,26,0.229527684894114,1
719,582,26,0.213017429529251,1
719,583,26,0.136505858876378,1
720,581,26,0.149662308280488,1
720,582,26,0.134601836709581,1
711,579,27,0.183352944420337,1
712,579,27,0.191526948546986,1
712,580,27,0.161345059563183,1
713,578,27,0.175166603891557,1
713,579,27,0.21121647097519,1
713,580,27,0.175435561996957,1
714,578,27,0.171040847009786,1
714,579,27,0.222124058964522,1
714,580,27,0.213932866415013,1
714,581,27,0.148983482695262,1
715,578,27,0.1442598899352,1
715,579,27,0.196231891700934,1
715,580,27,0.224044098376761,1
715,581,27,0.172071036974316,1
716,579,27,0.148497823305422,1
716,580,27,0.187756560355881,1
716,581,27,0.184810558371884,1
716,582,27,0.134572702277063,1
717,578,27,0.105240374237809,1
717,579,27,0.122138110862717,1
717,580,27,0.182212239923881,1
717,581,27,0.249304632928012,1
717,582,27,0.19574113490081,1
717,583,27,0.11676277460095,1
718,579,27,0.115493218280433,1
718,580,27,0.188602261991987,1
718,581,27,0.301755646257484,1
718,582,27,0.267330681876893,1
718,583,27,0.146597626984856,1
719,580,27,0.148673131833709,1
719,581,27,0.218169070904286,1
719,582,27,0.214397254992138,1
719,583,27,0.142767218739624,1
720,581,27,0.129881869022478,1
720,582,27,0.13074626488098,1
710,579,28,0.156287870858349,1
711,578,28,0.156174802044247,1
711,579,28,0.232077148512703,1
711,580,28,0.213321846425223,1
712,578,28,0.166175262930446,1
712,579,28,0.23814926841343,1
712,580,28,0.206380913654019,1
712,581,28,0.131063810118098,1
713,578,28,0.170685288699918,1
713,579,28,0.225920458448365,1
713,580,28,0.188597153427633,1
713,581,28,0.131827730108254,1
714,578,28,0.17304536735307,1
714,579,28,0.243083940806329,1
714,580,28,0.224872243505676,1
714,581,28,0.146910732901858,1
715,577,28,0.1081560594578,1
715,578,28,0.154047776543097,1
715,579,28,0.228716761650271,1
715,580,28,0.2484310461153,1
715,581,28,0.172400885151353,1
715,582,28,0.122966958698083,1
716,578,28,0.121934437532787,1
716,579,28,0.157677746138885,1
716,580,28,0.194274106913641,1
716,581,28,0.184603048041653,1
716,582,28,0.135786120160037,1
717,578,28,0.107580922113266,1
717,579,28,0.117917321299073,1
717,580,28,0.175671570977679,1
717,581,28,0.253047715954185,1
717,582,28,0.195315473256956,1
717,583,28,0.118237309277661,1
718,579,28,0.106315169330839,1
718,580,28,0.172867448772254,1
718,581,28,0.289076724925716,1
718,582,28,0.251206223507409,1
718,583,28,0.144913328855643,1
719,580,28,0.132982120649388,1
719,581,28,0.190341538535396,1
719,582,28,0.195551716473161,1
719,583,28,0.150728481276911,1
720,581,28,0.116877996150686,1
720,582,28,0.13138488004154,1
710,579,29,0.144721713076078,1
710,580,29,0.143487704778698,1
711,578,29,0.154969203164794,1
711,579,29,0.239598092957311,1
711,580,29,0.229444297061991,1
711,581,29,0.129378240424833,1
712,572,29,0.140403749248996,1
712,573,29,0.159990754613926,1
712,578,29,0.177115208878712,1
712,579,29,0.260488529555298,1
712,580,29,0.233296399974622,1
712,581,29,0.136970091296514,1
712,585,29,0.180663374520408,1
712,586,29,0.179942498088862,1
713,578,29,0.167841826087337,1
713,579,29,0.225797295200332,1
713,580,29,0.190994029359834,1
713,581,29,0.12993069038968,1
713,584,29,0.151590579396861,1
713,585,29,0.172561816082582,1
713,586,29,0.180758005655738,1
714,577,29,0.118653344958552,1
714,578,29,0.170847011570162,1
714,579,29,0.241277003670403,1
714,580,29,0.21000694586287,1
714,581,29,0.138028255670216,1
714,584,29,0.166176478724146,1
715,577,29,0.110031460279328,1
715,578,29,0.165066592924875,1
715,579,29,0.246912017850796,1
715,580,29,0.24343210396736,1
715,581,29,0.166928352318008,1
715,582,29,0.133174416827263,1
716,577,29,0.10504991848159,1
716,578,29,0.130716338509447,1
716,579,29,0.170660270119467,1
716,580,29,0.192866864745115,1
716,581,29,0.179950417479018,1
716,582,29,0.144410648354003,1
717,578,29,0.109944168522481,1
717,579,29,0.121911716690889,1
717,580,29,0.163269716760669,1
717,581,29,0.224394313886791,1
717,582,29,0.189532266094008,1
717,583,29,0.138087561863822,1
718,579,29,0.103375369010119,1
718,580,29,0.148215324158263,1
718,581,29,0.231911934418348,1
718,582,29,0.214802928541402,1
718,583,29,0.158187576399807,1
718,584,29,0.124227435605096,1
719,580,29,0.118885818098881,1
719,581,29,0.156785175097939,1
719,582,29,0.170551908323176,1
719,583,29,0.164379000240125,1
719,584,29,0.140688278437013,1
720,581,29,0.107870994874392,1
720,582,29,0.130713817689482,1
720,584,29,0.146034971045371,1
711,572,30,0.132546609961156,1
711,573,30,0.153613370107858,1
711,579,30,0.201161165523642,1
711,580,30,0.202498538593664,1
711,585,30,0.173437488706503,1
711,586,30,0.146109915246017,1
712,571,30,0.1059292050244,1
712,572,30,0.190258195319556,1
712,573,30,0.210753487810965,1
712,574,30,0.164063886590407,1
712,578,30,0.170067676654378,1
712,579,30,0.236916676683022,1
712,580,30,0.218068104256831,1
712,581,30,0.130667528296316,1
712,584,30,0.166109900076481,1
712,585,30,0.208768241701751,1
712,586,30,0.212466262282528,1
712,587,30,0.172198873777949,1
713,571,30,0.1083027912571,1
713,572,30,0.168564621019034,1
713,573,30,0.168597648222206,1
713,574,30,0.128400831522581,1
713,578,30,0.159646841153809,1
713,579,30,0.204405036964144,1
713,580,30,0.175447798012452,1
713,581,30,0.122198989780284,1
713,583,30,0.144443842868234,1
713,584,30,0.167007434678862,1
713,585,30,0.187618718350882,1
713,586,30,0.207010159395239,1
713,587,30,0.186354504830203,1
714,572,30,0.1415397244195,1
714,573,30,0.121886296563895,1
714,577,30,0.111192498646565,1
714,578,30,0.155417786423818,1
714,579,30,0.209602097714834,1
714,580,30,0.177935233844199,1
714,581,30,0.130451975881152,1
714,583,30,0.17876088046129,1
714,584,30,0.185667525619339,1
714,585,30,0.164145701698569,1
714,586,30,0.166855215076806,1
715,569,30,0.118066618534621,1
715,573,30,0.131450320973998,1
715,577,30,0.102933757045246,1
715,578,30,0.151704886312804,1
715,579,30,0.219083013144581,1
715,580,30,0.205782453147772,1
715,581,30,0.16066869902757,1
715,582,30,0.149514550306688,1
715,583,30,0.166662060035491,1
715,584,30,0.154167760880997,1
716,566,30,0.119087662161225,1
716,574,30,0.105832343074942,1
716,578,30,0.119640881756946,1
716,579,30,0.158923053509825,1
716,580,30,0.174623456421626,1
716,581,30,0.174477349250281,1
716,582,30,0.165846050535436,1
716,583,30,0.156674035938059,1
717,565,30,0.104924223259521,1
717,566,30,0.129264390825786,1
717,567,30,0.118850794317063,1
717,574,30,0.110771610944945,1
717,579,30,0.117520782933665,1
717,580,30,0.144857335421018,1
717,581,30,0.18154615228733,1
717,582,30,0.189538623914274,1
717,583,30,0.184936465521295,1
717,584,30,0.153235079802022,1
718,573,30,0.13777481287708,1
718,580,30,0.124108276668424,1
718,581,30,0.165696641759181,1
718,582,30,0.182593051049683,1
718,583,30,0.193640578009295,1
718,584,30,0.182130101347671,1
718,585,30,0.147377441525677,1
719,563,30,0.10443333261055,1
719,581,30,0.12760956175121,1
719,582,30,0.150961233269006,1
719,583,30,0.18291787989493,1
719,584,30,0.194088570102576,1
719,585,30,0.163963343797636,1
720,582,30,0.127475835598279,1
720,583,30,0.165834171450201,1
720,584,30,0.173275631987412,1
720,585,30,0.14106587719047,1
721,584,30,0.13123260466913,1
722,555,30,0.103290453070319,1
723,580,30,0.113092092647317,1
711,572,31,0.143900996558211,1
711,573,31,0.160999852230872,1
711,574,31,0.128610539204729,1
711,584,31,0.163211882904388,1
711,585,31,0.190646334669769,1
711,586,31,0.164402981492006,1
712,571,31,0.109077553003921,1
712,572,31,0.222815120565242,1
712,573,31,0.247514270741061,1
712,574,31,0.154074256306802,1
712,579,31,0.187297570348947,1
712,580,31,0.174721924557257,1
712,583,31,0.140738817531094,1
712,584,31,0.196503471012935,1
712,585,31,0.245199221071092,1
712,586,31,0.25012381018413,1
712,587,31,0.193953226609401,1
713,557,31,0.111231972902568,1
713,572,31,0.177661501796564,1
713,573,31,0.187386155977988,1
713,574,31,0.121884511912592,1
713,578,31,0.155396694076234,1
713,579,31,0.174640801001475,1
713,580,31,0.150930983429423,1
713,583,31,0.175491600047864,1
713,584,31,0.207713468165524,1
713,585,31,0.22420746089539,1
713,586,31,0.245331062186085,1
713,587,31,0.21551948834761,1
713,588,31,0.143858923403748,1
714,557,31,0.10644176803263,1
714,566,31,0.107107454122638,1
714,571,31,0.110665691890125,1
714,572,31,0.127911413210935,1
714,573,31,0.1121533102917,1
714,578,31,0.143296992478855,1
714,579,31,0.171422360842038,1
714,580,31,0.147494012717961,1
714,582,31,0.150154537417936,1
714,583,31,0.200069449705448,1
714,584,31,0.201963901679633,1
714,585,31,0.175461907911814,1
714,586,31,0.179838597920828,1
714,587,31,0.168927083698629,1
715,570,31,0.135683301936855,1
715,572,31,0.149389435096292,1
715,573,31,0.107101531311127,1
715,578,31,0.131021692347353,1
715,579,31,0.173172200290345,1
715,580,31,0.16323293063569,1
715,581,31,0.157882802573574,1
715,582,31,0.177003768558924,1
715,583,31,0.188567952070691,1
715,584,31,0.15834702383964,1
715,585,31,0.125200338262808,1
716,573,31,0.119706501154536,1
716,578,31,0.106448783943064,1
716,579,31,0.141417007334292,1
716,580,31,0.154039042905784,1
716,581,31,0.166649277470535,1
716,582,31,0.191339627084618,1
716,583,31,0.193558171735389,1
716,584,31,0.149555786905853,1
717,566,31,0.111268703257194,1
717,571,31,0.111497584786776,1
717,573,31,0.120859832058958,1
717,579,31,0.120637531431056,1
717,580,31,0.136510822437814,1
717,581,31,0.145660919286379,1
717,582,31,0.179985842807378,1
717,583,31,0.220296152175789,1
717,584,31,0.198209597658395,1
717,585,31,0.151631548298331,1
718,581,31,0.120197704117485,1
718,582,31,0.15360072139175,1
718,583,31,0.221793653083953,1
718,584,31,0.255365152595271,1
718,585,31,0.218557834882455,1
718,586,31,0.158957151503778,1
719,582,31,0.137238848628643,1
719,583,31,0.200687095213199,1
719,584,31,0.262317930989497,1
719,585,31,0.238668401169268,1
719,586,31,0.166434026215278,1
720,582,31,0.126010291102505,1
720,583,31,0.164040797664177,1
720,584,31,0.197095194460514,1
720,585,31,0.176093116769467,1
720,586,31,0.132904343314799,1
721,580,31,0.10432481465727,1
721,583,31,0.122537236972514,1
721,584,31,0.13069399690595,1
721,585,31,0.123268352840911,1
722,580,31,0.121150417907334,1
723,580,31,0.104799732677081,1
723,581,31,0.119410918282512,1
747,577,31,0.10869901730853,1
748,575,31,0.118481806506143,1
748,577,31,0.106723374854138,1
748,578,31,0.114014590059796,1
709,570,32,0.104095732354416,1
709,571,32,0.106556443032904,1
710,572,32,0.111479593270829,1
710,585,32,0.137004178136398,1
711,565,32,0.103342286036594,1
711,572,32,0.132188251979558,1
711,573,32,0.145009265017238,1
711,574,32,0.109085126617887,1
711,584,32,0.155797716378039,1
711,585,32,0.199006600622076,1
711,586,32,0.178842561720604,1
712,572,32,0.201679160564275,1
712,573,32,0.225010330900229,1
712,574,32,0.131511712978814,1
712,583,32,0.156925861390952,1
712,584,32,0.212680331206297,1
712,585,32,0.262252545827392,1
712,586,32,0.263093562753828,1
712,587,32,0.198140040873869,1
713,556,32,0.111546740776097,1
713,564,32,0.107565496033568,1
713,572,32,0.152359619105442,1
713,573,32,0.16812976842097,1
713,574,32,0.105708287501257,1
713,579,32,0.133947538925699,1
713,582,32,0.127677902742036,1
713,583,32,0.193224665023181,1
713,584,32,0.23539733610454,1
713,585,32,0.248350625265969,1
713,586,32,0.258972780587563,1
713,587,32,0.222023382322904,1
713,588,32,0.151700714690384,1
714,556,32,0.105796583124462,1
714,579,32,0.13102355507715,1
714,582,32,0.152622197082434,1
714,583,32,0.192987306399911,1
714,584,32,0.194234688427991,1
714,585,32,0.176624998628049,1
714,586,32,0.178536929030932,1
714,587,32,0.164123070089235,1
715,571,32,0.115170787560374,1
715,572,32,0.108584096918701,1
715,578,32,0.103376049408428,1
715,579,32,0.124156350712892,1
715,580,32,0.125181855967753,1
715,581,32,0.148872053529545,1
715,582,32,0.196545633399963,1
715,583,32,0.198278552123106,1
715,584,32,0.154582870774024,1
716,571,32,0.109137260744069,1
716,572,32,0.108398459721,1
716,579,32,0.113738426424761,1
716,580,32,0.127041607628171,1
716,581,32,0.150696792562216,1
716,582,32,0.205659869911413,1
716,583,32,0.216814342100344,1
716,584,32,0.1646876333748,1
716,585,32,0.12153494333866,1
717,579,32,0.109257412393029,1
717,581,32,0.121883786898,1
717,582,32,0.16399604753276,1
717,583,32,0.223205602270291,1
717,584,32,0.224492335859596,1
717,585,32,0.183354650993145,1
717,586,32,0.145645325895621,1
718,582,32,0.13521561175482,1
718,583,32,0.228908678589744,1
718,584,32,0.312364148996611,2
718,585,32,0.285861586371189,2
718,586,32,0.191166582832672,1
718,587,32,0.133650416791927,1
719,582,32,0.130339487078723,1
719,583,32,0.207341903764285,1
719,584,32,0.308472382208775,2
719,585,32,0.296984180226224,1
719,586,32,0.19156661242219,1
719,587,32,0.128493298768207,1
720,582,32,0.124204692455056,1
720,583,32,0.155096013793927,1
720,584,32,0.199547260734254,1
720,585,32,0.192949471792292,1
720,586,32,0.1448910430225,1
721,581,32,0.110146380669157,1
721,583,32,0.116627141101938,1
721,584,32,0.122665910331445,1
721,585,32,0.121520799977085,1
722,581,32,0.116034279939154,1
723,581,32,0.104983841767105,1
748,575,32,0.110533014219834,1
748,576,32,0.108364049413068,1
748,577,32,0.109645964443857,1
748,578,32,0.10322154322189,1
749,575,32,0.119865323966413,1
710,566,33,0.116561276314795,1
710,585,33,0.167464216179809,1
711,572,33,0.109280322854129,1
711,584,33,0.1395502174553,1
711,585,33,0.208586474966562,1
711,586,33,0.20657608758212,1
712,572,33,0.145196039930145,1
712,573,33,0.160815520059436,1
712,574,33,0.103841519930406,1
712,583,33,0.151623182745349,1
712,584,33,0.200423680680909,1
712,585,33,0.257624565760876,1
712,586,33,0.262686550716087,1
712,587,33,0.19193141745662,1
713,572,33,0.110953567299334,1
713,573,33,0.122870208289331,1
713,583,33,0.184252843685694,1
713,584,33,0.229307258150079,1
713,585,33,0.244800619202616,1
713,586,33,0.244173849665079,1
713,587,33,0.203834997029894,1
714,578,33,0.105592385553212,1
714,582,33,0.142636682650896,1
714,583,33,0.165491094545383,1
714,584,33,0.170182585890136,1
714,585,33,0.165344541211213,1
714,586,33,0.163240270014173,1
715,581,33,0.13295818401379,1
715,582,33,0.189103035147547,1
715,583,33,0.186580709382831,1
715,584,33,0.145175661443082,1
716,581,33,0.128046221308719,1
716,582,33,0.192791708617126,1
716,583,33,0.20997047205187,1
716,584,33,0.169841483255821,1
716,585,33,0.13708564746837,1
717,580,33,0.108304709757251,1
717,582,33,0.147273574819855,1
717,583,33,0.202349631750589,1
717,584,33,0.234846235782241,2
717,585,33,0.216278701319955,2
717,586,33,0.169759378141823,1
718,582,33,0.126863700201425,1
718,583,33,0.220389600979631,2
718,584,33,0.339737509917084,2
718,585,33,0.329982985134479,2
718,586,33,0.211485462542802,2
718,587,33,0.136842678347566,1
719,582,33,0.128908631742647,1
719,583,33,0.210886778955142,2
719,584,33,0.325035507868483,2
719,585,33,0.315300859639763,2
719,586,33,0.196975310509249,1
719,587,33,0.125927472127985,1
720,581,33,0.114640322268763,1
720,582,33,0.128403497345465,1
720,583,33,0.158907649738268,1
720,584,33,0.200255298830491,2
720,585,33,0.193822166279353,1
720,586,33,0.148562405374442,1
721,581,33,0.124054502893857,1
721,582,33,0.124872419739992,1
721,583,33,0.11842047027168,1
721,584,33,0.117991607409551,1
721,585,33,0.11729861615461,1
722,581,33,0.113881343531902,1
722,582,33,0.10890547915612,1
723,554,33,0.102924264931129,1
748,575,33,0.105222650419558,1
748,576,33,0.119009159812044,1
748,577,33,0.114534023975541,1
749,573,33,0.105540652973573,1
749,574,33,0.117147679270677,1
749,575,33,0.116296322520756,1
749,576,33,0.104128636862811,1
750,575,33,0.133244921707794,1
710,574,34,0.107068782959721,1
711,585,34,0.199489817270445,1
711,586,34,0.209157117220627,1
712,584,34,0.168365175081878,1
712,585,34,0.225461914604257,1
712,586,34,0.232071749942512,1
712,587,34,0.164362336058585,1
713,584,34,0.192601330939402,1
713,585,34,0.211356097631491,1
713,586,34,0.201865656625415,1
714,585,34,0.146709089612785,1
715,582,34,0.159756195662387,1
715,583,34,0.162570222682543,1
716,582,34,0.173897516042007,1
716,583,34,0.193748527104972,1
716,584,34,0.168955838892745,1
716,585,34,0.153111805013282,1
717,581,34,0.109167175961532,1
717,582,34,0.159305560054364,1
717,583,34,0.205188855816326,1
717,584,34,0.244354300219932,2
717,585,34,0.246472904397747,2
717,586,34,0.188913036708225,1
718,582,34,0.142394550085391,1
718,583,34,0.227863921408954,2
718,584,34,0.341430430142903,2
718,585,34,0.338323664538738,2
718,586,34,0.210529447148042,2
718,587,34,0.133063456132512,1
719,582,34,0.13572053422466,1
719,583,34,0.22530499913846,2
719,584,34,0.323103689757645,2
719,585,34,0.294650458642,2
719,586,34,0.181341776250949,1
719,587,34,0.120508713069207,1
720,580,34,0.104227004611807,1
720,581,34,0.124938496454478,1
720,582,34,0.131053001823646,1
720,583,34,0.170467226618859,1
720,584,34,0.200572654448408,2
720,585,34,0.17811983371333,1
720,586,34,0.141377521924218,1
721,580,34,0.102952217032159,1
721,581,34,0.138277192218813,1
721,582,34,0.12775366118984,1
721,583,34,0.120729730978986,1
721,584,34,0.115760681740367,1
721,585,34,0.112634039582317,1
722,581,34,0.112064356578327,1
722,582,34,0.106769798096152,1
748,576,34,0.11094845873498,1
749,575,34,0.105968902361816,1
750,575,34,0.126485421049659,1
752,569,34,0.131095521140935,1
705,564,35,0.113416464175668,1
712,585,35,0.183105279435793,1
712,586,35,0.189737411761263,1
713,585,35,0.169130902031478,1
715,583,35,0.14051180988538,1
716,581,35,0.108231315972424,1
716,582,35,0.161708381106218,1
716,583,35,0.182176468819331,1
716,584,35,0.164075631826793,1
716,585,35,0.159055496944632,1
717,581,35,0.120032356174282,1
717,582,35,0.196530285398759,1
717,583,35,0.236790881074317,1
717,584,35,0.249383826829573,2
717,585,35,0.25162278342962,1
717,586,35,0.19141067851461,1
718,581,35,0.107438663096293,1
718,582,35,0.178303742030082,1
718,583,35,0.256737259441274,2
718,584,35,0.327326487054006,2
718,585,35,0.312256757604466,2
718,586,35,0.1945393953298,1
718,587,35,0.127449757381117,1
719,582,35,0.148058107532558,1
719,583,35,0.238211909674157,1
719,584,35,0.30367423564054,2
719,585,35,0.255515777165226,1
719,586,35,0.160908411159746,1
720,581,35,0.129498581692993,1
720,582,35,0.135018787024264,1
720,583,35,0.176229386050505,1
720,584,35,0.192995381947056,1
720,585,35,0.159589799236544,1
720,586,35,0.133372546584084,1
721,581,35,0.143541411628841,1
721,582,35,0.127308212224665,1
721,583,35,0.118168087115255,1
721,584,35,0.11042477511832,1
722,581,35,0.107391871769948,1
750,575,35,0.114714920693219,1
715,583,36,0.124314470818319,1
716,581,36,0.106445482338154,1
716,582,36,0.160211560596363,1
716,583,36,0.178851886523661,1
716,584,36,0.158039450341676,1
716,585,36,0.154160923435693,1
717,581,36,0.129742599296437,1
717,582,36,0.237581102363048,1
717,583,36,0.276725420956857,1
717,584,36,0.246680704733814,1
717,585,36,0.226519811280263,1
717,586,36,0.172698999997412,1
718,581,36,0.113163110615097,1
718,582,36,0.209287419073871,1
718,583,36,0.283642840947147,1
718,584,36,0.298406279616846,2
718,585,36,0.25747965207509,1
718,586,36,0.164190574524763,1
719,582,36,0.151121985735104,1
719,583,36,0.229080072039235,1
719,584,36,0.262651861556389,1
719,585,36,0.210549011387949,1
719,586,36,0.139789717660133,1
720,581,36,0.119798343772205,1
720,582,36,0.128595871601834,1
720,583,36,0.157400522867139,1
720,584,36,0.167206044060721,1
720,585,36,0.145444162231585,1
721,581,36,0.129460992474929,1
721,582,36,0.118570403289255,1
721,583,36,0.106526304734029,1
734,588,36,0.120005251782621,1
747,587,36,0.107364566605016,1
715,583,37,0.112560456178289,1
716,581,37,0.104425948615784,1
716,582,37,0.155151828763421,1
716,583,37,0.17008420698707,1
716,584,37,0.151573056351882,1
716,585,37,0.148887925772069,1
717,581,37,0.127874147460919,1
717,582,37,0.245076838608004,1
717,583,37,0.288249382889888,1
717,584,37,0.229808499776606,1
717,585,37,0.181870479199398,1
717,586,37,0.141533589680646,1
718,581,37,0.110452760681562,1
718,582,37,0.215718164653892,1
718,583,37,0.291257278811879,1
718,584,37,0.26245253831401,1
718,585,37,0.194258401982177,1
718,586,37,0.129405668284542,1
719,582,37,0.146080702735005,1
719,583,37,0.204156948124916,1
719,584,37,0.211646371165889,1
719,585,37,0.166804162895475,1
719,586,37,0.118075419096358,1
720,582,37,0.11726667089629,1
720,583,37,0.129897964346415,1
720,584,37,0.13758155744913,1
720,585,37,0.135693240213798,1
721,582,37,0.105154108655461,1
734,588,37,0.108664160837772,1
736,589,37,0.113665423032406,1
737,589,37,0.123038367058335,1
738,589,37,0.108681070408866,1
715,583,38,0.105965678835401,1
716,582,38,0.145566444308038,1
716,583,38,0.160684258956116,1
716,584,38,0.148933735540197,1
717,581,38,0.118424173423133,1
717,582,38,0.220708406626732,1
717,583,38,0.273780099371169,1
717,584,38,0.212604706607341,1
717,585,38,0.147177359806494,1
718,582,38,0.196806906350691,1
718,583,38,0.274857181048681,1
718,584,38,0.228936162219806,1
718,585,38,0.147101813286033,1
719,582,38,0.131258325956031,1
719,583,38,0.172377026594249,1
719,584,38,0.166173355584366,1
719,585,38,0.130732088057194,1
720,583,38,0.104583254474054,1
720,584,38,0.112811991625345,1
703,563,39,0.113266754239506,1
715,583,39,0.10714846764039,1
716,582,39,0.137729081187446,1
716,583,39,0.154879390587981,1
716,584,39,0.148454969366014,1
717,581,39,0.108864432176157,1
717,582,39,0.182530989800629,1
717,583,39,0.236302176623192,1
717,584,39,0.194006587683354,1
717,585,39,0.12664448925109,1
718,582,39,0.167530538283849,1
718,583,39,0.232352230202885,1
718,584,39,0.195131721097193,1
718,585,39,0.11975815565568,1
719,582,39,0.116512811877854,1
719,583,39,0.1428374782306,1
719,584,39,0.133761054018629,1
702,563,40,0.120619283371485,1
702,564,40,0.128423184280149,1
703,563,40,0.112156266120421,1
703,564,40,0.131971729160247,1
703,565,40,0.105834150034386,1
706,573,40,0.10862921513445,1
706,574,40,0.112237568141333,1
715,583,40,0.114743698195477,1
716,581,40,0.104430321011476,1
716,582,40,0.137558033514145,1
716,583,40,0.155295013568258,1
716,584,40,0.150288977431389,1
717,581,40,0.103321595235552,1
717,582,40,0.153462076293665,1
717,583,40,0.194274597692749,1
717,584,40,0.172384042504683,1
717,585,40,0.114419694751457,1
718,582,40,0.139968606645096,1
718,583,40,0.179692033432587,1
718,584,40,0.159203533770198,1
718,585,40,0.103284608337302,1
719,582,40,0.105201301528349,1
719,583,40,0.119148206456672,1
719,584,40,0.111307508268959,1
701,563,41,0.111313152228704,1
701,564,41,0.115652643412125,1
702,563,41,0.118074180994517,1
702,564,41,0.122952915723144,1
703,564,41,0.105885347218634,1
706,573,41,0.111741691622784,1
706,574,41,0.11721527293877,1
707,574,41,0.106719125153223,1
715,582,41,0.126682401937203,1
715,583,41,0.132619323347674,1
716,581,41,0.111568145437659,1
716,582,41,0.143857216830939,1
716,583,41,0.161447308928762,1
716,584,41,0.149851012847615,1
717,581,41,0.10296560191693,1
717,582,41,0.133205893614616,1
717,583,41,0.154901397569358,1
717,584,41,0.144011778787831,1
718,582,41,0.114895873181251,1
718,583,41,0.133598940755912,1
718,584,41,0.125111540706424,1
719,583,41,0.106820482193151,1
700,562,42,0.114087325754455,1
700,563,42,0.11694856795564,1
700,564,42,0.115418898707743,1
700,565,42,0.111511103520394,1
701,562,42,0.106482982323653,1
701,563,42,0.123542363740311,1
701,564,42,0.134528164072988,1
701,565,42,0.120460739411374,1
701,566,42,0.108380490513195,1
702,563,42,0.106144991675048,1
702,564,42,0.115618813115866,1
702,565,42,0.104364612381322,1
703,571,42,0.107409361352716,1
706,573,42,0.112677964312506,1
706,574,42,0.118936702969151,1
707,574,42,0.111915472043393,1
715,581,42,0.105372984983676,1
715,582,42,0.136941916114072,1
715,583,42,0.146371076656038,1
716,581,42,0.116298754108156,1
716,582,42,0.147091116532287,1
716,583,42,0.160620268052841,1
716,584,42,0.138928177243715,1
717,582,42,0.119322923819214,1
717,583,42,0.126616258298294,1
718,583,42,0.104479543925221,1
699,563,43,0.121340449808868,1
699,564,43,0.104788388987238,1
700,561,43,0.107273683237422,1
700,562,43,0.145228342118726,1
700,563,43,0.148593703696664,1
700,564,43,0.126039525921659,1
700,565,43,0.116464157821712,1
700,566,43,0.125880491182439,1
700,567,43,0.106642284760568,1
701,562,43,0.123714560282889,1
701,563,43,0.140156095418523,1
701,564,43,0.143279235198392,1
701,565,43,0.141233009784975,1
701,566,43,0.125913395690835,1
702,564,43,0.109912457499645,1
702,565,43,0.118549043243975,1
702,566,43,0.105113675149382,1
702,570,43,0.105737187698291,1
702,571,43,0.107105992939384,1
703,570,43,0.109978857682179,1
703,571,43,0.117023646005134,1
706,573,43,0.111709400588275,1
706,574,43,0.117307204789005,1
707,574,43,0.116806632406716,1
707,575,43,0.103495933359693,1
714,582,43,0.127364629513974,1
714,583,43,0.125022497760486,1
715,581,43,0.117348675623653,1
715,582,43,0.158884516195755,1
715,583,43,0.162009607937986,1
715,584,43,0.121240542798124,1
716,581,43,0.122620769807555,1
716,582,43,0.152834090962428,1
716,583,43,0.154965879251742,1
716,584,43,0.124236894257001,1
717,582,43,0.114895984721957,1
717,583,43,0.114664738529399,1
699,562,44,0.135168430036003,1
699,563,44,0.136595727223544,1
700,561,44,0.113305403094282,1
700,562,44,0.167765175313882,1
700,563,44,0.172504506467621,1
700,564,44,0.126301155802646,1
700,565,44,0.121224135160209,1
700,566,44,0.128639450555834,1
700,567,44,0.103107515157713,1
701,562,44,0.137793317480276,1
701,563,44,0.149364762292031,1
701,564,44,0.137522663956138,1
701,565,44,0.162670475469477,1
701,566,44,0.152454718711739,1
701,567,44,0.104685224987867,1
702,564,44,0.105034748945516,1
702,565,44,0.138377556546453,1
702,566,44,0.124785339910487,1
702,570,44,0.105414132350276,1
702,571,44,0.106998713087946,1
703,570,44,0.105592285166576,1
703,571,44,0.111837505089602,1
706,573,44,0.104768713206625,1
706,574,44,0.108389346845285,1
707,574,44,0.111593654797219,1
714,581,44,0.104911329153858,1
714,582,44,0.136411562363167,1
715,581,44,0.12881509370624,1
715,582,44,0.176191049509707,1
715,583,44,0.160990014340566,1
716,581,44,0.121080258802993,1
716,582,44,0.150498807808313,1
716,583,44,0.139265911348696,1
717,582,44,0.109014209036742,1
698,562,45,0.122442616991255,1
698,563,45,0.126717448027162,1
699,561,45,0.122763508449565,1
699,562,45,0.147712275572291,1
699,563,45,0.155505925890035,1
699,564,45,0.122761991495958,1
700,561,45,0.118068403185924,1
700,562,45,0.175618076054878,1
700,563,45,0.18080283386565,1
700,564,45,0.127535632570993,1
700,565,45,0.131209326123699,1
700,566,45,0.137226199912534,1
701,562,45,0.144849315644227,1
701,563,45,0.145589945934881,1
701,564,45,0.12378316897141,1
701,565,45,0.170555756477548,1
701,566,45,0.174664804561497,1
701,567,45,0.112618725043325,1
702,565,45,0.149191907659286,1
702,566,45,0.140802351117473,1
704,573,45,0.104751904022167,1
705,574,45,0.106433224014518,1
714,582,45,0.141859054307921,1
715,581,45,0.149042331571972,1
715,582,45,0.193687960501384,1
715,583,45,0.149950629852523,1
716,581,45,0.120861895562027,1
716,582,45,0.150080061688257,1
716,583,45,0.125018024978158,1
717,582,45,0.108024552964926,1
696,560,46,0.139724053646261,1
697,560,46,0.178350366045367,1
697,561,46,0.166017923609964,1
698,561,46,0.163009313827452,1
698,562,46,0.152267252246452,1
698,563,46,0.145607870526403,1
699,561,46,0.13446794324559,1
699,562,46,0.166239633072123,1
699,563,46,0.175873013493481,1
699,564,46,0.140487237467755,1
699,565,46,0.112606812495879,1
700,561,46,0.121245004426381,1
700,562,46,0.170963460067669,1
700,563,46,0.17498503792964,1
700,564,46,0.136287618330189,1
700,565,46,0.143501814678061,1
700,566,46,0.138076385485038,1
701,561,46,0.108904553368257,1
701,562,46,0.142057518686861,1
701,563,46,0.131934920727128,1
701,564,46,0.116016009571442,1
701,565,46,0.166464153360083,1
701,566,46,0.177387948214059,1
701,567,46,0.112048975114911,1
702,565,46,0.144803070867343,1
702,566,46,0.143107763670407,1
704,573,46,0.108229040542013,1
705,573,46,0.103850643960191,1
705,574,46,0.113550034171611,1
714,582,46,0.139908508512474,1
715,581,46,0.1696735587223,1
715,582,46,0.200490225866361,1
715,583,46,0.133118300697861,1
716,581,46,0.12264568800137,1
716,582,46,0.149182159001545,1
717,582,46,0.105851505768305,1
777,553,46,0.10868756207798,1
779,540,46,0.103374733228092,1
779,543,46,0.105325357102033,1
779,544,46,0.152095479558559,1
779,545,46,0.183176888569317,1
779,546,46,0.165307241998984,1
694,561,47,0.146481312336197,1
694,562,47,0.159200142932723,1
695,560,47,0.137158204697898,1
695,561,47,0.157426489543594,1
695,562,47,0.142419401354782,1
696,559,47,0.136443619162194,1
696,560,47,0.185742860212457,1
696,561,47,0.170848684680758,1
697,559,47,0.157197853403567,1
697,560,47,0.208945569116823,1
697,561,47,0.19043451886827,1
697,562,47,0.137969172558024,1
698,560,47,0.157600124961284,1
698,561,47,0.183262830683617,1
698,562,47,0.182359797124409,1
698,563,47,0.16004136063243,1
698,564,47,0.119913520705658,1
699,560,47,0.103822011460852,1
699,561,47,0.146334747847956,1
699,562,47,0.190316888039276,1
699,563,47,0.196745112799332,1
699,564,47,0.157604787362813,1
699,565,47,0.123972877404896,1
700,561,47,0.120831221867761,1
700,562,47,0.16069318221263,1
700,563,47,0.165582145224037,1
700,564,47,0.151161839229509,1
700,565,47,0.158593651495614,1
700,566,47,0.133322141338851,1
701,561,47,0.10658709441903,1
701,562,47,0.127736383534414,1
701,563,47,0.114971598166842,1
701,564,47,0.119929036017922,1
701,565,47,0.16647694707911,1
701,566,47,0.166888320358472,1
701,567,47,0.10894401647019,1
702,565,47,0.138929560348475,1
702,566,47,0.13718410444993,1
705,573,47,0.105407462216032,1
714,582,47,0.130926826976539,1
715,581,47,0.175268317861745,1
715,582,47,0.183920363147986,1
715,583,47,0.111701615046966,1
716,582,47,0.143670029217419,1
779,544,47,0.157236937267097,1
779,545,47,0.17034552455408,1
779,546,47,0.144240303387152,1
779,547,47,0.113183087555618,1
693,561,48,0.156282438825946,1
693,562,48,0.160248759421955,1
694,560,48,0.140902358514852,1
694,561,48,0.209946312334858,1
694,562,48,0.219920126146293,1
694,563,48,0.139911464341195,1
695,559,48,0.124386871890859,1
695,560,48,0.168533579240436,1
695,561,48,0.190332659895164,1
695,562,48,0.172873126194211,1
695,563,48,0.114541140272611,1
696,559,48,0.164386685394797,1
696,560,48,0.225446990457737,1
696,561,48,0.181786745591086,1
696,562,48,0.123538247888244,1
697,559,48,0.159819327702223,1
697,560,48,0.22194778003209,1
697,561,48,0.192493783390268,1
697,562,48,0.141486753738019,1
698,559,48,0.109775831288346,1
698,560,48,0.157059130226987,1
698,561,48,0.189190750759079,1
698,562,48,0.200833392003745,1
698,563,48,0.165417444216931,1
698,564,48,0.115096278368482,1
699,560,48,0.109958066494501,1
699,561,48,0.156329085149372,1
699,562,48,0.212649144424781,1
699,563,48,0.213110387553985,1
699,564,48,0.167586386715555,1
699,565,48,0.126865574085293,1
700,561,48,0.118322202909321,1
700,562,48,0.153198215598548,1
700,563,48,0.165617815941951,1
700,564,48,0.170453049795073,1
700,565,48,0.167910880938684,1
700,566,48,0.122353239423197,1
701,562,48,0.11176141201968,1
701,563,48,0.109294845454105,1
701,564,48,0.137986048666906,1
701,565,48,0.169607760859581,1
701,566,48,0.147026902547599,1
702,564,48,0.105790247612337,1
702,565,48,0.133988597059733,1
702,566,48,0.122934489198443,1
706,574,48,0.108126356167679,1
715,582,48,0.150328351300756,1
716,581,48,0.12257258422238,1
780,547,48,0.134969619880873,1
780,548,48,0.122166999905681,1
692,561,49,0.108871459240661,1
693,560,49,0.139808612655801,1
693,561,49,0.182227755236145,1
693,562,49,0.167721685592448,1
694,559,49,0.115613593010806,1
694,560,49,0.173115403762634,1
694,561,49,0.264976124488709,1
694,562,49,0.252314625815284,1
694,563,49,0.147498295881087,1
695,559,49,0.142922818025085,1
695,560,49,0.182610406783602,1
695,561,49,0.207609467610854,1
695,562,49,0.188767498394483,1
695,563,49,0.121466747350752,1
696,558,49,0.112552927180605,1
696,559,49,0.17905885030443,1
696,560,49,0.224664933948717,1
696,561,49,0.169185077352588,1
696,562,49,0.123223279241445,1
697,559,49,0.152748684243519,1
697,560,49,0.207513096440504,1
697,561,49,0.174153758506875,1
697,562,49,0.135888603761099,1
698,559,49,0.111908601135877,1
698,560,49,0.157717822714703,1
698,561,49,0.181578722173605,1
698,562,49,0.196501842518621,1
698,563,49,0.156989227666271,1
698,564,49,0.108535264397429,1
699,560,49,0.124317069716779,1
699,561,49,0.163471136968329,1
699,562,49,0.218007225339264,1
699,563,49,0.210678487839966,1
699,564,49,0.164306175312901,1
699,565,49,0.11778027123309,1
700,561,49,0.11738977837397,1
700,562,49,0.150369442897003,1
700,563,49,0.169643598888555,1
700,564,49,0.180260277561463,1
700,565,49,0.155179847788875,1
701,563,49,0.110858746544804,1
701,564,49,0.146929828670798,1
701,565,49,0.150519253219801,1
701,566,49,0.11344375818653,1
702,564,49,0.110979913214192,1
702,565,49,0.115487150466004,1
692,561,50,0.120256274142428,1
692,562,50,0.104582574075745,1
693,560,50,0.164538592682876,1
693,561,50,0.20179489520126,1
693,562,50,0.16632901064018,1
693,563,50,0.113984752920827,1
694,559,50,0.130715479646007,1
694,560,50,0.207473187175746,1
694,561,50,0.290065310206751,1
694,562,50,0.244100232798839,1
694,563,50,0.144249973966399,1
695,559,50,0.155995232660975,1
695,560,50,0.187347674434272,1
695,561,50,0.209985195425118,1
695,562,50,0.185286301792923,1
695,563,50,0.126238525695989,1
696,558,50,0.124233447649173,1
696,559,50,0.180838538045776,1
696,560,50,0.194677661189483,1
696,561,50,0.151151410173458,1
696,562,50,0.122819334573131,1
697,559,50,0.153563622952793,1
697,560,50,0.187400611653541,1
697,561,50,0.157795031191689,1
697,562,50,0.130156448779481,1
698,559,50,0.132432369969637,1
698,560,50,0.176786052254055,1
698,561,50,0.179201131629545,1
698,562,50,0.17893834172521,1
698,563,50,0.142992319039258,1
699,560,50,0.152354242843392,1
699,561,50,0.170776361686713,1
699,562,50,0.20155510499059,1
699,563,50,0.190068754583765,1
699,564,50,0.152967170179262,1
700,561,50,0.118719165129413,1
700,562,50,0.146347608491407,1
700,563,50,0.172262942759719,1
700,564,50,0.186223299497237,1
700,565,50,0.139874789756922,1
701,563,50,0.122390995952322,1
701,564,50,0.157728653317296,1
701,565,50,0.133288679126924,1
702,564,50,0.117765547859842,1
692,560,51,0.12318204264228,1
692,561,51,0.123560143328915,1
693,559,51,0.121212412231964,1
693,560,51,0.17729106395646,1
693,561,51,0.201772230129715,1
693,562,51,0.160234894912147,1
694,559,51,0.138109446150422,1
694,560,51,0.222197363516784,1
694,561,51,0.269934488127652,1
694,562,51,0.209528123918334,1
694,563,51,0.134934205706583,1
695,559,51,0.149692178881668,1
695,560,51,0.179346971103194,1
695,561,51,0.191379134802833,1
695,562,51,0.166105739608132,1
695,563,51,0.122988407975928,1
696,559,51,0.161071294053337,1
696,560,51,0.153420304299109,1
696,561,51,0.130179303470228,1
696,562,51,0.120128671574279,1
697,559,51,0.157144124245282,1
697,560,51,0.16546290820887,1
697,561,51,0.138842502827111,1
698,559,51,0.163428952273159,1
698,560,51,0.194259026610132,1
698,561,51,0.169375689265795,1
698,562,51,0.156587915358629,1
698,563,51,0.129713498326131,1
699,559,51,0.135456416985918,1
699,560,51,0.172957964055517,1
699,561,51,0.167691714604631,1
699,562,51,0.173234696548154,1
699,563,51,0.160466040718069,1
699,564,51,0.134757380224689,1
700,560,51,0.109985973979249,1
700,561,51,0.119541387446816,1
700,562,51,0.138803586274639,1
700,563,51,0.161378622161746,1
700,564,51,0.172099557932949,1
700,565,51,0.12303203154621,1
701,563,51,0.12683792314417,1
701,564,51,0.15402508916341,1
701,565,51,0.12042751143493,1
702,564,51,0.118524214282725,1
692,560,52,0.121757634359035,1
692,561,52,0.127835353603224,1
693,559,52,0.124327677237959,1
693,560,52,0.173063883110337,1
693,561,52,0.192882591984721,1
693,562,52,0.159192480086192,1
694,559,52,0.139801942521557,1
694,560,52,0.209853309693842,1
694,561,52,0.226713379022191,1
694,562,52,0.175716477266086,1
694,563,52,0.123781217009048,1
695,560,52,0.162000071207587,1
695,561,52,0.161796464802081,1
695,562,52,0.139687959073662,1
696,560,52,0.12337634655287,1
696,561,52,0.115305015646484,1
697,559,52,0.157359286267974,1
697,560,52,0.143812555932087,1
698,558,52,0.125656651292788,1
698,559,52,0.182829684658361,1
698,560,52,0.189696431705722,1
698,561,52,0.149376306755146,1
699,559,52,0.147521987127132,1
699,560,52,0.170938731493054,1
699,561,52,0.148827961488296,1
699,562,52,0.140530671418836,1
699,563,52,0.129719231518441,1
700,560,52,0.109784721082648,1
700,563,52,0.138651266285947,1
700,564,52,0.142743482877297,1
700,565,52,0.104502889395075,1
701,563,52,0.122861151183969,1
701,564,52,0.144002766298752,1
701,565,52,0.111849941878369,1
702,564,52,0.11198626692976,1
692,561,53,0.14574550060406,1
692,562,53,0.129638955672028,1
693,560,53,0.16379237420283,1
693,561,53,0.199599885639545,1
693,562,53,0.180824115832436,1
693,563,53,0.119961449747209,1
694,559,53,0.139624815879756,1
694,560,53,0.179944695440778,1
694,561,53,0.190326324383039,1
694,562,53,0.165025579407123,1
695,560,53,0.143424639663286,1
695,561,53,0.14058994415023,1
697,559,53,0.156474355765419,1
697,560,53,0.138471473821262,1
698,558,53,0.136991942120903,1
698,559,53,0.184257472625011,1
698,560,53,0.175255747224131,1
698,561,53,0.140917673053844,1
699,559,53,0.147019607785399,1
699,560,53,0.157818967827288,1
700,563,53,0.116343225387807,1
700,564,53,0.115002416864027,1
701,563,53,0.117241049996025,1
701,564,53,0.141880659742755,1
701,565,53,0.111776559247612,1
702,564,53,0.113226108806085,1
692,561,54,0.164290793849485,1
692,562,54,0.141396349995463,1
693,560,54,0.145489871613078,1
693,561,54,0.200160957700998,1
693,562,54,0.190229462433581,1
693,563,54,0.117479300944946,1
694,560,54,0.138539457881828,1
694,561,54,0.154017002462194,1
694,562,54,0.14950919635278,1
698,559,54,0.165139685549794,1
698,560,54,0.149756013627954,1
701,563,54,0.105046338024914,1
701,564,54,0.128364826182548,1
702,564,54,0.103764690691821,1
693,561,55,0.182382807972144,1
693,562,55,0.173971378297801,1
701,564,55,0.119822782340982,1
701,564,56,0.106001249166679,1
