x,y,z,signal,mito.p
45,482,1,0.112242319775427,1
45,483,1,0.121066148903631,1
45,484,1,0.156174433959915,1
45,485,1,0.203600159226589,2
45,486,1,0.190010998805979,1
45,487,1,0.141945799515307,1
45,488,1,0.108215142569992,1
46,460,1,0.121422833774633,1
46,478,1,0.108411108437109,1
46,479,1,0.120015056210716,1
46,480,1,0.133667125589749,1
46,481,1,0.148868807694988,1
46,482,1,0.163255785326436,1
46,483,1,0.18899959229641,1
46,484,1,0.278531733464826,2
46,485,1,0.379247682027963,2
46,486,1,0.346747709466977,2
46,487,1,0.249847635395025,1
46,488,1,0.182569359803638,1
46,489,1,0.133165058561994,1
47,460,1,0.111519636384436,1
47,477,1,0.102999476829471,1
47,478,1,0.12413947460401,1
47,479,1,0.145112194781126,1
47,480,1,0.174627282267856,1
47,481,1,0.204312547410377,1
47,482,1,0.209498409474143,1
47,483,1,0.239096583633088,1
47,484,1,0.338639280121635,2
47,485,1,0.423834607083584,2
47,486,1,0.398126972764704,2
47,487,1,0.323793903648996,2
47,488,1,0.249511407089581,1
47,489,1,0.181406492168816,1
47,490,1,0.137369607798783,1
48,477,1,0.105224691614486,1
48,478,1,0.137049686744618,1
48,479,1,0.162160790211473,1
48,480,1,0.198411040174196,1
48,481,1,0.236554727090677,1
48,482,1,0.227065468416089,1
48,483,1,0.23674961101294,1
48,484,1,0.296914846523111,2
48,485,1,0.337310339529018,2
48,486,1,0.33325634793776,2
48,487,1,0.309755301105922,2
48,488,1,0.258384091047199,1
48,489,1,0.200948033541807,1
48,490,1,0.160698681169457,1
49,478,1,0.13200650755251,1
49,479,1,0.15196508847275,1
49,480,1,0.183269043500965,1
49,481,1,0.227829812260929,1
49,482,1,0.224694916090604,1
49,483,1,0.21495464621028,1
49,484,1,0.231821051050754,1
49,485,1,0.252130226719425,1
49,486,1,0.267023878009803,1
49,487,1,0.268008447825407,2
49,488,1,0.238910444502208,1
49,489,1,0.200078640659657,1
49,490,1,0.166615714871972,1
50,478,1,0.12219354659381,1
50,479,1,0.147999236347708,1
50,480,1,0.18449482009421,1
50,481,1,0.227966940405407,1
50,482,1,0.225845436169225,1
50,483,1,0.204303311839885,1
50,484,1,0.193916262019292,1
50,485,1,0.202183324557311,1
50,486,1,0.223182691809191,1
50,487,1,0.228960790407785,1
50,488,1,0.201869872864118,1
50,489,1,0.169324860165878,1
50,490,1,0.149620993602828,1
51,478,1,0.109143395482923,1
51,479,1,0.151010701572305,1
51,480,1,0.191408113078362,1
51,481,1,0.206707772540124,1
51,482,1,0.186037238444851,1
51,483,1,0.160169130511639,1
51,484,1,0.144659696443306,1
51,485,1,0.14500026368223,1
51,486,1,0.15412563195618,1
51,487,1,0.154639823458724,1
51,488,1,0.140281701408027,1
51,489,1,0.124287667586565,1
52,475,1,0.10420847770047,1
52,479,1,0.154185585085883,1
52,480,1,0.190348297902205,1
52,481,1,0.175732784517365,1
52,482,1,0.136392533518652,1
52,483,1,0.106011276676187,1
53,474,1,0.104694449404288,1
53,475,1,0.110153664277286,1
53,476,1,0.108147136201286,1
53,479,1,0.104954461945033,1
53,480,1,0.118718350882256,1
54,473,1,0.106316184351267,1
87,438,1,0.135850032984818,1
87,439,1,0.121294171569773,1
88,438,1,0.147953181190025,1
88,439,1,0.134213083885482,1
45,460,2,0.103488984373682,1
45,483,2,0.108163621917695,1
45,484,2,0.144352691802945,1
45,485,2,0.19361184512332,2
45,486,2,0.17232060930494,2
45,487,2,0.135565704570073,1
45,488,2,0.107522753634866,1
46,459,2,0.117107591540789,1
46,460,2,0.158607248307727,1
46,461,2,0.106291020767898,1
46,471,2,0.10487124142397,1
46,478,2,0.109778987890338,1
46,479,2,0.128137695842057,1
46,480,2,0.143268761526059,1
46,481,2,0.14487281727107,1
46,482,2,0.146553178013346,1
46,483,2,0.176754352385289,1
46,484,2,0.287055629633457,2
46,485,2,0.404355048881153,2
46,486,2,0.340527597356967,2
46,487,2,0.250698445595485,2
46,488,2,0.188197592309081,1
46,489,2,0.122207478028042,1
47,460,2,0.134640474410287,1
47,469,2,0.105726647101534,1
47,470,2,0.108825225617849,1
47,471,2,0.115282149801667,1
47,478,2,0.125681937570934,1
47,479,2,0.168011100263406,1
47,480,2,0.205964666045786,1
47,481,2,0.209856455141763,1
47,482,2,0.196018157399285,1
47,483,2,0.237446628887383,2
47,484,2,0.354286121186211,2
47,485,2,0.448211516158545,2
47,486,2,0.395747363333857,2
47,487,2,0.32800182141512,2
47,488,2,0.247405674709287,2
47,489,2,0.163880402128339,1
47,490,2,0.122492821463216,1
48,469,2,0.103924104669442,1
48,478,2,0.139314587712979,1
48,479,2,0.188079515317261,1
48,480,2,0.226108560695679,1
48,481,2,0.242408918759193,1
48,482,2,0.234185357096679,1
48,483,2,0.267426272262298,2
48,484,2,0.311501917027813,2
48,485,2,0.330469101841216,2
48,486,2,0.333157924418411,2
48,487,2,0.333240397616741,2
48,488,2,0.266156024389402,2
48,489,2,0.18506816163337,1
48,490,2,0.142223926266774,1
48,491,2,0.114061660237907,1
49,478,2,0.129667353935883,1
49,479,2,0.159917416599452,1
49,480,2,0.185346422233686,1
49,481,2,0.231526918207914,1
49,482,2,0.25312733371043,1
49,483,2,0.266959385173349,2
49,484,2,0.25159552288097,2
49,485,2,0.240573761824542,2
49,486,2,0.270608729389843,2
49,487,2,0.299578126278535,2
49,488,2,0.265249086905469,2
49,489,2,0.198144502502126,1
49,490,2,0.149754485520276,1
49,491,2,0.129123079904817,1
50,478,2,0.120273061018745,1
50,479,2,0.15102017137828,1
50,480,2,0.190710983663213,1
50,481,2,0.247187835709641,1
50,482,2,0.258339340915781,1
50,483,2,0.236830790339076,1
50,484,2,0.201427770120136,1
50,485,2,0.195708341933122,1
50,486,2,0.224237733043113,1
50,487,2,0.239791214536413,2
50,488,2,0.213109294455062,1
50,489,2,0.167854709038929,1
50,490,2,0.139825410686189,1
51,478,2,0.112936660672915,1
51,479,2,0.172149539323498,1
51,480,2,0.231742013306182,1
51,481,2,0.238671033529939,1
51,482,2,0.207022875035771,1
51,483,2,0.17460806380414,1
51,484,2,0.147648240052733,1
51,485,2,0.144419616226799,1
51,486,2,0.152216623919806,1
51,487,2,0.15084428283832,1
51,488,2,0.137177467777898,1
51,489,2,0.123301781590626,1
52,478,2,0.116994745808099,1
52,479,2,0.207272101590205,1
52,480,2,0.282644640857218,3
52,481,2,0.236634880242313,1
52,482,2,0.164360897183472,1
52,483,2,0.123091081196191,1
52,484,2,0.104432272973839,1
53,474,2,0.109387033847964,1
53,475,2,0.115308953033421,1
53,476,2,0.117524564163613,1
53,479,2,0.140861300380818,1
53,480,2,0.183464117042429,1
53,481,2,0.150775439914315,1
53,482,2,0.103463463860053,1
54,472,2,0.122108496805162,1
54,473,2,0.129020060908364,1
54,474,2,0.11204131226838,1
55,472,2,0.109820603727905,1
55,473,2,0.108158736434754,1
87,438,2,0.140357872556444,1
87,439,2,0.130933385570077,1
88,438,2,0.171267999658418,1
88,439,2,0.16165528772996,1
45,460,3,0.107532357289689,1
45,484,3,0.137244994521567,1
45,485,3,0.177690234682539,2
45,486,3,0.153216775972097,2
45,487,3,0.128462770076859,1
46,459,3,0.117324359749653,1
46,460,3,0.17261179747313,1
46,461,3,0.114759815827555,1
46,468,3,0.104580499418605,1
46,469,3,0.110738438738855,1
46,470,3,0.119340524942688,1
46,471,3,0.130727648737078,1
46,472,3,0.10408017242587,1
46,478,3,0.114111362776689,1
46,479,3,0.138081248659838,1
46,480,3,0.156603821063365,1
46,481,3,0.143599647031665,1
46,482,3,0.131932366444951,1
46,483,3,0.169181731131395,1
46,484,3,0.286710366530792,2
46,485,3,0.398272912624989,2
46,486,3,0.31773222395839,2
46,487,3,0.245747956730415,2
46,488,3,0.178517152863683,1
46,489,3,0.11158551232565,1
47,460,3,0.145406718016439,1
47,461,3,0.105324286311252,1
47,468,3,0.103606637510818,1
47,469,3,0.122823026570513,1
47,470,3,0.138704359662205,1
47,471,3,0.154783800202576,1
47,472,3,0.121043974611194,1
47,477,3,0.105768731410068,1
47,478,3,0.134388381259698,1
47,479,3,0.198828090875515,1
47,480,3,0.247394319865373,1
47,481,3,0.213881334608645,1
47,482,3,0.187640401864211,1
47,483,3,0.246939077626175,2
47,484,3,0.363398126883532,2
47,485,3,0.462597010298598,2
47,486,3,0.38996000685663,2
47,487,3,0.321374072639413,2
47,488,3,0.223132119252899,2
47,489,3,0.145252646838655,1
47,490,3,0.11613491196449,1
48,469,3,0.127512655185469,1
48,470,3,0.127466845417341,1
48,471,3,0.115841336825182,1
48,477,3,0.103791226225879,1
48,478,3,0.145279371991914,1
48,479,3,0.215951329346601,1
48,480,3,0.254350109858673,1
48,481,3,0.233521801434164,1
48,482,3,0.247299086410228,2
48,483,3,0.324092074265409,2
48,484,3,0.333843275134962,2
48,485,3,0.342042275533921,2
48,486,3,0.350736672826391,2
48,487,3,0.359783092588334,2
48,488,3,0.261302977485464,2
48,489,3,0.16659813605664,1
48,490,3,0.128278203669939,1
49,465,3,0.117262633122718,1
49,466,3,0.124059566841928,1
49,478,3,0.129067264935323,1
49,479,3,0.168670606998278,1
49,480,3,0.18961322233873,1
49,481,3,0.218850896934513,1
49,482,3,0.278320341518012,2
49,483,3,0.335160213947567,2
49,484,3,0.277418780296129,2
49,485,3,0.238836046851023,2
49,486,3,0.280792908973593,2
49,487,3,0.334875160518231,2
49,488,3,0.28020042704921,2
49,489,3,0.181780265076043,1
49,490,3,0.12618592309884,1
50,465,3,0.115635845381737,1
50,466,3,0.104157046280738,1
50,478,3,0.116172456566272,1
50,479,3,0.146294091260464,1
50,480,3,0.188606701312102,1
50,481,3,0.241561164774089,1
50,482,3,0.269167980393107,1
50,483,3,0.253054497629135,2
50,484,3,0.200732960751681,1
50,485,3,0.188068718176879,1
50,486,3,0.215478575216494,1
50,487,3,0.236737899238766,2
50,488,3,0.208394446486383,1
50,489,3,0.1524370283557,1
50,490,3,0.120482813317175,1
51,478,3,0.115154022992198,1
51,479,3,0.177661278715151,1
51,480,3,0.260138269428986,3
51,481,3,0.255390561568195,1
51,482,3,0.218726261349155,1
51,483,3,0.181853168081761,1
51,484,3,0.151587010094255,1
51,485,3,0.147488982232101,1
51,486,3,0.150263869618373,1
51,487,3,0.144649936631494,1
51,488,3,0.130946402370517,1
51,489,3,0.118356847452736,1
52,476,3,0.107046987905686,1
52,478,3,0.124976431448733,1
52,479,3,0.236148228140185,3
52,480,3,0.36402960343888,3
52,481,3,0.291077051338439,3
52,482,3,0.190831425318009,1
52,483,3,0.147438632757221,1
52,484,3,0.12446399113528,1
52,485,3,0.115408581192399,1
52,486,3,0.104402993538402,1
53,472,3,0.103123677406074,1
53,473,3,0.121405455732572,1
53,474,3,0.125317589853401,1
53,475,3,0.131328317749312,1
53,476,3,0.135311614840839,1
53,477,3,0.10879382690899,1
53,478,3,0.102919736378448,1
53,479,3,0.163618292622314,1
53,480,3,0.248965058401375,3
53,481,3,0.204220526327578,1
53,482,3,0.129793629169626,1
54,472,3,0.156264703853624,1
54,473,3,0.168375715678635,1
54,474,3,0.143489969055039,1
54,475,3,0.130127715893507,1
54,476,3,0.125351453611871,1
54,480,3,0.115081186910903,1
54,481,3,0.108240216920797,1
55,471,3,0.106595861518554,1
55,472,3,0.138269060901315,1
55,473,3,0.13920347086124,1
55,474,3,0.112975131062561,1
87,438,3,0.145906676924842,1
87,439,3,0.155105282826631,1
88,438,3,0.199428982969162,1
88,439,3,0.209316776587802,1
88,440,3,0.120341647399125,1
89,438,3,0.115524505448585,1
89,439,3,0.120433133086534,1
45,484,4,0.11890491386782,1
45,485,4,0.147631575871193,2
45,486,4,0.131224696433044,1
45,487,4,0.116742875738924,1
46,460,4,0.15316003521474,1
46,461,4,0.110528630670071,1
46,468,4,0.114620780336997,1
46,469,4,0.119085174803472,1
46,470,4,0.127187079017489,1
46,471,4,0.13939551049549,1
46,477,4,0.106899285702239,1
46,478,4,0.122021026583184,1
46,479,4,0.14146176861978,1
46,480,4,0.154196393380336,1
46,481,4,0.136526471598925,1
46,482,4,0.125456669960241,1
46,483,4,0.157470414273784,1
46,484,4,0.252373519308276,2
46,485,4,0.350290353843706,2
46,486,4,0.284644565723398,2
46,487,4,0.224647823604351,2
46,488,4,0.154610209401168,1
47,460,4,0.140748175796363,1
47,461,4,0.113798881487643,1
47,468,4,0.111102262215068,1
47,469,4,0.134252401984497,1
47,470,4,0.15482572835412,1
47,471,4,0.167700961329194,1
47,472,4,0.118514722168608,1
47,477,4,0.119265279582135,1
47,478,4,0.155403888451798,1
47,479,4,0.221173531372519,1
47,480,4,0.256949588330022,1
47,481,4,0.211891002243217,1
47,482,4,0.192931558354841,1
47,483,4,0.249594103369324,2
47,484,4,0.340629813260334,2
47,485,4,0.449765055117617,2
47,486,4,0.385284220443341,2
47,487,4,0.305241583339067,2
47,488,4,0.195265235322782,2
47,489,4,0.129038944749962,1
48,465,4,0.10555710522777,1
48,466,4,0.123032276935764,1
48,467,4,0.103390382389204,1
48,468,4,0.106967292070946,1
48,469,4,0.140936032654122,1
48,470,4,0.14338719544814,1
48,471,4,0.121980280763128,1
48,477,4,0.114549617366299,1
48,478,4,0.167787394222602,1
48,479,4,0.240208086772602,1
48,480,4,0.253815004473675,1
48,481,4,0.222183287079633,1
48,482,4,0.263630028935444,2
48,483,4,0.36028689965111,2
48,484,4,0.333920349763101,2
48,485,4,0.346807116047219,2
48,486,4,0.362403116857807,2
48,487,4,0.363306685812406,2
48,488,4,0.24596769192207,2
48,489,4,0.149476537233939,1
48,490,4,0.113435638023102,1
49,465,4,0.159978351287372,1
49,466,4,0.160231805234579,1
49,478,4,0.13843895970534,1
49,479,4,0.180328852787773,1
49,480,4,0.182174996482006,1
49,481,4,0.202372185281427,1
49,482,4,0.288510811997604,2
49,483,4,0.373753142213241,2
49,484,4,0.282396797407544,2
49,485,4,0.229050625292739,2
49,486,4,0.274421592281954,2
49,487,4,0.34028820869284,2
49,488,4,0.273357226244975,2
49,489,4,0.164606420586452,1
49,490,4,0.110299481442794,1
50,465,4,0.144949311887536,1
50,466,4,0.123367044057954,1
50,478,4,0.116092403801272,1
50,479,4,0.143671579633238,1
50,480,4,0.175247459749644,1
50,481,4,0.221210986741736,1
50,482,4,0.256338233718113,1
50,483,4,0.250394140240219,2
50,484,4,0.190272650995108,1
50,485,4,0.170425075385902,1
50,486,4,0.192077178851775,1
50,487,4,0.218837913596286,2
50,488,4,0.193597032517507,1
50,489,4,0.13840805177559,1
50,490,4,0.108356799267151,1
51,478,4,0.114885522203695,1
51,479,4,0.168759181473249,1
51,480,4,0.25741609618057,3
51,481,4,0.250546661002183,1
51,482,4,0.212547129294685,1
51,483,4,0.17836395170341,1
51,484,4,0.146886885498825,1
51,485,4,0.138762773530159,1
51,486,4,0.137481494281397,1
51,487,4,0.131622104815962,1
51,488,4,0.120997517906968,1
51,489,4,0.110227058062113,1
52,476,4,0.107408781341042,1
52,477,4,0.10949965649924,1
52,478,4,0.126246032385532,1
52,479,4,0.234308274955158,3
52,480,4,0.396317871739074,3
52,481,4,0.316328997255296,3
52,482,4,0.199971115418664,1
52,483,4,0.16047230930577,1
52,484,4,0.134006733578598,1
52,485,4,0.119899801198768,1
52,486,4,0.105994255564387,1
53,472,4,0.116212098133335,1
53,473,4,0.146738380202292,1
53,474,4,0.140991881085828,1
53,475,4,0.136603546227064,1
53,476,4,0.138236691788311,1
53,477,4,0.115702167485777,1
53,478,4,0.108105854985838,1
53,479,4,0.171722594961519,1
53,480,4,0.291471704665908,3
53,481,4,0.242323567810637,1
53,482,4,0.146355762117046,1
53,483,4,0.105000684413775,1
54,471,4,0.104528052978445,1
54,472,4,0.180171256923666,1
54,473,4,0.206408575749212,1
54,474,4,0.172246066650837,1
54,475,4,0.147097887053167,1
54,476,4,0.130581920804135,1
54,480,4,0.134478985775526,1
54,481,4,0.128928720223874,1
55,471,4,0.110902002030755,1
55,472,4,0.150363085076737,1
55,473,4,0.158353515508754,1
55,474,4,0.129121261791303,1
55,475,4,0.10682480997256,1
87,438,4,0.144415611915439,1
87,439,4,0.177059126211522,1
87,440,4,0.11357311194377,1
88,438,4,0.201398211832934,1
88,439,4,0.240365158395388,1
88,440,4,0.135133328175691,1
89,438,4,0.122035783418644,1
89,439,4,0.140159040093173,1
45,485,5,0.114770724508643,1
45,486,5,0.111945721882975,1
45,487,5,0.104898122734218,1
46,460,5,0.116478033485591,1
46,467,5,0.111513613186289,1
46,468,5,0.125026122833444,1
46,469,5,0.127778077450476,1
46,470,5,0.13183650836185,1
46,471,5,0.13422815303492,1
46,477,5,0.111838040484993,1
46,478,5,0.132070799615693,1
46,479,5,0.142728792966261,1
46,480,5,0.145482922627067,1
46,481,5,0.128937587710034,1
46,482,5,0.123796341928839,1
46,483,5,0.143140902414285,1
46,484,5,0.193720463463235,2
46,485,5,0.267660976216755,2
46,486,5,0.243593681834686,2
46,487,5,0.190862366709971,1
46,488,5,0.128535751161072,1
47,460,5,0.120064702979145,1
47,461,5,0.115022148414993,1
47,467,5,0.111252596779186,1
47,468,5,0.117974106672713,1
47,469,5,0.14492960264471,1
47,470,5,0.166731282197898,1
47,471,5,0.15886202958934,1
47,472,5,0.104881637017808,1
47,477,5,0.137446727043205,1
47,478,5,0.191225297860533,1
47,479,5,0.232271273958163,1
47,480,5,0.235871584880113,1
47,481,5,0.20226822934304,1
47,482,5,0.209983455390098,1
47,483,5,0.249951792106684,2
47,484,5,0.295782931434322,2
47,485,5,0.403568374586887,2
47,486,5,0.375507588292723,2
47,487,5,0.275278938767811,2
47,488,5,0.167472425575802,1
47,489,5,0.11508216846912,1
48,465,5,0.128309401605526,1
48,466,5,0.138939007846309,1
48,467,5,0.108573734787075,1
48,468,5,0.103091364063423,1
48,469,5,0.143792255523518,1
48,470,5,0.157363814820655,1
48,471,5,0.12410179615338,1
48,477,5,0.128766863504782,1
48,478,5,0.203436685167254,1
48,479,5,0.251599560654542,1
48,480,5,0.22857019716203,1
48,481,5,0.210335879406114,1
48,482,5,0.290063525555448,2
48,483,5,0.379327991336589,2
48,484,5,0.32371444204974,2
48,485,5,0.343841025581995,2
48,486,5,0.365170285627195,2
48,487,5,0.332710534644945,2
48,488,5,0.218655946087826,2
48,489,5,0.135851360319224,1
49,464,5,0.125260436395429,1
49,465,5,0.198994821923478,1
49,466,5,0.179444189982913,1
49,478,5,0.150962538295271,1
49,479,5,0.187880303615588,1
49,480,5,0.173065600837216,1
49,481,5,0.189502930888218,1
49,482,5,0.289608350240674,2
49,483,5,0.375796389489796,2
49,484,5,0.274167368703873,2
49,485,5,0.224047868452639,2
49,486,5,0.262467217070975,2
49,487,5,0.308182041749954,2
49,488,5,0.242482981788258,1
49,489,5,0.149800451445394,1
50,464,5,0.112316583577764,1
50,465,5,0.166169685895124,1
50,466,5,0.13342336452993,1
50,478,5,0.118873570929315,1
50,479,5,0.146324039940139,1
50,480,5,0.166113603227935,1
50,481,5,0.197451745482668,1
50,482,5,0.229280488380537,1
50,483,5,0.232804349302304,2
50,484,5,0.176429400845264,1
50,485,5,0.154896355929428,1
50,486,5,0.17090148805118,1
50,487,5,0.19601443193969,1
50,488,5,0.175961152959697,1
50,489,5,0.130960646118727,1
51,477,5,0.103474115997516,1
51,478,5,0.122114999628346,1
51,479,5,0.158424031543355,1
51,480,5,0.227864612961333,3
51,481,5,0.227133463630725,1
51,482,5,0.195991789176286,1
51,483,5,0.17190509786537,1
51,484,5,0.142291163004607,1
51,485,5,0.129514074697116,1
51,486,5,0.126543243751869,1
51,487,5,0.124418515989271,1
51,488,5,0.118886955814086,1
52,476,5,0.1129492424646,1
52,477,5,0.125624326796066,1
52,478,5,0.134729550818437,1
52,479,5,0.208296781443838,3
52,480,5,0.3512657327051,3
52,481,5,0.297582774581319,3
52,482,5,0.193863235567458,1
52,483,5,0.162958161259486,1
52,484,5,0.138954601237067,1
52,485,5,0.121003050326007,1
52,486,5,0.107931081852943,1
53,472,5,0.137140804347696,1
53,473,5,0.18720403231254,1
53,474,5,0.162168185360309,1
53,475,5,0.140119030441779,1
53,476,5,0.139441465266536,1
53,477,5,0.128887126694448,1
53,478,5,0.119134587336418,1
53,479,5,0.16932072200567,1
53,480,5,0.290438458486021,3
53,481,5,0.258059485283364,1
53,482,5,0.158300912911604,1
53,483,5,0.117089778489973,1
53,484,5,0.104804383924539,1
54,471,5,0.113349595522167,1
54,472,5,0.196197425622649,1
54,473,5,0.245194826367259,1
54,474,5,0.201176848146965,1
54,475,5,0.160599320708175,1
54,476,5,0.131957585798673,1
54,477,5,0.104012545295565,1
54,479,5,0.103114731841418,1
54,480,5,0.147342819290403,1
54,481,5,0.145791131907058,1
55,470,5,0.112300689027098,1
55,471,5,0.122778856450769,1
55,472,5,0.155640800912242,1
55,473,5,0.172677338792225,1
55,474,5,0.147166395355052,1
55,475,5,0.123094204335971,1
56,470,5,0.107267001949107,1
87,438,5,0.123675889119971,1
87,439,5,0.176457676414343,1
87,440,5,0.113020550438217,1
88,438,5,0.169601715353293,1
88,439,5,0.232144385250535,1
88,440,5,0.126936614361214,1
89,438,5,0.116690340066198,1
89,439,5,0.146438179545023,1
46,467,6,0.113881198528983,1
46,468,6,0.121174019920813,1
46,469,6,0.12744373418297,1
46,470,6,0.124978929960557,1
46,471,6,0.112372443163541,1
46,477,6,0.112513977165922,1
46,478,6,0.139843703362042,1
46,479,6,0.142506135408098,1
46,480,6,0.137365781952553,1
46,481,6,0.119257873279228,1
46,482,6,0.122101023577831,1
46,483,6,0.133873018579737,1
46,484,6,0.153015846543545,1
46,485,6,0.202211544356036,2
46,486,6,0.203416206293555,2
46,487,6,0.154699798896568,1
46,488,6,0.106830431624164,1
47,461,6,0.108757230403213,1
47,466,6,0.104915266540795,1
47,467,6,0.115167050946708,1
47,468,6,0.117281126571843,1
47,469,6,0.147473835004168,1
47,470,6,0.164690778822721,1
47,471,6,0.132615720582856,1
47,477,6,0.148485765755058,1
47,478,6,0.223384357406406,1
47,479,6,0.237219911247506,1
47,480,6,0.21497965363666,1
47,481,6,0.188234088428223,1
47,482,6,0.22511384067579,1
47,483,6,0.256650235382122,2
47,484,6,0.263527768415795,2
47,485,6,0.353241765551965,2
47,486,6,0.352236471473107,2
47,487,6,0.236962497605221,2
47,488,6,0.141576599777044,1
48,465,6,0.130897581003315,1
48,466,6,0.131768847769333,1
48,469,6,0.132976710925127,1
48,470,6,0.15393636968552,1
48,471,6,0.114901751376479,1
48,477,6,0.137334316319271,1
48,478,6,0.236040167503802,1
48,479,6,0.256283801853378,1
48,480,6,0.208607980014761,1
48,481,6,0.20033255192376,1
48,482,6,0.308983907888435,2
48,483,6,0.384531989919219,2
48,484,6,0.316437615595211,2
48,485,6,0.335407566618133,2
48,486,6,0.350677645484551,2
48,487,6,0.27932112935233,2
48,488,6,0.183964254415963,1
48,489,6,0.122118524314669,1
49,464,6,0.132952305818561,1
49,465,6,0.201995356158845,1
49,466,6,0.16782000872516,1
49,478,6,0.157277203462116,1
49,479,6,0.186391045565628,1
49,480,6,0.16513579277914,1
49,481,6,0.178022994072013,1
49,482,6,0.270591440580347,2
49,483,6,0.336445586740255,2
49,484,6,0.250452766035516,2
49,485,6,0.217982976389688,2
49,486,6,0.241681204882342,2
49,487,6,0.251361711252164,1
49,488,6,0.199220803394692,1
49,489,6,0.134044568186217,1
50,464,6,0.106045608905624,1
50,465,6,0.153280811491655,1
50,466,6,0.120114338593504,1
50,478,6,0.117653014441131,1
50,479,6,0.145910781622839,1
50,480,6,0.156884100550467,1
50,481,6,0.174943834792687,1
50,482,6,0.195540339321106,1
50,483,6,0.199864660968454,2
50,484,6,0.156138093997763,1
50,485,6,0.141042710185746,1
50,486,6,0.151414768935396,1
50,487,6,0.166455363952417,1
50,488,6,0.152873565218431,1
50,489,6,0.121921476502701,1
51,477,6,0.110160066713835,1
51,478,6,0.130359319016325,1
51,479,6,0.15562616677156,1
51,480,6,0.192044921279477,1
51,481,6,0.199589824667825,1
51,482,6,0.176573020658856,1
51,483,6,0.159402444311964,1
51,484,6,0.133512998641613,1
51,485,6,0.121841713743537,1
51,486,6,0.118209078324866,1
51,487,6,0.116821333471822,1
51,488,6,0.114428740702748,1
51,489,6,0.109753523147061,1
51,490,6,0.1050120727199,1
51,491,6,0.105222081561955,1
52,473,6,0.127127393585481,1
52,474,6,0.110808765154255,1
52,476,6,0.1200383905265,1
52,477,6,0.144540693663622,1
52,478,6,0.145747017557667,1
52,479,6,0.1796559723222,1
52,480,6,0.272659048347185,3
52,481,6,0.266695948332917,1
52,482,6,0.183973211134689,1
52,483,6,0.153134782398805,1
52,484,6,0.137836729123216,1
52,485,6,0.121873815158846,1
52,486,6,0.110157947440413,1
52,487,6,0.103081303091703,1
52,490,6,0.106388239647617,1
53,472,6,0.15988230358507,1
53,473,6,0.248552023165488,1
53,474,6,0.194304200596234,1
53,475,6,0.145441217556936,1
53,476,6,0.142472628579888,1
53,477,6,0.146078326917958,1
53,478,6,0.130727671045219,1
53,479,6,0.160484768402677,1
53,480,6,0.26445351166283,1
53,481,6,0.273281735494867,1
53,482,6,0.172906499173573,1
53,483,6,0.12324507429548,1
53,484,6,0.117212015950143,1
53,485,6,0.107112283835226,1
54,471,6,0.117021582502065,1
54,472,6,0.200847111510635,1
54,473,6,0.286918746878533,1
54,474,6,0.228270197278032,1
54,475,6,0.170363761459581,1
54,476,6,0.134662983324843,1
54,477,6,0.112338880564978,1
54,479,6,0.105987986976686,1
54,480,6,0.146431977881746,1
54,481,6,0.155783550708324,1
54,482,6,0.10917008717397,1
55,470,6,0.120985192658908,1
55,471,6,0.132778201929904,1
55,472,6,0.150994617402438,1
55,473,6,0.179843516865981,1
55,474,6,0.161042427318514,1
55,475,6,0.140399945710907,1
55,476,6,0.104727866999932,1
56,470,6,0.110931169925485,1
78,435,6,0.10559096898624,1
78,436,6,0.114814191921936,1
79,435,6,0.1124524736204,1
79,436,6,0.115680383585812,1
81,435,6,0.113292709761891,1
82,435,6,0.111547878491302,1
86,439,6,0.105413474260108,1
87,438,6,0.113193393916891,1
87,439,6,0.173593946855404,1
87,440,6,0.116299055268063,1
88,438,6,0.149031512123449,1
88,439,6,0.216036858760287,1
88,440,6,0.121957113758403,1
89,439,6,0.157673340280981,1
46,467,7,0.114795598086176,1
46,468,7,0.115923163087415,1
46,469,7,0.123790965666789,1
46,470,7,0.114896631658054,1
46,477,7,0.112158842710739,1
46,478,7,0.143890455961454,1
46,479,7,0.146857427598258,1
46,480,7,0.135231550921768,1
46,481,7,0.110063327459154,1
46,482,7,0.116564644844129,1
46,483,7,0.131100507010512,1
46,484,7,0.130183698174061,1
46,485,7,0.151981172642616,1
46,486,7,0.160809708788631,1
46,487,7,0.127299210889657,1
47,466,7,0.10630390371949,1
47,467,7,0.115524695067786,1
47,468,7,0.114542958386126,1
47,469,7,0.143940593508991,1
47,470,7,0.153057975468362,1
47,471,7,0.111523127608547,1
47,477,7,0.152199948584196,1
47,478,7,0.24110505251738,1
47,479,7,0.254568038090884,1
47,480,7,0.213887781661476,1
47,481,7,0.169838315499759,1
47,482,7,0.221945616142385,1
47,483,7,0.275974908159613,2
47,484,7,0.250550832624604,2
47,485,7,0.294278916548902,2
47,486,7,0.303337806561824,2
47,487,7,0.199764318948955,1
47,488,7,0.123656715272537,1
48,464,7,0.105735782285391,1
48,465,7,0.129652641716706,1
48,466,7,0.118743514465625,1
48,469,7,0.117417942402342,1
48,470,7,0.13794705403594,1
48,471,7,0.106905141589327,1
48,477,7,0.138131386207376,1
48,478,7,0.245585263456025,1
48,479,7,0.261766652202068,1
48,480,7,0.20421622085631,1
48,481,7,0.18601117138176,1
48,482,7,0.308507049060332,2
48,483,7,0.405302074094974,2
48,484,7,0.330896570444515,2
48,485,7,0.3236481199457,2
48,486,7,0.324214612885486,2
48,487,7,0.233253211413095,2
48,488,7,0.158966342457988,1
48,489,7,0.114619943781699,1
49,464,7,0.131318926021831,1
49,465,7,0.186585137548876,1
49,466,7,0.14529925969987,1
49,478,7,0.150745680853841,1
49,479,7,0.17510692961362,1
49,480,7,0.157466409962423,1
49,481,7,0.165464101694428,1
49,482,7,0.23927703418794,1
49,483,7,0.297420081306929,2
49,484,7,0.238811017116501,2
49,485,7,0.220264786929142,2
49,486,7,0.225466777779057,2
49,487,7,0.204731873542107,1
49,488,7,0.169219097268047,1
49,489,7,0.126536027068163,1
50,465,7,0.128408605909819,1
50,478,7,0.115049710123551,1
50,479,7,0.142091415907543,1
50,480,7,0.149287063035936,1
50,481,7,0.159433597631268,1
50,482,7,0.167629831820708,1
50,483,7,0.16905731862745,1
50,484,7,0.143266452633436,1
50,485,7,0.137209569193206,1
50,486,7,0.139049243526467,1
50,487,7,0.142435541295002,1
50,488,7,0.137094303027188,1
50,489,7,0.118773708534854,1
51,477,7,0.120975444001167,1
51,478,7,0.145823132935731,1
51,479,7,0.160657979965683,1
51,480,7,0.162939623194078,1
51,481,7,0.170482574620063,1
51,482,7,0.157085253060432,1
51,483,7,0.144560157516893,1
51,484,7,0.12936882638921,1
51,485,7,0.125112700729771,1
51,486,7,0.115506112386096,1
51,487,7,0.110725656173899,1
51,488,7,0.112055277164824,1
51,489,7,0.116817786477358,1
51,490,7,0.111300681977726,1
52,473,7,0.147594087039764,1
52,474,7,0.120021625958324,1
52,476,7,0.127124147750924,1
52,477,7,0.167859984914343,1
52,478,7,0.167003162669806,1
52,479,7,0.165997266271134,1
52,480,7,0.208539248631462,1
52,481,7,0.240890024343536,1
52,482,7,0.177992844619067,1
52,483,7,0.146240083250414,1
52,484,7,0.145117660275741,1
52,485,7,0.13586414288418,1
52,486,7,0.116714031312243,1
52,487,7,0.109439167974147,1
52,488,7,0.108442897538439,1
52,489,7,0.120137460981945,1
52,490,7,0.120343164352732,1
52,491,7,0.103255429288501,1
53,472,7,0.174542634025751,1
53,473,7,0.294612155563414,1
53,474,7,0.215768536436913,1
53,475,7,0.141568747311311,1
53,476,7,0.140161627837562,1
53,477,7,0.160663902777194,1
53,478,7,0.145705825574785,1
53,479,7,0.15388914335042,1
53,480,7,0.24076471951394,1
53,481,7,0.297222743489124,1
53,482,7,0.194346630680958,1
53,483,7,0.132624956153348,1
53,484,7,0.132335284938765,1
53,485,7,0.120124778803625,1
53,486,7,0.108057223237838,1
53,487,7,0.107768823587308,1
54,471,7,0.11982153308507,1
54,472,7,0.192179149365588,1
54,473,7,0.298831205092038,1
54,474,7,0.234438398343273,1
54,475,7,0.170687642208824,1
54,476,7,0.135383313206928,1
54,477,7,0.119474998418353,1
54,478,7,0.108559401806299,1
54,479,7,0.112434359409677,1
54,480,7,0.144223148426504,1
54,481,7,0.16773630857906,1
54,482,7,0.11692234473556,1
55,470,7,0.128764153065616,1
55,471,7,0.144881818606078,1
55,472,7,0.143471453297772,1
55,473,7,0.173027777383667,1
55,474,7,0.167272968484575,1
55,475,7,0.156870314119153,1
55,476,7,0.116575319289734,1
56,470,7,0.114820795131757,1
56,471,7,0.110906731356707,1
78,435,7,0.125978524309315,1
78,436,7,0.151871182352012,1
79,435,7,0.133386578404952,1
79,436,7,0.153057016218286,1
80,435,7,0.125490578334993,1
80,436,7,0.122084292471868,1
81,434,7,0.1134666798017,1
81,435,7,0.169886356082016,1
81,436,7,0.142297900063275,1
82,434,7,0.111443019073193,1
82,435,7,0.161628629501125,1
82,436,7,0.132888805694394,1
86,439,7,0.121562683512347,1
87,438,7,0.112348707301214,1
87,439,7,0.163380610530995,1
87,440,7,0.120777459247264,1
88,438,7,0.138628857758026,1
88,439,7,0.188180058110031,1
88,440,7,0.118607490574141,1
89,439,7,0.159671223952233,1
46,467,8,0.109840112197458,1
46,468,8,0.107332766349614,1
46,469,8,0.115070635160076,1
46,470,8,0.108672660239602,1
46,477,8,0.111404805227172,1
46,478,8,0.145889600042689,1
46,479,8,0.157800117447902,1
46,480,8,0.134442188496477,1
46,482,8,0.104756421420777,1
46,483,8,0.126802598202446,1
46,484,8,0.12194525698131,1
46,485,8,0.123194769436883,1
46,486,8,0.126507394568824,1
46,487,8,0.108939409839015,1
47,466,8,0.105014459691018,1
47,467,8,0.111725886304684,1
47,468,8,0.109099805374852,1
47,469,8,0.135329706743421,1
47,470,8,0.1443567741928,1
47,471,8,0.104146171061861,1
47,477,8,0.145343150967848,1
47,478,8,0.239606770824271,1
47,479,8,0.282233903359883,1
47,480,8,0.223022898593168,1
47,481,8,0.151388701872304,1
47,482,8,0.191460180280121,1
47,483,8,0.275674930583757,2
47,484,8,0.249299769753212,2
47,485,8,0.244264197637282,2
47,486,8,0.240862696870462,1
47,487,8,0.168144335637229,1
47,488,8,0.110393945267065,1
48,464,8,0.116033387613503,1
48,465,8,0.1297155618292,1
48,466,8,0.10860837933049,1
48,469,8,0.104218806369885,1
48,470,8,0.120897320890388,1
48,477,8,0.129044008698034,1
48,478,8,0.227675239149967,1
48,479,8,0.268073542981676,1
48,480,8,0.209962441121007,1
48,481,8,0.171240962191181,1
48,482,8,0.270197054950574,2
48,483,8,0.399254247760106,2
48,484,8,0.347181134343999,2
48,485,8,0.308810952869055,2
48,486,8,0.287137545128254,2
48,487,8,0.203781769804789,1
48,488,8,0.142983652326369,1
48,489,8,0.105333198413695,1
49,464,8,0.122428462475609,1
49,465,8,0.158641736694153,1
49,466,8,0.119013844521714,1
49,478,8,0.137108468696904,1
49,479,8,0.166601426507479,1
49,480,8,0.159097893567144,1
49,481,8,0.16077460692832,1
49,482,8,0.20128597957413,1
49,483,8,0.257020483603025,2
49,484,8,0.230786510998672,2
49,485,8,0.221076870196332,2
49,486,8,0.211196839810859,1
49,487,8,0.177607493786513,1
49,488,8,0.148577842608211,1
49,489,8,0.114990905863124,1
50,478,8,0.114078592117142,1
50,479,8,0.138110260397579,1
50,480,8,0.147704534647265,1
50,481,8,0.154223709699339,1
50,482,8,0.148753842688877,1
50,483,8,0.144558116321966,1
50,484,8,0.135554148952887,1
50,485,8,0.138258765694112,1
50,486,8,0.132083392561448,1
50,487,8,0.126270560186874,1
50,488,8,0.121306284890491,1
50,489,8,0.107678966394213,1
51,477,8,0.132855209633619,1
51,478,8,0.163321070101906,1
51,479,8,0.16741318630662,1
51,480,8,0.150724075419007,1
51,481,8,0.152707514568778,1
51,482,8,0.141814917650389,1
51,483,8,0.129653991359254,1
51,484,8,0.12486994353631,1
51,485,8,0.127944373489683,1
51,486,8,0.111280526572075,1
51,487,8,0.103601138553992,1
51,488,8,0.104319628014421,1
51,489,8,0.113585816430232,1
51,490,8,0.108496626696724,1
52,461,8,0.103060801909862,1
52,472,8,0.10845314812936,1
52,473,8,0.156508866459986,1
52,474,8,0.127539313414305,1
52,476,8,0.128086799817716,1
52,477,8,0.186171109600701,1
52,478,8,0.191549145147564,1
52,479,8,0.168014781106718,1
52,480,8,0.177748860477835,1
52,481,8,0.221220869248325,1
52,482,8,0.172759767374272,1
52,483,8,0.141477596246022,1
52,484,8,0.149466331259301,1
52,485,8,0.14697414379346,1
52,486,8,0.117814915776505,1
52,487,8,0.11151207392454,1
52,488,8,0.111716461114991,1
52,489,8,0.129498157838309,1
52,490,8,0.128082683965649,1
53,472,8,0.176964662387251,1
53,473,8,0.303620339171195,1
53,474,8,0.230536369810446,1
53,475,8,0.141695401783456,1
53,476,8,0.13448304585724,1
53,477,8,0.167533471804428,1
53,478,8,0.16328275586925,1
53,479,8,0.156779832298102,1
53,480,8,0.220718177592614,1
53,481,8,0.298528572847369,1
53,482,8,0.203876445556401,1
53,483,8,0.138331791394608,1
53,484,8,0.138271447872432,1
53,485,8,0.126972363157623,1
53,486,8,0.111480005971443,1
53,487,8,0.11982847091701,1
53,488,8,0.111940802937822,1
53,489,8,0.111684002769422,1
53,490,8,0.108403657517919,1
54,471,8,0.121704741756049,1
54,472,8,0.178172023609866,1
54,473,8,0.279558041812774,1
54,474,8,0.232648393086582,1
54,475,8,0.171743888082375,1
54,476,8,0.134773107464295,1
54,477,8,0.126005506006199,1
54,478,8,0.127262882081574,1
54,479,8,0.124254874618877,1
54,480,8,0.139998622249194,1
54,481,8,0.167277374342479,1
54,482,8,0.118091246722599,1
55,470,8,0.125731294333527,1
55,471,8,0.147485859092321,1
55,472,8,0.135636097909897,1
55,473,8,0.158901715772686,1
55,474,8,0.170028124319881,1
55,475,8,0.171322844223766,1
55,476,8,0.127418459058894,1
56,470,8,0.112773945090384,1
56,471,8,0.110223946076404,1
77,436,8,0.110602827547985,1
78,435,8,0.133050171634377,1
78,436,8,0.173569073277872,1
78,437,8,0.107721887258045,1
79,435,8,0.14192883417386,1
79,436,8,0.178405177148504,1
79,437,8,0.110996521625378,1
80,435,8,0.144249840117551,1
80,436,8,0.153090668049414,1
80,437,8,0.104013069536886,1
81,434,8,0.128864506239186,1
81,435,8,0.216408177771972,1
81,436,8,0.193551635449992,1
81,437,8,0.11926693038459,1
82,434,8,0.1218171078637,1
82,435,8,0.192194898913335,1
82,436,8,0.158857947199485,1
85,439,8,0.111384415586038,1
86,439,8,0.136521296110147,1
86,440,8,0.112502678092361,1
87,438,8,0.115658967770179,1
87,439,8,0.149540929683757,1
88,438,8,0.13207404545025,1
88,439,8,0.161081198868067,1
88,440,8,0.113336835265352,1
89,439,8,0.160641550019627,1
46,467,9,0.105914593191859,1
46,469,9,0.10701546650205,1
46,470,9,0.107528330670187,1
46,477,9,0.108571347815957,1
46,478,9,0.145334751952654,1
46,479,9,0.161792293179661,1
46,480,9,0.126655810632792,1
46,483,9,0.118376802085115,1
46,484,9,0.116567121047812,1
46,485,9,0.103651343025953,1
47,467,9,0.107351460572011,1
47,468,9,0.103880648410219,1
47,469,9,0.1260395482298,1
47,470,9,0.142569747072971,1
47,471,9,0.104278826424011,1
47,477,9,0.132847022545768,1
47,478,9,0.228573900313483,1
47,479,9,0.289034517922405,1
47,480,9,0.213695507791743,1
47,481,9,0.135404104394606,1
47,482,9,0.157691889500459,1
47,483,9,0.241600114788772,2
47,484,9,0.235168588423806,2
47,485,9,0.19612122101202,1
47,486,9,0.175845641404124,1
47,487,9,0.13634840801519,1
48,464,9,0.121274774640926,1
48,465,9,0.127681806666761,1
48,470,9,0.110849321355111,1
48,477,9,0.11559648266644,1
48,478,9,0.199452451133793,1
48,479,9,0.260453037302514,1
48,480,9,0.212156268351235,1
48,481,9,0.166100318729799,1
48,482,9,0.22005638427326,2
48,483,9,0.341064465085127,2
48,484,9,0.330794510698137,2
48,485,9,0.274187312182182,2
48,486,9,0.23319583487371,1
48,487,9,0.174317622958682,1
48,488,9,0.129822607445155,1
49,464,9,0.105146713506625,1
49,465,9,0.121589944060997,1
49,478,9,0.122075848840392,1
49,479,9,0.160290843730489,1
49,480,9,0.174912558778606,1
49,481,9,0.173369203486031,1
49,482,9,0.174784521201702,1
49,483,9,0.213165154040839,2
49,484,9,0.215640443089656,2
49,485,9,0.211870478753235,1
49,486,9,0.192184882557898,1
49,487,9,0.159422532793191,1
49,488,9,0.134786971974104,1
49,489,9,0.103415735591774,1
50,478,9,0.111760575464382,1
50,479,9,0.13162223866481,1
50,480,9,0.154026159954192,1
50,481,9,0.15974582237669,1
50,482,9,0.138514640074648,1
50,483,9,0.128431137132517,1
50,484,9,0.132967241119151,1
50,485,9,0.144692467102853,1
50,486,9,0.132701183072118,1
50,487,9,0.118817332105136,1
50,488,9,0.111320313142056,1
51,477,9,0.138124459529507,1
51,478,9,0.169088973879933,1
51,479,9,0.160474618198393,1
51,480,9,0.144465069064667,1
51,481,9,0.142765054849919,1
51,482,9,0.129783133189151,1
51,483,9,0.116967641416438,1
51,484,9,0.121589553668525,1
51,485,9,0.128787610076177,1
51,486,9,0.109242120162178,1
51,489,9,0.107739956852485,1
51,499,9,0.118427307716984,1
52,461,9,0.104265385768887,1
52,472,9,0.12777015806032,1
52,473,9,0.155391552049668,1
52,474,9,0.129629374325346,1
52,476,9,0.121152860648805,1
52,477,9,0.185326913764132,1
52,478,9,0.205343830473831,1
52,479,9,0.168459215051464,1
52,480,9,0.158241762874988,1
52,481,9,0.187272384457436,1
52,482,9,0.159719822238022,1
52,483,9,0.133139281504739,1
52,484,9,0.143740623330514,1
52,485,9,0.142070078170404,1
52,486,9,0.112493208286386,1
52,487,9,0.109157148452025,1
52,488,9,0.113929016029827,1
52,489,9,0.133300178973756,1
52,490,9,0.127570511349892,1
53,472,9,0.171020624679711,1
53,473,9,0.262813506348139,1
53,474,9,0.225150069097237,1
53,475,9,0.137053546053061,1
53,476,9,0.122931633756358,1
53,477,9,0.161050714793001,1
53,478,9,0.180263155311689,1
53,479,9,0.165480910878886,1
53,480,9,0.195346726962896,1
53,481,9,0.251446281415775,1
53,482,9,0.190562121436419,1
53,483,9,0.137533996491911,1
53,484,9,0.135159094078875,1
53,485,9,0.123266668576244,1
53,486,9,0.108935617454996,1
53,487,9,0.123187653139813,1
53,488,9,0.121466078106514,1
53,489,9,0.121957292223534,1
53,490,9,0.114425193708283,1
54,471,9,0.125398523789982,1
54,472,9,0.163550866265281,1
54,473,9,0.232669407355672,1
54,474,9,0.225503764677307,1
54,475,9,0.167446046198733,1
54,476,9,0.131676726299898,1
54,477,9,0.131603644829049,1
54,478,9,0.151032820094388,1
54,479,9,0.139475351333148,1
54,480,9,0.134295992092567,1
54,481,9,0.145810383832987,1
54,482,9,0.111731296028946,1
55,470,9,0.116532554582891,1
55,471,9,0.144283436178326,1
55,472,9,0.132046773747529,1
55,473,9,0.146532230668679,1
55,474,9,0.173965734338056,1
55,475,9,0.175831408809985,1
55,476,9,0.134100483542347,1
56,470,9,0.108613264813431,1
56,471,9,0.108460599048549,1
56,475,9,0.105374713864626,1
77,436,9,0.123097439016457,1
77,437,9,0.105751186056948,1
78,435,9,0.132851473019954,1
78,436,9,0.17962802022117,1
78,437,9,0.116190749242126,1
79,435,9,0.143600137810774,1
79,436,9,0.18770150386319,1
79,437,9,0.117788670248283,1
80,435,9,0.15398602760802,1
80,436,9,0.187334847253033,1
80,437,9,0.128143930967546,1
81,434,9,0.125666868421496,1
81,435,9,0.222606004048838,1
81,436,9,0.232738718750644,1
81,437,9,0.149572518011816,1
82,434,9,0.11791432085407,1
82,435,9,0.186234743573716,1
82,436,9,0.165376609164309,1
82,437,9,0.106996114189486,1
84,439,9,0.10530203394032,1
85,439,9,0.133343055221305,1
86,438,9,0.112433969017204,1
86,439,9,0.145901479127923,1
87,438,9,0.115694493485175,1
88,439,9,0.135121727942223,1
46,478,10,0.137798437198701,1
46,479,10,0.149513624518825,1
46,480,10,0.109640342792253,1
46,483,10,0.103095591456196,1
46,484,10,0.105851561538659,1
47,469,10,0.110359635345769,1
47,470,10,0.131083017427745,1
47,477,10,0.116863116620449,1
47,478,10,0.205611974332074,1
47,479,10,0.255035148261245,1
47,480,10,0.17834520171066,1
47,481,10,0.117818273151768,1
47,482,10,0.130188170956388,1
47,483,10,0.190395791935,1
47,484,10,0.208720011500293,1
47,485,10,0.163701368140458,1
47,486,10,0.127289562618551,1
47,487,10,0.105145051550099,1
48,464,10,0.123760905446408,1
48,465,10,0.127620894286983,1
48,478,10,0.169518427907806,1
48,479,10,0.2266666434662,1
48,480,10,0.19483163198063,1
48,481,10,0.162546520282428,1
48,482,10,0.177704679204021,1
48,483,10,0.256753120529727,2
48,484,10,0.289652475744135,2
48,485,10,0.241976363899681,1
48,486,10,0.184378750835105,1
48,487,10,0.14225301608301,1
48,488,10,0.110239361002032,1
49,478,10,0.108676296466631,1
49,479,10,0.148219261545199,1
49,480,10,0.184345589783085,1
49,481,10,0.189713028962838,1
49,482,10,0.163401992884417,1
49,483,10,0.177557289314552,1
49,484,10,0.202571820837785,1
49,485,10,0.20530249348803,1
49,486,10,0.173227702945861,1
49,487,10,0.139967323926972,1
49,488,10,0.115491455937272,1
50,478,10,0.104724063461843,1
50,479,10,0.120079615971594,1
50,480,10,0.154011280423955,1
50,481,10,0.161456399496336,1
50,482,10,0.131522353962207,1
50,483,10,0.120986676150304,1
50,484,10,0.137345191538147,1
50,485,10,0.156883765928347,1
50,486,10,0.136633037589843,1
50,487,10,0.111868926106602,1
51,472,10,0.10642109953973,1
51,477,10,0.135889172618702,1
51,478,10,0.161449026655641,1
51,479,10,0.14532686602471,1
51,480,10,0.137679066334686,1
51,481,10,0.135148631560612,1
51,482,10,0.121041219555745,1
51,483,10,0.11186907110952,1
51,484,10,0.120994495153824,1
51,485,10,0.13002480843776,1
51,486,10,0.109157014603177,1
51,489,10,0.103213478828815,1
52,472,10,0.14306840095511,1
52,473,10,0.146273891238531,1
52,474,10,0.122811493261469,1
52,476,10,0.112548900561103,1
52,477,10,0.172558213317764,1
52,478,10,0.210522063153277,1
52,479,10,0.172219854584827,1
52,480,10,0.146936186491064,1
52,481,10,0.155665172556596,1
52,482,10,0.145980037247457,1
52,483,10,0.12956555073313,1
52,484,10,0.133854937831226,1
52,485,10,0.129369796793356,1
52,486,10,0.106264172919862,1
52,487,10,0.104967567978037,1
52,488,10,0.119177787052016,1
52,489,10,0.138889271845314,1
52,490,10,0.124229532570377,1
52,499,10,0.105190649390885,1
53,472,10,0.155889681690486,1
53,473,10,0.202221538403331,1
53,474,10,0.201268802305341,1
53,475,10,0.134217021272419,1
53,476,10,0.117402337857514,1
53,477,10,0.159531173441248,1
53,478,10,0.208176027475064,1
53,479,10,0.18723008822156,1
53,480,10,0.171260191808968,1
53,481,10,0.187885456796224,1
53,482,10,0.166946209985106,1
53,483,10,0.139035379016659,1
53,484,10,0.131903678175258,1
53,485,10,0.117666733948021,1
53,486,10,0.104736834872729,1
53,487,10,0.118416878660933,1
53,488,10,0.129187160040658,1
53,489,10,0.133166620131884,1
53,490,10,0.117025821048909,1
54,471,10,0.119238688277723,1
54,472,10,0.143881376547951,1
54,473,10,0.185593284125143,1
54,474,10,0.215128694328583,1
54,475,10,0.167212613808329,1
54,476,10,0.12941239418914,1
54,477,10,0.137514733411912,1
54,478,10,0.172168222391824,1
54,479,10,0.155214871570692,1
54,480,10,0.128197526276983,1
54,481,10,0.1211215177103,1
54,482,10,0.105615407555018,1
55,471,10,0.127108833211932,1
55,472,10,0.120910951164713,1
55,473,10,0.131973424578985,1
55,474,10,0.167259193207332,1
55,475,10,0.164973132966962,1
55,476,10,0.130067004287,1
57,450,10,0.113378540335484,1
57,451,10,0.133740519374576,1
58,451,10,0.119418257660995,1
77,436,10,0.122468081734531,1
77,437,10,0.117009101097016,1
78,435,10,0.118007200800309,1
78,436,10,0.154378238194019,1
78,437,10,0.112657451976595,1
79,435,10,0.138703366949918,1
79,436,10,0.167426905813511,1
79,437,10,0.110773618677661,1
80,434,10,0.106299107469114,1
80,435,10,0.159454321894522,1
80,436,10,0.200793705820399,1
80,437,10,0.138158624447885,1
81,434,10,0.113088300263299,1
81,435,10,0.19066092419417,1
81,436,10,0.22863201302153,1
81,437,10,0.154216883408106,1
82,434,10,0.103363199919048,1
82,435,10,0.151412225807289,1
82,436,10,0.14775012133398,1
84,439,10,0.121291438822466,1
85,438,10,0.113480633544074,1
85,439,10,0.144620199879161,1
85,440,10,0.10646364116516,1
86,438,10,0.120376615410589,1
86,439,10,0.15105194932554,1
46,478,11,0.142383139471124,1
46,479,11,0.145034093978488,1
47,470,11,0.115030737049388,1
47,477,11,0.108351668394655,1
47,478,11,0.199184530356963,1
47,479,11,0.222355349773363,1
47,480,11,0.148573224822965,1
47,481,11,0.107364098134049,1
47,482,11,0.114276431868126,1
47,483,11,0.145764663297423,1
47,484,11,0.168261341838268,1
47,485,11,0.14164703773315,1
47,486,11,0.103317635540474,1
48,464,11,0.119345388117488,1
48,465,11,0.123557477506032,1
48,478,11,0.158349533505534,1
48,479,11,0.194031952039995,1
48,480,11,0.171194460870672,1
48,481,11,0.1566947267391,1
48,482,11,0.149032672146795,1
48,483,11,0.18231709934199,1
48,484,11,0.228352447394949,1
48,485,11,0.212025007247915,1
48,486,11,0.15179632738393,1
48,487,11,0.114762749348134,1
49,478,11,0.105351781095385,1
49,479,11,0.13622390627868,1
49,480,11,0.179002789945382,1
49,481,11,0.194901969550101,1
49,482,11,0.156912353811404,1
49,483,11,0.153792091781761,1
49,484,11,0.191896995994618,1
49,485,11,0.206185137406104,1
49,486,11,0.162178335564594,1
49,487,11,0.123884637552044,1
50,479,11,0.112599004646429,1
50,480,11,0.148301098961502,1
50,481,11,0.15915719976075,1
50,482,11,0.130509274342041,1
50,483,11,0.124327443002476,1
50,484,11,0.15170950409805,1
50,485,11,0.174191961198825,1
50,486,11,0.142928662758102,1
50,487,11,0.108861030184611,1
51,472,11,0.109420239516267,1
51,477,11,0.128962784755616,1
51,478,11,0.145638254214833,1
51,479,11,0.135385175936726,1
51,480,11,0.136724210963274,1
51,481,11,0.133993962167712,1
51,482,11,0.118633669177939,1
51,483,11,0.112208389092532,1
51,484,11,0.123074707020488,1
51,485,11,0.130988419754626,1
51,486,11,0.109343142579987,1
52,472,11,0.143089158680575,1
52,473,11,0.130994019098089,1
52,474,11,0.10944356267798,1
52,476,11,0.107496876190976,1
52,477,11,0.157581943826137,1
52,478,11,0.212174962573631,1
52,479,11,0.181169992408986,1
52,480,11,0.144633071676683,1
52,481,11,0.137377237183103,1
52,482,11,0.131359560301181,1
52,483,11,0.123951060042719,1
52,484,11,0.120450209968687,1
52,485,11,0.112651930711627,1
52,488,11,0.115708781849668,1
52,489,11,0.133461979922494,1
52,490,11,0.114063567583986,1
53,472,11,0.137278032878809,1
53,473,11,0.14831702697438,1
53,474,11,0.169811356111016,1
53,475,11,0.140903027759091,1
53,476,11,0.120370949142703,1
53,477,11,0.167292041945373,1
53,478,11,0.244790134376212,1
53,479,11,0.214698771829743,1
53,480,11,0.157507769256365,1
53,481,11,0.143425978151763,1
53,482,11,0.141390650265364,1
53,483,11,0.135386146340871,1
53,484,11,0.12352305604403,1
53,485,11,0.107445143611337,1
53,487,11,0.107534521179394,1
53,488,11,0.125322051481658,1
53,489,11,0.131821896529308,1
53,490,11,0.111185248500648,1
54,471,11,0.110158293216603,1
54,472,11,0.12663875605878,1
54,473,11,0.150650023544012,1
54,474,11,0.205431657626069,1
54,475,11,0.181229722457276,1
54,476,11,0.133262723604539,1
54,477,11,0.14076185068697,1
54,478,11,0.181492601594175,1
54,479,11,0.160006660318662,1
54,480,11,0.119893387608149,1
55,471,11,0.108354947691424,1
55,472,11,0.112448000838072,1
55,473,11,0.123903867169831,1
55,474,11,0.159447908303902,1
55,475,11,0.152220516690461,1
55,476,11,0.120439290133528,1
57,450,11,0.129569499274138,1
57,451,11,0.165317447973622,1
57,452,11,0.103824097272062,1
58,450,11,0.114193144422639,1
58,451,11,0.137670778860199,1
59,453,11,0.10692100267778,1
60,453,11,0.106535261452754,1
77,436,11,0.110672406640652,1
77,437,11,0.114874568906324,1
78,436,11,0.119725898083383,1
79,434,11,0.103349881958701,1
79,435,11,0.134040128866101,1
79,436,11,0.141326558975453,1
80,434,11,0.115548888247009,1
80,435,11,0.169982080316269,1
80,436,11,0.194667622525904,1
80,437,11,0.133512463246222,1
81,435,11,0.151814129280676,1
81,436,11,0.186946005196369,1
81,437,11,0.136692511094508,1
81,440,11,0.116345143887957,1
82,435,11,0.110712884763013,1
82,436,11,0.114994051311045,1
82,439,11,0.108275263010755,1
82,440,11,0.133974040997545,1
83,439,11,0.118621622781645,1
83,440,11,0.117386108684729,1
84,438,11,0.108308758684894,1
84,439,11,0.13757252265191,1
84,440,11,0.110356300278647,1
85,438,11,0.119476437293466,1
85,439,11,0.152121914705982,1
46,478,12,0.12996230102588,1
46,479,12,0.12891008177183,1
47,478,12,0.171571881158999,1
47,479,12,0.179827164998419,1
47,480,12,0.120730433685436,1
47,483,12,0.108484569146359,1
47,484,12,0.120280935792619,1
47,485,12,0.108762997057735,1
48,478,12,0.138309271325981,1
48,479,12,0.158331430448882,1
48,480,12,0.142159678819874,1
48,481,12,0.140859024950407,1
48,482,12,0.126997705206122,1
48,483,12,0.132386883669557,1
48,484,12,0.167074805265542,1
48,485,12,0.16741352092874,1
48,486,12,0.119629114212419,1
49,479,12,0.123006778730276,1
49,480,12,0.153963987164431,1
49,481,12,0.174039708134557,1
49,482,12,0.143253023132383,1
49,483,12,0.136365652208403,1
49,484,12,0.176703991756339,1
49,485,12,0.191458797175361,1
49,486,12,0.1419746774042,1
50,460,12,0.109359951764445,1
50,479,12,0.106200739720118,1
50,480,12,0.131993368057294,1
50,481,12,0.143491318697586,1
50,482,12,0.12333674960209,1
50,483,12,0.122873699513442,1
50,484,12,0.156551887710454,1
50,485,12,0.173692905770144,1
50,486,12,0.134346899270979,1
51,477,12,0.117151516270978,1
51,478,12,0.128270351204207,1
51,479,12,0.124942054603013,1
51,480,12,0.128121198971577,1
51,481,12,0.125436626095296,1
51,482,12,0.110667811163547,1
51,483,12,0.108523664163961,1
51,484,12,0.121222205505988,1
51,485,12,0.125842968888798,1
52,472,12,0.129589018897762,1
52,473,12,0.119622845624718,1
52,476,12,0.103981670828027,1
52,477,12,0.143717857872333,1
52,478,12,0.207596908127311,1
52,479,12,0.179672179186843,1
52,480,12,0.136641983154498,1
52,481,12,0.119991063804764,1
52,482,12,0.112911474781405,1
52,483,12,0.113801491540173,1
52,484,12,0.108821355155336,1
52,488,12,0.102941810284249,1
52,489,12,0.117941269088742,1
53,472,12,0.124648245228222,1
53,473,12,0.12442075795747,1
53,474,12,0.148368279928982,1
53,475,12,0.155663923300684,1
53,476,12,0.128805456589205,1
53,477,12,0.172677863033545,1
53,478,12,0.266351086776796,1
53,479,12,0.221035711675662,1
53,480,12,0.140863999665913,1
53,481,12,0.111997108686424,1
53,482,12,0.114520951404748,1
53,483,12,0.122663077197501,1
53,484,12,0.111459170167483,1
53,488,12,0.111924016061505,1
53,489,12,0.123784987084925,1
54,471,12,0.103338638655494,1
54,472,12,0.116452100271347,1
54,473,12,0.133846795359657,1
54,474,12,0.193452319604992,1
54,475,12,0.205920429001619,1
54,476,12,0.143886183952398,1
54,477,12,0.136960320330632,1
54,478,12,0.174737105247401,1
54,479,12,0.148455493607334,1
54,480,12,0.106556866887589,1
55,472,12,0.107246478459125,1
55,473,12,0.120923376799408,1
55,474,12,0.149846818917054,1
55,475,12,0.150500413994486,1
55,476,12,0.114309436763157,1
56,451,12,0.103781577954774,1
57,450,12,0.133689032184491,1
57,451,12,0.175555735954058,1
57,452,12,0.114848044526336,1
58,450,12,0.123758964638116,1
58,451,12,0.147058680494859,1
58,452,12,0.111524243015611,1
58,454,12,0.112017977952596,1
58,455,12,0.104155205859082,1
59,452,12,0.122138590487755,1
59,453,12,0.138435044626544,1
59,454,12,0.139486895796263,1
59,455,12,0.106355558220635,1
60,452,12,0.132035820450159,1
60,453,12,0.135437042365213,1
60,454,12,0.110219395215582,1
77,437,12,0.103135813034932,1
79,435,12,0.136061882248529,1
79,436,12,0.126784907846407,1
80,434,12,0.12266530801163,1
80,435,12,0.183765500031187,1
80,436,12,0.175116879044633,1
80,437,12,0.117749564076611,1
81,435,12,0.131879775001872,1
81,436,12,0.140861746543644,1
81,437,12,0.110952529970765,1
81,439,12,0.106051431330499,1
81,440,12,0.147914777724803,1
81,441,12,0.125838362257623,1
82,439,12,0.13191812269674,1
82,440,12,0.17184329315994,1
82,441,12,0.123048561878902,1
83,439,12,0.132355228417074,1
83,440,12,0.136034342848113,1
84,438,12,0.113242025664892,1
84,439,12,0.144922564426135,1
84,440,12,0.118592867587529,1
46,478,13,0.113166757996197,1
46,479,13,0.11522646868102,1
47,478,13,0.144610573916197,1
47,479,13,0.15050343674763,1
47,480,13,0.104662325680838,1
48,478,13,0.11945411799811,1
48,479,13,0.1312786263646,1
48,480,13,0.118348203047988,1
48,481,13,0.121729224941109,1
48,482,13,0.113686537688132,1
48,483,13,0.110368380137152,1
48,484,13,0.13008366846854,1
48,485,13,0.129576950193327,1
49,479,13,0.111212620590004,1
49,480,13,0.124776215880702,1
49,481,13,0.141480440534035,1
49,482,13,0.130367283022764,1
49,483,13,0.13212058023297,1
49,484,13,0.174874166467455,1
49,485,13,0.176921540750148,1
49,486,13,0.122768594705778,1
50,460,13,0.139038279075026,1
50,461,13,0.111122629548061,1
50,480,13,0.115517846468412,1
50,481,13,0.126831029928513,1
50,482,13,0.1201851223258,1
50,483,13,0.127278542396756,1
50,484,13,0.167615599226568,1
50,485,13,0.16954713848564,1
50,486,13,0.122344126547482,1
51,477,13,0.115060585342427,1
51,478,13,0.123960529848695,1
51,479,13,0.121988579391686,1
51,480,13,0.122661047156644,1
51,481,13,0.119517171959452,1
51,482,13,0.10823037903049,1
51,483,13,0.10851253240146,1
51,484,13,0.12487950257485,1
51,485,13,0.123622159961687,1
52,472,13,0.106928955530148,1
52,473,13,0.107371961753852,1
52,475,13,0.102986683110444,1
52,476,13,0.113540397054576,1
52,477,13,0.148628995176177,1
52,478,13,0.205312889081869,1
52,479,13,0.178211932874624,1
52,480,13,0.132995717461501,1
52,481,13,0.110581032493949,1
52,483,13,0.104181975628623,1
53,472,13,0.113281711848238,1
53,473,13,0.115625025933214,1
53,474,13,0.136898772168827,1
53,475,13,0.171097141604318,1
53,476,13,0.153306521624486,1
53,477,13,0.184660011880424,1
53,478,13,0.262882884667534,1
53,479,13,0.212339485115607,1
53,480,13,0.131005005857672,1
53,483,13,0.106546750145516,1
53,489,13,0.114513043168663,1
54,472,13,0.112189538713147,1
54,473,13,0.127190191003198,1
54,474,13,0.17781510450338,1
54,475,13,0.222552576050461,1
54,476,13,0.1653807919408,1
54,477,13,0.14210854856005,1
54,478,13,0.16307787789969,1
54,479,13,0.135869206832252,1
54,489,13,0.111016041249002,1
55,472,13,0.105830480345144,1
55,473,13,0.120438029723546,1
55,474,13,0.140935642261649,1
55,475,13,0.153907926805382,1
55,476,13,0.117742581628389,1
57,450,13,0.117736156883699,1
57,451,13,0.154139440695636,1
57,452,13,0.121751220768416,1
58,450,13,0.125729665839213,1
58,451,13,0.142468535035962,1
58,452,13,0.120257110697726,1
58,453,13,0.124094233693485,1
58,454,13,0.159153853539557,1
58,455,13,0.146329516588825,1
59,450,13,0.110746235434234,1
59,451,13,0.120316227272131,1
59,452,13,0.138238175279706,1
59,453,13,0.16145665603996,1
59,454,13,0.17658524552028,1
59,455,13,0.14274319287146,1
60,451,13,0.11176522671184,1
60,452,13,0.155784509958399,1
60,453,13,0.153172795471554,1
60,454,13,0.119559747047094,1
61,452,13,0.112633939195681,1
78,443,13,0.104986552206271,1
79,435,13,0.136537101428248,1
79,436,13,0.115724999868382,1
79,442,13,0.114253800258792,1
80,434,13,0.124594159139677,1
80,435,13,0.189320762606487,1
80,436,13,0.149392725547132,1
80,441,13,0.111612873260935,1
81,435,13,0.128530430669375,1
81,436,13,0.110377615707644,1
81,439,13,0.13015485374738,1
81,440,13,0.169419067446524,1
81,441,13,0.144618504460424,1
82,438,13,0.105674858751542,1
82,439,13,0.157422663697364,1
82,440,13,0.19921295092896,1
82,441,13,0.144967080322069,1
83,438,13,0.104141497506262,1
83,439,13,0.143462117340645,1
83,440,13,0.152817326394252,1
47,478,14,0.113784436966161,1
47,479,14,0.120680374216393,1
48,479,14,0.109220001640095,1
49,481,14,0.106483952727799,1
49,482,14,0.110294774424983,1
49,483,14,0.120604136143552,1
49,484,14,0.159139554020993,1
49,485,14,0.145384566032143,1
50,460,14,0.137716086695148,1
50,461,14,0.109229694527483,1
50,481,14,0.105657045700726,1
50,482,14,0.109475641785147,1
50,483,14,0.123701498866166,1
50,484,14,0.163156949106474,1
50,485,14,0.148361498254031,1
51,477,14,0.113099376255446,1
51,478,14,0.122392947914684,1
51,479,14,0.117680888463666,1
51,480,14,0.111101927592949,1
51,481,14,0.106175129973924,1
51,484,14,0.118434301319277,1
51,485,14,0.111069034238624,1
52,475,14,0.103829172374205,1
52,476,14,0.121779195177587,1
52,477,14,0.15350557716917,1
52,478,14,0.187678325704395,1
52,479,14,0.167067343192283,1
52,480,14,0.123396011179413,1
53,474,14,0.122332526314014,1
53,475,14,0.164346151502083,1
53,476,14,0.168496781961387,1
53,477,14,0.179622476648061,1
53,478,14,0.218841059044207,1
53,479,14,0.186325950409359,1
53,480,14,0.119799938804307,1
53,489,14,0.107027635593121,1
54,473,14,0.112322729470688,1
54,474,14,0.14810416269024,1
54,475,14,0.200789690354968,1
54,476,14,0.171942285536891,1
54,477,14,0.139332980775468,1
54,478,14,0.141246305437181,1
54,479,14,0.12363176361651,1
54,489,14,0.11436766101191,1
55,473,14,0.10921923200922,1
55,474,14,0.122719539103093,1
55,475,14,0.140271562357813,1
55,476,14,0.115904881565632,1
57,451,14,0.113941664745936,1
57,452,14,0.116464213592065,1
57,453,14,0.113499249687976,1
57,454,14,0.105266876309655,1
58,450,14,0.12042751143493,1
58,451,14,0.129046786061623,1
58,452,14,0.12001790049873,1
58,453,14,0.138656285617736,1
58,454,14,0.179350283862175,1
58,455,14,0.161636158498808,1
59,450,14,0.136144288522435,1
59,451,14,0.142420382912999,1
59,452,14,0.142450978528771,1
59,453,14,0.159836951133838,1
59,454,14,0.184148263119351,1
59,455,14,0.155243593302596,1
60,451,14,0.123510240016861,1
60,452,14,0.156832892212148,1
60,453,14,0.148215502623393,1
60,454,14,0.114661883087315,1
61,452,14,0.108109613907645,1
78,443,14,0.111445718358289,1
79,435,14,0.117375144233287,1
79,442,14,0.118002281855156,1
79,443,14,0.108246162040449,1
80,434,14,0.108413673873356,1
80,435,14,0.161788958112539,1
80,436,14,0.118719087050918,1
80,441,14,0.113495434995816,1
80,442,14,0.104455484594845,1
81,435,14,0.115859038335292,1
81,438,14,0.116411912154823,1
81,439,14,0.154116864856655,1
81,440,14,0.171213244325634,1
81,441,14,0.148446514580467,1
82,438,14,0.141649848558952,1
82,439,14,0.189847480130362,1
82,440,14,0.204577813518395,1
82,441,14,0.151551562457754,1
83,438,14,0.123285842423678,1
83,439,14,0.159143591794566,1
83,440,14,0.166909479630481,1
84,438,14,0.111788828725319,1
84,439,14,0.149309058863243,1
49,483,15,0.103447245841339,1
49,484,15,0.13127098582621,1
49,485,15,0.113810916729866,1
50,460,15,0.107653200491029,1
50,483,15,0.113170081909249,1
50,484,15,0.142754213093255,1
50,485,15,0.122994855028759,1
51,477,15,0.108119630263082,1
51,478,15,0.118376277843795,1
51,479,15,0.1099031661588,1
51,484,15,0.10564652741211,1
52,476,15,0.122493869945856,1
52,477,15,0.148651838712852,1
52,478,15,0.158489294010683,1
52,479,15,0.143158336226699,1
52,480,15,0.113313590182133,1
53,474,15,0.109223559788629,1
53,475,15,0.143975383055325,1
53,476,15,0.166647693592504,1
53,477,15,0.164790752757889,1
53,478,15,0.1647725493146,1
53,479,15,0.15149298127874,1
53,480,15,0.113051190670271,1
54,474,15,0.11967062966335,1
54,475,15,0.161137348459681,1
54,476,15,0.161809548526944,1
54,477,15,0.131203347541835,1
54,478,15,0.117058011696783,1
54,479,15,0.109303869097255,1
54,489,15,0.105988276982522,1
55,475,15,0.118253527296376,1
55,476,15,0.10951770378554,1
57,452,15,0.106152899911133,1
57,453,15,0.129260743444686,1
57,454,15,0.113186199541327,1
58,450,15,0.109799634075097,1
58,451,15,0.118205832490309,1
58,452,15,0.113059121214498,1
58,453,15,0.13874386738042,1
58,454,15,0.171086578699419,1
58,455,15,0.151500733357837,1
59,450,15,0.143175223489652,1
59,451,15,0.157940123342605,1
59,452,15,0.137242116771341,1
59,453,15,0.142446650749362,1
59,454,15,0.168083813649923,1
59,455,15,0.14556144728439,1
60,451,15,0.121664865953502,1
60,452,15,0.137637662424461,1
60,453,15,0.127988409760579,1
60,454,15,0.103771238131288,1
78,443,15,0.105380714754631,1
79,442,15,0.108160866862247,1
79,443,15,0.10577170954693,1
80,435,15,0.126924857970757,1
80,441,15,0.105732547604904,1
81,438,15,0.131363988467226,1
81,439,15,0.161913537927543,1
81,440,15,0.153446917911662,1
81,441,15,0.135072293101136,1
82,437,15,0.107764819275947,1
82,438,15,0.189045547067457,1
82,439,15,0.217256578693173,1
82,440,15,0.189713475125664,1
82,441,15,0.140534932273822,1
83,438,15,0.148473797437259,1
83,439,15,0.173568058257443,1
83,440,15,0.172794032679285,1
83,441,15,0.12019276286419,1
84,439,15,0.146832609791079,1
84,440,15,0.170297684745095,1
50,484,16,0.108525281504204,1
51,478,16,0.103391453179985,1
52,476,16,0.111145540009161,1
52,477,16,0.130987471658622,1
52,478,16,0.12689295732872,1
52,479,16,0.113518646616823,1
53,475,16,0.116635305881649,1
53,476,16,0.143318341370064,1
53,477,16,0.14058455673411,1
53,478,16,0.121127161670045,1
53,479,16,0.113795847580428,1
54,475,16,0.117763450894561,1
54,476,16,0.134921880458523,1
54,477,16,0.115516206820027,1
57,453,16,0.138872049960242,1
57,454,16,0.123411470721323,1
58,451,16,0.11374484001538,1
58,452,16,0.10917599883141,1
58,453,16,0.13542449403574,1
58,454,16,0.152777796367896,1
58,455,16,0.125988284121128,1
59,450,16,0.129241513826898,1
59,451,16,0.164802286066933,1
59,452,16,0.134418787256269,1
59,453,16,0.122706667305572,1
59,454,16,0.136721288596765,1
59,455,16,0.116629461148632,1
60,451,16,0.114820404739284,1
60,452,16,0.114679272283446,1
81,438,16,0.131604102145945,1
81,439,16,0.150493565395112,1
81,440,16,0.132478748595368,1
81,441,16,0.115737737817056,1
82,437,16,0.122337277948108,1
82,438,16,0.22773571652099,1
82,439,16,0.227597606818296,1
82,440,16,0.170461292653278,1
82,441,16,0.121398763290187,1
83,437,16,0.119667584602064,1
83,438,16,0.197980604588106,1
83,439,16,0.202612466271206,1
83,440,16,0.176815577079045,1
83,441,16,0.116512376869099,1
84,438,16,0.120007772602586,1
84,439,16,0.155015760255655,1
84,440,16,0.176227077157882,1
85,439,16,0.130714944250616,1
52,477,17,0.108791027237259,1
52,478,17,0.104230295062646,1
53,476,17,0.119721313760349,1
53,477,17,0.12073710381968,1
54,476,17,0.113886429788115,1
54,477,17,0.105364697509189,1
57,453,17,0.142703127449713,1
57,454,17,0.139989531681621,1
58,451,17,0.114126298077279,1
58,452,17,0.114395088871619,1
58,453,17,0.137562015517365,1
58,454,17,0.14473460718174,1
59,450,17,0.10789787618464,1
59,451,17,0.17206502493024,1
59,452,17,0.146380423767237,1
59,453,17,0.114864106388061,1
59,454,17,0.106839455267314,1
60,451,17,0.118354850874091,1
60,452,17,0.108166956984817,1
81,438,17,0.116652728539992,1
81,439,17,0.126134302059907,1
81,440,17,0.114499702900174,1
82,437,17,0.120190598974486,1
82,438,17,0.227413586960838,1
82,439,17,0.211367162469568,1
82,440,17,0.155352088947735,1
82,441,17,0.10579863547346,1
83,437,17,0.132823398224147,1
83,438,17,0.248883388296132,1
83,439,17,0.237601268922769,1
83,440,17,0.181826175230807,1
83,441,17,0.109713714268939,1
84,438,17,0.150693479803235,1
84,439,17,0.175301791227743,1
84,440,17,0.173276022379884,1
84,441,17,0.103581273154178,1
85,439,17,0.124605725910933,1
85,440,17,0.136070214339298,1
57,453,18,0.128983285937456,1
57,454,18,0.145977360270503,1
58,452,18,0.110092863438215,1
58,453,18,0.128965060186027,1
58,454,18,0.135969392694762,1
59,451,18,0.153434269195553,1
59,452,18,0.140778804874347,1
60,451,18,0.111667438974518,1
82,437,18,0.106015972539927,1
82,438,18,0.193765280519077,1
82,439,18,0.184572708969506,1
82,440,18,0.142867627683547,1
83,437,18,0.13367460997115,1
83,438,18,0.273465130724369,1
83,439,18,0.263513022734405,1
83,440,18,0.183296895215359,1
83,441,18,0.105363782875396,1
84,438,18,0.185270998408002,1
84,439,18,0.198240003654966,1
84,440,18,0.162500375892181,1
85,439,18,0.123380384326443,1
57,453,19,0.10907059286384,1
57,454,19,0.133001829892213,1
58,453,19,0.116454543012818,1
58,454,19,0.121766948008021,1
59,451,19,0.123359169284081,1
59,452,19,0.123446996436319,1
82,438,19,0.150425737491535,1
82,439,19,0.16030509863277,1
82,440,19,0.132555455139176,1
83,437,19,0.116418838832692,1
83,438,19,0.248920888281632,1
83,439,19,0.261872459716182,1
83,440,19,0.178620283400842,1
84,438,19,0.201853565612839,1
84,439,19,0.214013621886464,1
84,440,19,0.15143134388437,1
85,438,19,0.113056778859663,1
85,439,19,0.126474490060429,1
57,454,20,0.111155322129114,1
58,453,20,0.107836974958933,1
58,454,20,0.102951592404203,1
59,452,20,0.10496153362582,1
82,438,20,0.109199823926302,1
82,439,20,0.134011340209773,1
82,440,20,0.113861556210582,1
83,438,20,0.193446608720824,1
83,439,20,0.236253924113593,1
83,440,20,0.161063798517865,1
84,438,20,0.188709474919001,1
84,439,20,0.215564327711593,1
84,440,20,0.139078701427034,1
85,438,20,0.111208895130409,1
85,439,20,0.12394239332983,1
82,439,21,0.11479012143749,1
83,438,21,0.146102475480899,1
83,439,21,0.205587703074356,1
83,440,21,0.145155907583974,1
84,438,21,0.164992686052798,1
84,439,21,0.209590475173225,1
84,440,21,0.134735629786937,1
85,438,21,0.106693593485523,1
85,439,21,0.124093776376589,1
83,438,22,0.106136258037735,1
83,439,22,0.159849689082512,1
83,440,22,0.12035493189726,1
84,438,22,0.129444194444541,1
84,439,22,0.179618171176793,1
84,440,22,0.122017736132345,1
85,439,22,0.112431559737945,1
83,439,23,0.113822204649356,1
84,439,23,0.138152054700276,1
