x,y,z,signal,mito.p
732,186,23,0.109352010066147,1
732,187,23,0.1030067604376,1
734,196,23,0.1143850278999,1
735,182,23,0.103965553195949,1
737,181,23,0.157552218227875,1
738,180,23,0.131418609951162,1
738,181,23,0.112487419323722,1
732,186,24,0.116691132005214,1
732,187,24,0.109346232257554,1
734,181,24,0.105903818359618,1
735,180,24,0.126926888011614,1
735,181,24,0.118478437976809,1
736,181,24,0.154082097618463,1
737,181,24,0.160989456637033,1
738,180,24,0.136930873584136,1
738,181,24,0.112872190144602,1
739,180,24,0.104841047354741,1
735,179,25,0.114298963090823,1
735,181,25,0.103608299467344,1
723,202,33,0.107603007173138,1
722,202,34,0.10975785092647,1
723,202,34,0.106590016785538,1
723,203,34,0.122083333221793,1
722,203,35,0.106646322534141,1
745,214,35,0.105838868206268,1
750,216,35,0.124290322255378,1
752,217,35,0.130265870212483,1
719,186,36,0.105420367475765,1
719,187,36,0.106039552245265,1
729,207,36,0.10352991981294,1
734,179,36,0.105297884626041,1
737,185,36,0.108224076980577,1
743,212,36,0.109136044950369,1
744,213,36,0.110926072515201,1
745,213,36,0.131846100862602,1
745,214,36,0.109592525291409,1
746,214,36,0.132486879912866,1
747,215,36,0.120517156700683,1
748,215,36,0.146714131252715,1
761,215,36,0.129562182203796,1
715,198,37,0.109161766237271,1
716,198,37,0.1065567107306,1
718,184,37,0.103927941669743,1
719,186,37,0.109136256877712,1
719,187,37,0.108982788019743,1
721,186,37,0.110476920398573,1
733,183,37,0.11461630755467,1
734,182,37,0.115363184124884,1
734,183,37,0.110283731895047,1
743,210,37,0.121890289721185,1
743,212,37,0.121418985620261,1
743,213,37,0.103978893464437,1
744,210,37,0.123835392330158,1
744,212,37,0.142743315566237,1
744,213,37,0.118458594885136,1
745,212,37,0.150714884464798,1
745,213,37,0.130754184271136,1
746,210,37,0.111794718074618,1
746,213,37,0.137150474926943,1
747,210,37,0.116047910213479,1
747,213,37,0.138405809807391,1
747,214,37,0.136531357081867,1
760,215,37,0.114381224361811,1
761,214,37,0.12830183914563,1
762,214,37,0.113481871645915,1
715,198,38,0.107618578255755,1
716,198,38,0.10652389545477,1
716,199,38,0.105911849290481,1
718,184,38,0.10294998621803,1
719,186,38,0.110677303277664,1
729,206,38,0.11344775134382,1
734,182,38,0.111353485348147,1
734,183,38,0.103924383521208,1
735,184,38,0.109177872715278,1
736,185,38,0.119588803401117,1
739,184,38,0.102968602361932,1
741,209,38,0.106228847978137,1
715,198,39,0.108402073639888,1
715,199,39,0.106862298803989,1
716,198,39,0.104990344590289,1
716,199,39,0.111303548573881,1
717,184,39,0.105873970066579,1
718,184,39,0.10588960807362,1
718,185,39,0.10734606200182,1
728,206,39,0.111391275339483,1
729,207,39,0.105459406723013,1
734,182,39,0.112163951275093,1
734,210,39,0.14286559764269,1
738,184,39,0.131643732558937,1
739,183,39,0.121218401967899,1
739,184,39,0.108114532852798,1
740,182,39,0.123574576696327,1
740,183,39,0.118732884636303,1
741,182,39,0.104745468123406,1
743,211,39,0.135513202359559,1
744,211,39,0.132439229723082,1
745,211,39,0.113289608930252,1
747,212,39,0.120002664038232,1
748,211,39,0.104153131201942,1
748,212,39,0.129601812616789,1
749,211,39,0.116297772549939,1
751,212,39,0.127427560780539,1
752,212,39,0.122711385477454,1
753,212,39,0.129733319109662,1
754,211,39,0.103296810890585,1
754,212,39,0.126783167811387,1
755,211,39,0.123987299618236,1
755,212,39,0.135364050126929,1
755,213,39,0.136820158278939,1
756,210,39,0.106065730849063,1
715,198,40,0.107295667910658,1
715,199,40,0.110186825329306,1
716,199,40,0.115742734840703,1
717,184,40,0.112075923349583,1
717,199,40,0.103026681607767,1
718,183,40,0.115380071387837,1
718,184,40,0.111475711654246,1
733,210,40,0.135623549580424,1
734,182,40,0.111234727958017,1
734,209,40,0.110931794553441,1
734,210,40,0.167199552391607,1
734,211,40,0.150382727395138,1
735,210,40,0.132223989621896,1
736,210,40,0.110638632114747,1
738,184,40,0.112180860846187,1
739,182,40,0.124127796292048,1
739,183,40,0.13389494748262,1
739,184,40,0.104310872068967,1
740,181,40,0.120714126434157,1
740,183,40,0.144087782625188,1
741,181,40,0.103667561044667,1
741,182,40,0.117834602711189,1
741,183,40,0.116228048454354,1
742,183,40,0.108870433066162,1
742,211,40,0.113207224964488,1
743,183,40,0.110545250235329,1
743,184,40,0.110376979925618,1
743,211,40,0.125348330472091,1
743,212,40,0.155084670104084,1
744,211,40,0.124507558935209,1
744,212,40,0.172795471554398,1
744,213,40,0.162228484266202,1
745,212,40,0.135786231700743,1
746,212,40,0.114311879504627,1
746,213,40,0.129891327674383,1
747,212,40,0.112296528558749,1
747,213,40,0.131265308404253,1
748,212,40,0.122287318865701,1
748,213,40,0.14182049468571,1
749,212,40,0.133737396234796,1
750,212,40,0.124009618913592,1
751,212,40,0.103666624102733,1
751,213,40,0.1270730174911,1
752,213,40,0.121186880564264,1
752,214,40,0.136426118425356,1
753,212,40,0.104242452999646,1
753,213,40,0.12510817217709,1
753,214,40,0.143179941661534,1
754,212,40,0.10864224308896,1
754,213,40,0.123782321262041,1
754,214,40,0.140093141843818,1
755,211,40,0.109014554812932,1
755,212,40,0.120721521582993,1
755,213,40,0.120028719947253,1
755,214,40,0.127791629646306,1
756,211,40,0.129026864891456,1
756,212,40,0.133384526055954,1
756,213,40,0.120398990476298,1
757,210,40,0.109397228668531,1
714,198,41,0.106233398838959,1
715,198,41,0.108884922203927,1
715,199,41,0.115186124407507,1
715,200,41,0.107275847127126,1
716,199,41,0.120524451462883,1
716,200,41,0.118320295563241,1
717,183,41,0.115064076566538,1
719,184,41,0.118486691989084,1
720,185,41,0.115683919426206,1
721,185,41,0.103834604406607,1
728,207,41,0.114794181519204,1
733,210,41,0.129651559771854,1
734,209,41,0.107021935863023,1
734,210,41,0.166815751974873,1
734,211,41,0.15679438836029,1
735,210,41,0.132795948056296,1
736,211,41,0.128872124469434,1
739,183,41,0.141543739884931,1
741,180,41,0.108597247567989,1
741,181,41,0.109333929317636,1
741,183,41,0.13202594909764,1
741,211,41,0.111266829373326,1
742,181,41,0.104263924585633,1
742,182,41,0.117566960786125,1
742,183,41,0.119601162111389,1
742,212,41,0.121138293432546,1
742,213,41,0.119616052795696,1
743,182,41,0.104950390709248,1
743,183,41,0.114413593474815,1
743,211,41,0.112342862568197,1
743,212,41,0.15542544927035,1
743,213,41,0.146008613976443,1
744,211,41,0.11465034977827,1
744,212,41,0.182533867550854,1
744,213,41,0.175046195698973,1
744,214,41,0.129592086267189,1
745,212,41,0.137478493836394,1
745,213,41,0.1448813166729,1
746,212,41,0.108959174852193,1
746,213,41,0.129859248567215,1
746,214,41,0.136367258394576,1
747,212,41,0.10655098869236,1
747,213,41,0.128813175206089,1
747,214,41,0.137898121128032,1
748,212,41,0.114474338543534,1
748,213,41,0.135873556919802,1
748,214,41,0.143731588533294,1
749,212,41,0.112105292017585,1
749,213,41,0.141503774849819,1
750,213,41,0.12586660436449,1
751,213,41,0.105164638098147,1
751,214,41,0.121743368302683,1
751,215,41,0.120744766666212,1
752,213,41,0.105294649945555,1
752,214,41,0.118880720688597,1
752,215,41,0.119277058280733,1
753,213,41,0.108401337471226,1
753,214,41,0.123972185852516,1
753,215,41,0.126835156934651,1
754,213,41,0.108461759071896,1
754,214,41,0.121458281411134,1
754,215,41,0.128644882588237,1
755,212,41,0.107620005976797,1
755,213,41,0.112322829857323,1
755,214,41,0.121935474861357,1
755,215,41,0.137662703313053,1
756,211,41,0.109000589916488,1
756,212,41,0.116768228941494,1
756,213,41,0.113429324819119,1
756,214,41,0.115539674984659,1
757,209,41,0.104623933369687,1
757,210,41,0.108434465061034,1
757,213,41,0.10993025939639,1
757,214,41,0.107187852663829,1
714,198,42,0.103576744601497,1
715,198,42,0.105035574346744,1
715,199,42,0.118123883533299,1
715,200,42,0.122030730624643,1
716,199,42,0.12447613791821,1
716,200,42,0.14055486459806,1
716,201,42,0.113325636578427,1
717,200,42,0.111547041936004,1
720,184,42,0.111299142715977,1
721,183,42,0.115713221169784,1
721,184,42,0.108371176864209,1
727,182,42,0.105427026455939,1
728,207,42,0.105510704293898,1
729,209,42,0.110514777314334,1
733,210,42,0.11390076276889,1
733,211,42,0.118846421921372,1
734,182,42,0.110472191072621,1
734,210,42,0.141222290723088,1
734,211,42,0.143533113000283,1
735,183,42,0.119638015160791,1
735,210,42,0.119336264087703,1
735,211,42,0.129979701376082,1
736,211,42,0.117718299216601,1
740,180,42,0.115331841186379,1
741,180,42,0.112488177800526,1
741,181,42,0.109523158126084,1
741,212,42,0.11262750329692,1
741,213,42,0.13264114070985,1
742,181,42,0.109166517871364,1
742,182,42,0.124871226254434,1
742,183,42,0.121218491200464,1
742,212,42,0.109997931142977,1
742,213,42,0.119528827963273,1
742,214,42,0.11279714555732,1
743,181,42,0.107595355480678,1
743,182,42,0.112279306673677,1
743,183,42,0.107172861592885,1
743,212,42,0.141850030664771,1
743,213,42,0.141257347967117,1
743,214,42,0.114684782394344,1
744,181,42,0.113473327627803,1
744,182,42,0.104906343284281,1
744,212,42,0.169562698414186,1
744,213,42,0.17179761724066,1
744,214,42,0.125688518472613,1
745,181,42,0.118867614655592,1
745,212,42,0.12857998820524,1
745,213,42,0.145629877507781,1
745,214,42,0.127678192747873,1
746,213,42,0.125123676335283,1
746,214,42,0.141546204934543,1
746,215,42,0.127520753040756,1
747,213,42,0.123607704286135,1
747,214,42,0.145447240755082,1
747,215,42,0.132982064879035,1
748,213,42,0.127042834575941,1
748,214,42,0.145549590507297,1
748,215,42,0.145593760627041,1
749,213,42,0.119370919785189,1
749,214,42,0.150271208996856,1
749,215,42,0.171912348011287,1
750,214,42,0.127542280397096,1
750,215,42,0.144578717890442,1
751,215,42,0.107497746208486,1
751,216,42,0.106110358285703,1
752,215,42,0.103223863268584,1
752,216,42,0.103775063977518,1
753,214,42,0.103437909884211,1
753,215,42,0.108603850777809,1
753,216,42,0.108197106437764,1
754,214,42,0.105523576091419,1
754,215,42,0.112837935993659,1
755,214,42,0.116460231588846,1
756,213,42,0.103230979565653,1
757,209,42,0.103480719207336,1
757,210,42,0.106287116843173,1
757,215,42,0.104720728394721,1
714,198,43,0.104845943991753,1
714,199,43,0.103505838174423,1
715,198,43,0.103840460293695,1
715,199,43,0.122840638848058,1
715,200,43,0.139852057760953,1
715,201,43,0.114362039360306,1
716,192,43,0.106741667529992,1
716,199,43,0.12613677826359,1
716,200,43,0.164247694520523,1
716,201,43,0.141342977767439,1
717,191,43,0.105071490454212,1
717,200,43,0.119668755779482,1
717,201,43,0.114718858080156,1
718,190,43,0.106419950670453,1
720,184,43,0.10332572224169,1
720,205,43,0.10847103925867,1
721,184,43,0.104387645537198,1
722,184,43,0.102952049721099,1
725,183,43,0.116497073484177,1
726,182,43,0.115236406957963,1
727,181,43,0.11205102746391,1
729,208,43,0.105655986064015,1
729,209,43,0.121445431921754,1
730,210,43,0.110317428342458,1
733,211,43,0.110657571726697,1
734,182,43,0.1102353455366,1
734,210,43,0.105124204592068,1
734,211,43,0.121513181746836,1
735,183,43,0.108861387114871,1
735,211,43,0.113240218705448,1
735,212,43,0.130530667849534,1
736,212,43,0.130649347161169,1
738,213,43,0.150474915788997,1
740,179,43,0.107562495588565,1
740,180,43,0.107467485214833,1
740,212,43,0.111824075588549,1
740,213,43,0.150910660712713,1
740,214,43,0.14429166788246,1
741,180,43,0.114611243606598,1
741,181,43,0.107809011703832,1
741,183,43,0.120853842323023,1
741,213,43,0.130349079579475,1
741,214,43,0.136964268871639,1
742,181,43,0.110848574032378,1
742,182,43,0.120688940542646,1
742,183,43,0.117558784852344,1
742,213,43,0.118235491164147,1
742,214,43,0.119223507587579,1
743,181,43,0.114647014711148,1
743,182,43,0.114793891513367,1
743,212,43,0.119019555405883,1
743,213,43,0.132318743452003,1
743,214,43,0.113593802744812,1
744,181,43,0.124612384891106,1
744,182,43,0.113215545901187,1
744,212,43,0.137070567164861,1
744,213,43,0.15446612111661,1
744,214,43,0.121892185913194,1
745,182,43,0.106748683440426,1
745,212,43,0.110879582348764,1
745,213,43,0.138775199164855,1
745,214,43,0.127289473385986,1
745,215,43,0.108707962873185,1
746,213,43,0.121062925377215,1
746,214,43,0.141880693204967,1
746,215,43,0.136466328850022,1
747,183,43,0.110616435514168,1
747,184,43,0.121304935247943,1
747,213,43,0.12020542273437,1
747,214,43,0.150548209187189,1
747,215,43,0.148039446772373,1
748,183,43,0.105676688019127,1
748,213,43,0.120215918714844,1
748,214,43,0.146100568134819,1
748,215,43,0.149243673701137,1
748,216,43,0.121982991202294,1
749,213,43,0.103285032191986,1
749,214,43,0.129212502089157,1
749,215,43,0.150369621362133,1
749,216,43,0.143419285709378,1
750,215,43,0.11826489329436,1
750,216,43,0.126339715424857,1
751,216,43,0.103988541735543,1
757,210,43,0.108883271401471,1
712,191,44,0.115818459826295,1
714,190,44,0.108623125011879,1
714,191,44,0.107422846624122,1
714,198,44,0.103445450035965,1
715,191,44,0.125949445647151,1
715,192,44,0.115911005150414,1
715,199,44,0.119160275161107,1
715,200,44,0.140499919646075,1
715,201,44,0.120312758356161,1
716,185,44,0.118019927594912,1
716,192,44,0.110578723601326,1
716,199,44,0.120986486531103,1
716,200,44,0.169509571575716,1
716,201,44,0.156393499907332,1
716,202,44,0.104799509595669,1
717,184,44,0.111524867643567,1
717,191,44,0.112072710977238,1
717,200,44,0.120705772035246,1
717,201,44,0.123603677666633,1
718,190,44,0.117922686407052,1
719,184,44,0.105620594197867,1
720,185,44,0.107947389104222,1
720,205,44,0.116037425387075,1
722,184,44,0.104502353999685,1
724,183,44,0.11960257867836,1
725,183,44,0.115277453937927,1
726,182,44,0.111351243379948,1
727,181,44,0.109319986729333,1
729,208,44,0.106168381761185,1
730,210,44,0.117614332124143,1
733,211,44,0.103374710919951,1
734,182,44,0.111150202410689,1
734,212,44,0.14023712974174,1
735,212,44,0.130953998292624,1
736,212,44,0.120214926002557,1
737,212,44,0.112159779652673,1
737,213,44,0.137388737029935,1
738,212,44,0.103315248569357,1
738,213,44,0.135030443028086,1
739,213,44,0.129979857533071,1
739,214,44,0.129263487346064,1
740,213,44,0.130438680228946,1
740,214,44,0.14344293233914,1
741,179,44,0.111731084101603,1
741,180,44,0.113595018538512,1
741,181,44,0.105546441936236,1
741,183,44,0.105932685094441,1
741,213,44,0.119603537928436,1
741,214,44,0.141982228710025,1
742,180,44,0.118083706570845,1
742,181,44,0.10888897113157,1
742,182,44,0.109870540502171,1
742,183,44,0.109937431463813,1
742,213,44,0.108882680235727,1
742,214,44,0.1187807579075,1
743,181,44,0.11860643093743,1
743,182,44,0.112513698314156,1
743,213,44,0.117671552506538,1
743,214,44,0.11366218835192,1
744,182,44,0.115676356966311,1
744,213,44,0.13135761949289,1
744,214,44,0.123821628206985,1
745,182,44,0.110929117576486,1
745,213,44,0.122050674102952,1
745,214,44,0.125800516495934,1
745,215,44,0.106513087160317,1
746,182,44,0.109567439786534,1
746,213,44,0.109163461656008,1
746,214,44,0.134306822695161,1
746,215,44,0.136973905988674,1
747,213,44,0.109558137291619,1
747,214,44,0.148111758612348,1
747,215,44,0.161349800043206,1
748,184,44,0.106860714925958,1
748,213,44,0.106803650700551,1
748,214,44,0.141618929475131,1
748,215,44,0.154315786552492,1
748,216,44,0.120953046627317,1
749,182,44,0.109311119243172,1
749,214,44,0.109471793630776,1
749,215,44,0.126950467716952,1
749,216,44,0.122685876117894,1
750,181,44,0.117869135713898,1
750,216,44,0.111348644481488,1
712,191,45,0.113055139211279,1
713,190,45,0.111709277893498,1
713,191,45,0.104132663482313,1
714,187,45,0.105360815892605,1
714,198,45,0.103826026926283,1
715,186,45,0.112695922366241,1
715,187,45,0.103182002041463,1
715,190,45,0.11325432860481,1
715,191,45,0.116399341517209,1
715,192,45,0.11755888523898,1
715,199,45,0.115831777786642,1
715,200,45,0.134526167494343,1
715,201,45,0.121159095774294,1
716,185,45,0.117414373099737,1
716,191,45,0.126957070926772,1
716,192,45,0.112783214123088,1
716,199,45,0.11392664021278,1
716,200,45,0.162501993232424,1
716,201,45,0.163306435961223,1
716,202,45,0.117368373712408,1
717,184,45,0.114680889623689,1
717,191,45,0.11987812883951,1
717,200,45,0.117802144365619,1
717,201,45,0.133412165843005,1
717,202,45,0.12038184666972,1
718,184,45,0.112618412729347,1
719,184,45,0.107411759477904,1
720,184,45,0.106209540281855,1
720,185,45,0.115132372941081,1
721,184,45,0.105636221050837,1
722,184,45,0.103860113766167,1
724,183,45,0.114290151375016,1
725,182,45,0.1242111729701,1
725,183,45,0.113873368371392,1
726,182,45,0.110547458741316,1
727,181,45,0.112481764209907,1
728,181,45,0.120357932342263,1
728,182,45,0.104752316722781,1
729,182,45,0.112842051845727,1
729,208,45,0.105509287726926,1
730,182,45,0.107513116517831,1
731,211,45,0.110060806639188,1
732,213,45,0.139928496607066,1
733,212,45,0.139467866951747,1
733,213,45,0.152872237884025,1
734,182,45,0.116439016546484,1
734,212,45,0.137798158346935,1
735,212,45,0.12673026405433,1
735,213,45,0.149540037358106,1
736,212,45,0.108115369408096,1
736,213,45,0.129454177337766,1
737,213,45,0.123071505802214,1
738,213,45,0.115705056390073,1
738,214,45,0.13531944499843,1
739,178,45,0.104584336418906,1
739,213,45,0.106147769038638,1
739,214,45,0.120617565644606,1
740,213,45,0.111280638112781,1
740,214,45,0.140210928829801,1
740,215,45,0.116037882703972,1
741,179,45,0.107258446776924,1
741,180,45,0.11052722525717,1
741,213,45,0.10967155188191,1
741,214,45,0.144550152315527,1
741,215,45,0.123942404483901,1
742,180,45,0.120142011842768,1
742,181,45,0.106701747111163,1
742,214,45,0.117962573363669,1
743,181,45,0.122540415882647,1
743,182,45,0.107054929603983,1
743,213,45,0.104375599140905,1
743,214,45,0.121038319497378,1
744,182,45,0.115353335080507,1
744,213,45,0.113465709397554,1
744,214,45,0.13931980781804,1
745,213,45,0.103750837336083,1
745,214,45,0.12764653749539,1
745,215,45,0.105341675507383,1
746,214,45,0.122749543553121,1
746,215,45,0.127510625144613,1
747,214,45,0.140524915918385,1
747,215,45,0.164595132666962,1
747,216,45,0.120409252221289,1
748,214,45,0.132782574325596,1
748,215,45,0.15518565905968,1
748,216,45,0.117182134194892,1
749,182,45,0.111740107744753,1
749,215,45,0.106717585891475,1
750,182,45,0.109702571352367,1
758,210,45,0.104162667932341,1
712,191,46,0.106826806551205,1
712,192,46,0.104994315439438,1
713,189,46,0.111743855512489,1
713,190,46,0.10562464312551,1
714,192,46,0.105105186901623,1
714,198,46,0.103008768170316,1
714,199,46,0.109783784140714,1
715,185,46,0.121215368060685,1
715,186,46,0.110228206931389,1
715,191,46,0.107070199526693,1
715,192,46,0.112726741063426,1
715,193,46,0.106389823525648,1
715,199,46,0.118388324240089,1
715,200,46,0.129471098062931,1
715,201,46,0.117630449756221,1
716,185,46,0.117210342839546,1
716,190,46,0.133915136350483,1
716,191,46,0.121668011401423,1
716,192,46,0.113508094865995,1
716,199,46,0.109444031148947,1
716,200,46,0.150065193312091,1
716,201,46,0.163371040338384,1
716,202,46,0.129920607109819,1
717,184,46,0.119415112213074,1
717,191,46,0.127861822212859,1
717,200,46,0.11451681324454,1
717,201,46,0.150101020186994,1
717,202,46,0.149926414365158,1
717,203,46,0.115384410321317,1
718,184,46,0.11890090955646,1
718,202,46,0.117910238464215,1
718,203,46,0.114248580153732,1
719,184,46,0.116785305823647,1
719,205,46,0.103287140311338,1
719,206,46,0.109146072459877,1
720,184,46,0.116006562073608,1
720,185,46,0.126657595284095,1
720,205,46,0.120558259451,1
721,184,46,0.10708926183342,1
723,183,46,0.110888918305891,1
724,183,46,0.109453478646781,1
725,182,46,0.120362605897862,1
725,183,46,0.110864145114994,1
726,182,46,0.110721027234582,1
727,181,46,0.117583993051996,1
727,182,46,0.104037753495217,1
728,180,46,0.125530532216035,1
728,181,46,0.124986994353631,1
728,182,46,0.113937760821211,1
729,181,46,0.13786266233746,1
729,182,46,0.127690027216825,1
730,182,46,0.119231449285876,1
731,211,46,0.112575703792857,1
731,212,46,0.136001516418212,1
731,213,46,0.149469153239173,1
732,212,46,0.132128600009762,1
732,213,46,0.161424510008369,1
732,214,46,0.16463485231252,1
733,212,46,0.134208332251388,1
733,213,46,0.166787019088898,1
733,214,46,0.163123832670737,1
734,182,46,0.12580756586858,1
734,212,46,0.125603580224672,1
734,213,46,0.157738803521581,1
735,183,46,0.103382217609493,1
735,212,46,0.114376640038777,1
735,213,46,0.144981803695317,1
735,214,46,0.133653818783473,1
736,213,46,0.121621030455878,1
736,214,46,0.123834421926012,1
737,213,46,0.106702148657706,1
737,214,46,0.139128794358289,1
738,178,46,0.107076479268464,1
738,214,46,0.125756937541934,1
738,215,46,0.133577435707714,1
739,214,46,0.108454174303859,1
739,215,46,0.104658209828771,1
740,214,46,0.129122354890226,1
740,215,46,0.114259221137124,1
741,180,46,0.103817025591275,1
741,214,46,0.134568530654643,1
741,215,46,0.12056554305913,1
742,180,46,0.118598176925155,1
742,181,46,0.103178934672036,1
742,214,46,0.109414305550685,1
743,181,46,0.121361129455839,1
743,214,46,0.119710728547309,1
744,182,46,0.113201826394297,1
744,214,46,0.14592104336783,1
744,215,46,0.109825466902705,1
745,214,46,0.122243260286663,1
746,214,46,0.10764313951931,1
746,215,46,0.112441799174795,1
747,214,46,0.124860663349535,1
747,215,46,0.153114069289622,1
747,216,46,0.113745509259619,1
748,214,46,0.116655271668098,1
748,215,46,0.14713596705034,1
748,216,46,0.11047374148844,1
757,187,46,0.114136069043162,1
758,188,46,0.105918039799687,1
759,209,46,0.111650763638908,1
763,189,46,0.107043385140868,1
773,186,46,0.104527729510396,1
779,187,46,0.144484834077845,1
779,189,46,0.124286730644631,1
780,188,46,0.127390663114854,1
780,189,46,0.102978529484804,1
714,199,47,0.120505277615449,1
714,200,47,0.115249591069462,1
715,186,47,0.112484285029872,1
715,192,47,0.105562682263091,1
715,199,47,0.128803761170467,1
715,200,47,0.134278803669707,1
715,201,47,0.115985614728941,1
716,185,47,0.117691495984847,1
716,186,47,0.112168446365562,1
716,190,47,0.121345391062163,1
716,191,47,0.114122159917071,1
716,192,47,0.112749104975064,1
716,199,47,0.108623325785151,1
716,200,47,0.135802873574142,1
716,201,47,0.155187666792395,1
716,202,47,0.136357420504269,1
717,185,47,0.118916313328017,1
717,191,47,0.13113016568435,1
717,192,47,0.104996947800109,1
717,200,47,0.106721634819118,1
717,201,47,0.16148043651857,1
717,202,47,0.176163744344775,1
717,203,47,0.12889601648875,1
718,184,47,0.132724037762865,1
718,191,47,0.107912119932851,1
718,202,47,0.138375905743998,1
718,203,47,0.133669200246889,1
718,204,47,0.106571043711375,1
719,184,47,0.136867551925099,1
719,205,47,0.104166493778572,1
719,206,47,0.108289339447906,1
720,184,47,0.12939642155998,1
720,185,47,0.135591347778479,1
720,205,47,0.113748063541796,1
721,184,47,0.107576862031552,1
723,183,47,0.110176150883701,1
723,206,47,0.105870144220349,1
724,183,47,0.109546603982574,1
725,182,47,0.120543770313236,1
725,183,47,0.111952492403855,1
726,182,47,0.114326658648228,1
726,183,47,0.104068839890098,1
727,181,47,0.127281855155737,1
727,182,47,0.11146780341816,1
728,180,47,0.125754840576653,1
728,181,47,0.13250535105385,1
728,182,47,0.127734933505231,1
728,183,47,0.10909368179007,1
729,180,47,0.127800039815571,1
729,181,47,0.146336153260857,1
729,182,47,0.147948016855318,1
729,183,47,0.118025437705809,1
730,181,47,0.146897481865935,1
730,182,47,0.138890164170966,1
730,183,47,0.105270189068636,1
730,213,47,0.133386924181142,1
731,182,47,0.116833848339083,1
731,212,47,0.142331384583343,1
731,213,47,0.164962949300466,1
731,214,47,0.160936541725906,1
732,212,47,0.141642921881083,1
732,213,47,0.186819819195192,1
732,214,47,0.178732504505575,1
732,215,47,0.150406295946406,1
733,182,47,0.104626822273983,1
733,212,47,0.129728322086015,1
733,213,47,0.176991409848652,1
733,214,47,0.174774984471303,1
733,215,47,0.133642698175042,1
734,182,47,0.131205634126316,1
734,212,47,0.11158030337466,1
734,213,47,0.147402616263117,1
734,214,47,0.15016015906954,1
735,183,47,0.110104318668764,1
735,213,47,0.133818363633589,1
735,214,47,0.133973070593399,1
736,213,47,0.113285604618892,1
736,214,47,0.123814857686105,1
736,215,47,0.114355279993497,1
737,178,47,0.104880041985707,1
737,179,47,0.105436038945018,1
737,214,47,0.127164335867449,1
737,215,47,0.14112143561634,1
738,214,47,0.108995838282394,1
738,215,47,0.126214488673755,1
740,214,47,0.108459461333343,1
741,214,47,0.115358867499546,1
741,215,47,0.106814336300227,1
742,180,47,0.111157262937406,1
743,181,47,0.118910546673495,1
743,214,47,0.111451897713424,1
744,182,47,0.112448893163724,1
744,214,47,0.136425226099704,1
744,215,47,0.112987199766996,1
745,214,47,0.112015323283783,1
747,214,47,0.106937265312777,1
747,215,47,0.129995428615688,1
748,215,47,0.127923537685723,1
757,187,47,0.105030688863803,1
758,184,47,0.103010140121005,1
758,185,47,0.115972676006996,1
758,186,47,0.135001197054861,1
758,187,47,0.141290609405773,1
759,185,47,0.124860975663513,1
759,186,47,0.144610306218501,1
759,187,47,0.146392972096709,1
759,193,47,0.104213597418895,1
759,208,47,0.10596011295415,1
760,186,47,0.148864937232475,1
760,187,47,0.157205516250098,1
760,188,47,0.10336167181137,1
760,203,47,0.109565041661346,1
760,207,47,0.104511868421943,1
761,186,47,0.136634878011499,1
761,187,47,0.143932049490879,1
761,188,47,0.103509574788088,1
761,204,47,0.10343059281387,1
761,205,47,0.104244293421302,1
761,206,47,0.111447358006673,1
761,207,47,0.106600456995659,1
762,186,47,0.131998465467577,1
762,188,47,0.135858186610457,1
762,206,47,0.106186585204473,1
763,206,47,0.106651274941506,1
763,207,47,0.109701032090618,1
764,186,47,0.118922548453506,1
764,188,47,0.142778975130081,1
764,208,47,0.110485163256778,1
767,189,47,0.105680658868276,1
768,184,47,0.107186737256764,1
768,189,47,0.10387579638949,1
769,187,47,0.111908210743405,1
769,189,47,0.121513103668342,1
770,185,47,0.112426138859613,1
771,185,47,0.129651292074158,1
771,186,47,0.11008878104836,1
771,187,47,0.116263384550149,1
771,189,47,0.110257865605227,1
772,184,47,0.132436820443823,1
772,185,47,0.129663784633278,1
772,186,47,0.117465782211328,1
772,187,47,0.110013056062768,1
773,184,47,0.109098779200353,1
773,185,47,0.110154210826748,1
773,186,47,0.108500486005166,1
774,184,47,0.116942555911564,1
774,185,47,0.104551811148913,1
775,185,47,0.121968602451165,1
776,185,47,0.137252367362261,1
777,184,47,0.134660585199655,1
777,185,47,0.113362478473759,1
777,188,47,0.133310931497855,1
777,189,47,0.138658014498686,1
777,190,47,0.120796398859215,1
778,187,47,0.151589463989797,1
778,188,47,0.203082364959228,1
778,189,47,0.166961870300288,1
778,190,47,0.116806230860172,1
779,186,47,0.109139023087231,1
779,187,47,0.177259921791226,1
779,188,47,0.211243686907557,1
779,189,47,0.145998642237289,1
780,187,47,0.134727676934569,1
780,188,47,0.1449552904694,1
714,199,48,0.131853663322498,1
714,200,48,0.137779742976304,1
715,186,48,0.114022085595267,1
715,199,48,0.143080514275827,1
715,200,48,0.151584500428361,1
715,201,48,0.11724218771123,1
716,185,48,0.115763615260946,1
716,186,48,0.109391027005254,1
716,190,48,0.109759445958572,1
716,191,48,0.106454494827233,1
716,192,48,0.10762873961411,1
716,199,48,0.108959944483067,1
716,200,48,0.12790039298914,1
716,201,48,0.142636704959037,1
716,202,48,0.132190873186158,1
717,185,48,0.117404724828631,1
717,191,48,0.125639139401879,1
717,192,48,0.104966776039022,1
717,201,48,0.158119012327568,1
717,202,48,0.178053578533714,1
717,203,48,0.127789008439705,1
718,191,48,0.10483946347671,1
718,202,48,0.139161665404472,1
718,203,48,0.135208395071114,1
718,204,48,0.109044983117645,1
718,205,48,0.103001339559268,1
719,204,48,0.106127479784139,1
719,205,48,0.109488078573914,1
719,206,48,0.1132558901747,1
720,184,48,0.141453469991222,1
720,185,48,0.135071456545838,1
720,205,48,0.108017458975997,1
720,206,48,0.119136338525509,1
721,184,48,0.108243206211729,1
723,207,48,0.11227033880088,1
724,183,48,0.109793711263586,1
725,183,48,0.111274503373928,1
726,182,48,0.11522281014585,1
727,182,48,0.117688328228784,1
728,181,48,0.136555962961704,1
728,182,48,0.138015562337825,1
728,183,48,0.120875871612542,1
729,179,48,0.121888036598915,1
729,180,48,0.124011637800378,1
729,181,48,0.147672600543016,1
729,182,48,0.162797364177105,1
729,183,48,0.137999400089465,1
730,181,48,0.15031347177052,1
730,182,48,0.156069518771453,1
730,183,48,0.124618988100927,1
730,213,48,0.13272308966686,1
730,214,48,0.126225698514751,1
731,182,48,0.130112077886466,1
731,211,48,0.112531544827184,1
731,212,48,0.14155761554881,1
731,213,48,0.169895937428698,1
731,214,48,0.164731000401457,1
731,215,48,0.150980340192016,1
732,182,48,0.106383298394322,1
732,211,48,0.103634980004321,1
732,212,48,0.150934407729111,1
732,213,48,0.201695690896967,1
732,214,48,0.187097968254801,1
732,215,48,0.147792395261715,1
733,182,48,0.105710997940423,1
733,212,48,0.125474918019812,1
733,213,48,0.172522966454534,1
733,214,48,0.170617248869,1
733,215,48,0.130790044608252,1
734,182,48,0.131516375380343,1
734,183,48,0.103776982477669,1
734,213,48,0.128930002941998,1
734,214,48,0.138265736988263,1
735,183,48,0.111383567876669,1
735,213,48,0.116809878241273,1
735,214,48,0.127483922299495,1
736,178,48,0.121823298372907,1
736,179,48,0.11476129931895,1
736,214,48,0.119286784630333,1
736,215,48,0.112546848212105,1
737,180,48,0.104722167269834,1
737,214,48,0.108397121232523,1
737,215,48,0.119752868626196,1
738,215,48,0.104860176585892,1
742,179,48,0.107561391335571,1
742,180,48,0.105242448894948,1
743,181,48,0.116464771295597,1
744,182,48,0.10765582169763,1
744,214,48,0.103213166514837,1
758,184,48,0.102940717185326,1
758,185,48,0.110470127569552,1
758,186,48,0.119390863263497,1
758,187,48,0.122897201140285,1
759,185,48,0.127981338079792,1
759,186,48,0.141132321989287,1
759,187,48,0.148333825004767,1
759,193,48,0.103904361964405,1
760,186,48,0.146839804166643,1
760,187,48,0.161921713861324,1
760,188,48,0.103921148840722,1
761,187,48,0.140265572621879,1
762,187,48,0.133965039662537,1
762,188,48,0.115453297861604,1
763,186,48,0.12304417832914,1
763,188,48,0.152605689057883,1
764,186,48,0.111770167965134,1
764,187,48,0.132628815461791,1
764,188,48,0.133073762493786,1
764,206,48,0.113914671894981,1
764,207,48,0.120359181598175,1
768,184,48,0.106938904961161,1
769,189,48,0.121715449663865,1
770,185,48,0.109230397233933,1
771,185,48,0.12460966329787,1
771,186,48,0.109601805478183,1
771,187,48,0.112704142916304,1
771,189,48,0.117359762769872,1
772,186,48,0.11310846682302,1
772,187,48,0.110332508645966,1
772,188,48,0.104438831567376,1
773,187,48,0.106818095222033,1
777,188,48,0.12766928064543,1
777,189,48,0.126788387916447,1
777,190,48,0.116975672347301,1
778,187,48,0.157079709487322,1
778,188,48,0.218314296904049,1
778,189,48,0.160374465798095,1
778,190,48,0.107912075316568,1
779,186,48,0.107129483412157,1
779,187,48,0.185166774771919,1
779,188,48,0.249402833365948,1
779,189,48,0.161747108039488,1
780,187,48,0.131345450401819,1
780,188,48,0.154422252156773,1
780,189,48,0.1159468766416,1
781,188,48,0.13566497579879,1
714,199,49,0.133565846628316,1
714,200,49,0.157549987413747,1
715,199,49,0.151869040770448,1
715,200,49,0.181068166898091,1
715,201,49,0.132382444349442,1
716,186,49,0.104195962833209,1
716,199,49,0.109002207256731,1
716,200,49,0.132770059458335,1
716,201,49,0.137801426489633,1
716,202,49,0.129849354906555,1
717,185,49,0.113391601752206,1
717,186,49,0.113004566654986,1
717,190,49,0.12673668879902,1
717,191,49,0.109682014400173,1
717,201,49,0.140218736679251,1
717,202,49,0.162926182538954,1
717,203,49,0.122901540073765,1
718,185,49,0.135295240665136,1
718,190,49,0.122374554852195,1
718,202,49,0.126460915556457,1
718,203,49,0.12563984210833,1
718,204,49,0.104712485536517,1
719,189,49,0.10915428185587,1
719,205,49,0.10633325007935,1
720,185,49,0.12369773994436,1
720,186,49,0.107621824090312,1
721,184,49,0.109060688049109,1
722,208,49,0.11054214940369,1
723,207,49,0.103445907352862,1
723,208,49,0.117023166380096,1
724,183,49,0.114214571392343,1
724,207,49,0.106901427283803,1
725,183,49,0.115533372934746,1
725,184,49,0.10552706731553,1
725,207,49,0.104934641161501,1
726,182,49,0.117407011413113,1
726,183,49,0.104433243377984,1
726,208,49,0.11074079224776,1
727,182,49,0.122739036418576,1
728,181,49,0.141885857539674,1
728,182,49,0.146889986330463,1
728,183,49,0.129274897960331,1
729,180,49,0.128335368281981,1
729,183,49,0.159419599272612,1
730,181,49,0.154850925399702,1
730,183,49,0.146254449693401,1
730,213,49,0.130385832242242,1
730,214,49,0.128652723899899,1
731,182,49,0.141492598471036,1
731,183,49,0.10665447615978,1
731,211,49,0.11020633379886,1
731,212,49,0.13835076446877,1
731,213,49,0.16466663025978,1
731,214,49,0.162325669683709,1
731,215,49,0.143277539779654,1
732,182,49,0.116440377343102,1
732,211,49,0.1080774121057,1
732,212,49,0.155842076116984,1
732,213,49,0.196504720268847,1
732,214,49,0.182793132768866,1
732,215,49,0.142846223021984,1
733,182,49,0.115197066550807,1
733,212,49,0.123652064025079,1
733,213,49,0.1569770585752,1
733,214,49,0.154906316514512,1
734,182,49,0.135938785924919,1
734,183,49,0.10628480795055,1
734,213,49,0.113613233135871,1
734,214,49,0.122609359193288,1
735,183,49,0.106082015792201,1
735,214,49,0.117131450097893,1
735,215,49,0.104428190583983,1
736,178,49,0.115249312217696,1
736,179,49,0.108675348370627,1
736,180,49,0.117826226004136,1
736,182,49,0.11138618908327,1
736,214,49,0.113078495835204,1
736,215,49,0.105244590476512,1
743,181,49,0.114600781088336,1
759,185,49,0.125696538249405,1
759,186,49,0.125961146267255,1
759,187,49,0.134164842529954,1
760,186,49,0.135185618458863,1
760,187,49,0.145818314377213,1
761,187,49,0.127675649619767,1
762,187,49,0.11506862742736,1
763,187,49,0.119849273258758,1
763,188,49,0.112182433570148,1
764,187,49,0.10929180039282,1
764,188,49,0.1047721040441,1
768,184,49,0.106595370739446,1
769,184,49,0.115005473079383,1
769,188,49,0.10950832321213,1
769,189,49,0.112100384226502,1
769,201,49,0.105649739784455,1
770,185,49,0.108063458363327,1
770,189,49,0.133934220965352,1
771,184,49,0.123278514199266,1
771,185,49,0.119746722733272,1
771,186,49,0.114654487938479,1
771,187,49,0.110369752087841,1
771,188,49,0.113914069575166,1
771,189,49,0.109272793856445,1
772,185,49,0.112987344769914,1
772,186,49,0.113685957676459,1
772,187,49,0.113136519310686,1
772,188,49,0.105009072274898,1
773,186,49,0.103320145206369,1
773,187,49,0.105371958809177,1
774,186,49,0.114547018467839,1
774,187,49,0.10738461046996,1
775,187,49,0.115108882468308,1
776,190,49,0.105762239740954,1
776,191,49,0.108785305199019,1
777,187,49,0.107951884194691,1
777,188,49,0.11957461542326,1
777,189,49,0.112902294981266,1
777,190,49,0.112507652807868,1
778,187,49,0.144644091898477,1
778,188,49,0.199802198172856,1
778,189,49,0.142309500296743,1
779,187,49,0.167198091208353,1
779,188,49,0.245359638915071,1
779,189,49,0.161520758483942,1
780,187,49,0.118100872685564,1
780,188,49,0.152015426793559,1
780,189,49,0.115822531062079,1
781,188,49,0.125605744114376,1
714,199,50,0.121484292703873,1
714,200,50,0.15379831575318,1
715,199,50,0.142217378827307,1
715,200,50,0.189260307543605,1
715,201,50,0.140217777429176,1
716,200,50,0.131653804684728,1
716,201,50,0.12947264847875,1
716,202,50,0.121841780667961,1
717,185,50,0.10653154714723,1
717,187,50,0.103141378916183,1
717,188,50,0.107090488781191,1
717,189,50,0.108706680155061,1
717,201,50,0.114791058379424,1
717,202,50,0.137534732660573,1
717,203,50,0.113242906836473,1
718,185,50,0.125746240788188,1
718,186,50,0.118207684066035,1
718,189,50,0.12079039796921,1
718,202,50,0.107137458572666,1
718,203,50,0.10798381829894,1
719,185,50,0.13425888249954,1
719,186,50,0.116618284769848,1
719,187,50,0.114084436850158,1
719,188,50,0.109752965443529,1
719,205,50,0.103640490115218,1
720,184,50,0.143186957571968,1
720,185,50,0.112796833243342,1
721,184,50,0.109834524008066,1
723,208,50,0.109149295986292,1
723,209,50,0.12207251377327,1
724,183,50,0.115412262035711,1
724,208,50,0.115576070717165,1
725,183,50,0.114597747181121,1
725,184,50,0.10468007180723,1
725,208,50,0.116963358253312,1
726,183,50,0.103812909739208,1
726,208,50,0.10302238729057,1
727,182,50,0.129791208736296,1
728,183,50,0.126480044787609,1
729,184,50,0.106667782966057,1
729,209,50,0.103474941398744,1
731,183,50,0.119549920310858,1
731,211,50,0.103299142091349,1
731,212,50,0.129326072836438,1
731,213,50,0.148306363682846,1
731,214,50,0.14998739366936,1
732,182,50,0.129471644612392,1
732,211,50,0.103728997665765,1
732,212,50,0.146209353785794,1
732,213,50,0.170470327450498,1
732,214,50,0.163858841309788,1
732,215,50,0.131095141902533,1
733,182,50,0.13095566024915,1
733,212,50,0.115540545002169,1
733,213,50,0.135201579933952,1
733,214,50,0.13539341879493,1
734,214,50,0.107239919865587,1
735,214,50,0.104482332442882,1
736,177,50,0.117797348115243,1
736,178,50,0.107861815074254,1
736,180,50,0.110721462243337,1
736,214,50,0.104979223981859,1
743,179,50,0.114240638455434,1
743,180,50,0.129239651097101,1
743,181,50,0.116557952401744,1
748,182,50,0.121504660036866,1
759,185,50,0.117433312711688,1
759,186,50,0.103568791749129,1
759,187,50,0.104221583733474,1
760,186,50,0.118313380039443,1
760,187,50,0.112131013304486,1
768,184,50,0.10551387204996,1
769,184,50,0.109449875881964,1
770,184,50,0.112468468557701,1
770,185,50,0.105765340572593,1
770,186,50,0.103100911947892,1
770,188,50,0.104023866677267,1
770,189,50,0.106080576917088,1
771,184,50,0.109042785765728,1
771,185,50,0.111422395196575,1
771,186,50,0.117894645073457,1
771,187,50,0.111908210743405,1
772,185,50,0.103188092164033,1
772,186,50,0.111113550134558,1
772,187,50,0.111841130162561,1
774,185,50,0.120108739250041,1
774,186,50,0.125039173096096,1
774,187,50,0.10965192071758,1
775,186,50,0.167664799832171,1
775,187,50,0.136055535582333,1
776,187,50,0.125794593684422,1
776,190,50,0.10830660594926,1
776,191,50,0.11530286291085,1
777,187,50,0.110514219610801,1
777,188,50,0.10729067088701,1
777,190,50,0.105595620233698,1
778,187,50,0.122609080341522,1
778,188,50,0.161120795818848,1
778,189,50,0.124290679185639,1
779,187,50,0.136959260693921,1
779,188,50,0.205292900987278,1
779,189,50,0.152022966945313,1
780,187,50,0.106823326481165,1
780,188,50,0.141829507174789,1
780,189,50,0.116052371841736,1
781,188,50,0.11691801695615,1
714,200,51,0.13049934721917,1
715,199,51,0.120065572996655,1
715,200,51,0.171184723367002,1
715,201,51,0.138894648107364,1
716,200,51,0.12272383342029,1
716,201,51,0.12140541111629,1
716,202,51,0.113372896375739,1
717,202,51,0.114585566935979,1
717,203,51,0.104551799994842,1
718,184,51,0.125548914124453,1
718,185,51,0.114409723012302,1
718,186,51,0.104301446879274,1
719,185,51,0.121118104564683,1
719,186,51,0.10412756607203,1
720,184,51,0.138907709524086,1
720,185,51,0.109793231638548,1
721,184,51,0.115491534015766,1
723,208,51,0.1086177599039,1
723,209,51,0.119198857091459,1
724,208,51,0.111050819641265,1
725,183,51,0.115671226093815,1
725,184,51,0.106114942608737,1
725,208,51,0.107473865343241,1
726,183,51,0.108628780125695,1
727,183,51,0.109112398320607,1
728,183,51,0.123669832459613,1
729,184,51,0.108198980321632,1
730,184,51,0.111250890206378,1
730,212,51,0.106280424400788,1
731,183,51,0.131615367757294,1
731,212,51,0.118204862086163,1
731,213,51,0.129227571238595,1
732,182,51,0.143890054414911,1
732,183,51,0.118029843563713,1
732,212,51,0.130350083445833,1
732,213,51,0.140966494421046,1
732,214,51,0.13723445392481,1
733,183,51,0.115388024240205,1
733,212,51,0.107940362039717,1
733,213,51,0.119458077693188,1
736,177,51,0.113664831866662,1
736,178,51,0.107457725403021,1
743,179,51,0.105245549726587,1
743,180,51,0.124396029382856,1
743,181,51,0.120737170744104,1
744,179,51,0.115075007555767,1
744,180,51,0.131025150109252,1
744,181,51,0.123029689191375,1
745,182,51,0.116564700614482,1
748,182,51,0.111528236172901,1
759,185,51,0.112617654252543,1
760,186,51,0.103762058331149,1
768,184,51,0.107657193648319,1
769,184,51,0.107051494150225,1
769,185,51,0.103216635430807,1
770,184,51,0.106092165996485,1
770,185,51,0.109372700867189,1
770,186,51,0.117805122502481,1
770,187,51,0.110494409981341,1
771,185,51,0.108825471007403,1
771,186,51,0.131203849475014,1
771,187,51,0.133740998999614,1
771,188,51,0.107562015963527,1
772,186,51,0.113628926913264,1
772,187,51,0.122533143428588,1
772,188,51,0.106494493324556,1
774,186,51,0.130473402850856,1
774,187,51,0.11108319990834,1
775,187,51,0.150648272354921,1
776,190,51,0.105648200522707,1
776,191,51,0.112006645416824,1
777,196,51,0.117072813148526,1
778,187,51,0.106238139318982,1
778,188,51,0.124544858147437,1
778,189,51,0.109027850465138,1
778,195,51,0.118421641449098,1
779,187,51,0.115209481031432,1
779,188,51,0.154738191207719,1
779,189,51,0.133124825829187,1
780,188,51,0.127758423978004,1
715,200,52,0.13016978904797,1
715,201,52,0.121613311838993,1
716,201,52,0.108484256832381,1
719,184,52,0.127931200532254,1
719,185,52,0.107531174958201,1
720,184,52,0.129626608115827,1
720,185,52,0.106471649787881,1
721,184,52,0.115905506193588,1
723,208,52,0.104331618640362,1
723,209,52,0.11531745243525,1
724,208,52,0.104292211308782,1
724,209,52,0.130000403331194,1
725,183,52,0.116268749658128,1
725,184,52,0.1047721040441,1
726,183,52,0.114593095933663,1
729,184,52,0.103246818345966,1
729,212,52,0.109466361598373,1
730,184,52,0.116102464772991,1
730,213,52,0.105812232285573,1
731,183,52,0.144891310720195,1
731,213,52,0.106503305040364,1
732,183,52,0.135160756035401,1
732,212,52,0.107230126591563,1
732,213,52,0.110746447361576,1
736,178,52,0.105957402514984,1
736,179,52,0.103114185291957,1
743,180,52,0.122404458915587,1
743,181,52,0.126120972945489,1
744,179,52,0.108713216440458,1
744,180,52,0.125141444769816,1
744,181,52,0.122080734323333,1
745,179,52,0.117402940177328,1
745,180,52,0.124852699343097,1
745,181,52,0.123981655658491,1
745,182,52,0.10553868985714,1
746,182,52,0.139410077711749,1
747,182,52,0.136842812196414,1
748,180,52,0.117515239360556,1
748,181,52,0.120145503066879,1
749,181,52,0.109140885817028,1
759,185,52,0.103196468871086,1
768,184,52,0.110614483551806,1
769,183,52,0.107981420173752,1
769,184,52,0.107718284493227,1
769,185,52,0.113615073557527,1
769,186,52,0.104618400950648,1
770,183,52,0.108220931532656,1
770,185,52,0.116759952621077,1
770,186,52,0.134726884995553,1
770,187,52,0.12929467412758,1
771,185,52,0.105670385969214,1
771,186,52,0.143800777233489,1
771,187,52,0.166300244291994,1
771,188,52,0.131160125518095,1
772,186,52,0.111027831101671,1
772,187,52,0.134448936709215,1
772,188,52,0.119230289262529,1
774,186,52,0.12019362172763,1
775,186,52,0.184063715263882,1
775,187,52,0.139916751370679,1
776,187,52,0.125765515022258,1
778,194,52,0.104049376036827,1
778,195,52,0.118197299626267,1
778,196,52,0.124838332900109,1
779,188,52,0.110332675957026,1
779,194,52,0.107374895274431,1
779,195,52,0.106541753121868,1
719,184,53,0.114161377629449,1
720,183,53,0.138489175331372,1
720,184,53,0.121515055630704,1
721,183,53,0.128809371668,1
721,184,53,0.116694266299064,1
722,184,53,0.10894992812763,1
723,184,53,0.108680222699497,1
723,209,53,0.112492003646756,1
724,184,53,0.105497308255056,1
724,209,53,0.123470564987586,1
725,183,53,0.119961014738454,1
725,184,53,0.10623948896153,1
725,185,53,0.103129800990856,1
726,183,53,0.122097933900264,1
726,184,53,0.108565715010283,1
726,185,53,0.104428536360173,1
727,184,53,0.104140114401502,1
727,212,53,0.134581647841719,1
728,212,53,0.114808648348827,1
730,184,53,0.112423774196637,1
736,178,53,0.108517016337858,1
736,179,53,0.105569441629901,1
736,180,53,0.103195487312869,1
743,180,53,0.121671502625534,1
743,181,53,0.129041376337362,1
744,179,53,0.103751595812887,1
744,180,53,0.122838854196755,1
744,181,53,0.126930234232807,1
744,182,53,0.103053060984837,1
745,179,53,0.112813910125496,1
745,180,53,0.11879847057168,1
745,181,53,0.116236525548042,1
746,178,53,0.112709363021365,1
746,179,53,0.115949386307495,1
746,180,53,0.117350136806907,1
746,181,53,0.123421431306407,1
746,182,53,0.115539284592186,1
747,178,53,0.117982884926309,1
747,179,53,0.111878819767262,1
747,180,53,0.112977919580221,1
747,181,53,0.124574282585792,1
747,182,53,0.116477754633825,1
748,178,53,0.114955279761492,1
748,179,53,0.106436826779335,1
748,180,53,0.106115355309351,1
748,181,53,0.106998021535566,1
749,178,53,0.112014308263355,1
749,179,53,0.107546902197807,1
749,180,53,0.107434881866346,1
749,181,53,0.103041706140923,1
768,185,53,0.103500818842634,1
769,184,53,0.114736102273369,1
769,185,53,0.125569627233636,1
769,186,53,0.110291918982899,1
770,185,53,0.126036815482493,1
770,186,53,0.147076448929392,1
770,187,53,0.150095242378401,1
770,188,53,0.108166265432438,1
770,208,53,0.108351478775454,1
771,185,53,0.104855569954717,1
771,186,53,0.153722534997235,1
771,187,53,0.205212100899545,1
771,188,53,0.166999314515435,1
772,186,53,0.108301296611634,1
772,187,53,0.1495970681213,1
772,188,53,0.138432468036226,1
774,186,53,0.106991161782121,1
775,187,53,0.121161795059389,1
776,204,53,0.106889782434052,1
777,202,53,0.115747419550373,1
778,194,53,0.104765790840117,1
778,195,53,0.11927006467844,1
778,196,53,0.108103914177547,1
779,195,53,0.105958562538331,1
720,184,54,0.111045432225145,1
721,183,54,0.12152713548921,1
721,184,54,0.111736649982854,1
722,183,54,0.128867439759765,1
722,184,54,0.112103228514516,1
723,184,54,0.117457673201971,1
723,209,54,0.108888603047239,1
724,184,54,0.109479623788367,1
724,209,54,0.10979308663563,1
724,210,54,0.124613388757464,1
725,183,54,0.121285884095286,1
725,184,54,0.103446610059312,1
725,185,54,0.105821512472348,1
725,186,54,0.10291907828828,1
725,209,54,0.113687943101033,1
725,211,54,0.149629638007576,1
726,183,54,0.126787484436725,1
726,184,54,0.114272237937564,1
726,185,54,0.118916603333854,1
727,184,54,0.119392558682235,1
727,185,54,0.104292278233206,1
727,209,54,0.103173814953611,1
727,211,54,0.12144916853542,1
727,212,54,0.113692806275833,1
728,184,54,0.107947199485021,1
730,213,54,0.1059752155658,1
736,178,54,0.109308107644099,1
736,179,54,0.106299720942999,1
743,180,54,0.121759307469631,1
743,181,54,0.12808426784368,1
744,180,54,0.124956621819272,1
744,181,54,0.136108584342308,1
744,182,54,0.117995165558086,1
745,179,54,0.110410375213121,1
745,180,54,0.11823763274571,1
745,181,54,0.118103772743931,1
745,182,54,0.104479041992042,1
746,178,54,0.10763707170488,1
746,179,54,0.112266747190133,1
746,180,54,0.110401028101923,1
746,181,54,0.108206743554799,1
747,178,54,0.10932010942411,1
747,179,54,0.105541790688778,1
747,180,54,0.103929849015823,1
747,181,54,0.109104858168853,1
748,178,54,0.10678903886801,1
749,178,54,0.108907163420787,1
750,179,54,0.109365707264896,1
758,180,54,0.113590713067244,1
758,181,54,0.114684938551333,1
759,182,54,0.117275382225462,1
762,185,54,0.10765651325001,1
768,184,54,0.127523664253193,1
768,185,54,0.106722337525568,1
769,184,54,0.119879801950106,1
769,185,54,0.130288501821817,1
769,186,54,0.110227916925553,1
770,185,54,0.126787807904774,1
770,186,54,0.14526435861283,1
770,187,54,0.155273140435728,1
770,188,54,0.114283603935549,1
770,210,54,0.10428800622415,1
771,186,54,0.146599132784392,1
771,187,54,0.216457233374657,1
771,188,54,0.183576973929189,1
771,209,54,0.106273832345038,1
772,187,54,0.147079516298819,1
772,188,54,0.140588873359448,1
772,209,54,0.121186512479933,1
777,204,54,0.102973710926287,1
778,195,54,0.113088768734266,1
778,202,54,0.111396830066663,1
721,184,55,0.103053495993592,1
722,183,55,0.123567136931208,1
722,184,55,0.109973938737025,1
723,183,55,0.152558563109419,1
723,184,55,0.120573373216721,1
723,187,55,0.103376529033466,1
723,209,55,0.107723381903511,1
724,183,55,0.149927262074527,1
724,184,55,0.111720220036798,1
724,186,55,0.104192426992815,1
724,187,55,0.119417220332425,1
724,210,55,0.109987803246834,1
725,183,55,0.125193344660515,1
725,185,55,0.10400271855933,1
725,186,55,0.112335021256536,1
725,211,55,0.137783825366159,1
726,183,55,0.131869167480691,1
726,184,55,0.11879864903681,1
726,185,55,0.125921616240898,1
726,186,55,0.112497524911724,1
727,184,55,0.134570716852489,1
727,185,55,0.123554164747051,1
727,211,55,0.105911458898008,1
728,184,55,0.125331777831258,1
729,184,55,0.108379330489848,1
730,183,55,0.128821094596245,1
730,212,55,0.110141606726922,1
730,213,55,0.113358128386209,1
735,180,55,0.124825628413648,1
736,178,55,0.108990339325568,1
736,179,55,0.104021513168362,1
743,180,55,0.1191224740157,1
743,181,55,0.124131800603408,1
744,180,55,0.13242930260021,1
744,181,55,0.152547185957364,1
744,182,55,0.13341449704377,1
745,179,55,0.106197036568665,1
745,180,55,0.120863546364482,1
745,181,55,0.127472656688146,1
745,182,55,0.112500503048586,1
746,179,55,0.105376888908401,1
746,180,55,0.10353218408928,1
750,178,55,0.120793922655533,1
751,179,55,0.110810282107862,1
752,179,55,0.122351120149775,1
753,179,55,0.129972071991763,1
754,179,55,0.126480635953353,1
755,179,55,0.10857521827847,1
758,180,55,0.109334308556038,1
758,181,55,0.1150745390848,1
759,180,55,0.118095362574666,1
759,181,55,0.121744338706829,1
759,182,55,0.113679086768943,1
759,183,55,0.105988734299419,1
760,180,55,0.110176005880783,1
760,181,55,0.10745926466477,1
760,182,55,0.111777518497688,1
760,185,55,0.10658240970936,1
761,185,55,0.112200291237246,1
766,184,55,0.105273089127003,1
768,184,55,0.13274791862811,1
768,185,55,0.114024941037352,1
769,184,55,0.124717266617357,1
769,185,55,0.13496123201975,1
769,186,55,0.11732674672077,1
770,185,55,0.124859692945389,1
770,186,55,0.139732921132422,1
770,187,55,0.146775311330189,1
770,188,55,0.112965505099596,1
771,186,55,0.131112999569631,1
771,187,55,0.19514017588274,1
771,188,55,0.174136257770037,1
772,187,55,0.132154934770549,1
772,188,55,0.129228452410176,1
772,210,55,0.120141454139235,1
773,209,55,0.107399991933376,1
774,208,55,0.10865317407819,1
719,193,56,0.106229907614848,1
719,194,56,0.110836382633166,1
722,183,56,0.114144613061274,1
723,183,56,0.141900335523368,1
723,184,56,0.115044568096984,1
723,187,56,0.111180864950885,1
723,188,56,0.104643653766582,1
724,183,56,0.145233684918563,1
724,184,56,0.109167287502239,1
724,186,56,0.107596627044731,1
724,187,56,0.134347033119827,1
724,188,56,0.105029417299749,1
725,183,56,0.128695767458508,1
725,186,56,0.112766962642162,1
725,187,56,0.110209155778732,1
725,210,56,0.121822907980434,1
725,211,56,0.11487103306593,1
726,184,56,0.119756649856144,1
726,185,56,0.125264329166083,1
726,186,56,0.114900580199062,1
726,211,56,0.113511798017449,1
727,184,56,0.146162261299542,1
727,185,56,0.139276340404746,1
727,186,56,0.108996641375481,1
728,185,56,0.11732032197608,1
729,184,56,0.118736097008648,1
730,183,56,0.127463543812431,1
730,212,56,0.113547056034749,1
730,213,56,0.11515891962921,1
731,183,56,0.137668748819342,1
735,178,56,0.148978318360555,1
735,179,56,0.137495470331912,1
735,180,56,0.12233400980541,1
735,183,56,0.106977386504877,1
736,178,56,0.105628502433952,1
743,180,56,0.113377636855762,1
743,181,56,0.119828972850189,1
744,180,56,0.14016141591022,1
744,181,56,0.168466732895077,1
744,182,56,0.133560648831397,1
745,180,56,0.124500029937526,1
745,181,56,0.14056649829374,1
745,182,56,0.113554585032433,1
751,178,56,0.110605270289455,1
752,179,56,0.109511267886779,1
753,179,56,0.118661532046403,1
754,179,56,0.114251134435909,1
758,181,56,0.110279158726084,1
758,182,56,0.103119873867985,1
759,180,56,0.107557576643412,1
759,181,56,0.114821910538821,1
759,182,56,0.109495596417527,1
760,181,56,0.102949751982547,1
760,182,56,0.103381247205348,1
760,184,56,0.106637365815415,1
766,184,56,0.103188850640837,1
767,184,56,0.114443229840512,1
768,184,56,0.129220555328161,1
768,185,56,0.124151230994467,1
768,186,56,0.104960518605391,1
769,185,56,0.147356717262423,1
769,186,56,0.144689355117144,1
769,187,56,0.105775825398997,1
770,185,56,0.125531123381779,1
770,186,56,0.145860922927067,1
770,187,56,0.140487092464836,1
770,188,56,0.108605813894242,1
771,186,56,0.116690239679562,1
771,187,56,0.157309316031496,1
771,188,56,0.14608165083101,1
772,187,56,0.112581381214814,1
772,188,56,0.109444120381512,1
719,193,57,0.104301290722285,1
719,194,57,0.109577578836748,1
720,193,57,0.106583759351907,1
720,194,57,0.115186057483083,1
723,183,57,0.12673095560671,1
723,184,57,0.106912603662586,1
723,187,57,0.112087913975524,1
723,188,57,0.108074210887426,1
724,182,57,0.152665999117847,1
724,183,57,0.136416592849027,1
724,184,57,0.107402891991743,1
724,186,57,0.107161328283841,1
724,187,57,0.133924427691328,1
724,188,57,0.11088472437533,1
725,183,57,0.134383484622686,1
725,184,57,0.104021212008455,1
725,186,57,0.107161964065868,1
725,187,57,0.111250979438943,1
725,210,57,0.121204314376678,1
725,211,57,0.108343481306804,1
726,184,57,0.121830191588564,1
726,185,57,0.120539687923381,1
726,186,57,0.113184414890024,1
726,210,57,0.121867557725216,1
726,211,57,0.105682331978872,1
727,184,57,0.156378943845144,1
727,185,57,0.151783187888714,1
727,186,57,0.122686645748769,1
728,185,57,0.138622600324396,1
729,184,57,0.137776095595204,1
730,183,57,0.143907097834852,1
730,184,57,0.111981303368324,1
730,212,57,0.107904423624107,1
730,213,57,0.107347701650205,1
731,183,57,0.139703574772562,1
731,184,57,0.103312136583647,1
732,183,57,0.142772840391228,1
734,183,57,0.158389297767374,1
735,178,57,0.138437420443591,1
735,179,57,0.131461207346945,1
735,180,57,0.122747591590759,1
735,181,57,0.123410076462493,1
735,182,57,0.128674675110923,1
735,183,57,0.114377420823722,1
736,181,57,0.105188373960474,1
743,180,57,0.108570243562964,1
743,181,57,0.117842711720546,1
744,180,57,0.142852491609685,1
744,181,57,0.177344670419967,1
744,182,57,0.125407781668615,1
745,180,57,0.126900675945604,1
745,181,57,0.151636801865603,1
745,182,57,0.111686601667882,1
753,179,57,0.105506421130771,1
759,181,57,0.103088464005056,1
765,184,57,0.104792817153283,1
766,184,57,0.108671199056348,1
767,184,57,0.111596365236385,1
767,185,57,0.10606793935505,1
768,184,57,0.122913999170673,1
768,185,57,0.140533437628355,1
768,186,57,0.132220743787339,1
769,184,57,0.123532001608685,1
769,185,57,0.174311521682041,1
769,186,57,0.196861962843381,1
769,187,57,0.142781986729154,1
770,185,57,0.135852241490805,1
770,186,57,0.171180083273614,1
770,187,57,0.152975323804902,1
770,188,57,0.104353759470587,1
771,186,57,0.108477073610888,1
771,187,57,0.126730397903177,1
771,188,57,0.113081574358701,1
720,193,58,0.108559033721968,1
720,194,58,0.119170804603794,1
723,187,58,0.106750523862082,1
724,183,58,0.124011169329411,1
724,184,58,0.10383637790384,1
724,187,58,0.119978738556704,1
724,188,58,0.106229706841577,1
725,183,58,0.133595962619051,1
725,184,58,0.103550142143015,1
725,187,58,0.104481283960241,1
725,210,58,0.116002758535519,1
725,211,58,0.103666256018402,1
726,184,58,0.118362223714786,1
726,185,58,0.110754210594743,1
726,186,58,0.105895731658402,1
726,210,58,0.109860390297886,1
727,184,58,0.158302351786717,1
727,185,58,0.151332686129538,1
727,186,58,0.125412979465534,1
728,185,58,0.151642735831185,1
728,186,58,0.106663522111071,1
729,185,58,0.109010383190512,1
730,184,58,0.119202939481314,1
731,183,58,0.139538561451478,1
731,184,58,0.107337796835474,1
732,183,58,0.147009011418288,1
732,184,58,0.107937763141258,1
733,183,58,0.157007587266549,1
733,184,58,0.10830921600179,1
734,180,58,0.142059950274261,1
734,181,58,0.145004613769781,1
734,182,58,0.155000802646923,1
734,183,58,0.150562218699915,1
735,178,58,0.119987204496322,1
735,179,58,0.122614623914631,1
735,180,58,0.122080065079094,1
735,181,58,0.12187839948188,1
735,182,58,0.126549646188418,1
735,183,58,0.113475212665742,1
736,181,58,0.103407593120205,1
743,181,58,0.113299324125782,1
744,180,58,0.134785544253061,1
744,181,58,0.16766374019546,1
744,182,58,0.110218781741697,1
745,180,58,0.12239322676645,1
745,181,58,0.149147280222646,1
745,182,58,0.102959166018169,1
763,181,58,0.102920249465698,1
765,184,58,0.107082469004399,1
766,184,58,0.114221464608,1
766,185,58,0.103068832840725,1
767,184,58,0.113024063970469,1
767,185,58,0.113274595551168,1
768,184,58,0.120603991140634,1
768,185,58,0.156285851971562,1
768,186,58,0.150250573966167,1
769,184,58,0.121156485721763,1
769,185,58,0.197330612275492,1
769,186,58,0.238246264211736,1
769,187,58,0.174631275425146,1
770,185,58,0.144091162308593,1
770,186,58,0.19667736297425,1
770,187,58,0.171849528285429,1
771,186,58,0.104374517196052,1
771,187,58,0.107915220764489,1
720,194,59,0.109314956243473,1
724,183,59,0.118147775552615,1
724,184,59,0.105328368701107,1
724,187,59,0.104132730406737,1
725,183,59,0.134148959133359,1
725,184,59,0.108662130796916,1
725,210,59,0.115094415638685,1
725,211,59,0.107925783669388,1
726,183,59,0.145502776872811,1
726,184,59,0.120514524340011,1
726,185,59,0.107894072646551,1
726,210,59,0.109930058623118,1
726,211,59,0.107371705210227,1
727,184,59,0.158214480018196,1
727,185,59,0.14606291199233,1
727,186,59,0.12316850160052,1
728,185,59,0.155752642778574,1
728,186,59,0.11066265798291,1
729,185,59,0.117629312041016,1
730,184,59,0.133766173737054,1
731,183,59,0.147348173244311,1
731,184,59,0.117753200303641,1
732,183,59,0.154114533655891,1
732,184,59,0.118966261256353,1
733,182,59,0.17280088127866,1
733,183,59,0.161207161787832,1
733,184,59,0.117680910771807,1
734,180,59,0.151405577981186,1
734,181,59,0.14520375854703,1
734,182,59,0.143281901021276,1
734,183,59,0.135444861368733,1
735,179,59,0.120066275703106,1
735,180,59,0.122762471120996,1
735,181,59,0.12045927822812,1
735,182,59,0.11930999625134,1
735,183,59,0.104968226068205,1
743,181,59,0.109824384957852,1
744,180,59,0.118334606235875,1
744,181,59,0.143504413576521,1
745,180,59,0.111385397144255,1
745,181,59,0.132810961435381,1
765,184,59,0.107340641123488,1
766,184,59,0.118919559162574,1
766,185,59,0.106948207456077,1
767,184,59,0.12112169617543,1
767,185,59,0.125547653714471,1
768,184,59,0.129401273580709,1
768,185,59,0.175998273706795,1
768,186,59,0.158074161809515,1
769,184,59,0.12302299674899,1
769,185,59,0.211766121268305,1
769,186,59,0.253662193705874,1
769,187,59,0.191528264727322,1
770,185,59,0.152924706632326,1
770,186,59,0.220857915789622,1
770,187,59,0.196939416709922,1
771,186,59,0.110363751197836,1
771,187,59,0.109156423437433,1
725,183,60,0.126061834062943,1
725,184,60,0.106366556134288,1
726,183,60,0.135891793825303,1
726,184,60,0.11637644221018,1
726,185,60,0.10439200677882,1
726,211,60,0.105221211544445,1
727,182,60,0.159896134632667,1
727,183,60,0.144930104577889,1
727,184,60,0.146986970974699,1
727,185,60,0.134326197315867,1
727,186,60,0.11535008924595,1
727,187,60,0.104761451906637,1
728,184,60,0.175623329622151,1
728,185,60,0.146777999461214,1
728,186,60,0.107401029261946,1
729,185,60,0.119994476950381,1
730,184,60,0.143179517806849,1
731,183,60,0.154141928053389,1
731,184,60,0.123112530474036,1
732,182,60,0.171978513958338,1
732,183,60,0.152040110751891,1
732,184,60,0.120069008450413,1
733,181,60,0.171461032004955,1
733,182,60,0.15940272316373,1
733,183,60,0.148699578135202,1
733,184,60,0.116598530910741,1
734,180,60,0.156148511899743,1
734,181,60,0.138702641935326,1
734,182,60,0.124137444563153,1
734,183,60,0.115432551290209,1
735,179,60,0.115414727085323,1
735,180,60,0.115663619017637,1
735,181,60,0.111294011843481,1
744,181,60,0.10693298214965,1
745,181,60,0.103026692761838,1
765,184,60,0.103551536401845,1
766,184,60,0.11970970237281,1
766,185,60,0.110870971406228,1
767,184,60,0.131261638715012,1
767,185,60,0.14319568005521,1
768,184,60,0.138850522603903,1
768,185,60,0.191191523334628,1
768,186,60,0.157004575667475,1
769,184,60,0.12162957447399,1
769,185,60,0.206699250830153,1
769,186,60,0.232994816212593,1
769,187,60,0.178474466235334,1
770,185,60,0.150914486558943,1
770,186,60,0.216943260848828,1
770,187,60,0.192928792145321,1
771,186,60,0.111472644284819,1
771,187,60,0.106115187998291,1
726,183,61,0.120876518548639,1
726,184,61,0.109107613224302,1
727,182,61,0.139236721145825,1
727,183,61,0.127645879405222,1
727,184,61,0.128970592605065,1
727,185,61,0.119573901562739,1
727,186,61,0.1051815253611,1
728,182,61,0.148363070977992,1
728,183,61,0.148579426486242,1
728,184,61,0.15112678198548,1
728,185,61,0.129935375099349,1
729,181,61,0.161796208258456,1
729,184,61,0.154915585547216,1
729,185,61,0.118580754266811,1
730,181,61,0.165738893378774,1
730,183,61,0.179130013275129,1
730,184,61,0.145430085794434,1
730,185,61,0.104210530049468,1
731,180,61,0.165444983617347,1
731,181,61,0.166457784385747,1
731,182,61,0.172400528221093,1
731,183,61,0.156337093772093,1
731,184,61,0.12407852876202,1
732,181,61,0.172289768299614,1
732,182,61,0.165689793159806,1
732,183,61,0.144424479401599,1
732,184,61,0.116752066693133,1
733,180,61,0.190021215934687,1
733,181,61,0.162435994596433,1
733,182,61,0.143378595659674,1
733,183,61,0.129789100616945,1
733,184,61,0.113282648790171,1
734,179,61,0.173717489341839,1
734,180,61,0.159634147821418,1
734,181,61,0.133901104529615,1
734,182,61,0.111058727877351,1
734,183,61,0.103020981877669,1
735,179,61,0.116022110848083,1
735,180,61,0.112257957782467,1
735,181,61,0.105732146058361,1
761,180,61,0.10318595058247,1
762,180,61,0.103604785935092,1
766,184,61,0.113060325854127,1
766,185,61,0.112006165791786,1
767,184,61,0.136350861910732,1
767,185,61,0.158364446497983,1
767,186,61,0.114846304491316,1
768,184,61,0.143270412328514,1
768,185,61,0.19512957951563,1
768,186,61,0.152278785555496,1
769,184,61,0.116597393195535,1
769,185,61,0.185777170133753,1
769,186,61,0.196222232275758,1
769,187,61,0.151098082561717,1
770,185,61,0.137867927058803,1
770,186,61,0.189853771026204,1
770,187,61,0.166502043738056,1
771,186,61,0.10860160880961,1
727,183,62,0.111455946641068,1
727,184,62,0.109586345936273,1
727,185,62,0.103098458052351,1
728,182,62,0.127745251020575,1
728,183,62,0.127069425880353,1
728,184,62,0.125551847645032,1
728,185,62,0.111644996984385,1
729,181,62,0.142413868935744,1
729,182,62,0.145381889055189,1
729,183,62,0.147325318553565,1
729,184,62,0.137628884170866,1
729,185,62,0.112136300333971,1
730,181,62,0.154992961335262,1
730,182,62,0.162402208916457,1
730,183,62,0.159484716737022,1
730,184,62,0.135146177665071,1
731,180,62,0.161071974451646,1
731,181,62,0.16022418700433,1
731,182,62,0.164481394608622,1
731,183,62,0.148879839070853,1
731,184,62,0.117782903593761,1
732,180,62,0.172519352535646,1
732,181,62,0.157386513354412,1
732,182,62,0.149212609614398,1
732,183,62,0.130016063646376,1
732,184,62,0.107107208733084,1
733,180,62,0.18487247461802,1
733,181,62,0.147476958143948,1
733,182,62,0.121379087509574,1
733,183,62,0.107361956552486,1
733,184,62,0.1035580503791,1
734,179,62,0.171482838213061,1
734,180,62,0.160429522290786,1
734,181,62,0.124940035716227,1
735,179,62,0.116298118326129,1
735,180,62,0.112508612057943,1
761,180,62,0.107464373229124,1
766,185,62,0.109286524517406,1
767,184,62,0.13377530892091,1
767,185,62,0.164800133331299,1
767,186,62,0.127061573414621,1
768,184,62,0.137908996346908,1
768,185,62,0.185729731871311,1
768,186,62,0.14872368208186,1
769,185,62,0.156121072885962,1
769,186,62,0.157446823414375,1
769,187,62,0.121421539902438,1
770,185,62,0.114748249056299,1
770,186,62,0.144708818970415,1
770,187,62,0.124647241361864,1
728,182,63,0.113161995208033,1
728,183,63,0.111060646377501,1
728,184,63,0.10505096696423,1
729,181,63,0.133227565973874,1
729,182,63,0.129534018175424,1
729,183,63,0.125650483091723,1
729,184,63,0.116566864504187,1
730,181,63,0.155234223883257,1
730,182,63,0.146521879691123,1
730,183,63,0.135406937528549,1
730,184,63,0.117022831757977,1
731,181,63,0.155298292865027,1
731,182,63,0.147394708027031,1
731,183,63,0.132325268583329,1
731,184,63,0.107096233127572,1
732,180,63,0.160791561115696,1
732,181,63,0.144488503767087,1
732,182,63,0.134368772403509,1
732,183,63,0.119984404824591,1
733,180,63,0.164875713313972,1
733,181,63,0.134777223316362,1
733,182,63,0.112474056747093,1
734,180,63,0.149351801261945,1
734,181,63,0.118486022744845,1
735,180,63,0.114412924230577,1
766,185,63,0.108784256716379,1
767,184,63,0.123883276755425,1
767,185,63,0.16389689899882,1
767,186,63,0.147559319801572,1
767,187,63,0.105475067038195,1
768,184,63,0.12390124596323,1
768,185,63,0.173160075815557,1
768,186,63,0.165764436200545,1
768,187,63,0.119722261856353,1
769,185,63,0.128982572076935,1
769,186,63,0.138649325477655,1
769,187,63,0.113033846090422,1
770,186,63,0.105511451616631,1
729,182,64,0.118176887676992,1
729,183,64,0.105478000558774,1
730,182,64,0.133385005680991,1
730,183,64,0.112396703267188,1
731,181,64,0.150534300061098,1
731,182,64,0.128449619427571,1
731,183,64,0.112965058936771,1
732,181,64,0.129782564331549,1
732,182,64,0.117754605716542,1
732,183,64,0.108185907750839,1
733,180,64,0.133093828666872,1
733,181,64,0.118135160298719,1
734,180,64,0.124883863816471,1
734,181,64,0.107064510950665,1
735,180,64,0.11085625918705,1
761,181,64,0.103138244622333,1
766,185,64,0.10656713978665,1
766,186,64,0.107328193180651,1
767,184,64,0.10824115386273,1
767,185,64,0.157479092140744,1
767,186,64,0.175039704029859,1
767,187,64,0.130119004564335,1
768,184,64,0.105078562135,1
768,185,64,0.161886823928355,1
768,186,64,0.199400874711143,1
768,187,64,0.1563978053786,1
769,185,64,0.108946314208742,1
769,186,64,0.134857365313928,1
769,187,64,0.1203243697437,1
731,182,65,0.115749706134855,1
732,181,65,0.120466126827494,1
732,182,65,0.10998062002534,1
732,183,65,0.103299822489658,1
733,181,65,0.111589003549761,1
734,181,65,0.10561979110478,1
735,213,65,0.103282399831315,1
766,186,65,0.106277212028443,1
767,185,65,0.136414607424453,1
767,186,65,0.177048462919988,1
767,187,65,0.141971531956279,1
768,185,65,0.140627198746175,1
768,186,65,0.207792260520542,1
768,187,65,0.179773313145358,1
768,188,65,0.111937568257335,1
769,186,65,0.132644542701396,1
769,187,65,0.12902310596965,1
767,185,66,0.104204562621674,1
767,186,66,0.145786491813671,1
767,187,66,0.132388311390599,1
768,185,66,0.106348341536929,1
768,186,66,0.171158053984096,1
768,187,66,0.168294971361254,1
768,188,66,0.118423872263226,1
769,186,66,0.111909214609762,1
769,187,66,0.118399957935769,1
767,186,67,0.115208934481971,1
767,187,67,0.11858403356358,1
768,186,67,0.129504024879467,1
768,187,67,0.143463790451241,1
768,188,67,0.121184805907124,1
769,187,67,0.105479071349556,1
768,187,68,0.110891572974704,1
768,188,68,0.112072476741755,1
