x,y,z,signal,mito.p
693,271,32,0.105988723145348,1
691,270,33,0.103297011663856,1
692,270,33,0.12105831874604,1
693,270,33,0.146113272621281,1
693,271,33,0.119986390249165,1
694,271,33,0.152598628531167,1
695,271,33,0.121548272453077,1
691,269,34,0.157008836522461,1
691,270,34,0.103819077940273,1
692,269,34,0.163410023815279,1
692,270,34,0.137524225526028,1
693,269,34,0.151337337376996,1
693,270,34,0.162618452884001,1
693,271,34,0.124999509220892,1
694,270,34,0.154959699896606,1
694,271,34,0.143313433578982,1
695,270,34,0.114770568351654,1
695,271,34,0.110677715978278,1
691,269,35,0.156741841533494,1
691,270,35,0.107212101613405,1
692,269,35,0.178527425762744,1
692,270,35,0.14846619036108,1
693,269,35,0.170613344944275,1
693,270,35,0.166280378892179,1
693,271,35,0.119164859484141,1
694,269,35,0.124680658957508,1
694,270,35,0.138390327957339,1
694,271,35,0.121646785204991,1
691,269,36,0.168817249565014,1
691,270,36,0.1133878428304,1
692,269,36,0.196139469071591,1
692,270,36,0.148582605396375,1
693,269,36,0.180261928363918,1
693,270,36,0.15393063649321,1
693,271,36,0.104148368413778,1
694,269,36,0.130882511853877,1
694,270,36,0.119923927453568,1
671,296,37,0.11225279344776,1
672,296,37,0.107066529837451,1
690,269,37,0.156597452089028,1
690,270,37,0.105877193592995,1
691,269,37,0.199951461946193,1
691,270,37,0.135628178519741,1
692,269,37,0.211435202300487,1
692,270,37,0.147649277381303,1
693,269,37,0.182541229237478,1
693,270,37,0.139113970598405,1
694,269,37,0.151123234991016,1
694,270,37,0.120433646173783,1
695,269,37,0.120167208888349,1
690,270,38,0.119340948797373,1
691,269,38,0.233374456160978,1
691,270,38,0.162740422646475,1
692,269,38,0.215627615908417,1
692,270,38,0.147547195326783,1
693,269,38,0.175636993358688,1
693,270,38,0.130017212515653,1
694,269,38,0.16984233096519,1
694,270,38,0.135903650602396,1
695,269,38,0.147206973864049,1
695,270,38,0.12793268402365,1
691,270,39,0.183593526570022,1
692,269,39,0.201718110578958,1
692,270,39,0.145903709942051,1
693,269,39,0.157681058897865,1
693,270,39,0.120956537851428,1
694,269,39,0.175532937033665,1
694,270,39,0.1479032667239,1
695,269,39,0.165547935689376,1
695,270,39,0.149571424912893,1
696,270,39,0.104026398651303,1
672,298,40,0.107305204641057,1
692,270,40,0.144659685289235,1
693,270,40,0.11274175444251,1
694,270,40,0.149380344528719,1
695,270,40,0.155791090860078,1
663,259,41,0.134775739824967,1
664,259,41,0.144476914687689,1
664,260,41,0.116763399228906,1
665,259,41,0.148354493497668,1
665,260,41,0.122282165685064,1
666,258,41,0.141766207823893,1
666,259,41,0.159401485061889,1
667,258,41,0.156987588017887,1
667,259,41,0.149367952356235,1
668,258,41,0.148455382066628,1
668,259,41,0.120231724032944,1
669,258,41,0.129340483895708,1
670,258,41,0.10921609771537,1
672,298,41,0.111275440315862,1
674,258,41,0.111449309969035,1
691,271,41,0.118978218420082,1
696,270,41,0.128428103225302,1
697,270,41,0.122479681967999,1
697,271,41,0.105997311779743,1
655,283,42,0.133726231010083,1
656,283,42,0.109413067448844,1
656,284,42,0.132515925112819,1
656,285,42,0.119080300474601,1
657,284,42,0.133398680571599,1
657,285,42,0.130599466157256,1
658,285,42,0.121088055498372,1
658,286,42,0.121547815136181,1
659,286,42,0.126274609114518,1
659,287,42,0.121542963115451,1
660,286,42,0.112262151713029,1
660,287,42,0.134842831559881,1
661,287,42,0.11313260423189,1
661,288,42,0.107647545377213,1
663,258,42,0.12224095139404,1
663,259,42,0.124417043651946,1
664,258,42,0.146327586934604,1
664,259,42,0.168781757312229,1
664,260,42,0.12254080627512,1
665,258,42,0.160591680169785,1
665,259,42,0.187998135217854,1
665,260,42,0.131096023074114,1
666,257,42,0.11896065075882,1
666,258,42,0.151449357708458,1
666,259,42,0.161370401611683,1
666,260,42,0.106677353158668,1
667,257,42,0.129564134166159,1
667,258,42,0.147775786850529,1
667,259,42,0.13753328263139,1
668,257,42,0.127734108104003,1
668,258,42,0.127286551019478,1
668,259,42,0.10297325360939,1
669,257,42,0.129887267592669,1
669,258,42,0.110903095129678,1
670,257,42,0.138908099916559,1
670,258,42,0.105183209625767,1
671,257,42,0.143234975846083,1
672,257,42,0.12825563898503,1
672,298,42,0.107016459214338,1
673,257,42,0.111158936048002,1
674,257,42,0.111472633130749,1
674,258,42,0.105275163784142,1
675,258,42,0.114199424164411,1
687,266,42,0.113729123929845,1
690,269,42,0.112793408943655,1
690,270,42,0.120750622553299,1
691,270,42,0.168018506566312,1
691,271,42,0.116767258537348,1
692,269,42,0.125882119676753,1
692,270,42,0.133150669810865,1
693,269,42,0.117610584356407,1
693,270,42,0.105546308087388,1
694,270,42,0.109118644600167,1
696,270,42,0.131276127852776,1
696,271,42,0.109514112174793,1
697,270,42,0.136283658635111,1
697,271,42,0.124741069404108,1
698,271,42,0.125191437314435,1
654,281,43,0.10690276577228,1
654,282,43,0.137900273863666,1
654,283,43,0.159977960894899,1
655,265,43,0.146653062715948,1
655,266,43,0.143772813978388,1
655,283,43,0.124149836735637,1
655,284,43,0.128157750861072,1
655,285,43,0.108341495882229,1
656,264,43,0.142393189288773,1
656,265,43,0.205467283727701,1
656,266,43,0.175714904542125,1
656,267,43,0.103297758986589,1
656,283,43,0.104519419727768,1
656,284,43,0.118533940632325,1
656,285,43,0.107059246229322,1
657,264,43,0.131210028830149,1
657,265,43,0.161404399219001,1
657,266,43,0.121797945170336,1
657,284,43,0.117191068605476,1
657,285,43,0.116798445318864,1
658,261,43,0.108369849529802,1
658,286,43,0.103975491472891,1
659,260,43,0.125791169384735,1
659,287,43,0.105120177972567,1
660,287,43,0.115743448701224,1
662,258,43,0.108393485005494,1
663,257,43,0.15907055494,1
663,258,43,0.122781388424805,1
663,259,43,0.110280084513947,1
664,257,43,0.132054436594061,1
664,258,43,0.167179151596402,1
664,259,43,0.183330881668606,1
664,260,43,0.118129761728528,1
665,257,43,0.132569397727479,1
665,258,43,0.203403579885588,1
665,259,43,0.230624665433651,1
665,260,43,0.135996519394564,1
666,256,43,0.113784526198726,1
666,257,43,0.128526114044037,1
666,258,43,0.166439179395915,1
666,259,43,0.168807523215413,1
667,256,43,0.124363504112863,1
667,257,43,0.130729790318641,1
667,258,43,0.144489463017162,1
667,259,43,0.125987257946628,1
668,256,43,0.126255078336823,1
668,257,43,0.126061867525155,1
668,258,43,0.123395553862516,1
669,256,43,0.137218782455557,1
669,257,43,0.135213503635469,1
669,258,43,0.109309914603543,1
670,256,43,0.172224461216003,1
670,257,43,0.166877077055265,1
670,258,43,0.113212400453266,1
671,256,43,0.192321497615126,1
671,257,43,0.170423591894506,1
671,258,43,0.109437260628067,1
672,257,43,0.130440197182553,1
673,257,43,0.104875446508602,1
674,257,43,0.103743821425649,1
675,257,43,0.109357598255539,1
675,258,43,0.104579696325519,1
676,257,43,0.105171174383544,1
687,265,43,0.111910530790098,1
687,266,43,0.10794684255476,1
688,264,43,0.105937247109333,1
688,265,43,0.116027074409519,1
691,270,43,0.127264387881111,1
692,268,43,0.109568276341832,1
692,269,43,0.114868924946579,1
692,270,43,0.126736131095488,1
693,268,43,0.12565200004533,1
693,269,43,0.116260986424961,1
693,270,43,0.109494458702321,1
694,269,43,0.112758440932191,1
696,270,43,0.127970975948165,1
696,271,43,0.112786961890824,1
697,270,43,0.1401791285744,1
697,271,43,0.134121007032329,1
698,271,43,0.147213075140691,1
654,281,44,0.133732722679197,1
654,282,44,0.150542297529748,1
654,283,44,0.149536423439218,1
655,265,44,0.180992062674098,1
655,266,44,0.208805942460522,1
655,267,44,0.142153242921114,1
655,277,44,0.103919252648713,1
655,283,44,0.113563285207534,1
655,284,44,0.114780785480363,1
656,264,44,0.159079890897127,1
656,265,44,0.265698573644216,1
656,266,44,0.254457925105502,1
656,267,44,0.141213534777634,1
656,284,44,0.104035935381703,1
657,264,44,0.14566389742324,1
657,265,44,0.19770371593848,1
657,266,44,0.157403534466212,1
658,261,44,0.109683631740416,1
659,260,44,0.107154925847292,1
662,258,44,0.110516561965636,1
663,257,44,0.172625762369574,1
663,258,44,0.122777584886716,1
664,257,44,0.149913141021094,1
664,258,44,0.16972494552575,1
664,259,44,0.175101731816701,1
664,260,44,0.104336939132058,1
665,257,44,0.145198304206486,1
665,258,44,0.213640451299052,1
665,259,44,0.236616119095492,1
665,260,44,0.126250739403343,1
666,256,44,0.123242085004548,1
666,257,44,0.132629518168241,1
666,258,44,0.164663908666543,1
666,259,44,0.16509428848228,1
667,256,44,0.131920810827765,1
667,257,44,0.129210338199453,1
667,258,44,0.130849451188493,1
667,259,44,0.109453935963677,1
668,256,44,0.126585640374381,1
668,257,44,0.122701369122017,1
668,258,44,0.114605610800924,1
669,256,44,0.134913793757308,1
669,257,44,0.135876445824099,1
669,258,44,0.105202383473201,1
670,256,44,0.180185957988773,1
670,257,44,0.18502006528076,1
670,258,44,0.115740280945162,1
671,256,44,0.19536816508667,1
671,257,44,0.183298122163129,1
671,258,44,0.109753266603436,1
672,257,44,0.124891102808318,1
689,264,44,0.107145902204143,1
692,268,44,0.104096780837057,1
692,269,44,0.109272559620961,1
692,270,44,0.114781733576367,1
693,267,44,0.128069622548926,1
693,268,44,0.1223574556619,1
693,269,44,0.112147387480189,1
693,270,44,0.106695690450804,1
694,268,44,0.143729580800579,1
695,269,44,0.113663169910137,1
696,269,44,0.139976035256143,1
696,270,44,0.112731046534693,1
696,271,44,0.103101692732837,1
697,270,44,0.12849110141629,1
697,271,44,0.124431421249004,1
698,270,44,0.136334878127501,1
698,271,44,0.148973510956108,1
698,272,44,0.115542586197096,1
699,271,44,0.137421206529575,1
653,280,45,0.120274867978189,1
653,281,45,0.180741441860834,1
654,266,45,0.12758003692622,1
654,267,45,0.119311412818312,1
654,277,45,0.112350157330397,1
654,278,45,0.10488497208493,1
654,281,45,0.152135266128541,1
654,282,45,0.152963087789407,1
654,283,45,0.135943872181132,1
655,265,45,0.187451563448235,1
655,266,45,0.24938759690545,1
655,267,45,0.185461900327046,1
655,277,45,0.145382134444743,1
655,278,45,0.123552324325395,1
655,283,45,0.103441635343805,1
655,284,45,0.105588113544156,1
656,264,45,0.154840384802945,1
656,265,45,0.27418450135638,1
656,266,45,0.293517472762429,1
656,267,45,0.168946346778629,1
657,263,45,0.10957066331295,1
657,264,45,0.144340132319402,1
657,265,45,0.198990561068492,1
657,266,45,0.171008154428733,1
662,258,45,0.116581543261152,1
663,257,45,0.175473095444669,1
663,258,45,0.124950989013597,1
664,257,45,0.171322297674305,1
664,258,45,0.164951170601867,1
664,259,45,0.154253669533084,1
665,257,45,0.164814321309156,1
665,258,45,0.205722890410542,1
665,259,45,0.211472256123161,1
665,260,45,0.113745609646254,1
666,256,45,0.133274089602523,1
666,257,45,0.146145106338894,1
666,258,45,0.164510662889988,1
666,259,45,0.157802035948053,1
667,256,45,0.136558283008397,1
667,257,45,0.132697491074736,1
667,258,45,0.122535987716602,1
668,256,45,0.12711156595924,1
668,257,45,0.119742562264922,1
668,258,45,0.104006432864853,1
669,256,45,0.133505034635174,1
669,257,45,0.133450714311146,1
670,256,45,0.175806791776077,1
670,257,45,0.18290692659756,1
670,258,45,0.111708006329444,1
671,257,45,0.173985744740789,1
671,258,45,0.10297672252536,1
672,257,45,0.11542093990267,1
685,260,45,0.118939781492648,1
691,264,45,0.109907159316089,1
692,265,45,0.105110462777037,1
693,266,45,0.110405857814511,1
693,267,45,0.11721300866243,1
693,268,45,0.113951837258362,1
693,269,45,0.104160883281039,1
694,267,45,0.144102840620555,1
694,268,45,0.129083694881379,1
695,268,45,0.143212377698962,1
696,269,45,0.126956044752273,1
697,269,45,0.144002755144681,1
697,270,45,0.115716422388058,1
697,271,45,0.108903371036769,1
698,270,45,0.13649026548562,1
698,271,45,0.136807096862217,1
698,272,45,0.116521735134368,1
699,271,45,0.137500846593962,1
699,272,45,0.108569384699524,1
652,281,46,0.168163554100946,1
653,273,46,0.125517403874888,1
653,274,46,0.129339167715372,1
653,275,46,0.109628552939584,1
653,280,46,0.138596577877587,1
653,281,46,0.202708859749697,1
653,282,46,0.184778635421706,1
654,265,46,0.105345222501847,1
654,266,46,0.141135010120311,1
654,267,46,0.150520067466958,1
654,268,46,0.11322705690209,1
654,277,46,0.138571771224479,1
654,278,46,0.132757410742227,1
654,280,46,0.116016511504621,1
654,281,46,0.162472568794069,1
654,282,46,0.151130585523569,1
654,283,46,0.127543418112301,1
655,264,46,0.107252512811342,1
655,265,46,0.176373095096662,1
655,266,46,0.252660870476165,1
655,267,46,0.214001932420431,1
655,268,46,0.119351255158646,1
655,277,46,0.162334358704739,1
655,278,46,0.14652530399081,1
656,263,46,0.119627697645447,1
656,264,46,0.142973055959259,1
656,265,46,0.23646118905427,1
656,266,46,0.274359553341041,1
656,267,46,0.176090807876844,1
657,262,46,0.117597589864109,1
657,263,46,0.123106875360221,1
657,264,46,0.134376803334371,1
657,265,46,0.171545033310963,1
657,266,46,0.157918272518217,1
662,258,46,0.117674285253846,1
663,257,46,0.166220860771232,1
663,258,46,0.122484132442186,1
664,257,46,0.187208873179198,1
664,258,46,0.153740046888144,1
664,259,46,0.126283264673336,1
665,256,46,0.156287815087995,1
665,257,46,0.181365378264428,1
665,258,46,0.181149569305639,1
665,259,46,0.164092920636289,1
666,256,46,0.13054466620819,1
666,257,46,0.156219072550626,1
666,258,46,0.153668348522054,1
666,259,46,0.135414265752961,1
667,256,46,0.124431019702461,1
667,257,46,0.129557330183067,1
667,258,46,0.111026291839923,1
668,256,46,0.118163525100362,1
668,257,46,0.11076960321223,1
669,256,46,0.127672325706715,1
669,257,46,0.122409645558436,1
670,256,46,0.16184384729417,1
670,257,46,0.156118038978748,1
671,257,46,0.145124966192012,1
672,257,46,0.104615567816705,1
674,256,46,0.116412481012426,1
675,256,46,0.119718525242688,1
676,256,46,0.150599239060378,1
677,256,46,0.14801004464216,1
678,256,46,0.115139879630624,1
680,301,46,0.105680056548461,1
684,259,46,0.10458024287498,1
685,259,46,0.143867400497436,1
685,260,46,0.116049304472309,1
686,260,46,0.110872644516824,1
691,263,46,0.11633649948321,1
691,264,46,0.106984257412393,1
694,266,46,0.103191271074166,1
694,267,46,0.11820603326358,1
694,268,46,0.105297293460297,1
695,267,46,0.130138791885655,1
695,268,46,0.11852951246628,1
696,268,46,0.136680899706969,1
696,269,46,0.107424463964366,1
697,268,46,0.153879249689761,1
697,269,46,0.132594985165532,1
698,269,46,0.159530504197009,1
698,270,46,0.12694800266734,1
698,271,46,0.115595579186718,1
699,270,46,0.142198338828721,1
699,271,46,0.125581238621175,1
700,271,46,0.119716104809359,1
701,272,46,0.112861839167046,1
652,274,47,0.173548784023373,1
652,276,47,0.117695098749664,1
652,280,47,0.128315714809509,1
652,281,47,0.17458620182568,1
653,267,47,0.127327865697137,1
653,268,47,0.14580731646356,1
653,269,47,0.133533187509475,1
653,273,47,0.159374280283592,1
653,274,47,0.168348510900338,1
653,275,47,0.137263320659632,1
653,276,47,0.105928881556352,1
653,279,47,0.106716961263519,1
653,280,47,0.156400359660777,1
653,281,47,0.212871199663129,1
653,282,47,0.175278579606736,1
654,265,47,0.118898667588261,1
654,266,47,0.157912818177673,1
654,267,47,0.188190230622457,1
654,268,47,0.166759290069281,1
654,269,47,0.119245034943919,1
654,273,47,0.112132942958707,1
654,274,47,0.106216154645746,1
654,277,47,0.142499777587831,1
654,278,47,0.146705866086369,1
654,279,47,0.123822297451223,1
654,280,47,0.137128256018223,1
654,281,47,0.162847334413583,1
654,282,47,0.140387798927978,1
654,283,47,0.117146296165918,1
655,264,47,0.114235619123645,1
655,265,47,0.157807802602575,1
655,266,47,0.226643866853948,1
655,267,47,0.2235214409346,1
655,268,47,0.142655343411081,1
655,277,47,0.150783002374211,1
655,278,47,0.155164220935905,1
655,279,47,0.116909071391495,1
656,263,47,0.14754748533262,1
656,264,47,0.133385652617089,1
656,265,47,0.179237661210898,1
656,266,47,0.216446436234275,1
656,267,47,0.166376660829965,1
657,262,47,0.139462970314735,1
657,263,47,0.131829972076453,1
657,264,47,0.120652109801385,1
657,265,47,0.134225977991145,1
657,266,47,0.13070337747936,1
658,261,47,0.102914605505953,1
662,258,47,0.113355585258102,1
663,257,47,0.145887123839006,1
663,258,47,0.114038091686639,1
664,257,47,0.182789864626168,1
664,258,47,0.136511223984357,1
665,256,47,0.157534750953249,1
665,257,47,0.182930249759273,1
665,258,47,0.150505232553003,1
665,259,47,0.117636104870037,1
666,256,47,0.120975343614531,1
666,257,47,0.154476037085411,1
666,258,47,0.133135924129476,1
666,259,47,0.106099851151158,1
667,256,47,0.107376412228038,1
667,257,47,0.122341159564691,1
668,256,47,0.107983907531505,1
669,255,47,0.149396741012563,1
669,256,47,0.121612006812728,1
669,257,47,0.107923798244813,1
670,256,47,0.145329911085995,1
670,257,47,0.120997707526169,1
671,257,47,0.113146468741699,1
674,256,47,0.113055395754903,1
675,255,47,0.15448539535068,1
675,256,47,0.110666283055869,1
676,255,47,0.177882698171473,1
676,256,47,0.129164773820879,1
677,255,47,0.157184758524632,1
677,256,47,0.123641155343991,1
685,258,47,0.124810681958987,1
685,259,47,0.118029029316556,1
685,260,47,0.105230826353339,1
686,259,47,0.134871999454611,1
686,260,47,0.112612010292798,1
687,260,47,0.128988182574468,1
691,263,47,0.119576823929247,1
692,263,47,0.105265638207814,1
695,267,47,0.107918198901351,1
696,267,47,0.127705297139534,1
696,268,47,0.117960487552459,1
697,267,47,0.141235887535201,1
697,268,47,0.146315819390076,1
697,269,47,0.115366162261746,1
698,268,47,0.177421756202176,1
698,269,47,0.15013359007327,1
698,270,47,0.112707210285731,1
699,269,47,0.186970399148864,1
699,270,47,0.136534279448375,1
699,271,47,0.110557318939764,1
700,270,47,0.146446734717205,1
700,271,47,0.11305429150191,1
701,271,47,0.118419823335583,1
702,272,47,0.118959669200604,1
705,275,47,0.112324424889425,1
652,273,48,0.183165712190534,1
652,274,48,0.20506912802205,1
652,275,48,0.181723747400098,1
652,276,48,0.145703505528091,1
652,277,48,0.114785827120293,1
652,279,48,0.102930901603161,1
652,280,48,0.128695722842225,1
652,281,48,0.169789159510438,1
652,282,48,0.155639652042966,1
653,267,48,0.198075681886262,1
653,268,48,0.22321635479439,1
653,269,48,0.20759880431932,1
653,270,48,0.154694433788589,1
653,271,48,0.104232893961106,1
653,272,48,0.121311359992633,1
653,273,48,0.198239490567716,1
653,274,48,0.207049265566911,1
653,275,48,0.159943126732283,1
653,276,48,0.12555354306377,1
653,277,48,0.112717204333026,1
653,278,48,0.10772284650812,1
653,279,48,0.119945577504684,1
653,280,48,0.167000731082406,1
653,281,48,0.208930288040043,1
653,282,48,0.172082001425758,1
653,283,48,0.132750238674804,1
654,265,48,0.142375275851321,1
654,266,48,0.201974631895591,1
654,267,48,0.255459226027069,2
654,268,48,0.241116541210142,1
654,269,48,0.171223907617168,1
654,270,48,0.105922367579096,1
654,273,48,0.136593273328003,1
654,274,48,0.125919865051807,1
654,277,48,0.127962967325444,1
654,278,48,0.148002381795629,1
654,279,48,0.154077736376842,1
654,280,48,0.163573687493815,1
654,281,48,0.162835243401006,1
654,282,48,0.136042942636578,1
654,283,48,0.113380458835635,1
655,264,48,0.128693938190922,1
655,265,48,0.142554309839202,1
655,266,48,0.200278432373004,1
655,267,48,0.222129680616126,1
655,268,48,0.164572835679748,1
655,277,48,0.123951350048556,1
655,278,48,0.156305706217306,1
655,279,48,0.150732240198717,1
655,280,48,0.126199084902198,1
655,281,48,0.103555406864358,1
656,263,48,0.184510301944262,1
656,264,48,0.135122096026554,1
656,265,48,0.13091347555398,1
656,266,48,0.154115492905966,1
656,267,48,0.141549517693524,1
657,262,48,0.165512387666239,1
657,263,48,0.140635898921276,1
657,264,48,0.111505894569404,1
658,261,48,0.134882952751981,1
658,262,48,0.119343960396446,1
659,260,48,0.112884203078684,1
659,261,48,0.112737538203807,1
662,258,48,0.113899446588554,1
663,257,48,0.130981995009936,1
663,258,48,0.109261372088107,1
664,257,48,0.167125957833508,1
664,258,48,0.123163069568117,1
665,256,48,0.151728677945484,1
665,257,48,0.173624330543834,1
665,258,48,0.129234609457171,1
666,256,48,0.112286211043404,1
666,257,48,0.143814965211346,1
666,258,48,0.114211693642117,1
667,257,48,0.111519959852484,1
669,255,48,0.146070809074345,1
669,256,48,0.111187713550259,1
670,256,48,0.129673444058454,1
674,256,48,0.114305967847187,1
675,255,48,0.141077399345443,1
675,256,48,0.108970105841422,1
676,255,48,0.143599278947334,1
676,256,48,0.11100905880078,1
685,258,48,0.104830752147538,1
686,258,48,0.11552476199221,1
686,259,48,0.114937779024654,1
686,260,48,0.103939385746222,1
687,259,48,0.132979878681189,1
687,260,48,0.11632105109537,1
688,260,48,0.137163380186676,1
691,262,48,0.111698257671703,1
691,263,48,0.110753440963869,1
696,267,48,0.105140087988663,1
697,267,48,0.123365950959031,1
697,268,48,0.125100230478792,1
698,268,48,0.156954192730384,1
698,269,48,0.129343551265135,1
699,269,48,0.179448763151876,1
699,270,48,0.12150455965023,1
700,270,48,0.140922926621117,1
701,271,48,0.105376978140966,1
651,274,49,0.157191651740289,1
651,275,49,0.153701141489743,1
651,276,49,0.146057836890188,1
651,277,49,0.13317593378087,1
652,270,49,0.188492282855453,1
652,272,49,0.161199744330854,1
652,273,49,0.197115427944659,1
652,274,49,0.218534009787563,1
652,275,49,0.202504941030213,1
652,276,49,0.180634139701255,1
652,277,49,0.154822092127091,1
652,278,49,0.125074687657021,1
652,279,49,0.113935786550707,1
652,280,49,0.126946028396836,1
652,281,49,0.157991543608267,1
652,282,49,0.165050776452704,1
653,267,49,0.27272233654401,2
653,268,49,0.279136127936655,1
653,269,49,0.251488711500498,1
653,270,49,0.212894154740511,1
653,271,49,0.136689566419858,1
653,272,49,0.136346578747605,1
653,273,49,0.220853744167202,1
653,274,49,0.225873968281928,1
653,275,49,0.173449111248113,1
653,276,49,0.149290442719341,1
653,277,49,0.136712075334415,1
653,278,49,0.121270435707446,1
653,279,49,0.133255908467376,1
653,280,49,0.165154118917206,1
653,281,49,0.188970457863892,1
653,282,49,0.174668898105423,1
653,283,49,0.144238317962578,1
654,265,49,0.169171368999768,1
654,266,49,0.260561387944734,2
654,267,49,0.335819597987663,2
654,268,49,0.303495168190447,2
654,269,49,0.203355416608554,1
654,270,49,0.133177963821727,1
654,272,49,0.103418669112353,1
654,273,49,0.153016560404066,1
654,274,49,0.138570086959812,1
654,275,49,0.104067579480115,1
654,277,49,0.111462471772393,1
654,278,49,0.141662039958164,1
654,279,49,0.181991991644976,1
654,280,49,0.185553140624901,1
654,281,49,0.161748836920438,1
654,282,49,0.138055125826394,1
654,283,49,0.11884952275301,1
654,284,49,0.105877907453516,1
655,264,49,0.151252365666843,1
655,265,49,0.139702102435237,1
655,266,49,0.192832354050547,1
655,267,49,0.225241153238103,2
655,268,49,0.181252867153859,1
655,269,49,0.108439640549812,1
655,278,49,0.14980976509438,1
655,279,49,0.178494744335762,1
655,280,49,0.148894729755161,1
655,281,49,0.112384523022046,1
655,285,49,0.104025606712288,1
656,263,49,0.211793783363498,1
656,264,49,0.145005706868703,1
656,265,49,0.109252749991501,1
656,266,49,0.118379925224895,1
656,267,49,0.121050544358802,1
657,262,49,0.177216498994215,1
657,263,49,0.140713218938969,1
657,264,49,0.108138469488397,1
658,261,49,0.17467562401002,1
658,262,49,0.139839598664046,1
659,260,49,0.129215814848138,1
659,261,49,0.140194766581441,1
659,262,49,0.115105402398268,1
661,259,49,0.115825308425669,1
662,258,49,0.115762912554495,1
663,257,49,0.122948186397191,1
663,258,49,0.107271842815766,1
664,257,49,0.14809754832635,1
664,258,49,0.115938812248526,1
665,257,49,0.154946437706612,1
665,258,49,0.116683971091861,1
666,256,49,0.108767001369095,1
666,257,49,0.126555568999929,1
669,256,49,0.105264243948984,1
672,257,49,0.10514297689296,1
674,256,49,0.124748854945416,1
675,255,49,0.141392345684102,1
675,256,49,0.116104751357473,1
676,255,49,0.127983959286393,1
676,256,49,0.107368325526822,1
683,257,49,0.103903625795743,1
687,258,49,0.116427126307179,1
687,259,49,0.120966721517924,1
688,259,49,0.132032128452776,1
691,261,49,0.108915216659791,1
691,262,49,0.112356180528544,1
692,262,49,0.122839400746216,1
698,267,49,0.104116300460681,1
698,268,49,0.125211369638673,1
698,269,49,0.107135316991103,1
699,268,49,0.155983632427507,1
699,269,49,0.157821154025134,1
699,270,49,0.109267964143857,1
700,269,49,0.19007040538622,1
700,270,49,0.134253762781115,1
701,270,49,0.128370905151048,1
702,271,49,0.103412512065358,1
704,273,49,0.1103964772411,1
705,274,49,0.118116544154816,1
651,274,50,0.177871387943842,1
651,275,50,0.175586454264607,1
651,276,50,0.164514511044359,1
651,277,50,0.147211234719035,1
651,278,50,0.12166638290711,1
652,267,50,0.17171948297581,2
652,270,50,0.204088618288161,1
652,271,50,0.195373608273144,1
652,272,50,0.185904806164114,1
652,273,50,0.20159260497609,1
652,274,50,0.216532411810787,1
652,275,50,0.215126106584194,1
652,276,50,0.2119382731946,1
652,277,50,0.196804720152845,1
652,278,50,0.146085755529006,1
652,279,50,0.120203749623773,1
652,280,50,0.124477944877654,1
652,281,50,0.146051334067003,1
652,282,50,0.175060495217536,1
653,266,50,0.23904436027434,2
653,267,50,0.321276496829433,2
653,268,50,0.302121879012956,2
653,269,50,0.249256781964956,1
653,270,50,0.237813397038246,1
653,271,50,0.163093248209035,1
653,272,50,0.149583783623165,1
653,273,50,0.217372558719713,1
653,274,50,0.216571317209187,1
653,275,50,0.176060914967522,1
653,276,50,0.171258775241996,1
653,277,50,0.170740914050212,1
653,278,50,0.140291963153018,1
653,279,50,0.142075064039981,1
653,280,50,0.154972672080763,1
653,281,50,0.164368303486379,1
653,282,50,0.175138752177163,1
653,283,50,0.165213659346295,1
654,266,50,0.300372006102437,2
654,267,50,0.399904887008818,2
654,268,50,0.339237316773197,2
654,269,50,0.20923617727334,2
654,270,50,0.14810953895229,1
654,271,50,0.103221007826499,1
654,272,50,0.108997745628474,1
654,273,50,0.153323977745041,1
654,274,50,0.13798282514049,1
654,275,50,0.106707346454625,1
654,276,50,0.103136716514655,1
654,277,50,0.111114297457291,1
654,278,50,0.138813401856805,1
654,279,50,0.19431437310866,1
654,280,50,0.191975565268223,1
654,281,50,0.157496090944403,1
654,282,50,0.138113238534441,1
654,283,50,0.127826541887417,1
654,284,50,0.115328171497138,1
654,285,50,0.105727416732409,1
655,265,50,0.136880557571468,1
655,266,50,0.192213124664764,1
655,267,50,0.235803388892205,2
655,268,50,0.194129706315105,2
655,269,50,0.116081550890537,1
655,278,50,0.133817036299183,1
655,279,50,0.179033697875132,1
655,280,50,0.152555071885308,1
655,281,50,0.117313763382542,1
655,282,50,0.105949460816687,1
655,283,50,0.105732759532246,1
655,284,50,0.108975047094717,1
655,285,50,0.117686498961199,1
655,286,50,0.108519269460128,1
656,264,50,0.148905415354836,1
656,267,50,0.109523526210415,1
657,263,50,0.134770185097787,1
658,261,50,0.203266139427132,1
658,262,50,0.14805884370122,1
659,260,50,0.135037737790286,1
659,261,50,0.155621158593841,1
659,262,50,0.121928905113749,1
660,260,50,0.107722433807506,1
661,259,50,0.128256720929882,1
661,260,50,0.103859846068471,1
662,259,50,0.111825815623569,1
663,258,50,0.110521793224768,1
663,259,50,0.104733187491629,1
664,257,50,0.132823052447957,1
664,258,50,0.114537693664782,1
665,257,50,0.131345015393064,1
665,258,50,0.105521568358703,1
666,257,50,0.105561767629299,1
672,257,50,0.111390862638869,1
673,256,50,0.17103067449736,1
674,255,50,0.15937859690893,1
674,256,50,0.134550907223028,1
675,255,50,0.141021617838161,1
675,256,50,0.119837583792725,1
676,255,50,0.118246756775496,1
676,256,50,0.108134487485177,1
677,256,50,0.1036756031296,1
684,257,50,0.120612579775029,1
687,258,50,0.103753547775249,1
687,259,50,0.105726557868969,1
688,259,50,0.111109925061599,1
691,261,50,0.104067479093479,1
692,261,50,0.109430980886295,1
692,262,50,0.124254138450214,1
693,262,50,0.120911207708337,1
699,268,50,0.11337707915223,1
699,269,50,0.122428440167468,1
700,268,50,0.139297477368614,1
700,269,50,0.152202380171596,1
700,270,50,0.117040354802956,1
701,269,50,0.132542549879442,1
701,270,50,0.108738067709849,1
703,271,50,0.108662878119649,1
704,273,50,0.111700711567244,1
705,274,50,0.123020096690623,1
651,274,51,0.203864086846129,1
651,275,51,0.198065353216847,1
651,276,51,0.179914902918092,1
651,277,51,0.15652560872002,1
651,278,51,0.128043410482917,1
652,267,51,0.198708496930087,2
652,270,51,0.205733352928805,1
652,271,51,0.221737235794644,1
652,272,51,0.211653643619947,1
652,273,51,0.205710821706107,1
652,274,51,0.212745738676544,1
652,275,51,0.224204382371893,1
652,276,51,0.23121221725881,1
652,277,51,0.223316852970878,1
652,278,51,0.161738028625985,1
652,279,51,0.12819105691601,1
652,280,51,0.128654508551201,1
652,281,51,0.142946442346706,1
652,282,51,0.187074935098925,1
653,266,51,0.25014966531988,2
653,267,51,0.324343130087427,2
653,268,51,0.301444313837713,2
653,269,51,0.230071691227484,1
653,270,51,0.231594779573702,1
653,271,51,0.191831945454631,1
653,272,51,0.170084396606271,1
653,273,51,0.201923590868332,1
653,274,51,0.197091402076495,1
653,275,51,0.174281718005285,1
653,276,51,0.185416514413602,1
653,277,51,0.198282389123407,1
653,278,51,0.158575492668608,1
653,279,51,0.147744577760871,1
653,280,51,0.147889614141434,1
653,281,51,0.147851556452402,1
653,282,51,0.173425263845079,1
653,283,51,0.191583209679306,1
654,266,51,0.293326805078868,2
654,267,51,0.391124714913108,2
654,268,51,0.325074792505285,2
654,269,51,0.199860199340197,2
654,270,51,0.156371727161438,1
654,271,51,0.122203473716682,1
654,272,51,0.119807088563589,1
654,273,51,0.150110222295274,1
654,274,51,0.138266004685959,1
654,275,51,0.111936575545048,1
654,276,51,0.112600666602955,1
654,277,51,0.124627877895229,1
654,278,51,0.141739460362493,1
654,279,51,0.186316145981264,1
654,280,51,0.182472899400723,1
654,281,51,0.154229922516687,1
654,282,51,0.140032608702442,1
654,283,51,0.14160258876164,1
654,284,51,0.132972516994565,1
654,285,51,0.125647761498486,1
655,265,51,0.138983624128878,1
655,266,51,0.184519615593248,1
655,267,51,0.229808901323149,2
655,268,51,0.191236451931176,2
655,269,51,0.120636259867002,1
655,278,51,0.119937936966294,1
655,279,51,0.156866187113015,1
655,280,51,0.140891873688449,1
655,281,51,0.120195595998134,1
655,282,51,0.111812218811456,1
655,283,51,0.115811388145507,1
655,284,51,0.123773587624728,1
655,285,51,0.13399791070872,1
655,286,51,0.116349025504541,1
656,267,51,0.103805358433383,1
657,263,51,0.134126494835085,1
658,261,51,0.222136016128251,1
658,262,51,0.159870826046379,1
659,260,51,0.143278019404692,1
659,261,51,0.164195515778058,1
659,262,51,0.131227317639645,1
660,260,51,0.12060010952405,1
660,261,51,0.107755304853689,1
661,259,51,0.135216280999058,1
661,260,51,0.113619590956137,1
662,258,51,0.119258553677537,1
662,259,51,0.121368814610512,1
662,260,51,0.114721088894284,1
663,258,51,0.119984494057156,1
663,259,51,0.122376406427921,1
663,260,51,0.113751030524587,1
664,257,51,0.129247492408763,1
664,258,51,0.124754431980737,1
664,259,51,0.115653067266809,1
665,258,51,0.105435336238567,1
670,256,51,0.118385067251461,1
672,257,51,0.112886255427682,1
673,256,51,0.172797724676668,1
673,257,51,0.110999800922147,1
674,255,51,0.17294587304294,1
674,256,51,0.14709412813136,1
675,255,51,0.138760397713112,1
675,256,51,0.122412467538308,1
676,255,51,0.114731763339889,1
676,256,51,0.117045318364392,1
677,255,51,0.105797776610021,1
677,256,51,0.122864709332504,1
678,256,51,0.10663155454461,1
684,256,51,0.16163583503076,1
684,257,51,0.109917833761694,1
685,257,51,0.118717324707757,1
690,260,51,0.106310629624087,1
692,261,51,0.10703456227099,1
692,262,51,0.121393978193881,1
693,262,51,0.131103875539846,1
700,268,51,0.10736602778827,1
700,269,51,0.114338191957273,1
701,268,51,0.113941028963909,1
701,269,51,0.105483767213296,1
704,272,51,0.120733701828134,1
704,273,51,0.111563494190202,1
705,273,51,0.140584255574202,1
705,274,51,0.13180282306851,1
651,274,52,0.220160407136071,1
651,275,52,0.213564313612847,1
651,276,52,0.188939628012636,1
651,277,52,0.158803638029527,1
651,278,52,0.134879851920343,1
652,270,52,0.194909554318138,1
652,271,52,0.238573346179253,1
652,272,52,0.235108311826054,1
652,273,52,0.203766711809421,1
652,274,52,0.203272430322975,1
652,275,52,0.227040170983872,1
652,276,52,0.235888115212805,1
652,277,52,0.224062502593321,1
652,278,52,0.166558193329669,1
652,279,52,0.134282618361867,1
652,280,52,0.13663159871473,1
652,281,52,0.144068530699259,1
652,282,52,0.199784240119122,1
653,267,52,0.28973590819254,2
653,268,52,0.286612723796389,1
653,269,52,0.212381424421222,1
653,270,52,0.20619861152344,1
653,271,52,0.21809987105002,1
653,272,52,0.199360006196309,1
653,273,52,0.189766100030955,1
653,274,52,0.185358624786968,1
653,275,52,0.178269610573916,1
653,276,52,0.194200891593944,1
653,277,52,0.209084994999853,1
653,278,52,0.171722148798693,1
653,279,52,0.151736006169896,1
653,280,52,0.14972747036118,1
653,281,52,0.140579816254087,1
653,282,52,0.172651996743725,1
653,283,52,0.225674511190701,1
653,284,52,0.170321643688835,1
654,266,52,0.244546038694274,1
654,267,52,0.323699651752068,2
654,268,52,0.280331732768812,2
654,269,52,0.187234237535839,1
654,270,52,0.157658148436766,1
654,271,52,0.148166179323012,1
654,272,52,0.141788415578542,1
654,273,52,0.156791923310678,1
654,274,52,0.157865201450101,1
654,275,52,0.134118051203609,1
654,276,52,0.132376354226871,1
654,277,52,0.146730460812136,1
654,278,52,0.149867152787835,1
654,279,52,0.166971663574312,1
654,280,52,0.16769445850601,1
654,281,52,0.14951528647535,1
654,282,52,0.141935961625,1
654,283,52,0.158858649905935,1
654,284,52,0.151164716979735,1
654,285,52,0.139553262516585,1
655,265,52,0.13573911690635,1
655,266,52,0.162297003722158,1
655,267,52,0.202075710083753,1
655,268,52,0.17532831560773,1
655,269,52,0.125422348884874,1
655,274,52,0.104144576029759,1
655,278,52,0.112786225722161,1
655,279,52,0.129027656830472,1
655,280,52,0.127661205098285,1
655,281,52,0.121341119053107,1
655,282,52,0.115488187794573,1
655,283,52,0.121239260080001,1
655,284,52,0.13152587864853,1
655,285,52,0.139755418892908,1
655,286,52,0.113662667976958,1
657,263,52,0.148799652457005,1
658,262,52,0.170316133577938,1
658,263,52,0.114373583823421,1
659,261,52,0.157675481862544,1
659,262,52,0.133942753829393,1
660,260,52,0.128531010681049,1
660,261,52,0.117351374908749,1
661,260,52,0.119884776665613,1
662,259,52,0.131141576298617,1
662,260,52,0.128904080881825,1
663,258,52,0.127778400918524,1
663,259,52,0.13752877638685,1
663,260,52,0.134333570156561,1
664,258,52,0.130500183774468,1
664,259,52,0.124729814946829,1
664,260,52,0.107581212119103,1
670,256,52,0.109926511628654,1
672,257,52,0.107875668429991,1
673,256,52,0.177549169151124,1
673,257,52,0.116973419225031,1
674,255,52,0.172760035071967,1
674,256,52,0.154919846402201,1
675,255,52,0.127290321095355,1
675,256,52,0.117866269117742,1
676,255,52,0.106660755901552,1
676,256,52,0.120647425091715,1
677,255,52,0.105650910961873,1
677,256,52,0.139390335006712,1
677,257,52,0.120879530147713,1
678,256,52,0.112431570892016,1
678,257,52,0.104335087556331,1
692,262,52,0.104490519530733,1
693,261,52,0.103572238356957,1
693,262,52,0.121742520593314,1
704,272,52,0.111019008231793,1
705,273,52,0.127601430433712,1
705,274,52,0.125938046186954,1
706,274,52,0.164603364371096,1
706,275,52,0.140413553677091,1
651,274,53,0.226682036083686,1
651,275,53,0.217918282779962,1
651,276,53,0.197187349392161,1
651,277,53,0.164808576962775,1
651,278,53,0.14772979861727,1
651,279,53,0.15095818820772,1
651,280,53,0.163657231482927,1
652,271,53,0.232085246367989,1
652,272,53,0.248530339652159,1
652,273,53,0.202297096077863,1
652,274,53,0.195433728713906,1
652,275,53,0.22207072019871,1
652,276,53,0.23112575090319,1
652,277,53,0.212656104564861,1
652,278,53,0.170674279632194,1
652,279,53,0.1500889737907,1
652,280,53,0.153539809011972,1
652,281,53,0.152684659878032,1
652,282,53,0.207197436241324,1
652,283,53,0.276622714274382,1
653,269,53,0.204465982806134,1
653,270,53,0.181216638732412,1
653,271,53,0.224290558721676,1
653,272,53,0.22570627798389,1
653,273,53,0.182578918842179,1
653,274,53,0.181519270977081,1
653,275,53,0.187996305950268,1
653,276,53,0.201343400729797,1
653,277,53,0.210429774372782,1
653,278,53,0.181648568963968,1
653,279,53,0.156733933297408,1
653,280,53,0.154102621108445,1
653,281,53,0.137599102802251,1
653,282,53,0.165404650497904,1
653,283,53,0.235518603160564,1
653,284,53,0.188714338093801,1
654,267,53,0.235066372520439,1
654,268,53,0.225224845986823,1
654,269,53,0.176042555367245,1
654,270,53,0.154674981089389,1
654,271,53,0.168173403145323,1
654,272,53,0.171185638000794,1
654,273,53,0.165844700892888,1
654,274,53,0.18205959646714,1
654,275,53,0.168376574542074,1
654,276,53,0.164656089663023,1
654,277,53,0.176341205608695,1
654,278,53,0.163039340585621,1
654,279,53,0.147514915446344,1
654,280,53,0.149441524606192,1
654,281,53,0.139937308322873,1
654,282,53,0.140131433768333,1
654,283,53,0.170132169490833,1
654,284,53,0.16616249151956,1
654,285,53,0.146375538284295,1
655,266,53,0.14370668149355,1
655,267,53,0.164579829282041,1
655,268,53,0.152567497520004,1
655,269,53,0.126906275289067,1
655,270,53,0.109918302232661,1
655,271,53,0.102980771453003,1
655,272,53,0.104875268043472,1
655,273,53,0.112190386422516,1
655,274,53,0.124596546110794,1
655,275,53,0.111115702870192,1
655,276,53,0.108157442562559,1
655,277,53,0.11729149985754,1
655,278,53,0.11419489561173,1
655,279,53,0.11229030458733,1
655,280,53,0.120161207998343,1
655,281,53,0.12010732268307,1
655,282,53,0.116375516422317,1
655,283,53,0.124439608336856,1
655,284,53,0.135416886959562,1
655,285,53,0.137624645624022,1
655,286,53,0.109346176487201,1
656,264,53,0.152064883942787,1
656,265,53,0.107182219858154,1
656,285,53,0.103534849912164,1
657,263,53,0.192996296580849,1
657,264,53,0.118827560387915,1
658,262,53,0.192816849892354,1
658,263,53,0.144838551966057,1
659,261,53,0.152628476824206,1
659,262,53,0.13876470318438,1
659,263,53,0.110681854138486,1
660,261,53,0.128186004122009,1
660,262,53,0.11111879254776,1
661,260,53,0.127966570090261,1
661,261,53,0.109481185358257,1
662,259,53,0.14873340843146,1
662,260,53,0.14309376531175,1
662,261,53,0.107252167035153,1
663,258,53,0.136118768008805,1
663,259,53,0.153070300716421,1
663,260,53,0.150587493823991,1
663,261,53,0.106536421476101,1
664,258,53,0.130060958780712,1
664,259,53,0.129478314746636,1
664,260,53,0.116435603400867,1
671,256,53,0.123292467941639,1
672,256,53,0.151589107059536,1
672,257,53,0.104479331997879,1
673,256,53,0.176822559527267,1
673,257,53,0.119718313315346,1
674,255,53,0.163165705051928,1
674,256,53,0.158019272627884,1
674,257,53,0.105758023502251,1
675,255,53,0.122068464845626,1
675,256,53,0.119871402934913,1
676,255,53,0.10552428995194,1
676,256,53,0.123876550850828,1
676,257,53,0.108859714004275,1
677,255,53,0.105508116549509,1
677,256,53,0.142383674866515,1
677,257,53,0.137992495719737,1
678,256,53,0.111623681555388,1
678,257,53,0.113321944581045,1
705,272,53,0.12682507365479,1
705,273,53,0.11629066740694,1
705,274,53,0.1163175821794,1
706,273,53,0.158619740866846,1
706,274,53,0.172555391337892,1
706,275,53,0.153430153343486,1
707,277,53,0.130217974633145,1
651,275,54,0.209410113850938,1
651,276,54,0.19838801817239,1
651,277,54,0.168137085491311,1
651,278,54,0.156150062315562,1
651,279,54,0.174800884223334,1
652,272,54,0.251936859750768,1
652,273,54,0.208258166051274,1
652,274,54,0.188188602128143,1
652,275,54,0.205844692861957,1
652,276,54,0.217870833363449,1
652,277,54,0.19770320285123,1
652,278,54,0.171456759995899,1
652,279,54,0.168132133083946,1
652,280,54,0.175557052134394,1
652,281,54,0.165644384938221,1
652,282,54,0.207260635205584,1
652,283,54,0.267489025063732,1
653,269,54,0.200069070467046,1
653,270,54,0.169124265359445,1
653,271,54,0.216015309095806,1
653,272,54,0.256654518545249,1
653,273,54,0.192500364291947,1
653,274,54,0.183667834988642,1
653,275,54,0.206582958489635,1
653,276,54,0.21954903021602,1
653,277,54,0.225229106841809,1
653,278,54,0.197868171556031,1
653,279,54,0.166253051419106,1
653,280,54,0.160182236544644,1
653,281,54,0.139270138741469,1
653,282,54,0.1614078569809,1
653,283,54,0.227539315645119,1
653,284,54,0.203361038260158,1
654,268,54,0.177245008798777,1
654,269,54,0.165356554145294,1
654,270,54,0.150144811068336,1
654,271,54,0.181717278039125,1
654,272,54,0.21926390986226,1
654,273,54,0.184480821735554,1
654,274,54,0.20232707821975,1
654,275,54,0.220573263906828,1
654,276,54,0.221935086699699,1
654,277,54,0.230601911129541,1
654,278,54,0.194368091112874,1
654,279,54,0.145829245366443,1
654,280,54,0.140685913774037,1
654,281,54,0.13179431251261,1
654,282,54,0.141517728592193,1
654,283,54,0.176112034073277,1
654,284,54,0.177025273607122,1
654,285,54,0.147777660734396,1
655,267,54,0.130346636838005,1
655,268,54,0.13281303609252,1
655,269,54,0.131202622527243,1
655,270,54,0.123554064360415,1
655,271,54,0.129947131489806,1
655,272,54,0.151215389922663,1
655,273,54,0.138436595042364,1
655,274,54,0.147339651534341,1
655,275,54,0.146263941807518,1
655,276,54,0.141431630320904,1
655,277,54,0.146263227946997,1
655,278,54,0.1309731944482,1
655,279,54,0.117465782211328,1
655,280,54,0.129392528789326,1
655,281,54,0.123457369722016,1
655,282,54,0.122160630931344,1
655,283,54,0.129257408377564,1
655,284,54,0.136726876786157,1
655,285,54,0.132675450631146,1
655,286,54,0.106546805915869,1
656,285,54,0.112435854055143,1
656,286,54,0.108351668394655,1
657,264,54,0.142002350653463,1
658,263,54,0.18352072395094,1
658,264,54,0.114377130817885,1
659,262,54,0.14273103493446,1
659,263,54,0.121812478924384,1
660,261,54,0.135109614621505,1
660,262,54,0.118806311883342,1
661,260,54,0.137494243384141,1
661,261,54,0.123879328214418,1
662,259,54,0.167006999670107,1
662,260,54,0.156848374062199,1
662,261,54,0.12087478966769,1
663,259,54,0.159645803825239,1
663,260,54,0.155504018543955,1
663,261,54,0.11610418249987,1
664,259,54,0.124622702406451,1
664,260,54,0.117335647669143,1
673,257,54,0.114444010625457,1
674,256,54,0.145078409101151,1
674,257,54,0.1055716835981,1
675,256,54,0.117401211296379,1
676,256,54,0.118929765137212,1
676,257,54,0.112494602545216,1
677,256,54,0.13188859787175,1
677,257,54,0.140222149824868,1
678,256,54,0.106758443252238,1
678,257,54,0.115810161197737,1
682,303,54,0.113985511397631,1
705,271,54,0.130999841522964,1
705,272,54,0.11783427924314,1
705,273,54,0.105533748603845,1
706,272,54,0.15954059863094,1
706,273,54,0.151523744205572,1
706,274,54,0.163339106234135,1
706,275,54,0.148497823305422,1
707,274,54,0.171970014556508,1
707,275,54,0.17401302759758,1
707,277,54,0.131415330654393,1
652,273,55,0.213206513334781,1
652,274,55,0.183331160520372,1
652,275,55,0.181975639777415,1
652,276,55,0.193014946186963,1
652,277,55,0.179013642856117,1
652,278,55,0.169079080219273,1
652,279,55,0.18358393406927,1
652,280,55,0.200690329893686,1
652,281,55,0.191843099525274,1
652,282,55,0.213066262050523,1
652,283,55,0.24613801458078,1
653,270,55,0.159296235251307,1
653,271,55,0.190126443437128,1
653,272,55,0.254532434297393,1
653,273,55,0.200589854025339,1
653,274,55,0.177263580326397,1
653,275,55,0.209677789238214,1
653,276,55,0.226281069552234,1
653,277,55,0.23572064799618,1
653,278,55,0.214024374410563,1
653,279,55,0.181392962281127,1
653,280,55,0.166368607590961,1
653,281,55,0.148962189574406,1
653,282,55,0.165013488394546,1
653,283,55,0.204392075934058,1
653,284,55,0.20333868550259,1
653,285,55,0.157187078571326,1
654,269,55,0.15662022870128,1
654,270,55,0.146877783777181,1
654,271,55,0.182830766603213,1
654,272,55,0.252175512246233,1
654,273,55,0.196585721129852,1
654,274,55,0.196538405562187,1
654,275,55,0.250396147972935,1
654,276,55,0.264695465763205,1
654,277,55,0.273150920554373,1
654,278,55,0.227413497728273,1
654,279,55,0.162854171858887,1
654,280,55,0.138742171961682,1
654,281,55,0.129529456160532,1
654,282,55,0.146198188561081,1
654,283,55,0.170977335731548,1
654,284,55,0.17498867415667,1
654,285,55,0.144703163856599,1
654,286,55,0.109098522656728,1
655,268,55,0.126816183860488,1
655,269,55,0.141129410776849,1
655,270,55,0.136793410817539,1
655,271,55,0.162365311250772,1
655,272,55,0.221098330628248,1
655,273,55,0.179164847437745,1
655,274,55,0.161109251355733,1
655,275,55,0.177117149687003,1
655,276,55,0.171928309486376,1
655,277,55,0.168968799922832,1
655,278,55,0.146632851539944,1
655,279,55,0.131007905916039,1
655,280,55,0.140080649284698,1
655,281,55,0.130403701063411,1
655,282,55,0.13058582472886,1
655,283,55,0.134344400759155,1
655,284,55,0.137638989758868,1
655,285,55,0.129104965694094,1
655,286,55,0.105695214930464,1
656,268,55,0.108962409532679,1
656,269,55,0.118516584898406,1
656,270,55,0.108431553848596,1
656,271,55,0.112135675706015,1
656,272,55,0.139776712013764,1
656,273,55,0.116970608399229,1
656,280,55,0.116447058631417,1
656,285,55,0.120167476586044,1
656,286,55,0.115631238750562,1
657,264,55,0.174240113321788,1
658,263,55,0.214821488914951,1
658,264,55,0.132239850710349,1
658,267,55,0.104786414716734,1
659,262,55,0.144046512563811,1
659,263,55,0.129411479555347,1
660,262,55,0.120280188469885,1
661,261,55,0.139253686487272,1
661,262,55,0.103728071877902,1
662,260,55,0.172858648210517,1
662,261,55,0.136565689311304,1
663,259,55,0.15614794304214,1
663,260,55,0.151042501827706,1
663,261,55,0.117934152791672,1
664,259,55,0.113492992254346,1
664,260,55,0.109697340093236,1
673,257,55,0.104126952598144,1
676,256,55,0.108303382422844,1
676,257,55,0.104783994283405,1
677,256,55,0.112617018470516,1
677,257,55,0.124085968527139,1
678,257,55,0.113908682159046,1
692,260,55,0.114886604148547,1
693,260,55,0.131896718035177,1
705,271,55,0.138896432758667,1
705,272,55,0.110236249016323,1
706,272,55,0.147179278306644,1
706,273,55,0.13752008736582,1
706,274,55,0.138064104853261,1
706,275,55,0.12532694811867,1
707,274,55,0.154404361027463,1
707,275,55,0.155855940626793,1
707,276,55,0.138284643138002,1
707,277,55,0.128074976502835,1
707,278,55,0.105670720591334,1
708,279,55,0.163966667710688,1
708,280,55,0.151703971679012,1
708,282,55,0.13782065610742,1
652,275,56,0.158535929180039,1
652,276,56,0.167600273533505,1
652,277,56,0.164711358083056,1
652,278,56,0.16228158879653,1
652,279,56,0.185605542448779,1
652,280,56,0.219573703020281,1
652,281,56,0.226000009280187,1
652,282,56,0.225478601093938,1
653,271,56,0.156220165649549,1
653,272,56,0.211837708093688,1
653,273,56,0.187568458108568,1
653,274,56,0.160864966054594,1
653,275,56,0.19502557896096,1
653,276,56,0.221029554628667,1
653,277,56,0.239325933633637,1
653,278,56,0.228848446608275,1
653,279,56,0.195308334651744,1
653,280,56,0.168295283675232,1
653,281,56,0.161936102612453,1
653,282,56,0.174615503569258,1
653,283,56,0.186781426884041,1
653,284,56,0.197248942170248,1
654,270,56,0.136478196781185,1
654,271,56,0.167009565106355,1
654,272,56,0.238858087294612,1
654,273,56,0.185479077595836,1
654,274,56,0.170425354237668,1
654,275,56,0.240289823802269,1
654,276,56,0.275795885325803,1
654,277,56,0.298153238370253,1
654,278,56,0.271833000183551,1
654,279,56,0.200226543636375,1
654,280,56,0.141591981240459,1
654,281,56,0.130473246693867,1
654,282,56,0.151332329199278,1
654,283,56,0.162698784500767,1
654,284,56,0.164387901188497,1
654,285,56,0.142743572109862,1
654,286,56,0.108549028520602,1
655,269,56,0.149222157498868,1
655,270,56,0.134931417188923,1
655,271,56,0.17159481392824,1
655,272,56,0.258932179770424,1
655,273,56,0.19893131064524,1
655,274,56,0.15342552440417,1
655,275,56,0.180088761417195,1
655,276,56,0.185216421540349,1
655,277,56,0.183749348936897,1
655,278,56,0.167676110059803,1
655,279,56,0.148930668170771,1
655,280,56,0.145786179499693,1
655,281,56,0.138655415600226,1
655,282,56,0.137469972126424,1
655,283,56,0.1383205480914,1
655,284,56,0.138670830525854,1
655,285,56,0.129264736601976,1
655,286,56,0.107262127620236,1
656,268,56,0.116284476897733,1
656,269,56,0.125667638052371,1
656,270,56,0.109131471781406,1
656,271,56,0.123014798507068,1
656,272,56,0.174100375124781,1
656,273,56,0.137531319514957,1
656,280,56,0.132931782328579,1
656,281,56,0.12204474013737,1
656,285,56,0.119437565357277,1
656,286,56,0.116558387410499,1
658,264,56,0.138438335077384,1
658,268,56,0.104283343822621,1
659,263,56,0.125614756603455,1
659,268,56,0.106577870002608,1
660,262,56,0.109088171679172,1
661,261,56,0.145680115441954,1
661,262,56,0.106564641274826,1
662,260,56,0.175407643358139,1
662,261,56,0.146449746316279,1
663,259,56,0.139848633461266,1
663,260,56,0.139324871766111,1
663,261,56,0.115386395745891,1
677,257,56,0.104072509579339,1
678,257,56,0.115303978317914,1
679,257,56,0.103555875335325,1
692,259,56,0.12716105657068,1
692,260,56,0.1232818827286,1
693,259,56,0.147377095749487,1
693,260,56,0.148573815988709,1
694,260,56,0.107720994932393,1
705,270,56,0.153284860419298,1
705,271,56,0.1439485686695,1
705,272,56,0.1055159467071,1
706,271,56,0.19600002088042,1
706,272,56,0.143442631179232,1
706,273,56,0.121408857724118,1
706,274,56,0.108957680206727,1
707,273,56,0.135562224500032,1
707,274,56,0.131875670303875,1
707,275,56,0.129748254410253,1
707,276,56,0.116906584033742,1
707,277,56,0.117975467469331,1
707,278,56,0.105752279155871,1
708,275,56,0.157102162631525,1
708,278,56,0.202968013427003,1
708,279,56,0.166695288011935,1
708,280,56,0.157063792628516,1
708,281,56,0.151171487500615,1
708,282,56,0.133281250515876,1
708,283,56,0.1304316308563,1
709,279,56,0.225303259103439,1
709,280,56,0.213374114400253,1
652,277,57,0.152530008688575,1
652,278,57,0.157582233831974,1
652,279,57,0.181649561676255,1
652,280,57,0.22839588134603,1
652,281,57,0.252214395336492,1
652,282,57,0.242952590470444,1
653,272,57,0.15814196740495,1
653,273,57,0.156543254459777,1
653,274,57,0.142508276989661,1
653,275,57,0.169653548319568,1
653,276,57,0.203586952806949,1
653,277,57,0.227925648035889,1
653,278,57,0.231580078508595,1
653,279,57,0.200049595459704,1
653,280,57,0.16864875617389,1
653,281,57,0.174591589241801,1
653,282,57,0.186594607354851,1
653,283,57,0.177289736622053,1
653,284,57,0.183539206245994,1
654,271,57,0.158491680981801,1
654,272,57,0.201181555164776,1
654,273,57,0.159370275972231,1
654,274,57,0.141944037172145,1
654,275,57,0.200311805352366,1
654,276,57,0.253377452590515,1
654,277,57,0.292869019711563,1
654,278,57,0.294210832101701,1
654,279,57,0.222995191881693,1
654,280,57,0.143747951554927,1
654,281,57,0.133966556616144,1
654,282,57,0.153022494369648,1
654,283,57,0.154114455577397,1
654,284,57,0.153204651497309,1
654,285,57,0.140849153597888,1
654,286,57,0.111647138565949,1
655,269,57,0.155752174307607,1
655,270,57,0.131963196296206,1
655,271,57,0.166568376996166,1
655,272,57,0.251222329985417,1
655,273,57,0.190877937792588,1
655,274,57,0.136257926194139,1
655,275,57,0.159902927461688,1
655,276,57,0.179605466690331,1
655,277,57,0.187017368940339,1
655,278,57,0.179064349261257,1
655,279,57,0.154731297992062,1
655,280,57,0.143471364065207,1
655,281,57,0.146297470943869,1
655,282,57,0.139281772437149,1
655,283,57,0.137167797198651,1
655,284,57,0.139730132614761,1
655,285,57,0.134051639867004,1
655,286,57,0.114372401491933,1
656,268,57,0.125093292646853,1
656,269,57,0.126811086450205,1
656,271,57,0.119667974994537,1
656,272,57,0.179460787240029,1
656,273,57,0.140887780144523,1
656,280,57,0.136781052107267,1
656,281,57,0.138131352745164,1
656,282,57,0.104967121815212,1
656,285,57,0.115740336715515,1
656,286,57,0.11581317279681,1
656,289,57,0.123546925755204,1
657,287,57,0.107207349979311,1
657,288,57,0.103405395768288,1
657,289,57,0.122202882550938,1
657,290,57,0.150351451381057,1
658,269,57,0.110650778897676,1
659,268,57,0.111364059407116,1
659,269,57,0.11798603037423,1
661,262,57,0.115969240553238,1
662,261,57,0.159326083544346,1
662,262,57,0.111070673887009,1
663,260,57,0.133388296131831,1
663,261,57,0.118559628457015,1
678,257,57,0.121468364690995,1
678,258,57,0.104540869005613,1
679,257,57,0.108668220919486,1
682,303,57,0.112281492871523,1
692,259,57,0.114096338243534,1
692,260,57,0.130232452616839,1
693,259,57,0.132137813272113,1
693,260,57,0.153731101323488,1
694,260,57,0.108817752390518,1
705,270,57,0.149544208980526,1
705,271,57,0.138933464273199,1
705,272,57,0.103226317164125,1
706,271,57,0.179643859001482,1
706,272,57,0.14321009111448,1
706,273,57,0.109398723313998,1
707,272,57,0.156264134996022,1
707,273,57,0.131316371739654,1
707,274,57,0.114511994686022,1
707,275,57,0.10423366359198,1
707,277,57,0.106255651209891,1
707,278,57,0.103185984044682,1
708,276,57,0.151667988647119,1
708,277,57,0.190194237878492,1
708,278,57,0.191178227682422,1
708,279,57,0.169476354753343,1
708,280,57,0.165922745925173,1
708,281,57,0.161864750022554,1
708,282,57,0.139580701530365,1
708,283,57,0.12864684570467,1
708,284,57,0.144410101804541,1
709,278,57,0.234515651436542,1
709,279,57,0.221513485137558,1
709,280,57,0.216101753143284,1
653,275,58,0.138789387142712,1
653,276,58,0.173851639349455,1
653,277,58,0.207333292821749,1
653,278,58,0.22139683586678,1
653,279,58,0.192972471485957,1
653,280,58,0.163008365731447,1
653,281,58,0.174503739781421,1
653,282,58,0.189449212884005,1
653,283,58,0.17705875812719,1
653,284,58,0.171331053619759,1
654,271,58,0.154693608387361,1
654,272,58,0.159734266759504,1
654,273,58,0.127441603755477,1
654,274,58,0.115693913473502,1
654,275,58,0.153199911017286,1
654,276,58,0.2092545814899,1
654,277,58,0.264011966622381,1
654,278,58,0.280080052318838,1
654,279,58,0.214557115132585,1
654,280,58,0.139292591885672,1
654,281,58,0.131491847579,1
654,282,58,0.144544463739499,1
654,283,58,0.143373364400543,1
654,284,58,0.141480641307307,1
654,285,58,0.135824579395612,1
654,286,58,0.114032403110612,1
655,270,58,0.125545010199728,1
655,271,58,0.152387270046564,1
655,272,58,0.202235213293939,1
655,273,58,0.156951114206886,1
655,274,58,0.11326266069558,1
655,275,58,0.128083085512192,1
655,276,58,0.154817686269187,1
655,277,58,0.174531301489979,1
655,278,58,0.173276591237487,1
655,279,58,0.147829147924482,1
655,280,58,0.136194481840325,1
655,281,58,0.146313488189312,1
655,282,58,0.133851279296055,1
655,283,58,0.128695209754975,1
655,284,58,0.134175728902901,1
655,285,58,0.134454904137009,1
655,286,58,0.118117994184,1
656,269,58,0.125492664146204,1
656,271,58,0.107512358041028,1
656,272,58,0.15152787121171,1
656,273,58,0.125554156537655,1
656,280,58,0.128023879705222,1
656,281,58,0.142758395869746,1
656,282,58,0.108587075055563,1
656,285,58,0.10828854750889,1
656,286,58,0.110859516175678,1
656,287,58,0.104546133726956,1
656,288,58,0.110230259280388,1
656,289,58,0.139579496890736,1
657,287,58,0.112501752304498,1
657,288,58,0.125633685061335,1
657,289,58,0.152094999933522,1
657,290,58,0.162554250053383,1
658,269,58,0.121156240332209,1
658,287,58,0.103605745185167,1
658,288,58,0.110635642823814,1
658,289,58,0.111780786640386,1
658,290,58,0.108172801717834,1
659,268,58,0.105230737120774,1
659,269,58,0.128329077386139,1
661,262,58,0.12104338344545,1
662,261,58,0.155125828624754,1
662,262,58,0.117259476520726,1
663,260,58,0.116650731961347,1
663,261,58,0.113353800606799,1
678,257,58,0.125897913840783,1
678,258,58,0.110925949820424,1
679,257,58,0.108567287734243,1
692,260,58,0.121456229062136,1
693,259,58,0.103446375823828,1
693,260,58,0.135415559625155,1
705,269,58,0.110788330896838,1
705,270,58,0.132703703892084,1
705,271,58,0.124247858708443,1
706,270,58,0.147484420217208,1
706,271,58,0.151349484159926,1
706,272,58,0.134551855319033,1
707,272,58,0.151171141724425,1
707,273,58,0.125515262293325,1
707,285,58,0.123979971393824,1
708,276,58,0.131273919346789,1
708,277,58,0.162291214759495,1
708,278,58,0.171275405961324,1
708,279,58,0.16251148534654,1
708,280,58,0.164317005915494,1
708,281,58,0.158093447197656,1
708,282,58,0.13573339486811,1
708,283,58,0.131426618573883,1
708,284,58,0.145633312961539,1
708,285,58,0.158117718455374,1
709,278,58,0.210527417107186,1
709,279,58,0.208220398368079,1
709,280,58,0.205741004621265,1
709,285,58,0.155617410826105,1
653,276,59,0.138390539884681,1
653,277,59,0.179867698891134,1
653,278,59,0.200764459847175,1
653,279,59,0.178101139490934,1
654,275,59,0.110154857762845,1
654,276,59,0.156159554429679,1
654,277,59,0.216001455740068,1
654,278,59,0.234227229477871,1
654,279,59,0.182646858286462,1
654,280,59,0.132172435507387,1
654,281,59,0.126467016833099,1
654,282,59,0.133312437297392,1
654,283,59,0.134940909303039,1
654,284,59,0.135136406699188,1
654,285,59,0.134160514750545,1
655,271,59,0.136135487960698,1
655,272,59,0.14206897391741,1
655,273,59,0.112920442654201,1
655,276,59,0.120334876878245,1
655,277,59,0.149889650548321,1
655,278,59,0.155887361643792,1
655,279,59,0.135501334428395,1
655,280,59,0.127024307664604,1
655,281,59,0.135676810267741,1
655,282,59,0.123387076768828,1
655,283,59,0.118062313063353,1
655,284,59,0.12701399014926,1
655,285,59,0.134543657077111,1
655,286,59,0.122128518361965,1
655,287,59,0.106064146971032,1
655,288,59,0.105890344242282,1
656,269,59,0.124886841953333,1
656,272,59,0.10972276022023,1
656,280,59,0.115786324948774,1
656,281,59,0.131878793443655,1
656,282,59,0.108257695349493,1
656,285,59,0.105292619904698,1
656,286,59,0.108426032583628,1
656,287,59,0.110788866292229,1
656,288,59,0.124422966463457,1
656,289,59,0.150212638971912,1
656,290,59,0.15401606552026,1
657,269,59,0.10804025789639,1
657,287,59,0.115945738926395,1
657,288,59,0.151679365799174,1
657,289,59,0.18175920619067,1
657,290,59,0.156479843568175,1
657,291,59,0.104926666000992,1
658,269,59,0.122290140845573,1
658,288,59,0.118683371716721,1
658,289,59,0.131821093436222,1
658,290,59,0.115402312604698,1
659,269,59,0.121397235182509,1
660,267,59,0.10608946671139,1
661,262,59,0.117671195576278,1
662,261,59,0.140874250256834,1
662,262,59,0.115590615625282,1
663,260,59,0.105500710246602,1
663,261,59,0.106485079288934,1
678,257,59,0.127947630478311,1
678,258,59,0.112441698788159,1
692,260,59,0.113897751169817,1
692,261,59,0.104073580370121,1
693,260,59,0.116610889621012,1
705,270,59,0.114812228805503,1
705,271,59,0.113074335366854,1
706,271,59,0.128021481580034,1
706,272,59,0.123649342431843,1
707,272,59,0.143851974417737,1
707,273,59,0.125632826197896,1
707,285,59,0.114179224142477,1
707,286,59,0.128357999891315,1
708,275,59,0.119785494282825,1
708,276,59,0.114089311179029,1
708,277,59,0.139586501647099,1
708,278,59,0.154892128536655,1
708,279,59,0.156432394151662,1
708,280,59,0.159894004205174,1
708,281,59,0.147798340381367,1
708,282,59,0.12835930491758,1
708,283,59,0.133237437326392,1
708,284,59,0.150383151249823,1
708,285,59,0.154295486143923,1
708,286,59,0.169251812157241,1
709,281,59,0.176892629399043,1
709,285,59,0.156370433289244,1
709,286,59,0.206120934575486,1
653,277,60,0.143376822162442,1
653,278,60,0.166367425259473,1
653,279,60,0.149841520733499,1
654,276,60,0.110510784157044,1
654,277,60,0.160340825121037,1
654,278,60,0.177587171069803,1
654,279,60,0.143844177722358,1
654,280,60,0.117449809582168,1
654,281,60,0.114250766351578,1
654,282,60,0.117486450704228,1
654,283,60,0.122046915181145,1
654,284,60,0.122914188789873,1
654,285,60,0.127406446124813,1
655,277,60,0.119182505223897,1
655,278,60,0.129427719882202,1
655,279,60,0.118135695694109,1
655,280,60,0.112183058198104,1
655,281,60,0.115788455376267,1
655,282,60,0.108564889609055,1
655,283,60,0.104979201673717,1
655,284,60,0.114198074521863,1
655,285,60,0.12816101900377,1
655,286,60,0.12363228785783,1
655,287,60,0.114837983554617,1
655,288,60,0.117127891949358,1
655,289,60,0.144228190066435,1
656,269,60,0.112451592448819,1
656,280,60,0.104258358704382,1
656,281,60,0.112806894215062,1
656,282,60,0.10374314102734,1
656,286,60,0.107724798470482,1
656,287,60,0.119321719179585,1
656,288,60,0.140294405894489,1
656,289,60,0.154518601018982,1
656,290,60,0.145650668695458,1
657,269,60,0.107274720565991,1
657,287,60,0.115991782930007,1
657,288,60,0.168280169909512,1
657,289,60,0.194931460912879,1
657,290,60,0.145221560443775,1
658,269,60,0.108195622946368,1
658,288,60,0.121694602705835,1
658,289,60,0.146960368516217,1
658,290,60,0.122396316444018,1
660,267,60,0.120798094277953,1
662,261,60,0.111565713850259,1
678,258,60,0.106877691421476,1
692,261,60,0.104544416000077,1
705,271,60,0.103595271512834,1
706,271,60,0.110711256268699,1
706,272,60,0.108945589194151,1
706,288,60,0.120742781241637,1
707,272,60,0.13087647750166,1
707,273,60,0.123314976856196,1
707,286,60,0.104703194195671,1
707,287,60,0.134981777817873,1
708,277,60,0.117475597793493,1
708,278,60,0.14070923693575,1
708,279,60,0.14768273959323,1
708,280,60,0.145246913646345,1
708,281,60,0.129416164265017,1
708,282,60,0.115464920403213,1
708,283,60,0.123540166388395,1
708,284,60,0.139334642731994,1
708,285,60,0.138800173129023,1
708,286,60,0.153933882327767,1
708,287,60,0.205586074580043,1
709,279,60,0.198987460236854,1
709,280,60,0.191640496986126,1
709,281,60,0.170113798736485,1
709,282,60,0.147571421968219,1
709,286,60,0.21301185249393,1
710,281,60,0.19939230838489,1
654,277,61,0.114869538420464,1
654,278,61,0.128984077876472,1
654,279,61,0.113671133916575,1
654,280,61,0.103276142397684,1
654,282,61,0.10324273595611,1
654,283,61,0.108080256393714,1
654,284,61,0.109475262546746,1
654,285,61,0.116215957441777,1
655,278,61,0.104794077563266,1
655,285,61,0.115614117252126,1
655,286,61,0.12464161971026,1
655,287,61,0.130619353865211,1
655,288,61,0.139982995396224,1
655,289,61,0.154141872283036,1
656,286,61,0.109640722030655,1
656,287,61,0.132612519364582,1
656,288,61,0.15885682063835,1
656,289,61,0.159743468867784,1
656,290,61,0.141965798763968,1
657,287,61,0.113803242729264,1
657,288,61,0.168357266845792,1
657,289,61,0.192341842639978,1
657,290,61,0.14120079682896,1
657,291,61,0.10306162731109,1
658,288,61,0.118767629566354,1
658,289,61,0.155876162956867,1
658,290,61,0.130429823896856,1
658,291,61,0.104975487368193,1
660,267,61,0.120801072414814,1
678,257,61,0.114248591307802,1
679,257,61,0.110401797732797,1
682,302,61,0.106015983693998,1
683,302,61,0.104605016065877,1
706,271,61,0.106823504946295,1
706,272,61,0.104071862643242,1
706,288,61,0.125072601845811,1
707,272,61,0.120974596291798,1
707,273,61,0.127045154622635,1
707,287,61,0.130678146971567,1
707,288,61,0.197111680176923,1
708,278,61,0.124066705447139,1
708,279,61,0.136255639609658,1
708,280,61,0.126150877008882,1
708,281,61,0.11167772302765,1
708,283,61,0.108583059590132,1
708,284,61,0.120227017015133,1
708,285,61,0.121374703959811,1
708,286,61,0.140099008884976,1
708,287,61,0.195642109061647,1
708,288,61,0.22227403659838,1
708,289,61,0.198032827946854,1
709,278,61,0.177923845538073,1
709,279,61,0.189596268151354,1
709,280,61,0.180286221929777,1
709,281,61,0.169021168284498,1
709,282,61,0.14837190500194,1
709,283,61,0.133945676195902,1
709,284,61,0.133137619548214,1
710,279,61,0.199589668510836,1
710,280,61,0.206677031921433,1
710,281,61,0.204972154531886,1
655,286,62,0.12208294282932,1
655,287,62,0.146817217173592,1
655,288,62,0.160819959379552,1
655,289,62,0.159126760301967,1
656,286,62,0.108223229271208,1
656,287,62,0.141670037426815,1
656,288,62,0.167967710928607,1
656,289,62,0.165003349344333,1
656,290,62,0.145583922736734,1
657,276,62,0.133714351924849,1
657,277,62,0.129969093854901,1
657,280,62,0.108754018030868,1
657,287,62,0.10841651816137,1
657,288,62,0.153765433552926,1
657,289,62,0.180924803628125,1
657,290,62,0.146590901080258,1
657,291,62,0.114721378900121,1
658,275,62,0.11569752739239,1
658,276,62,0.148260375449587,1
658,277,62,0.12441849368113,1
658,288,62,0.11443034688892,1
658,289,62,0.159279805305251,1
658,290,62,0.139847986525169,1
658,291,62,0.111567520809703,1
659,291,62,0.109979482310135,1
659,292,62,0.110483088599639,1
660,292,62,0.105318854278849,1
681,302,62,0.103865244638662,1
682,302,62,0.121528563210252,1
683,302,62,0.117311197946295,1
706,288,62,0.127673954201029,1
706,289,62,0.161284069104911,1
707,287,62,0.119560806683805,1
707,288,62,0.212239276944955,1
708,278,62,0.106162972036923,1
708,279,62,0.122140542450117,1
708,280,62,0.108440109020779,1
708,286,62,0.121012821291889,1
708,287,62,0.172207350871637,1
708,288,62,0.209795375450926,1
708,289,62,0.201922230071714,1
709,278,62,0.151692516448462,1
709,279,62,0.171987548755558,1
709,280,62,0.166836297772996,1
709,281,62,0.168359954976817,1
709,282,62,0.148980593790966,1
709,283,62,0.127375069724096,1
709,284,62,0.124433663217203,1
709,287,62,0.248128525411338,1
710,279,62,0.179395078609874,1
710,280,62,0.198581072827069,1
710,281,62,0.210390445119697,1
655,286,63,0.11728211928413,1
655,287,63,0.160229987121064,1
655,288,63,0.176035137910268,1
656,277,63,0.103712322330155,1
656,286,63,0.104108771462997,1
656,287,63,0.146245091428132,1
656,288,63,0.171927896785763,1
656,289,63,0.170173227624867,1
657,275,63,0.106962718901983,1
657,276,63,0.15774955604568,1
657,277,63,0.172232547917218,1
657,278,63,0.12294034508553,1
657,280,63,0.111179716081609,1
657,287,63,0.104720204153401,1
657,288,63,0.141586459975491,1
657,289,63,0.171861150827039,1
657,290,63,0.160007173405912,1
658,275,63,0.135059410149544,1
658,276,63,0.189055451882187,1
658,277,63,0.166036729373067,1
658,288,63,0.113463835513686,1
658,289,63,0.157843395241995,1
658,290,63,0.14791488926551,1
658,291,63,0.116201267530741,1
659,276,63,0.105086280751884,1
659,289,63,0.106962250431016,1
659,290,63,0.112606120943499,1
659,291,63,0.114087359216667,1
659,292,63,0.110630433872824,1
660,292,63,0.114551502404238,1
682,302,63,0.133519735700281,1
683,302,63,0.126596415206621,1
684,302,63,0.103591635285804,1
706,288,63,0.125621237118498,1
706,289,63,0.175016001629744,1
707,274,63,0.106981926211629,1
707,287,63,0.105403279439541,1
707,288,63,0.204210978443108,1
708,279,63,0.103033240201305,1
708,287,63,0.143087307104849,1
708,288,63,0.189799160696339,1
709,279,63,0.14351377184179,1
709,280,63,0.146740811789692,1
709,281,63,0.160805838326118,1
709,282,63,0.152899565357098,1
709,283,63,0.129972562770871,1
709,284,63,0.121999320761714,1
656,277,64,0.106062908869191,1
656,287,64,0.138430783771559,1
656,288,64,0.161694795448175,1
656,289,64,0.16005281586298,1
657,275,64,0.105536369810446,1
657,276,64,0.164129126749594,1
657,277,64,0.195493090677865,1
657,278,64,0.142811143469814,1
657,288,64,0.124345021817808,1
657,289,64,0.15062879734758,1
657,290,64,0.158945919354642,1
658,275,64,0.137821314197588,1
658,276,64,0.198897000723944,1
658,277,64,0.18509507640583,1
658,278,64,0.112706976050247,1
658,288,64,0.104688203124728,1
658,289,64,0.141098413614534,1
658,290,64,0.144139582129251,1
658,291,64,0.117862510195936,1
659,276,64,0.111083289140905,1
659,289,64,0.116066916749854,1
659,290,64,0.122193580056022,1
659,291,64,0.113038575416375,1
659,292,64,0.103897346053971,1
660,291,64,0.102993866331937,1
660,292,64,0.110999165140121,1
661,293,64,0.10418921462047,1
677,300,64,0.115776977837575,1
678,299,64,0.119480921229864,1
678,300,64,0.139099894161254,1
678,301,64,0.125066188255192,1
679,299,64,0.109940130748908,1
679,300,64,0.127425564201894,1
679,301,64,0.110370387869868,1
682,301,64,0.10762560532026,1
682,302,64,0.137593168836669,1
683,301,64,0.112669676838019,1
683,302,64,0.131854644880714,1
684,302,64,0.110900328920158,1
706,288,64,0.11945376106785,1
706,289,64,0.182572271016076,1
707,288,64,0.176731508848613,1
708,287,64,0.11255699841639,1
708,288,64,0.162317605290634,1
709,281,64,0.144880379730966,1
709,282,64,0.151029685800538,1
709,283,64,0.131461051189956,1
657,276,65,0.141695178702043,1
657,277,65,0.179122595818152,1
657,278,65,0.141862266680266,1
657,288,65,0.109431192813638,1
657,289,65,0.124060938792617,1
658,275,65,0.113699844494409,1
658,276,65,0.16289972508339,1
658,277,65,0.165090897644805,1
658,278,65,0.114944293001909,1
658,289,65,0.116518924308566,1
658,290,65,0.128169786103295,1
659,289,65,0.117625631197704,1
659,290,65,0.125281127196471,1
659,291,65,0.110815357210005,1
660,290,65,0.104564861411565,1
677,299,65,0.127685911364758,1
677,300,65,0.150884827885105,1
678,299,65,0.149063256608497,1
678,300,65,0.189537597739775,1
678,301,65,0.158923254283096,1
679,299,65,0.134970177584405,1
679,300,65,0.172721029286931,1
679,301,65,0.141750212886592,1
680,300,65,0.120082203715983,1
680,301,65,0.111481087916296,1
681,301,65,0.107441842006426,1
682,301,65,0.127049872794517,1
683,301,65,0.131739088708859,1
684,301,65,0.106663232105234,1
684,302,65,0.115306365289032,1
689,299,65,0.125528825643226,1
690,298,65,0.107203669135999,1
690,299,65,0.1254712371765,1
693,297,65,0.123896059320382,1
693,298,65,0.118547191668248,1
694,297,65,0.132003362104589,1
694,298,65,0.122398023016826,1
706,288,65,0.104455428824492,1
706,289,65,0.165322590000188,1
707,288,65,0.13810193946088,1
707,289,65,0.202721330000675,1
708,289,65,0.171117977408278,1
657,277,66,0.127748184541154,1
657,278,66,0.110103705194879,1
658,276,66,0.107038276576514,1
658,277,66,0.118620708147852,1
659,289,66,0.1097724292968,1
659,290,66,0.1182997943814,1
660,290,66,0.108419250908678,1
676,299,66,0.103245033694663,1
677,299,66,0.131871331370395,1
677,300,66,0.164570582557479,1
678,299,66,0.151845226829627,1
678,300,66,0.213607546790657,1
679,299,66,0.133689779507224,1
679,300,66,0.194782576377945,1
679,301,66,0.164907602801938,1
680,300,66,0.127155234145805,1
680,301,66,0.118815558607904,1
682,300,66,0.107346463548363,1
682,301,66,0.135943080242117,1
683,301,66,0.133497048320594,1
689,299,66,0.124023862661802,1
690,298,66,0.12627760955952,1
690,299,66,0.14544390568796,1
691,298,66,0.122046312861331,1
691,299,66,0.104139434003193,1
692,297,66,0.107322303831352,1
692,298,66,0.122823539657763,1
693,297,66,0.147531077694705,1
693,298,66,0.162499082019986,1
694,297,66,0.150053849622247,1
694,298,66,0.164727252633721,1
695,295,66,0.106996448811605,1
696,295,66,0.116185986453961,1
700,293,66,0.115080205352687,1
701,293,66,0.104473989198041,1
705,291,66,0.117392778818973,1
706,289,66,0.118898533739413,1
706,290,66,0.125063277042754,1
707,289,66,0.139825979543791,1
707,290,66,0.154498847159875,1
677,299,67,0.124313009635065,1
678,299,67,0.138939186311439,1
679,299,67,0.117690313653359,1
679,300,67,0.193790087172185,1
680,300,67,0.125783584616698,1
682,300,67,0.118254832322641,1
689,299,67,0.107270772024984,1
690,298,67,0.124693218441052,1
690,299,67,0.141868122567353,1
691,298,67,0.131456846105324,1
691,299,67,0.118452047445669,1
692,297,67,0.105259135384629,1
692,298,67,0.138980757532723,1
693,297,67,0.143784414211857,1
693,298,67,0.194694994615261,1
693,299,67,0.123620542621444,1
694,297,67,0.142814065836322,1
694,298,67,0.194127743198672,1
694,299,67,0.140534876503468,1
695,295,67,0.115595144177963,1
695,298,67,0.1183555312724,1
696,295,67,0.121036635232711,1
700,293,67,0.1326465169719,1
700,294,67,0.104484808646564,1
700,295,67,0.104663686477456,1
701,293,67,0.103797294040309,1
704,292,67,0.123260109982706,1
705,292,67,0.154641095022777,1
679,299,68,0.103137240755975,1
682,300,68,0.119016655347516,1
683,300,68,0.103088620162045,1
690,298,68,0.106819065626179,1
690,299,68,0.117442804825804,1
691,298,68,0.119630854247439,1
691,299,68,0.115389306958329,1
692,298,68,0.132597539447709,1
692,299,68,0.107419009623821,1
693,297,68,0.116949382202797,1
693,298,68,0.183581390941164,1
693,299,68,0.141333942970218,1
694,297,68,0.115766169543123,1
694,298,68,0.180949833362646,1
694,299,68,0.153739221486916,1
695,298,68,0.106619106601773,1
695,299,68,0.106817838678409,1
697,299,68,0.110073444201226,1
698,298,68,0.150918111631902,1
699,298,68,0.128471146783911,1
700,293,68,0.121589074043487,1
700,295,68,0.113012463737001,1
700,296,68,0.128372388642443,1
700,297,68,0.127749299948218,1
701,295,68,0.125513321485033,1
702,295,68,0.108933665492634,1
703,294,68,0.103073707169596,1
703,295,68,0.131259954450345,1
704,292,68,0.104584459113683,1
704,293,68,0.134010905201018,1
705,292,68,0.115075130250545,1
687,296,69,0.107752817495936,1
688,300,69,0.107706539256841,1
692,298,69,0.115020966083505,1
692,299,69,0.110931415315039,1
693,298,69,0.150399971588351,1
693,299,69,0.142213675675854,1
694,298,69,0.146726623811835,1
694,299,69,0.144590396202405,1
697,299,69,0.103635705018912,1
698,298,69,0.142149606694084,1
698,299,69,0.14850733772768,1
699,298,69,0.125828100512632,1
699,299,69,0.138229274331334,1
700,295,69,0.111590085494613,1
700,296,69,0.121122253878962,1
700,297,69,0.114804588267113,1
700,298,69,0.136036718665159,1
701,295,69,0.120089598864819,1
701,296,69,0.14422342727827,1
701,297,69,0.155607506011375,1
702,296,69,0.118060706877181,1
703,293,69,0.105580473005766,1
703,294,69,0.108148976622942,1
703,295,69,0.116271984338614,1
704,293,69,0.11712307339084,1
704,294,69,0.125618214365354,1
688,300,70,0.106744656820924,1
692,299,70,0.104409619056364,1
693,298,70,0.113282860717514,1
693,299,70,0.122204020266143,1
694,298,70,0.107488979108961,1
694,299,70,0.11557633841486,1
698,298,70,0.112099257665367,1
699,298,70,0.109533598336205,1
700,296,70,0.103444368091113,1
701,295,70,0.102929641193179,1
701,296,70,0.116879000017043,1
703,294,70,0.106337220928499,1
