x,y,z,signal,mito.p
719,777,16,0.17167329396928,1
720,777,16,0.159763601965294,1
720,778,16,0.14611100834494,1
722,767,16,0.130487100049604,1
723,767,16,0.1301385464961,1
723,782,16,0.107476408471347,1
724,767,16,0.134138998548275,1
725,766,16,0.168782236937267,1
725,767,16,0.12713883766196,1
725,768,16,0.131185802188714,1
726,765,16,0.137143447862438,1
726,766,16,0.132656076010441,1
726,767,16,0.121091591338766,1
726,768,16,0.128733044362594,1
727,765,16,0.109041938056359,1
727,766,16,0.113786567393653,1
727,767,16,0.117730680235014,1
727,768,16,0.124600371957025,1
727,769,16,0.128739513723567,1
727,787,16,0.16764741063604,1
728,767,16,0.105325769802647,1
728,768,16,0.106587607506279,1
728,769,16,0.106545556659957,1
728,787,16,0.193020991693251,1
729,786,16,0.125670560418879,1
731,784,16,0.159370499053644,1
731,785,16,0.141397476556597,1
732,785,16,0.170240542441194,1
733,785,16,0.161299205178773,1
734,784,16,0.122923089738246,1
734,785,16,0.131622160586315,1
735,785,16,0.107782219626149,1
718,778,17,0.146271671578473,1
718,779,17,0.15116585469494,1
719,777,17,0.135012618823199,1
719,778,17,0.157444893760154,1
720,776,17,0.122171651153139,1
720,777,17,0.115783458352619,1
720,778,17,0.119744837695333,1
720,779,17,0.130914490574409,1
721,776,17,0.111878161677094,1
722,768,17,0.139802310605888,1
723,768,17,0.149977968479667,1
723,771,17,0.124356644359418,1
723,780,17,0.140012743302628,1
723,782,17,0.115638990829659,1
724,768,17,0.129494889695611,1
725,767,17,0.123182131874845,1
725,768,17,0.113228941940028,1
725,769,17,0.131381266122651,1
725,770,17,0.118621343929879,1
726,764,17,0.125044962058759,1
726,766,17,0.141251960550997,1
726,767,17,0.122873052577344,1
726,768,17,0.123375208837665,1
726,769,17,0.119466867100854,1
726,786,17,0.119723778809961,1
726,787,17,0.150620108326549,1
727,764,17,0.106706342588267,1
727,765,17,0.113055128057208,1
727,766,17,0.116007130931211,1
727,767,17,0.120676537216092,1
727,768,17,0.126400750499412,1
727,769,17,0.115326063377786,1
727,786,17,0.170072472904755,1
727,787,17,0.227882660247633,1
727,788,17,0.152478276108935,1
728,764,17,0.102958061765175,1
728,767,17,0.106338079791938,1
728,768,17,0.105944318790121,1
728,786,17,0.188310136881863,1
728,787,17,0.264299384714694,1
728,788,17,0.17321500961347,1
729,766,17,0.114145003453746,1
729,767,17,0.115358086714601,1
729,786,17,0.144847352527793,1
729,787,17,0.192288459257883,1
730,766,17,0.117875337377175,1
730,767,17,0.114036385113831,1
730,787,17,0.111221387689529,1
731,783,17,0.117568466585661,1
731,784,17,0.126314685690336,1
731,785,17,0.113840452708927,1
732,784,17,0.14924476680006,1
732,785,17,0.145206915149022,1
732,786,17,0.114291902564107,1
733,784,17,0.125467913263448,1
733,785,17,0.148427496890022,1
733,786,17,0.143981673951167,1
734,781,17,0.112820546797528,1
734,782,17,0.122727882347934,1
734,783,17,0.109048184335919,1
734,785,17,0.129493751980405,1
734,786,17,0.152698825547747,1
735,781,17,0.121269621460289,1
735,784,17,0.108035361259378,1
735,785,17,0.110536851220135,1
735,786,17,0.128140038196892,1
736,785,17,0.121568215931386,1
737,777,17,0.106302152530399,1
717,779,18,0.129039904000037,1
718,778,18,0.124922523825318,1
718,779,18,0.125367805479433,1
718,780,18,0.142316382358329,1
718,781,18,0.157837539354907,1
719,778,18,0.122504254385624,1
719,779,18,0.129639647224408,1
719,780,18,0.138502560216143,1
719,781,18,0.154969816638679,1
719,782,18,0.129179798354034,1
720,775,18,0.114453357736655,1
720,780,18,0.136938302195184,1
722,768,18,0.124258332380776,1
722,769,18,0.140389639349634,1
722,771,18,0.118484639640086,1
722,780,18,0.130806786868286,1
723,768,18,0.129767182868133,1
723,769,18,0.136602375049647,1
723,770,18,0.112070446700898,1
723,780,18,0.106523259672743,1
723,781,18,0.130349971905127,1
724,768,18,0.111326492497192,1
724,769,18,0.113211653130533,1
726,764,18,0.120275392219509,1
726,767,18,0.12030179390472,1
726,768,18,0.109897778742679,1
726,786,18,0.131905083588159,1
726,787,18,0.183760503007539,1
727,764,18,0.105113920538936,1
727,765,18,0.112549246337293,1
727,766,18,0.111896755512855,1
727,767,18,0.112859619506988,1
727,768,18,0.111855362756701,1
727,786,18,0.18102959612181,1
727,787,18,0.283952232558625,1
727,788,18,0.195511717975838,1
728,763,18,0.112291486918818,1
728,764,18,0.10454933494523,1
728,786,18,0.19552374206399,1
728,787,18,0.322899592573031,1
728,788,18,0.217648510427405,1
728,789,18,0.108563227652529,1
729,763,18,0.106167322124474,1
729,766,18,0.116383435812473,1
729,767,18,0.111471930424298,1
729,786,18,0.149370160862222,1
729,787,18,0.23200607477457,1
729,788,18,0.161391438188914,1
730,766,18,0.115943273876783,1
730,767,18,0.110629184616913,1
730,787,18,0.122313631318346,1
732,785,18,0.10660689289442,1
733,785,18,0.116252520485343,1
733,786,18,0.11670304455266,1
734,785,18,0.111581909560832,1
734,786,18,0.140772592056999,1
735,786,18,0.128005743186357,1
736,785,18,0.109984970112891,1
717,780,19,0.192306149613922,1
718,778,19,0.110284367677074,1
718,779,19,0.116259692552766,1
718,780,19,0.142573706768049,1
718,781,19,0.173857684855744,1
718,782,19,0.160379351281036,1
719,780,19,0.110667978474607,1
719,781,19,0.140763222637659,1
719,782,19,0.149309259636515,1
719,783,19,0.105631101332412,1
720,773,19,0.126050256137617,1
720,781,19,0.147854902673595,1
720,782,19,0.165795031816317,1
720,783,19,0.112850718558616,1
721,770,19,0.126477490505432,1
721,771,19,0.12067737377139,1
721,783,19,0.119957534668413,1
722,768,19,0.111548146188998,1
722,769,19,0.116220229450833,1
722,770,19,0.105742218184151,1
722,781,19,0.141240862250708,1
722,782,19,0.148690063712944,1
723,768,19,0.113010667931628,1
723,769,19,0.108561811085558,1
724,768,19,0.103623145535369,1
725,787,19,0.105125476156122,1
726,764,19,0.11317322735717,1
726,767,19,0.115809636956416,1
726,786,19,0.127237227719097,1
726,787,19,0.197766602588762,1
726,788,19,0.169071595837872,1
727,763,19,0.131618178583096,1
727,764,19,0.110887379044143,1
727,765,19,0.106924315436761,1
727,766,19,0.103614612671328,1
727,767,19,0.103466564691691,1
727,786,19,0.164286599918923,1
727,787,19,0.305027068252472,1
727,788,19,0.250825579692667,1
727,789,19,0.130218967345432,1
728,763,19,0.159090978043346,1
728,764,19,0.113730886273006,1
728,786,19,0.174624516058337,1
728,787,19,0.340687301340425,2
728,788,19,0.266619119094332,1
728,789,19,0.123323688185367,1
729,763,19,0.127865893448643,1
729,766,19,0.103491850969838,1
729,786,19,0.138752266395614,1
729,787,19,0.254755181088122,1
729,788,19,0.198432790611949,1
730,787,19,0.132097982085849,1
730,788,19,0.110717257158705,1
732,765,19,0.109324849904133,1
734,786,19,0.112430221249468,1
735,786,19,0.113178492078513,1
717,781,20,0.206362085582775,1
718,779,20,0.108021195589663,1
718,780,20,0.135597337514414,1
718,781,20,0.167777143631682,1
718,782,20,0.170310311153062,1
719,773,20,0.120341446625853,1
719,781,20,0.120580076813177,1
719,782,20,0.154538276799596,1
719,783,20,0.122783072689472,1
720,781,20,0.105163701156213,1
720,782,20,0.139579619585513,1
720,783,20,0.117832282664495,1
721,782,20,0.134941879707185,1
721,783,20,0.107853672602685,1
723,767,20,0.119562301329271,1
724,767,20,0.115467697766803,1
725,764,20,0.116492723396627,1
725,767,20,0.12114287775558,1
725,787,20,0.105166701601216,1
726,764,20,0.103664080974627,1
726,765,20,0.138749879424496,1
726,766,20,0.131978533143339,1
726,767,20,0.115755930106273,1
726,786,20,0.118137123415152,1
726,787,20,0.199009032209476,1
726,788,20,0.203798835532871,1
726,789,20,0.128223392566802,1
727,763,20,0.162305837746107,1
727,764,20,0.114268300550627,1
727,766,20,0.105300762376267,1
727,767,20,0.10561491677591,1
727,786,20,0.14512476541874,1
727,787,20,0.306717846896728,2
727,788,20,0.318087882654894,3
727,789,20,0.164145088224683,1
728,762,20,0.188636772686554,1
728,763,20,0.192662031391838,1
728,764,20,0.119366547389497,1
728,786,20,0.150571052723864,2
728,787,20,0.331874693207287,2
728,788,20,0.32180064891706,2
728,789,20,0.148582728091152,1
729,763,20,0.136780962874702,1
729,786,20,0.123715564149246,1
729,787,20,0.255868625035927,2
729,788,20,0.235948213345426,1
729,789,20,0.112828644652814,1
730,787,20,0.133112980206165,1
730,788,20,0.121374904733083,1
732,765,20,0.109844016122183,1
733,764,20,0.104154871236962,1
733,765,20,0.106352568929703,1
734,764,20,0.11165566027592,1
734,765,20,0.105297973858606,1
717,781,21,0.197849968112743,1
717,782,21,0.142023878009803,1
718,780,21,0.122246584199715,1
718,781,21,0.150107444931684,1
718,782,21,0.162867991752412,1
718,783,21,0.114698814215212,1
719,772,21,0.109906891618394,1
719,781,21,0.106424178063227,1
719,782,21,0.155351408549426,1
719,783,21,0.136847340749095,1
720,782,21,0.11991076565021,1
720,783,21,0.118738885526308,1
722,767,21,0.111278630380066,1
723,766,21,0.135319422690289,1
723,767,21,0.108305412463701,1
724,764,21,0.105062723354688,1
724,766,21,0.120224540811451,1
724,767,21,0.117488692672427,1
725,765,21,0.127469857016415,1
725,766,21,0.133310451872818,1
725,767,21,0.134299527932961,1
725,768,21,0.103374822460658,1
726,765,21,0.11120960899093,1
726,766,21,0.123220100331312,1
726,767,21,0.123980116396743,1
726,786,21,0.104973970414586,1
726,787,21,0.179754886620657,1
726,788,21,0.217040881275091,3
726,789,21,0.13995026935296,1
727,763,21,0.163316117694541,1
727,764,21,0.105683659313279,1
727,766,21,0.113683068772163,1
727,767,21,0.12106388462729,1
727,786,21,0.125279788707994,1
727,787,21,0.282392358087428,3
727,788,21,0.362003934977657,3
727,789,21,0.196708839761603,3
728,762,21,0.188677016573432,1
728,763,21,0.187533679716305,1
728,764,21,0.110437111520451,1
728,766,21,0.10459585857388,1
728,767,21,0.116284164583756,1
728,786,21,0.124948858586105,1
728,787,21,0.296847542860855,2
728,788,21,0.36087101602251,3
728,789,21,0.177515193851948,3
729,763,21,0.126685402382206,1
729,786,21,0.104454781888395,1
729,787,21,0.230513548581912,1
729,788,21,0.256839832274901,3
729,789,21,0.125242366800988,1
730,787,21,0.125842600804467,1
730,788,21,0.128067871359836,1
733,764,21,0.110185654151889,1
733,765,21,0.105417590112175,1
734,764,21,0.113545059456104,1
734,765,21,0.106304104492761,1
735,766,21,0.103814281689897,1
735,767,21,0.112588296738612,1
717,781,22,0.179045264646388,1
717,782,22,0.129084944137291,1
718,781,22,0.12297803469023,1
718,782,22,0.133261128572437,1
719,782,22,0.1316106161232,1
719,783,22,0.122959496624823,1
720,770,22,0.10538676026092,1
721,769,22,0.109510509409976,1
722,766,22,0.123110522741321,1
722,767,22,0.104437381538193,1
723,764,22,0.122829830553605,1
723,765,22,0.132496650878749,1
723,766,22,0.106639663553967,1
723,767,22,0.104210663898316,1
724,767,22,0.123968393468497,1
724,768,22,0.105899367885432,1
725,766,22,0.117450746524102,1
725,767,22,0.144686577753554,1
725,768,22,0.107930613381976,1
726,766,22,0.128472106033986,1
726,767,22,0.137401051123924,1
726,787,22,0.151952205521158,1
726,788,22,0.201112623008206,3
726,789,22,0.145906576538207,1
727,763,22,0.141903815593409,1
727,765,22,0.109726976458932,1
727,766,22,0.146732535469275,1
727,767,22,0.153277866817006,1
727,786,22,0.104695408654363,1
727,787,22,0.245915758569159,3
727,788,22,0.359577679223384,3
727,789,22,0.220980833648101,3
728,763,22,0.157352259203469,1
728,766,22,0.133705562517183,1
728,767,22,0.151707619060112,1
728,787,22,0.256531243756509,3
728,788,22,0.371505753135788,3
728,789,22,0.212549337800672,3
729,763,22,0.109261360934037,1
729,766,22,0.106606257112393,1
729,767,22,0.111859210911073,1
729,787,22,0.193351174492407,1
729,788,22,0.257366148252233,3
729,789,22,0.143933477211921,1
730,765,22,0.104148334951566,1
730,787,22,0.111394721947312,1
730,788,22,0.128247674978591,1
733,764,22,0.113357782610019,1
733,765,22,0.105941452193966,1
734,764,22,0.10449307381291,1
735,767,22,0.112017788333395,1
717,781,23,0.159113832734092,1
717,782,23,0.116971076870196,1
718,782,23,0.108507055752774,1
719,782,23,0.107774980634303,1
720,770,23,0.110491576847397,1
721,766,23,0.112622193959294,1
721,769,23,0.114578885647665,1
722,765,23,0.121424127646828,1
722,767,23,0.104272658222946,1
722,768,23,0.109288476479768,1
723,764,23,0.104791512127018,1
723,765,23,0.104561671347361,1
723,767,23,0.109977173417512,1
724,767,23,0.137934104159924,1
724,768,23,0.110832779868348,1
725,766,23,0.112487742791771,1
725,767,23,0.154198412267122,1
725,768,23,0.109813888977378,1
726,766,23,0.144299040723155,1
726,767,23,0.152900346142043,1
726,787,23,0.128611833076924,1
726,788,23,0.173494686780758,1
726,789,23,0.152477908024604,1
727,763,23,0.108696083787951,1
727,765,23,0.127334736604653,1
727,766,23,0.19547321412398,1
727,767,23,0.190195464826263,1
727,787,23,0.202962793321942,1
727,788,23,0.317290299679539,3
727,789,23,0.236800295109939,1
727,790,23,0.113420156173051,1
728,763,23,0.118978118033446,1
728,765,23,0.114514247808292,1
728,766,23,0.174891901439776,1
728,767,23,0.186378831858274,1
728,768,23,0.104531354583355,1
728,787,23,0.215006691103897,3
728,788,23,0.355724639368819,3
728,789,23,0.254832902652358,3
728,790,23,0.10688471848598,1
729,765,23,0.103050930557344,1
729,766,23,0.119443532785071,1
729,767,23,0.120368762944857,1
729,787,23,0.157307720999394,1
729,788,23,0.244374132157534,3
729,789,23,0.1698987482545,1
730,765,23,0.115177747700454,1
730,766,23,0.103610630668108,1
730,788,23,0.126856405439225,1
731,765,23,0.105397769328644,1
733,764,23,0.109068105506087,1
717,774,24,0.120692030220214,1
717,775,24,0.11065066735697,1
720,766,24,0.116046928655263,1
720,770,24,0.108296422282764,1
721,765,24,0.103856511001349,1
721,767,24,0.110622559098951,1
721,769,24,0.113420245405616,1
722,768,24,0.106658703552554,1
723,767,24,0.108959866404573,1
724,767,24,0.139454526683259,1
725,766,24,0.116544924447233,1
725,767,24,0.150681567255789,1
726,765,24,0.105254885683715,1
726,766,24,0.160835184685979,1
726,767,24,0.156436074994974,1
726,787,24,0.108122931867992,1
726,788,24,0.14594917393399,1
726,789,24,0.153788042854118,1
727,765,24,0.142437493257364,1
727,766,24,0.235130374577785,1
727,767,24,0.207669409586486,1
727,787,24,0.154773003062194,1
727,788,24,0.249057101792316,1
727,789,24,0.228602633199458,1
727,790,24,0.122753938256954,1
728,765,24,0.120839063179422,1
728,766,24,0.203086268883953,1
728,767,24,0.19534177455553,1
728,787,24,0.165569797667836,1
728,788,24,0.300983896109737,3
728,789,24,0.266002008981972,1
728,790,24,0.118362859496812,1
729,766,24,0.121861289137515,1
729,767,24,0.113203287577551,1
729,787,24,0.120100931400592,1
729,788,24,0.209120978031746,1
729,789,24,0.178526031503914,1
730,765,24,0.109736055872435,1
730,788,24,0.116685019574502,1
745,781,24,0.105840407468016,1
716,782,25,0.116128888766343,1
717,774,25,0.111982151077693,1
717,781,25,0.124572397547853,1
718,766,25,0.113149669959973,1
719,766,25,0.108722663938292,1
719,771,25,0.10498254789491,1
720,767,25,0.123829592213424,1
721,767,25,0.110299693370136,1
721,768,25,0.144798542314662,1
721,769,25,0.110267937731018,1
722,768,25,0.104108715692644,1
723,767,25,0.11475798655997,1
724,766,25,0.120414595021126,1
724,767,25,0.148027132678384,1
725,766,25,0.14241988097982,1
725,767,25,0.15850330352341,1
726,765,25,0.117121723748292,1
726,766,25,0.187744513959587,1
726,767,25,0.168033809951234,1
726,788,25,0.129350132166814,1
726,789,25,0.149182449007381,1
727,765,25,0.150415241511061,1
727,766,25,0.256381377663358,1
727,767,25,0.209759437035316,1
727,787,25,0.112948651298856,1
727,788,25,0.189601822878534,1
727,789,25,0.205674682517226,1
727,790,25,0.12406410654868,1
728,765,25,0.123865753710446,1
728,766,25,0.207777336374022,1
728,767,25,0.179076852974447,1
728,787,25,0.118616859993481,1
728,788,25,0.233519905242154,1
728,789,25,0.245123172617453,1
728,790,25,0.121625369389357,1
729,766,25,0.118020630301362,1
729,788,25,0.172262663907953,1
729,789,25,0.17507705901244,1
730,788,25,0.106359975232609,1
745,783,25,0.103040066492538,1
717,781,26,0.111454842388074,1
718,767,26,0.108918830578679,1
719,767,26,0.113178335921524,1
720,767,26,0.121553503712209,1
720,768,26,0.169856641637824,1
720,769,26,0.145603408898146,1
721,767,26,0.125413302933583,1
721,768,26,0.152007262013849,1
721,769,26,0.103845356930707,1
722,767,26,0.114848869927564,1
722,768,26,0.106906134301614,1
722,788,26,0.168966379489502,1
722,789,26,0.18902234660052,1
723,766,26,0.108433394270252,1
723,767,26,0.124653878033896,1
724,766,26,0.143625814481392,1
724,767,26,0.151893925502051,1
725,766,26,0.160566784284111,1
725,767,26,0.154986402741724,1
725,789,26,0.107172850438815,1
726,765,26,0.119919499287523,1
726,766,26,0.200851283133055,1
726,767,26,0.166998243724653,1
726,788,26,0.116976665059588,1
726,789,26,0.139551332862364,1
727,765,26,0.14426109457483,1
727,766,26,0.247948320246039,1
727,767,26,0.191318099728278,1
727,788,26,0.149148641019264,1
727,789,26,0.178774198421637,1
727,790,26,0.120492561974917,1
728,765,26,0.124570925210529,1
728,766,26,0.19130163632001,1
728,767,26,0.146485740502242,1
728,788,26,0.172949040799003,1
728,789,26,0.207471023286041,1
728,790,26,0.126538302498574,1
729,765,26,0.108506129964911,1
729,766,26,0.120728359028297,1
729,788,26,0.13704364123833,1
729,789,26,0.163034153942772,1
729,790,26,0.106642128603579,1
719,767,27,0.10714081594793,1
719,768,27,0.149733404326762,1
720,767,27,0.148579549181019,1
720,768,27,0.180384701219479,1
720,769,27,0.135709971319761,1
721,766,27,0.120540111778065,1
721,767,27,0.180373223680788,1
721,768,27,0.177775329087469,1
721,769,27,0.103769297322996,1
721,789,27,0.222912049439124,1
722,766,27,0.12390888650162,1
722,767,27,0.164699813619941,1
722,768,27,0.128895614942207,1
722,787,27,0.109256319294106,1
722,788,27,0.198848859755051,1
722,789,27,0.252198155009637,1
722,790,27,0.172963295701284,1
723,766,27,0.144065652949034,1
723,767,27,0.158211368032487,1
723,788,27,0.126749582904682,1
723,789,27,0.166875013552196,1
723,790,27,0.16726767030102,1
724,765,27,0.105561187617625,1
724,766,27,0.175590347035261,1
724,767,27,0.164802921848959,1
724,789,27,0.108740566221673,1
725,765,27,0.10408972031034,1
725,766,27,0.16754271852899,1
725,767,27,0.145627445920381,1
725,789,27,0.107979702446873,1
726,765,27,0.114650940944015,1
726,766,27,0.192196616640214,1
726,767,27,0.152540839291169,1
726,788,27,0.115267515660984,1
726,789,27,0.133657633475633,1
727,765,27,0.132403971705781,1
727,766,27,0.218303232065972,1
727,767,27,0.160069145422401,1
727,788,27,0.124583417769648,1
727,789,27,0.15731927661658,1
727,790,27,0.117934576646356,1
728,765,27,0.130741903639359,1
728,766,27,0.170441572256382,1
728,767,27,0.114505335705849,1
728,788,27,0.126495917030133,1
728,789,27,0.173573813757895,1
728,790,27,0.138733583327288,1
729,765,27,0.125338280654442,1
729,766,27,0.127540841521983,1
729,788,27,0.106382818769285,1
729,789,27,0.150722268459563,1
729,790,27,0.132914203513247,1
730,789,27,0.103136047270416,1
731,765,27,0.107140838256071,1
732,765,27,0.115735138918596,1
732,766,27,0.115880811081185,1
733,766,27,0.107852445654914,1
716,767,28,0.106073895628773,1
718,768,28,0.139532783642886,1
719,767,28,0.107885573244722,1
719,768,28,0.14204778118319,1
719,769,28,0.146774686702233,1
719,770,28,0.114001896727405,1
720,766,28,0.114176101002697,1
720,767,28,0.172962938771023,1
720,768,28,0.17515292900095,1
720,769,28,0.11462707123284,1
721,766,28,0.156637997135813,1
721,767,28,0.234097529944441,1
721,768,28,0.186593726183271,1
721,788,28,0.163397620488725,1
721,789,28,0.201893430261315,1
721,790,28,0.130520082636494,1
722,766,28,0.15924663309916,1
722,767,28,0.210943129320027,1
722,768,28,0.138880270510306,1
722,787,28,0.115503167711446,1
722,788,28,0.210213943105852,1
722,789,28,0.301815075145866,1
722,790,28,0.222328847701516,1
722,791,28,0.131601559017839,1
723,766,28,0.173312317725755,1
723,767,28,0.178722655461198,1
723,788,28,0.163217716483334,1
723,789,28,0.257681607678141,4
723,790,28,0.240008763530222,1
723,791,28,0.159156887446772,1
724,765,28,0.118398262517031,1
724,766,28,0.18831600392302,1
724,767,28,0.15792909196674,1
724,788,28,0.111176124470862,1
724,789,28,0.151906183825687,1
724,790,28,0.173185540558833,1
725,765,28,0.105949672744029,1
725,766,28,0.154769032213045,1
725,767,28,0.12285561876493,1
725,788,28,0.109654196147991,1
725,789,28,0.115953022534524,1
726,765,28,0.10636711383782,1
726,766,28,0.162601376001847,1
726,767,28,0.12560788569594,1
726,788,28,0.110713933245653,1
726,789,28,0.123594999799673,1
726,790,28,0.105544735363428,1
727,765,28,0.118007345803227,1
727,766,28,0.174936328103145,1
727,767,28,0.124027175420783,1
727,789,28,0.132077480904008,1
727,790,28,0.114376673500989,1
728,765,28,0.129202151111601,1
728,766,28,0.146691053480556,1
728,789,28,0.140056132637426,1
728,790,28,0.144486194874464,1
729,765,28,0.129006140628203,1
729,766,28,0.124894850576054,1
729,789,28,0.126508576900312,1
729,790,28,0.144919619751486,1
730,765,28,0.102915910532218,1
731,765,28,0.112115866076554,1
731,766,28,0.106842812642577,1
732,765,28,0.124199427733713,1
732,766,28,0.137093946096927,1
732,789,28,0.104692263206442,1
733,766,28,0.119340915335161,1
716,767,29,0.109468703953208,1
716,781,29,0.118848886970984,1
717,768,29,0.128909747149711,1
717,779,29,0.10788450245394,1
717,780,29,0.107928561032978,1
718,768,29,0.137246857251364,1
718,769,29,0.184168173135448,1
719,767,29,0.110374091021321,1
719,768,29,0.135359677731237,1
719,769,29,0.13415417923842,1
720,766,29,0.123778551186164,1
720,767,29,0.190840883969914,1
720,768,29,0.16593763660948,1
721,766,29,0.184542068737451,1
721,767,29,0.277860771499404,1
721,768,29,0.186131434571426,1
721,788,29,0.130843171446721,1
721,789,29,0.153682391496993,1
721,790,29,0.115083518111668,1
722,766,29,0.197996175670723,1
722,767,29,0.258433168958025,1
722,768,29,0.145832970826037,1
722,787,29,0.129549332714416,1
722,788,29,0.207593561906118,1
722,789,29,0.3047796040412,4
722,790,29,0.245790721437258,1
722,791,29,0.127873266289338,1
723,765,29,0.113954603467881,1
723,766,29,0.200769189173127,1
723,767,29,0.200852710854098,1
723,787,29,0.116913544173823,1
723,788,29,0.214063770588072,4
723,789,29,0.349562528426149,4
723,790,29,0.315321896216994,4
723,791,29,0.166194626397081,1
724,765,29,0.124653498795494,1
724,766,29,0.186239584440375,1
724,767,29,0.148181605402711,1
724,788,29,0.158010628223136,1
724,789,29,0.2161086240508,4
724,790,29,0.207153132272733,1
724,791,29,0.138429266817952,1
725,765,29,0.107448054823774,1
725,766,29,0.139145101609568,1
725,767,29,0.106389053894774,1
725,788,29,0.13276545282716,1
725,789,29,0.136134930257166,1
725,790,29,0.127220909313747,1
726,766,29,0.133248033693503,1
726,767,29,0.103706232207584,1
726,788,29,0.110721294932277,1
726,789,29,0.12158842710739,1
726,790,29,0.109467588546144,1
727,765,29,0.108938829827341,1
727,766,29,0.136645273605337,1
727,789,29,0.116942042824314,1
727,790,29,0.114164076914545,1
728,765,29,0.123530852739409,1
728,766,29,0.125926981348877,1
728,789,29,0.119391632894372,1
728,790,29,0.141826863660047,1
729,765,29,0.121773551217842,1
729,766,29,0.112540713473252,1
729,789,29,0.108798199304682,1
729,790,29,0.145186949362572,1
729,791,29,0.10678348414083,1
730,790,29,0.112129998284058,1
731,764,29,0.105078071355892,1
731,765,29,0.108304854760169,1
731,766,29,0.106375880937345,1
731,790,29,0.107082680931741,1
732,765,29,0.11817790269742,1
732,766,29,0.143051067529331,1
732,790,29,0.119397076080845,1
733,766,29,0.117960632555377,1
733,790,29,0.111271123690523,1
734,790,29,0.108029471910079,1
735,789,29,0.105297918088253,1
735,790,29,0.10417340930237,1
737,768,29,0.109585286299562,1
716,767,30,0.108618752616187,1
716,768,30,0.117942540652795,1
717,768,30,0.120529370408036,1
717,769,30,0.154947675808454,1
718,768,30,0.126459833611605,1
718,769,30,0.161407288123297,1
718,770,30,0.135964183743772,1
719,767,30,0.109365807651532,1
719,768,30,0.123920832511278,1
719,769,30,0.121997458031917,1
720,766,30,0.123251097493627,1
720,767,30,0.186225284921811,1
720,768,30,0.148461784503177,1
721,766,30,0.182611276801112,1
721,767,30,0.271842659608728,1
721,768,30,0.168604452205298,1
721,787,30,0.106702762131591,1
721,788,30,0.11271224077159,1
721,789,30,0.116811618276293,1
722,765,30,0.105797163136136,1
722,766,30,0.207329611978437,1
722,767,30,0.261569582081958,1
722,768,30,0.137699121353701,1
722,787,30,0.148570559000081,1
722,788,30,0.214251225899288,1
722,789,30,0.277167769090393,4
722,790,30,0.231823014167187,4
722,791,30,0.118474310970671,1
723,765,30,0.11980415504301,1
723,766,30,0.198766988876536,1
723,767,30,0.194357383205057,1
723,787,30,0.152196390435661,1
723,788,30,0.290009115998855,4
723,789,30,0.409444562082709,4
723,790,30,0.343808834934121,4
723,791,30,0.163728271758848,4
724,765,30,0.121093755228471,1
724,766,30,0.162483332472239,1
724,767,30,0.129278500725148,1
724,787,30,0.12268979119669,1
724,788,30,0.232900876629643,1
724,789,30,0.284826153993456,4
724,790,30,0.231930606332603,4
724,791,30,0.136603501610782,1
725,765,30,0.10618565941661,1
725,766,30,0.121192948378693,1
725,788,30,0.156902170144907,1
725,789,30,0.159849332152251,1
725,790,30,0.135759751937038,1
726,766,30,0.108330364119728,1
726,788,30,0.103967717085654,1
726,789,30,0.117381278972141,1
726,790,30,0.113019524263718,1
727,766,30,0.106929301306338,1
727,789,30,0.104648695406513,1
727,790,30,0.111106790767749,1
728,765,30,0.110713342079909,1
728,766,30,0.104923531707141,1
728,790,30,0.129779363113274,1
728,791,30,0.105886038771014,1
729,765,30,0.106008108920124,1
729,790,30,0.132672751346051,1
729,791,30,0.126001122456437,1
730,790,30,0.114289682904049,1
730,791,30,0.112390289676569,1
731,763,30,0.104490731458075,1
731,764,30,0.10490337630149,1
731,790,30,0.122934422274019,1
731,791,30,0.110357884156678,1
732,765,30,0.10488670096588,1
732,766,30,0.134297174424055,1
732,790,30,0.133285912917404,1
732,791,30,0.110140480165787,1
733,766,30,0.106024081549284,1
733,790,30,0.122631210017676,1
734,790,30,0.133546784321588,1
735,789,30,0.109362004113443,1
735,790,30,0.13954258807098,1
736,790,30,0.107017786548744,1
741,768,30,0.107300966094213,1
741,769,30,0.106849583163457,1
749,777,30,0.106098657665599,1
716,767,31,0.105903651048558,1
716,768,31,0.118328783811,1
717,768,31,0.111985028827919,1
717,769,31,0.135545381853362,1
717,773,31,0.105756629243421,1
718,768,31,0.114063121421161,1
718,769,31,0.140073019900379,1
718,770,31,0.117180092999964,1
719,767,31,0.108083067219516,1
719,768,31,0.113809098616351,1
719,769,31,0.113587712622241,1
720,766,31,0.12023981073416,1
720,767,31,0.166560312603092,1
720,768,31,0.131432217917346,1
721,766,31,0.16559174887886,1
721,767,31,0.230267400550975,1
721,768,31,0.145904803040974,1
721,787,31,0.113870780627003,1
721,788,31,0.110784304277336,1
722,765,31,0.114268735559382,1
722,766,31,0.195582412475569,1
722,767,31,0.230974546321562,1
722,768,31,0.124909986649916,1
722,787,31,0.175482632175068,1
722,788,31,0.242044671428295,4
722,789,31,0.244969335675153,4
722,790,31,0.187816859261774,1
723,765,31,0.123422323632058,1
723,766,31,0.184152858596456,1
723,767,31,0.176484100407695,1
723,787,31,0.205337651118695,4
723,788,31,0.383433180112096,4
723,789,31,0.427176322031761,4
723,790,31,0.307029781636313,4
723,791,31,0.145719667776452,1
724,765,31,0.114609481263437,1
724,766,31,0.140166312547232,1
724,767,31,0.116806989336976,1
724,787,31,0.157971332432263,1
724,788,31,0.319818972110451,4
724,789,31,0.347354401677358,4
724,790,31,0.240130209051377,4
724,791,31,0.133976818361135,1
725,765,31,0.104157247054009,1
725,766,31,0.110488464861688,1
725,788,31,0.178296480730094,1
725,789,31,0.191506603522134,4
725,790,31,0.148976098700497,1
726,789,31,0.119022299307261,1
726,790,31,0.116083681318029,1
726,791,31,0.116803174644816,1
727,790,31,0.104796118758193,1
728,765,31,0.104315880246685,1
728,790,31,0.111627395860912,1
728,791,31,0.112217479660106,1
729,790,31,0.116973988082634,1
729,791,31,0.138939119387015,1
730,790,31,0.113748152774361,1
730,791,31,0.124551706746812,1
731,790,31,0.135044597543731,1
731,791,31,0.134005395090121,1
732,766,31,0.113686359223002,1
732,790,31,0.135745976659795,1
732,791,31,0.130785951064326,1
733,790,31,0.118840878348262,1
733,791,31,0.106009715106297,1
734,790,31,0.144986845335247,1
734,791,31,0.116480197375295,1
735,789,31,0.103578250401033,1
735,790,31,0.172020698653507,1
735,791,31,0.133661704711417,1
736,790,31,0.140610043785527,1
736,791,31,0.111859065908154,1
741,768,31,0.107661242575962,1
712,778,32,0.134278201349892,1
715,781,32,0.1265253749307,1
716,768,32,0.112466929295952,1
716,776,32,0.117290139060922,1
716,777,32,0.106330673489032,1
716,778,32,0.111227968591208,1
716,779,32,0.104720906859852,1
717,769,32,0.115052710568553,1
717,773,32,0.112583098941693,1
718,769,32,0.113732470151038,1
720,766,32,0.109813453968623,1
720,767,32,0.131408894755633,1
720,768,32,0.109513130616576,1
721,766,32,0.137367700452704,1
721,767,32,0.166125716548652,1
721,768,32,0.116534383850476,1
721,787,32,0.11525251343597,1
721,788,32,0.113868003263413,1
722,765,32,0.116292764372221,1
722,766,32,0.161846535425195,1
722,767,32,0.175041031364265,1
722,768,32,0.105865414894396,1
722,787,32,0.194288339507781,1
722,788,32,0.270900586802272,4
722,789,32,0.220064772134383,4
722,790,32,0.14186894796858,1
723,765,32,0.118774667784929,1
723,766,32,0.155236153537478,1
723,767,32,0.148793573488505,1
723,787,32,0.252605100122954,4
723,788,32,0.451288165771976,4
723,789,32,0.407126076958983,4
723,790,32,0.241841488877473,4
723,791,32,0.119718547550829,1
724,765,32,0.105521267198796,1
724,766,32,0.120714371823711,1
724,767,32,0.11026085489616,1
724,787,32,0.183077840422013,4
724,788,32,0.37172595679841,4
724,789,32,0.37599805508701,4
724,790,32,0.238194040852988,4
724,791,32,0.133656384219721,1
725,788,32,0.189836816838828,4
725,789,32,0.224216696465882,4
725,790,32,0.174953761915559,1
725,791,32,0.137963740525621,1
726,789,32,0.12679920736497,1
726,790,32,0.126378921983165,1
726,791,32,0.130114788325632,1
727,765,32,0.107902962440853,1
727,790,32,0.104857599995574,1
727,791,32,0.112099291127579,1
728,765,32,0.10470491192255,1
728,791,32,0.121994245659572,1
728,792,32,0.11196335646866,1
729,790,32,0.105545337683242,1
729,791,32,0.138272005575965,1
729,792,32,0.130832351998198,1
730,790,32,0.108482628338068,1
730,791,32,0.12612132987575,1
730,792,32,0.11078124806198,1
731,790,32,0.129923964485082,1
731,791,32,0.141442293612439,1
731,792,32,0.107804036988326,1
732,790,32,0.118386751516128,1
732,791,32,0.129219183377472,1
733,791,32,0.10356654978093,1
734,790,32,0.129076232808119,1
734,791,32,0.125580903999056,1
735,790,32,0.171124402152968,1
735,791,32,0.157516435969254,1
736,790,32,0.153684477308203,1
736,791,32,0.13601815829161,1
737,790,32,0.109432531302115,1
740,768,32,0.11026520498371,1
741,768,32,0.103638560460997,1
741,769,32,0.110841970822557,1
712,777,33,0.147415041897812,1
712,778,33,0.137370923979119,1
712,779,33,0.129020373222342,1
712,780,33,0.122899342721848,1
713,777,33,0.138602857619359,1
713,778,33,0.151733028033035,1
713,781,33,0.127461770315199,1
714,777,33,0.146850701693661,1
714,781,33,0.132244446187454,1
715,776,33,0.165613187002634,1
715,777,33,0.140215301225493,1
715,778,33,0.155469597081952,1
715,779,33,0.159849756006936,1
715,780,33,0.144877925835424,1
715,781,33,0.111030296151283,1
716,768,33,0.106135276479518,1
716,775,33,0.13404306238668,1
717,769,33,0.103077979178652,1
717,773,33,0.122044807061794,1
720,767,33,0.104408135564968,1
721,766,33,0.112150677931029,1
721,767,33,0.112119915004197,1
721,787,33,0.11354585139512,1
721,788,33,0.11768981172018,1
722,765,33,0.110230348512953,1
722,766,33,0.123390356065597,1
722,767,33,0.119042711256536,1
722,787,33,0.206805906053635,1
722,788,33,0.296229986585668,4
722,789,33,0.211448386411986,4
722,790,33,0.11225522503516,1
723,765,33,0.106412789757101,1
723,766,33,0.120982192213905,1
723,767,33,0.116733104773041,1
723,787,33,0.28896150337598,4
723,788,33,0.486290665622289,4
723,789,33,0.379255757575109,4
723,790,33,0.1885917325493,4
724,767,33,0.103873944813763,1
724,787,33,0.202606175375363,4
724,788,33,0.382914694292355,4
724,789,33,0.371788040355606,4
724,790,33,0.231492072891227,4
724,791,33,0.128883602008125,1
725,788,33,0.194043819971158,4
725,789,33,0.253178107039994,4
725,790,33,0.206375961246654,1
725,791,33,0.143973096470843,1
726,789,33,0.137025660876455,1
726,790,33,0.134894597601732,1
726,791,33,0.127497708730809,1
726,792,33,0.11594461236526,1
727,764,33,0.112386608833257,1
727,765,33,0.114684124304176,1
727,791,33,0.118279315507701,1
727,792,33,0.109611877603974,1
728,764,33,0.110945346749271,1
728,765,33,0.108594882905013,1
728,791,33,0.121129325559749,1
728,792,33,0.109855014035836,1
729,791,33,0.120064357202955,1
729,792,33,0.111078414812035,1
730,791,33,0.120558594073119,1
730,792,33,0.10753723161856,1
731,790,33,0.115452405535953,1
731,791,33,0.138883717118134,1
731,792,33,0.118341276370119,1
732,791,33,0.118402333752816,1
732,792,33,0.106920121506199,1
734,791,33,0.120123429161077,1
735,790,33,0.142144988908838,1
735,791,33,0.155325308024122,1
736,790,33,0.140841814219406,1
736,791,33,0.141089713439433,1
737,790,33,0.107794054095101,1
737,791,33,0.103903280019553,1
741,769,33,0.104114091954694,1
711,777,34,0.159671815117978,1
712,777,34,0.141379172726673,1
712,778,34,0.137389060497984,1
712,779,34,0.124817497096149,1
712,780,34,0.111324005139439,1
713,777,34,0.12065219903395,1
713,778,34,0.124947754333111,1
713,779,34,0.136665674400542,1
713,780,34,0.13666164778104,1
714,777,34,0.118599571183985,1
714,778,34,0.122581462862611,1
714,779,34,0.136219712348118,1
714,780,34,0.133457328675037,1
715,776,34,0.141824722078483,1
715,777,34,0.106505134307949,1
715,778,34,0.106139637721139,1
715,779,34,0.109751448489922,1
715,780,34,0.106157506542309,1
716,769,34,0.125353784812635,1
716,775,34,0.122467936731613,1
717,773,34,0.118855534797086,1
721,788,34,0.108776348480294,1
722,787,34,0.183495839219336,1
722,788,34,0.272003389766684,4
722,789,34,0.187608746611728,4
723,787,34,0.262546031734134,4
723,788,34,0.433013381047771,4
723,789,34,0.321419402782503,4
723,790,34,0.152324082236375,4
724,787,34,0.185155185692522,4
724,788,34,0.331024842256902,4
724,789,34,0.320993518057236,4
724,790,34,0.209226339383034,4
724,791,34,0.115604613983939,1
725,788,34,0.172850081884263,4
725,789,34,0.244890030232885,4
725,790,34,0.213736688620555,1
725,791,34,0.136475140565829,1
726,789,34,0.129904322166681,1
726,790,34,0.132542839885279,1
726,791,34,0.117890350756259,1
726,792,34,0.103506016639553,1
727,765,34,0.107914462287686,1
727,791,34,0.124632796840382,1
727,792,34,0.113402510433295,1
728,791,34,0.121966282404471,1
728,792,34,0.108699976558605,1
730,791,34,0.106204565566349,1
731,791,34,0.119884486659776,1
731,792,34,0.11579529282157,1
732,792,34,0.103207466784739,1
735,791,34,0.123454603512497,1
736,790,34,0.105422609443964,1
736,791,34,0.117396158502378,1
737,766,34,0.11015268271907,1
711,778,35,0.153221650300968,1
712,777,35,0.129713364477283,1
712,778,35,0.135594236682776,1
712,779,35,0.127883461109905,1
712,780,35,0.104790485952519,1
713,777,35,0.105964507657983,1
713,778,35,0.108251337529227,1
713,779,35,0.116544455976266,1
713,780,35,0.112615189202931,1
715,769,35,0.122548435659439,1
715,776,35,0.122160419004002,1
716,769,35,0.105449758451908,1
716,770,35,0.127146132424161,1
716,775,35,0.112418364472375,1
717,771,35,0.10780150501429,1
717,773,35,0.112561415428364,1
722,787,35,0.148418473246872,1
722,788,35,0.218096926375371,1
722,789,35,0.152910317881198,1
723,787,35,0.206476615580131,1
723,788,35,0.342255095201778,4
723,789,35,0.262478125752063,4
723,790,35,0.131058478472331,1
724,787,35,0.152453201758131,1
724,788,35,0.269792742197928,4
724,789,35,0.273659300786112,4
724,790,35,0.187311356780261,1
724,791,35,0.106599932754339,1
725,768,35,0.112623186671582,1
725,788,35,0.148507728120153,1
725,789,35,0.218323822480378,1
725,790,35,0.198748316962281,1
725,791,35,0.125250163496367,1
726,789,35,0.12133943478844,1
726,790,35,0.131041635825661,1
726,791,35,0.112834734775385,1
727,791,35,0.126767764039829,1
727,792,35,0.109953827947657,1
728,791,35,0.121669572971313,1
728,792,35,0.106997519602387,1
731,791,35,0.104751368626776,1
731,792,35,0.109704389465882,1
734,768,35,0.117375233465853,1
735,768,35,0.113898130408218,1
737,767,35,0.113931135303249,1
752,779,35,0.107592243494968,1
711,779,36,0.122950272208402,1
712,778,36,0.129544090301214,1
712,779,36,0.130488103915962,1
713,776,36,0.109400318346099,1
713,779,36,0.110971146114667,1
714,776,36,0.117740083116565,1
717,772,36,0.104595758187244,1
722,787,36,0.108375839265737,1
722,788,36,0.152445527757529,1
722,789,36,0.11480262515068,1
723,787,36,0.141146922667757,1
723,788,36,0.235443067794174,1
723,789,36,0.198189453406815,1
723,790,36,0.110113844245093,1
724,787,36,0.113746591204471,1
724,788,36,0.204775307493189,1
724,789,36,0.221096724442076,1
724,790,36,0.154605457767075,1
725,768,36,0.108243953534462,1
725,788,36,0.120480504424552,1
725,789,36,0.172116322501125,1
725,790,36,0.156574608552352,1
725,791,36,0.105701383131529,1
726,789,36,0.104554934288693,1
726,790,36,0.117005766029894,1
727,791,36,0.108609282810212,1
731,793,36,0.1066572423693,1
734,768,36,0.126346407867243,1
734,769,36,0.10385686793161,1
735,768,36,0.11798152412969,1
752,779,36,0.105735871517956,1
711,779,37,0.119576857391459,1
712,778,37,0.121948882054269,1
712,779,37,0.128924113592698,1
713,776,37,0.103148684832454,1
713,779,37,0.109246347554952,1
716,771,37,0.106706755288881,1
723,788,37,0.148444395307045,1
723,789,37,0.142155362194536,1
724,788,37,0.147671295516751,1
724,789,37,0.168183229881559,1
724,790,37,0.117912301967284,1
725,789,37,0.125784577328986,1
725,790,37,0.113399509988292,1
726,790,37,0.105013924295627,1
727,790,37,0.106607818682283,1
731,793,37,0.108490781963707,1
734,768,37,0.118120280768482,1
734,769,37,0.103914054851793,1
735,768,37,0.113139229749852,1
754,784,37,0.107381531946463,1
755,783,37,0.118891495520838,1
755,784,37,0.121135549531168,1
756,783,37,0.106562243149638,1
712,779,38,0.123458786288988,1
713,776,38,0.104416478809809,1
724,789,38,0.11415027932916,1
727,790,38,0.110694313235393,1
731,793,38,0.104179867509272,1
731,794,38,0.160147926623348,1
734,768,38,0.104300309164068,1
734,769,38,0.102936668257683,1
735,768,38,0.10291628977062,1
743,771,38,0.105122631868108,1
754,783,38,0.11062809151799,1
754,784,38,0.114967984247954,1
755,783,38,0.143789567392493,1
755,784,38,0.138619811806735,1
756,783,38,0.11716075184147,1
756,784,38,0.10755859166384,1
712,779,39,0.122352436330111,1
728,793,39,0.104090991874393,1
729,792,39,0.110477868494578,1
729,793,39,0.109950448264253,1
730,793,39,0.106955747607831,1
730,794,39,0.126523021421794,1
731,794,39,0.154098839878497,1
732,769,39,0.109274110036781,1
733,769,39,0.109625396337592,1
754,783,39,0.126512413900613,1
754,784,39,0.121326206060658,1
755,783,39,0.162506811790941,1
755,784,39,0.148727965244987,1
756,783,39,0.120074362404321,1
756,784,39,0.110042926663949,1
712,779,40,0.12733139038346,1
713,778,40,0.105415682766095,1
714,776,40,0.106484053114435,1
727,770,40,0.116797430298436,1
727,771,40,0.103598428114826,1
728,770,40,0.121290959197428,1
728,771,40,0.118985624722989,1
728,793,40,0.116660837549349,1
728,794,40,0.116026494397846,1
729,770,40,0.112714415815366,1
729,771,40,0.113719352963962,1
729,792,40,0.115633781878669,1
729,793,40,0.129810616819214,1
729,794,40,0.129859125872438,1
730,770,40,0.112137951136426,1
730,771,40,0.104042326664181,1
730,793,40,0.117106319976735,1
730,794,40,0.138609115052989,1
731,769,40,0.109733914290872,1
731,770,40,0.116971099178338,1
732,768,40,0.112726094127328,1
732,769,40,0.118748098788659,1
732,770,40,0.111188895881748,1
732,794,40,0.117917957081099,1
733,769,40,0.105424304862702,1
733,770,40,0.106748683440426,1
734,770,40,0.113231183908228,1
735,770,40,0.107564012542172,1
744,772,40,0.105551873968639,1
754,783,40,0.121058552981523,1
754,784,40,0.109259453587957,1
755,783,40,0.150310415555164,1
755,784,40,0.133595204142247,1
756,783,40,0.111166654664887,1
711,780,41,0.105021486755523,1
712,780,41,0.104776431823509,1
713,779,41,0.106458041821697,1
726,770,41,0.103815999416776,1
727,769,41,0.103807700788218,1
727,770,41,0.127856379026385,1
727,771,41,0.117006847974746,1
728,770,41,0.133517281804739,1
728,771,41,0.156671258574469,1
728,772,41,0.112866579647069,1
728,793,41,0.124378327872747,1
728,794,41,0.132334604540456,1
729,770,41,0.124137801493414,1
729,771,41,0.151859738275532,1
729,772,41,0.11238110987643,1
729,792,41,0.115565608198902,1
729,793,41,0.149124202450487,1
729,794,41,0.156435204977464,1
730,770,41,0.122997833165621,1
730,771,41,0.125051944506982,1
730,793,41,0.129862137471511,1
730,794,41,0.147882107451892,1
731,768,41,0.10971113767862,1
731,769,41,0.120770030636217,1
731,770,41,0.127623883577915,1
731,771,41,0.120404199427288,1
731,794,41,0.128459267698677,1
731,796,41,0.213074850684918,1
732,768,41,0.127522615770553,1
732,769,41,0.117461889440673,1
732,770,41,0.112239297022283,1
732,771,41,0.111645900464107,1
732,795,41,0.165246151154076,1
732,796,41,0.208642535325611,1
733,770,41,0.107469504101619,1
733,771,41,0.112553429113784,1
734,770,41,0.122661738709024,1
734,771,41,0.127808650758106,1
735,770,41,0.120407333721138,1
735,771,41,0.11813449105448,1
744,771,41,0.107367488971524,1
744,772,41,0.106040444570917,1
745,772,41,0.110033244930631,1
754,783,41,0.103167914450241,1
755,783,41,0.124384908774426,1
755,784,41,0.110788130123567,1
712,780,42,0.129833248428548,1
713,779,42,0.124649661795193,1
713,780,42,0.111712077565229,1
715,772,42,0.10416228869394,1
715,773,42,0.112424119972827,1
715,783,42,0.107925181349573,1
726,770,42,0.103511961759206,1
727,770,42,0.122333875956562,1
727,771,42,0.117948452310236,1
728,770,42,0.129055742780349,1
728,771,42,0.169926521890399,1
728,772,42,0.136045296145483,1
728,793,42,0.126877877025211,1
728,794,42,0.141435534245629,1
729,770,42,0.124790002312016,1
729,771,42,0.170086861655883,1
729,772,42,0.140078518857206,1
729,792,42,0.104415709178935,1
729,793,42,0.156181014861594,1
729,794,42,0.1705955542016,1
730,769,42,0.108770157971087,1
730,770,42,0.124715771971891,1
730,771,42,0.133264575180265,1
730,793,42,0.133766073350418,1
730,794,42,0.148960460693457,1
730,796,42,0.159431634514835,1
731,769,42,0.126598411785266,1
731,770,42,0.127938472986313,1
731,771,42,0.130695201545579,1
731,794,42,0.115226089442619,1
731,795,42,0.18540466879058,1
731,796,42,0.235231274300816,1
731,797,42,0.188685962138087,1
732,768,42,0.124557451093193,1
732,769,42,0.113697680604704,1
732,770,42,0.113808641299455,1
732,771,42,0.137610959579343,1
732,772,42,0.110994915439206,1
732,795,42,0.154931279324609,1
732,796,42,0.233382777097677,1
732,797,42,0.202524438345696,1
733,770,42,0.10852608459729,1
733,771,42,0.137240477122957,1
733,772,42,0.106067002413116,1
733,796,42,0.174637845172755,1
734,770,42,0.123611463207941,1
734,771,42,0.14860630779649,1
735,770,42,0.12867167466592,1
735,771,42,0.14945971689541,1
736,770,42,0.104175985892688,1
736,771,42,0.113766568144992,1
754,789,42,0.114528826178622,1
754,790,42,0.119352515568629,1
755,789,42,0.11250126152539,1
757,787,42,0.113220275227139,1
758,780,42,0.105651245583992,1
758,781,42,0.106322107162778,1
759,781,42,0.106731271936153,1
712,781,43,0.106094385656543,1
713,780,43,0.124636511145906,1
713,781,43,0.106409209300425,1
714,774,43,0.113801391153537,1
714,782,43,0.12137712439314,1
714,783,43,0.117405472151364,1
715,782,43,0.106065875851981,1
715,783,43,0.124980814998495,1
715,784,43,0.10866029037526,1
727,770,43,0.104810964826218,1
727,771,43,0.10594899234572,1
728,770,43,0.111642342315573,1
728,771,43,0.153037161972543,1
728,772,43,0.137868250526851,1
728,793,43,0.122353049803996,1
728,794,43,0.139028084254459,1
729,770,43,0.115891362832013,1
729,771,43,0.164314418171105,1
729,772,43,0.149317301721448,1
729,793,43,0.145319693957287,1
729,794,43,0.166269481365162,1
730,769,43,0.106069534387152,1
730,770,43,0.114910239624238,1
730,771,43,0.131329700854072,1
730,772,43,0.114302164309098,1
730,793,43,0.126406182531815,1
730,794,43,0.146308714247077,1
730,795,43,0.158737449774335,1
730,796,43,0.175028025717896,1
730,797,43,0.160913664727018,1
731,769,43,0.117958334816825,1
731,770,43,0.11214289238972,1
731,771,43,0.123677004527036,1
731,772,43,0.109229159132092,1
731,794,43,0.110507170238155,1
731,795,43,0.166548533904493,1
731,796,43,0.242074385872486,1
731,797,43,0.219205596380941,1
731,798,43,0.162230045836092,1
732,770,43,0.10374123368126,1
732,771,43,0.143171330718998,1
732,772,43,0.136287384094706,1
732,795,43,0.140666784542885,1
732,796,43,0.237113992192686,1
732,797,43,0.232675006699135,1
732,798,43,0.15669159244525,1
733,771,43,0.144810744867945,1
733,772,43,0.131960876249512,1
733,796,43,0.171284373834121,1
733,797,43,0.196968015747049,1
734,770,43,0.110177388985543,1
734,771,43,0.146561822418094,1
734,772,43,0.115530930193275,1
735,770,43,0.118838859461476,1
735,771,43,0.156584156436822,1
735,772,43,0.114956160933073,1
736,771,43,0.13290801300404,1
736,772,43,0.105895240879294,1
750,774,43,0.103268122620893,1
753,789,43,0.103105061262171,1
753,790,43,0.122024807813132,1
754,789,43,0.111019264775418,1
754,790,43,0.120458753986799,1
755,789,43,0.111131887426694,1
755,790,43,0.112632344163579,1
756,787,43,0.108014848923467,1
756,788,43,0.103464579267117,1
757,786,43,0.1071758955001,1
757,787,43,0.114937667483948,1
758,780,43,0.124683837867642,1
758,781,43,0.118688201429309,1
711,780,44,0.170866096185031,1
712,781,44,0.130702574386274,1
713,780,44,0.135170393152436,1
713,781,44,0.113670609675255,1
713,782,44,0.108974567469679,1
713,783,44,0.112176611145272,1
714,782,44,0.137049854055678,1
714,783,44,0.164143091646038,1
714,784,44,0.133927829682874,1
715,782,44,0.113741315329057,1
715,783,44,0.153135875497728,1
715,784,44,0.139576775297499,1
728,771,44,0.122507098673638,1
728,772,44,0.122316531376713,1
728,793,44,0.11024956697667,1
728,794,44,0.128003478910017,1
729,770,44,0.1034599503278,1
729,771,44,0.142400461742832,1
729,772,44,0.139986553544759,1
729,793,44,0.120453589652092,1
729,794,44,0.148859839822192,1
729,795,44,0.159352474075486,1
730,770,44,0.104235604400272,1
730,771,44,0.125534982690221,1
730,772,44,0.121047543913799,1
730,793,44,0.105765652886571,1
730,794,44,0.137295120915034,1
730,795,44,0.167938409185029,1
730,796,44,0.190947851507375,1
730,797,44,0.160561419176132,1
731,771,44,0.114221520378353,1
731,772,44,0.117316975754887,1
731,794,44,0.106667225262524,1
731,795,44,0.148387766090394,1
731,796,44,0.224787294103664,1
731,797,44,0.235359791502758,1
731,798,44,0.177821651942847,1
732,771,44,0.134735328627029,1
732,772,44,0.14869034256471,1
732,795,44,0.118809089246932,1
732,796,44,0.211899256255493,1
732,797,44,0.254160222960057,1
732,798,44,0.191610090989554,1
733,771,44,0.139859731761555,1
733,772,44,0.148082981110091,1
733,796,44,0.153192850490569,1
733,797,44,0.189804447725823,1
734,771,44,0.132495524317614,1
734,772,44,0.123794724588595,1
735,771,44,0.14358810256855,1
735,772,44,0.130623882417892,1
736,771,44,0.136636763049437,1
736,772,44,0.136054185939785,1
754,789,44,0.111872093862664,1
754,790,44,0.127945444280465,1
755,789,44,0.110363762351906,1
755,790,44,0.120336014593451,1
756,787,44,0.111127515031003,1
756,788,44,0.106526003574121,1
757,787,44,0.107540544377541,1
758,780,44,0.123154837863983,1
758,781,44,0.117101378723441,1
761,784,44,0.147537647442314,1
761,785,44,0.156621756808958,1
761,786,44,0.165815767233641,1
762,784,44,0.164658331631222,1
762,785,44,0.148810940376495,1
712,781,45,0.159427094808084,1
712,782,45,0.117295002235722,1
713,780,45,0.143586931391133,1
713,781,45,0.123818460450922,1
713,782,45,0.123084355291594,1
713,783,45,0.137854731793233,1
713,784,45,0.114355581153404,1
714,779,45,0.11577253851746,1
714,782,45,0.141820048522884,1
714,783,45,0.198726008820996,1
714,784,45,0.172888139573295,1
715,782,45,0.117237793007397,1
715,783,45,0.176986680522699,1
715,784,45,0.170975629158739,1
715,785,45,0.108626315076083,1
716,784,45,0.105717601150243,1
728,794,45,0.107275278269524,1
728,795,45,0.118635654602513,1
729,771,45,0.111666892425056,1
729,772,45,0.116355361016666,1
729,794,45,0.121848651575477,1
729,795,45,0.162195892071785,1
730,771,45,0.110846856305499,1
730,772,45,0.117539042147307,1
730,794,45,0.120231344794542,1
730,795,45,0.169406942971735,1
730,796,45,0.198819234543425,1
730,797,45,0.161669955332855,1
731,772,45,0.118617317310377,1
731,795,45,0.133118434546709,1
731,796,45,0.189874606830164,1
731,797,45,0.224216718774023,1
731,798,45,0.189638787468643,1
732,771,45,0.114258072267848,1
732,772,45,0.143244412189847,1
732,773,45,0.112264750611488,1
732,796,45,0.169564906920173,1
732,797,45,0.249284957147399,1
732,798,45,0.224864792586487,1
732,799,45,0.156294685995511,1
733,771,45,0.121872242434885,1
733,772,45,0.145992340187376,1
733,773,45,0.106355167828162,1
733,796,45,0.132778715017154,1
733,797,45,0.17820768317371,1
733,798,45,0.161508622855083,1
734,771,45,0.111352057627104,1
734,772,45,0.123805410188271,1
735,771,45,0.115996512255959,1
735,772,45,0.139663230499048,1
735,773,45,0.106682985964342,1
736,771,45,0.121135460298603,1
736,772,45,0.160192710216977,1
736,773,45,0.123145200746948,1
737,772,45,0.109127958249154,1
754,789,45,0.114270564826968,1
754,790,45,0.137283342216435,1
755,789,45,0.109971339838566,1
755,790,45,0.128051865268464,1
756,787,45,0.108405308320375,1
756,788,45,0.108609026266587,1
758,780,45,0.114727669795963,1
758,781,45,0.112058522999381,1
758,785,45,0.117888030709566,1
759,785,45,0.107522274009829,1
760,784,45,0.116304007675428,1
760,785,45,0.120965996503333,1
760,786,45,0.131909890992606,1
761,783,45,0.13006509694092,1
761,784,45,0.153434581509531,1
761,785,45,0.160431184247311,1
761,786,45,0.170086270490139,1
761,787,45,0.138324920487092,1
762,783,45,0.149517126897006,1
762,784,45,0.17389251901836,1
762,785,45,0.166641291155955,1
762,786,45,0.160217884954417,1
763,784,45,0.152352090107758,1
763,785,45,0.148860698685631,1
712,780,46,0.199641378782334,1
712,781,46,0.19400478072391,1
712,782,46,0.1633477060226,1
712,783,46,0.127206676719607,1
713,780,46,0.150012211476539,1
713,781,46,0.144422627825873,1
713,782,46,0.150630113527916,1
713,783,46,0.159683816897989,1
713,784,46,0.128315882120569,1
714,776,46,0.103698212430792,1
714,777,46,0.155653817712682,1
714,779,46,0.131644111797339,1
714,782,46,0.147694540599969,1
714,783,46,0.213107732885172,1
714,784,46,0.19241967574492,1
715,782,46,0.119753381713446,1
715,783,46,0.186764584237371,1
715,784,46,0.187579366789656,1
715,785,46,0.122876119946771,1
716,784,46,0.107877743087131,1
716,785,46,0.112327782264689,1
728,795,46,0.114053573536691,1
729,795,46,0.152238519360477,1
729,796,46,0.174419972710897,1
730,772,46,0.107817834573711,1
730,773,46,0.108219738047097,1
730,795,46,0.156116800876906,1
730,796,46,0.190119260215634,1
731,772,46,0.113926405977297,1
731,773,46,0.114766050953044,1
731,795,46,0.115448758154853,1
731,796,46,0.155014310226471,1
731,797,46,0.192648668815208,1
731,798,46,0.190612805533418,1
732,772,46,0.129033044246592,1
732,773,46,0.125452364488973,1
732,796,46,0.133287251405881,1
732,797,46,0.222418347964351,1
732,798,46,0.245445770648572,1
732,799,46,0.178727819795905,1
733,772,46,0.133393761626446,1
733,773,46,0.120533832036293,1
733,796,46,0.119163643690441,1
733,797,46,0.168050674906045,1
733,798,46,0.170178090799667,1
734,772,46,0.118461182629525,1
735,772,46,0.13591518391144,1
735,773,46,0.110969417233717,1
736,772,46,0.157656642637229,1
736,773,46,0.127242960911407,1
737,772,46,0.10692186154122,1
754,790,46,0.126457045093944,1
755,790,46,0.117326668642276,1
758,781,46,0.105769188726965,1
758,784,46,0.108112391271235,1
758,785,46,0.117781855111121,1
758,786,46,0.11055726316941,1
759,784,46,0.10926698258564,1
759,785,46,0.115318077063206,1
759,786,46,0.119742573418993,1
760,783,46,0.113746256582352,1
760,784,46,0.122574168100411,1
760,785,46,0.127390038486898,1
760,786,46,0.135284934303862,1
761,783,46,0.134294508601172,1
761,784,46,0.15199252748653,1
761,785,46,0.15856736135111,1
761,786,46,0.161682793668164,1
761,787,46,0.13171374666036,1
762,783,46,0.145804427559264,1
762,784,46,0.177252827802297,1
762,785,46,0.180179555552224,1
762,786,46,0.16167177344637,1
762,787,46,0.125003212372345,1
763,783,46,0.139855448598429,1
763,784,46,0.178945045321666,1
763,785,46,0.181262203110986,1
763,786,46,0.146705553772391,1
764,784,46,0.139728002187269,1
764,785,46,0.141563237200414,1
712,779,47,0.139499711823431,1
712,780,47,0.175587346590259,1
712,781,47,0.211266530444233,1
712,782,47,0.208633678993521,1
712,783,47,0.157368555300678,1
713,779,47,0.150837244619745,1
713,780,47,0.144708272420954,1
713,781,47,0.163043579132465,1
713,782,47,0.186998540869095,1
713,783,47,0.184171329737439,1
713,784,47,0.138738078417757,1
714,777,47,0.124883819200189,1
714,778,47,0.158664702925606,1
714,779,47,0.133375279331391,1
714,781,47,0.110104642136813,1
714,782,47,0.159385523586799,1
714,783,47,0.212913897445548,1
714,784,47,0.191606923233492,1
714,785,47,0.119947629853683,1
715,778,47,0.103922297709998,1
715,782,47,0.12298183822832,1
715,783,47,0.180799543414811,1
715,784,47,0.182495363698997,1
715,785,47,0.138059085521472,1
716,784,47,0.105565928097648,1
716,785,47,0.118179899276065,1
716,786,47,0.109401824145636,1
729,795,47,0.128539722010221,1
729,796,47,0.154203520831476,1
730,773,47,0.114323535508448,1
730,795,47,0.130250421824644,1
730,796,47,0.16207860701898,1
731,773,47,0.116233603181534,1
731,796,47,0.127343693323379,1
731,797,47,0.160106243861357,1
731,798,47,0.178842795956087,1
732,773,47,0.119510591057773,1
732,796,47,0.111441937128341,1
732,797,47,0.185063488077771,1
732,798,47,0.236031155014723,1
732,799,47,0.189245160315673,1
733,772,47,0.110854184529911,1
733,773,47,0.126997749822405,1
733,796,47,0.112761329836488,1
733,797,47,0.159443692065199,1
733,798,47,0.173631145680997,1
734,772,47,0.108242325040148,1
734,773,47,0.111526518446022,1
735,772,47,0.119948934879948,1
735,773,47,0.108275664557298,1
736,772,47,0.13228518085344,1
736,773,47,0.113990296493937,1
754,790,47,0.113564043684338,1
755,790,47,0.108766644438835,1
758,784,47,0.103758410950049,1
758,785,47,0.104934920013267,1
758,788,47,0.113730272799121,1
759,784,47,0.109314755470202,1
759,785,47,0.111037055518093,1
759,786,47,0.113322089583963,1
759,787,47,0.114816601201195,1
759,788,47,0.122717654065155,1
760,782,47,0.106800538714842,1
760,783,47,0.11340382661363,1
760,784,47,0.119072760322847,1
760,785,47,0.120618759130165,1
760,786,47,0.122142025941513,1
760,787,47,0.113161760972549,1
760,788,47,0.113552220369457,1
761,783,47,0.132607198872886,1
761,784,47,0.140533281471366,1
761,785,47,0.140988668713483,1
761,786,47,0.136993581769287,1
761,787,47,0.118251586488084,1
762,783,47,0.14074621267993,1
762,784,47,0.170846487328842,1
762,785,47,0.17576135009228,1
762,786,47,0.151381195182762,1
762,787,47,0.122087415611648,1
763,783,47,0.139970714764447,1
763,784,47,0.193384480547345,1
763,785,47,0.199294643342345,1
763,786,47,0.152206172555614,1
764,784,47,0.149874804480296,1
764,785,47,0.147253754036324,1
711,782,48,0.165372381771536,1
712,780,48,0.146692905056283,1
712,781,48,0.204176356207834,1
712,782,48,0.235983995604047,1
712,783,48,0.181597583707062,1
713,778,48,0.111594591739153,1
713,779,48,0.122875640321733,1
713,780,48,0.134261347549152,1
713,781,48,0.175103494159862,1
713,782,48,0.229854142233675,1
713,783,48,0.21738623361032,1
713,784,48,0.147082617130457,1
714,778,48,0.124727706827478,1
714,779,48,0.127572619469243,1
714,780,48,0.109357241325278,1
714,781,48,0.121686170228429,1
714,782,48,0.17507514051229,1
714,783,48,0.207366018865014,1
714,784,48,0.176411219710117,1
714,785,48,0.134635443924427,1
715,778,48,0.104285619253032,1
715,782,48,0.122299945273668,1
715,783,48,0.160002767548008,1
715,784,48,0.159620082538338,1
715,785,48,0.14619157419719,1
715,786,48,0.110538613563296,1
716,785,48,0.115318869002222,1
716,786,48,0.123179644517092,1
717,786,48,0.107936090030661,1
717,787,48,0.104000487745201,1
729,796,48,0.119099139699916,1
730,773,48,0.11144886380621,1
730,796,48,0.12144795274172,1
730,797,48,0.122093371885371,1
731,773,48,0.110048548315552,1
731,797,48,0.129514554322153,1
732,773,48,0.105361027819948,1
732,798,48,0.198238999788608,1
733,773,48,0.126789202163604,1
734,773,48,0.123313794524708,1
735,773,48,0.104259228721893,1
754,790,48,0.106177316171769,1
754,791,48,0.117799802010784,1
755,790,48,0.105045267234132,1
755,791,48,0.11535980444148,1
758,787,48,0.106171817214943,1
758,788,48,0.11663585243111,1
758,789,48,0.112753410446331,1
759,784,48,0.106564128187577,1
759,785,48,0.109483014625842,1
759,786,48,0.109450567434343,1
759,787,48,0.114535987091974,1
759,788,48,0.127619154251963,1
759,789,48,0.128604114460039,1
760,782,48,0.106068831680702,1
760,783,48,0.110919770465288,1
760,784,48,0.115615801516793,1
760,785,48,0.117193210187039,1
760,786,48,0.114764667848284,1
760,787,48,0.110848908654497,1
760,788,48,0.11637870648652,1
760,789,48,0.118554319119389,1
761,782,48,0.120530329658112,1
761,783,48,0.127298563953559,1
761,784,48,0.129400124711433,1
761,785,48,0.126337373070022,1
761,786,48,0.120633025186516,1
761,787,48,0.111767624837028,1
761,788,48,0.102980682220438,1
762,783,48,0.136200538500684,1
762,784,48,0.159499640883542,1
762,785,48,0.163806907956877,1
762,786,48,0.141757251105168,1
762,787,48,0.119061784717335,1
763,783,48,0.134612466538903,1
763,784,48,0.185344057570709,1
763,785,48,0.195714119741715,1
763,786,48,0.153745255839134,1
764,784,48,0.144561239461746,1
764,785,48,0.142662850100623,1
711,782,49,0.166205858546218,1
712,781,49,0.186045670922257,1
712,782,49,0.245412821523894,1
712,783,49,0.199004012877687,1
713,779,49,0.104310894377108,1
713,780,49,0.127919020287113,1
713,781,49,0.186901556224859,1
713,782,49,0.27414769292326,1
713,783,49,0.253836821835851,1
713,784,49,0.155952824884393,1
713,785,49,0.10990022148415,1
714,779,49,0.122205927612223,1
714,780,49,0.122588724162599,1
714,781,49,0.144503829460149,1
714,782,49,0.201425338532736,1
714,783,49,0.208856001929565,1
714,784,49,0.162383983165027,1
714,785,49,0.141427692933968,1
715,778,49,0.103457329121199,1
715,779,49,0.120676771451576,1
715,780,49,0.104290950898799,1
715,782,49,0.123714805672443,1
715,783,49,0.138752076776413,1
715,784,49,0.133933027479793,1
715,785,49,0.141988318832595,1
715,786,49,0.120828332963464,1
716,785,49,0.106562031222296,1
716,786,49,0.130558965726753,1
716,787,49,0.118311004222396,1
717,786,49,0.10978979618479,1
717,787,49,0.11979894609202,1
731,797,49,0.10746534363327,1
732,797,49,0.11095297613359,1
733,773,49,0.106248802610517,1
733,797,49,0.114636998355712,1
734,773,49,0.114206395458562,1
754,791,49,0.121647175597463,1
754,792,49,0.114242835807351,1
755,792,49,0.119963647099125,1
758,782,49,0.104196888621072,1
758,788,49,0.103063568119382,1
758,789,49,0.104955198113695,1
759,782,49,0.106437685642775,1
759,783,49,0.106032034401652,1
759,784,49,0.107129383025521,1
759,785,49,0.113256860578846,1
759,786,49,0.108541566447342,1
759,787,49,0.108140566453677,1
759,788,49,0.116493861111832,1
759,789,49,0.116912317226052,1
760,782,49,0.106840291822612,1
760,783,49,0.111240617307316,1
760,784,49,0.114364080555234,1
760,785,49,0.119289171601451,1
760,786,49,0.11405339507156,1
760,787,49,0.108888558430956,1
760,788,49,0.108863606774929,1
760,789,49,0.1038535663267,1
761,782,49,0.11714808081722,1
761,783,49,0.121992505624552,1
761,784,49,0.122008667872912,1
761,785,49,0.121637984643254,1
761,786,49,0.116695504400905,1
761,787,49,0.108480252521021,1
762,783,49,0.128568644515396,1
762,784,49,0.143622914423025,1
762,785,49,0.151189612865408,1
762,786,49,0.134688369989625,1
762,787,49,0.114504911851164,1
763,784,49,0.160432500427647,1
763,785,49,0.177363186177233,1
763,786,49,0.148445912260653,1
764,785,49,0.133970895549624,1
711,782,50,0.155099861948298,1
712,781,50,0.160917256337765,1
712,782,50,0.227154054045131,1
712,783,50,0.194885528449974,1
713,780,50,0.118000073349169,1
713,781,50,0.186606096047613,1
713,782,50,0.286255503529996,1
713,783,50,0.259057796913999,1
713,784,50,0.15815134797836,1
713,785,50,0.119311624745654,1
714,779,50,0.112036482555792,1
714,780,50,0.130788739581986,1
714,781,50,0.162526074870941,1
714,782,50,0.216729705012309,1
714,783,50,0.203391823495131,1
714,784,50,0.153856361536802,1
714,785,50,0.142401153295211,1
714,786,50,0.11034263654211,1
715,779,50,0.135154175133722,1
715,780,50,0.133718456622845,1
715,781,50,0.117123631094372,1
715,782,50,0.122246483813079,1
715,783,50,0.121632753384123,1
715,784,50,0.118386751516128,1
715,785,50,0.133781956747013,1
715,786,50,0.12603693817727,1
716,779,50,0.10755668431776,1
716,786,50,0.130918104493297,1
716,787,50,0.124320494016466,1
717,786,50,0.105474687799794,1
717,787,50,0.125279532164369,1
754,791,50,0.10609901459586,1
754,792,50,0.118654583060393,1
755,791,50,0.108699530395779,1
755,792,50,0.129534486646391,1
756,792,50,0.108519012916503,1
759,782,50,0.107019024650585,1
759,783,50,0.105479272122828,1
759,785,50,0.103162950888805,1
759,787,50,0.10462954386722,1
759,788,50,0.109706943748059,1
759,789,50,0.106572884133031,1
760,782,50,0.104392943720753,1
760,783,50,0.106362875290976,1
760,784,50,0.105141125317233,1
760,785,50,0.10877628155587,1
760,786,50,0.108374054614435,1
760,787,50,0.111658660720922,1
760,788,50,0.109742536387478,1
761,782,50,0.109795718996301,1
761,783,50,0.111955972473895,1
761,784,50,0.110812858698181,1
761,785,50,0.112997561898623,1
761,786,50,0.110151165765462,1
761,787,50,0.105648457066331,1
762,783,50,0.115625070549497,1
762,784,50,0.125418333419443,1
762,785,50,0.136609948663613,1
762,786,50,0.122718858704784,1
762,787,50,0.103922476175128,1
763,785,50,0.156836004197857,1
763,786,50,0.135684461960202,1
712,782,51,0.202501706349727,1
712,783,51,0.181628179322834,1
713,780,51,0.11285947450407,1
713,781,51,0.18405691128079,1
713,782,51,0.270077104074885,1
713,783,51,0.238077235425221,1
713,784,51,0.15556940370606,1
713,785,51,0.122439884243947,1
714,779,51,0.103124859737562,1
714,780,51,0.136596240310793,1
714,781,51,0.179529150538996,1
714,782,51,0.224617863770606,1
714,783,51,0.197239728907898,1
714,784,51,0.151898331359955,1
714,785,51,0.139103865010403,1
714,786,51,0.116102587467768,1
715,779,51,0.138531415796895,1
715,780,51,0.155959171550588,1
715,781,51,0.137056100335238,1
715,782,51,0.12756804630028,1
715,783,51,0.116788083187237,1
715,784,51,0.115998006901425,1
715,785,51,0.130056530614667,1
715,786,51,0.131556998505622,1
715,787,51,0.103855785986757,1
716,779,51,0.117192909027132,1
716,780,51,0.115578881542967,1
716,786,51,0.125132856135421,1
716,787,51,0.11944005271503,1
717,776,51,0.118247504098229,1
717,787,51,0.121099689194052,1
717,788,51,0.107020418909416,1
718,788,51,0.116243463379981,1
754,792,51,0.117225992000657,1
754,793,51,0.106240793987795,1
755,792,51,0.129776295743848,1
755,793,51,0.110055686920764,1
756,792,51,0.111325477476764,1
759,782,51,0.103258240114303,1
759,783,51,0.104829212885789,1
760,782,51,0.103750190399986,1
760,783,51,0.106830699321859,1
760,784,51,0.104709050082759,1
760,785,51,0.108172679023057,1
760,786,51,0.109181765485932,1
760,787,51,0.113105444069876,1
760,788,51,0.108560026434255,1
761,782,51,0.105047676513391,1
761,783,51,0.107208588081153,1
761,784,51,0.110199719434969,1
761,785,51,0.117668518599324,1
761,786,51,0.114807064470796,1
761,787,51,0.107982702891876,1
762,783,51,0.104684678438405,1
762,784,51,0.113677569815336,1
762,785,51,0.126865808320776,1
762,786,51,0.116502628211357,1
763,785,51,0.132367330583721,1
712,782,52,0.171985897953103,1
713,781,52,0.172362648997191,1
713,782,52,0.229654796683154,1
713,783,52,0.199634842496938,1
713,784,52,0.146341027589728,1
713,785,52,0.118239607016214,1
714,780,52,0.13580128969611,1
714,781,52,0.180092821498909,1
714,782,52,0.21157520819519,1
714,783,52,0.179683322103415,1
714,784,52,0.144261741510927,1
714,785,52,0.131136980821512,1
714,786,52,0.11833346852067,1
715,779,52,0.131014297198517,1
715,780,52,0.157497619052081,1
715,781,52,0.145725746744952,1
715,782,52,0.12981401881076,1
715,783,52,0.112614062641796,1
715,784,52,0.114499412894338,1
715,785,52,0.127552374831027,1
715,786,52,0.135797575390587,1
715,787,52,0.116330933601959,1
716,777,52,0.108812331512186,1
716,779,52,0.114342252038986,1
716,780,52,0.121011839733673,1
716,786,52,0.113810860959512,1
716,787,52,0.109456791405762,1
717,776,52,0.166120050280766,1
717,787,52,0.109395343630593,1
717,788,52,0.130569774021206,1
718,775,52,0.120156601367168,1
718,776,52,0.104227841167105,1
718,788,52,0.143262147162168,1
718,789,52,0.10679495052545,1
734,799,52,0.11415253245143,1
746,797,52,0.108352281868541,1
755,792,52,0.114291300244292,1
755,793,52,0.104300153007079,1
759,783,52,0.105576747546171,1
760,783,52,0.109241250144668,1
760,784,52,0.107179397878282,1
760,785,52,0.103427023511264,1
761,783,52,0.104366017794223,1
761,784,52,0.109585275145491,1
761,785,52,0.113949182589549,1
761,786,52,0.107902928978641,1
762,785,52,0.112542520432696,1
762,786,52,0.104643374914816,1
713,782,53,0.188850663145193,1
713,783,53,0.163918760977279,1
713,784,53,0.138442551316087,1
713,785,53,0.114759536975789,1
714,780,53,0.132545661865152,1
714,781,53,0.168401771587655,1
714,782,53,0.187564621108267,1
714,783,53,0.160464657613309,1
714,784,53,0.139236888456884,1
714,785,53,0.129438227016747,1
714,786,53,0.125241396396843,1
714,787,53,0.108291525645752,1
715,779,53,0.114471014630482,1
715,780,53,0.137196853552674,1
715,781,53,0.138621417992908,1
715,782,53,0.128284617260558,1
715,783,53,0.109675466960706,1
715,784,53,0.114528826178622,1
715,785,53,0.129621477243331,1
715,786,53,0.144185179970037,1
715,787,53,0.128168927239856,1
716,780,53,0.112042048437043,1
716,786,53,0.10830208855065,1
716,787,53,0.106042363071067,1
717,777,53,0.110799596508187,1
717,788,53,0.145463659547068,1
717,789,53,0.107992808479878,1
718,776,53,0.118043618840956,1
718,788,53,0.151331079943366,1
718,789,53,0.12416621091134,1
734,799,53,0.106192541478196,1
755,792,53,0.103308589589183,1
760,783,53,0.106449018178547,1
760,784,53,0.105335083451633,1
761,784,53,0.105985276537519,1
761,785,53,0.109883758075882,1
761,786,53,0.104437136148639,1
713,784,54,0.139159412282202,1
713,785,54,0.123979424844363,1
714,781,54,0.154724895555513,1
714,782,54,0.164109495585263,1
714,783,54,0.147331219056935,1
714,784,54,0.142949387021355,1
714,785,54,0.146432089422452,1
714,786,54,0.139304816747096,1
714,787,54,0.118727909920796,1
715,780,54,0.114638961472145,1
715,781,54,0.125186908761755,1
715,782,54,0.12564071212584,1
715,783,54,0.112990010592798,1
715,784,54,0.119487368282695,1
715,785,54,0.140389884739188,1
715,786,54,0.151197465331141,1
715,787,54,0.131959838920943,1
716,786,54,0.108097154810737,1
716,787,54,0.10803400046276,1
716,788,54,0.109900321870786,1
717,777,54,0.12051918674154,1
717,788,54,0.144370114461288,1
717,789,54,0.119444358186298,1
718,788,54,0.137181115158998,1
718,789,54,0.127447258869293,1
741,798,54,0.113757990664668,1
742,798,54,0.131474770696847,1
743,798,54,0.111071064279481,1
743,799,54,0.106645050970087,1
761,787,54,0.105937570577382,1
761,788,54,0.112184820541265,1
762,788,54,0.103740341355609,1
713,784,55,0.144233811718038,1
713,785,55,0.135000170880362,1
714,781,55,0.152829908185937,1
714,782,55,0.152406845440542,1
714,783,55,0.139800024021407,1
714,784,55,0.145045627287533,1
714,785,55,0.16113507302927,1
714,786,55,0.147991428498258,1
714,787,55,0.124636466529623,1
715,780,55,0.105448074187241,1
715,781,55,0.118399701392144,1
715,782,55,0.123899918628824,1
715,783,55,0.116644920690542,1
715,784,55,0.119749321631732,1
715,785,55,0.143433830617496,1
715,786,55,0.147053304232809,1
715,787,55,0.126731145225911,1
715,788,55,0.104545988724038,1
716,786,55,0.105156830248697,1
716,787,55,0.107890815657924,1
716,788,55,0.116943492853498,1
717,788,55,0.127382676800274,1
717,789,55,0.11944924366924,1
718,788,55,0.106934264867774,1
718,789,55,0.113603027161233,1
734,800,55,0.116648367298371,1
742,798,55,0.123537946728337,1
742,799,55,0.106980877728988,1
743,798,55,0.117155252884643,1
761,787,55,0.108516291323266,1
761,788,55,0.123573740141028,1
761,789,55,0.107727865839909,1
762,787,55,0.103003882687374,1
762,788,55,0.111983221868475,1
713,785,56,0.148566443148014,1
714,782,56,0.144615470553209,1
714,783,56,0.134541794347313,1
714,784,56,0.145037384429328,1
714,785,56,0.169498651740557,1
714,786,56,0.155413659417681,1
714,787,56,0.129298778825576,1
715,781,56,0.11613457734237,1
715,782,56,0.122102752458781,1
715,783,56,0.11987985772046,1
715,784,56,0.119655092042945,1
715,785,56,0.144584629547883,1
715,786,56,0.143267378421299,1
715,787,56,0.121567557841218,1
715,788,56,0.105075896312116,1
716,787,56,0.105620270729818,1
716,788,56,0.117286792839729,1
716,789,56,0.109404802282498,1
717,788,56,0.10943210744743,1
717,789,56,0.115836250568969,1
718,780,56,0.106263079820939,1
718,781,56,0.10597296244353,1
721,776,56,0.109755954734461,1
722,775,56,0.105114199390702,1
722,776,56,0.106140797744486,1
743,798,56,0.108406903352476,1
761,788,56,0.115827483469444,1
761,789,56,0.106585588619493,1
762,788,56,0.107370076715913,1
714,783,57,0.140168242201453,1
714,784,57,0.148613691791255,1
714,785,57,0.164406104631786,1
714,786,57,0.156766012404576,1
714,787,57,0.128966822529188,1
715,782,57,0.131594108098649,1
715,783,57,0.127945232353123,1
715,784,57,0.123883432912414,1
715,785,57,0.140232288875082,1
715,786,57,0.137883743530974,1
715,787,57,0.114979049086031,1
716,782,57,0.113585972587221,1
716,783,57,0.116724125746174,1
716,788,57,0.110840989264341,1
716,789,57,0.108931557373282,1
717,789,57,0.112879752604498,1
718,780,57,0.111157642175808,1
718,781,57,0.114552562040949,1
720,777,57,0.110151701160853,1
721,776,57,0.121738650130802,1
721,777,57,0.107733643648502,1
722,776,57,0.120153121297127,1
722,777,57,0.103781600262915,1
723,776,57,0.121168955972742,1
723,794,57,0.112214780375011,1
723,795,57,0.104314285214583,1
724,776,57,0.103379886408729,1
724,795,57,0.107774077154581,1
744,779,57,0.107207561906654,1
744,780,57,0.121929061270738,1
714,783,58,0.147241205706851,1
714,784,58,0.151141293431386,1
714,785,58,0.153896438112621,1
714,786,58,0.152315750145605,1
715,782,58,0.135201323390327,1
715,783,58,0.133139192272174,1
715,784,58,0.126408034107542,1
715,785,58,0.130301897860658,1
715,786,58,0.126625549639139,1
715,787,58,0.106226728704715,1
716,781,58,0.103083087743006,1
716,782,58,0.125045352451232,1
716,783,58,0.127015116710395,1
716,784,58,0.108533535516479,1
717,781,58,0.103985842450448,1
717,782,58,0.10857070087986,1
717,789,58,0.106177806950878,1
717,790,58,0.110122555574265,1
718,779,58,0.105322010880841,1
718,780,58,0.116102933243958,1
718,781,58,0.121445610386885,1
718,790,58,0.108990272401144,1
719,780,58,0.104199822141651,1
719,781,58,0.10932428104653,1
719,791,58,0.104611117342519,1
719,792,58,0.102922993367076,1
720,777,58,0.125483506654206,1
720,778,58,0.106634298445988,1
720,792,58,0.108870343833597,1
720,793,58,0.106496869141603,1
721,777,58,0.125280391027808,1
721,778,58,0.134563500168783,1
721,793,58,0.10768742117976,1
722,776,58,0.127969537073052,1
722,777,58,0.121550280185793,1
722,778,58,0.12847303182185,1
722,794,58,0.118047355454622,1
723,777,58,0.105726435174192,1
723,794,58,0.134078197709204,1
723,795,58,0.135465496399421,1
724,776,58,0.106014578281097,1
724,794,58,0.10970297289891,1
724,795,58,0.136753802712688,1
724,796,58,0.116910142182277,1
725,795,58,0.108991833971034,1
744,779,58,0.110719454510621,1
744,780,58,0.12871681518981,1
714,784,59,0.156583409114089,1
714,785,59,0.145699222364965,1
715,782,59,0.135419853942353,1
715,783,59,0.13984557724591,1
715,784,59,0.129980147538908,1
715,785,59,0.120277355335942,1
715,786,59,0.112614776502317,1
716,781,59,0.112069186290915,1
716,782,59,0.124643281666786,1
716,783,59,0.132516382429715,1
716,784,59,0.126963908372076,1
716,785,59,0.108424203316043,1
717,780,59,0.111792821882609,1
717,781,59,0.111802503615927,1
717,782,59,0.11386725594068,1
717,783,59,0.118715896986714,1
717,784,59,0.113308459309638,1
717,790,59,0.111158668350307,1
717,791,59,0.104069174512217,1
718,779,59,0.121018710641189,1
718,780,59,0.121863006864394,1
718,781,59,0.121889598168805,1
718,782,59,0.104650580444451,1
718,790,59,0.115140493104509,1
718,791,59,0.123110600819815,1
718,792,59,0.105568281606554,1
719,778,59,0.116458502707896,1
719,779,59,0.107724999243754,1
719,780,59,0.108728073662553,1
719,781,59,0.11062236947975,1
719,791,59,0.127677333884434,1
719,792,59,0.137118072351727,1
719,793,59,0.125440128473478,1
720,778,59,0.121758682841675,1
720,791,59,0.105999553747942,1
720,792,59,0.144993961632317,1
720,793,59,0.149424258104838,1
720,794,59,0.104659325235835,1
721,777,59,0.136994429478656,1
721,778,59,0.155613629596158,1
721,779,59,0.109060855360169,1
721,792,59,0.106494069469872,1
721,793,59,0.129066149528259,1
721,794,59,0.112440639151448,1
722,777,59,0.129140759106786,1
722,778,59,0.150091650767654,1
722,793,59,0.104422089307342,1
722,794,59,0.129611516658248,1
722,795,59,0.11397299653037,1
723,777,59,0.104324926197976,1
723,794,59,0.144801130059051,1
723,795,59,0.161009121263576,1
723,796,59,0.114878149363,1
724,794,59,0.115603576655369,1
724,795,59,0.157858720935057,1
724,796,59,0.136226951339965,1
725,795,59,0.110669395041578,1
725,796,59,0.113147974541235,1
744,779,59,0.113226108806085,1
744,780,59,0.128516688854344,1
714,784,60,0.154755981950394,1
714,785,60,0.138091041933862,1
715,783,60,0.142699100830211,1
715,784,60,0.132269821698165,1
715,785,60,0.112782890655039,1
716,782,60,0.117131148937985,1
716,783,60,0.135261488447372,1
716,784,60,0.147565755700332,1
716,785,60,0.120760683525018,1
717,781,60,0.112765222607142,1
717,782,60,0.112710902283113,1
717,783,60,0.141272104802577,1
717,784,60,0.152042642725926,1
717,785,60,0.116869965219823,1
717,790,60,0.104520111280147,1
717,791,60,0.10817273479341,1
718,780,60,0.118814075116509,1
718,781,60,0.110550158026411,1
718,782,60,0.106498564560341,1
718,783,60,0.118590681389683,1
718,784,60,0.108518589061819,1
718,790,60,0.1151847970731,1
718,791,60,0.138513212353606,1
718,792,60,0.128289268508016,1
718,793,60,0.106398032921641,1
719,779,60,0.121872967449477,1
719,780,60,0.106623757849231,1
719,781,60,0.103510377881175,1
719,790,60,0.105947408467689,1
719,791,60,0.148039770240422,1
719,792,60,0.167201772051665,1
719,793,60,0.150090602285014,1
720,778,60,0.13454729330414,1
720,779,60,0.109523548518556,1
720,791,60,0.120025619115614,1
720,792,60,0.170539895389095,1
720,793,60,0.179274056943405,1
720,794,60,0.117052635434733,1
721,777,60,0.148861189464739,1
721,778,60,0.158269380353898,1
721,779,60,0.113101116290467,1
721,792,60,0.11013063112141,1
721,793,60,0.135716853381348,1
721,794,60,0.117664380439115,1
722,777,60,0.13230810246861,1
722,778,60,0.148238758860682,1
722,794,60,0.129509378833375,1
722,795,60,0.123913470824654,1
723,794,60,0.141128016518019,1
723,795,60,0.169928897707446,1
723,796,60,0.125397207609646,1
724,794,60,0.113382433106138,1
724,795,60,0.160671353696383,1
724,796,60,0.143653197724819,1
725,795,60,0.106106454360978,1
725,796,60,0.115322906775795,1
725,797,60,0.103138445395604,1
744,779,60,0.113452525286055,1
744,780,60,0.117938781730989,1
715,784,61,0.137263621819539,1
715,785,61,0.114384470196368,1
716,782,61,0.119618473229026,1
716,783,61,0.143249409213494,1
716,784,61,0.166635011414184,1
716,785,61,0.134806402365163,1
717,781,61,0.116915730371669,1
717,782,61,0.115469839348367,1
717,783,61,0.163009782298419,1
717,784,61,0.183229424242043,1
717,785,61,0.142244773224805,1
717,786,61,0.116056041530977,1
718,780,61,0.113573357333324,1
718,782,61,0.114359719313612,1
718,783,61,0.150178172893627,1
718,784,61,0.133455343250462,1
718,785,61,0.103411630893777,1
718,786,61,0.105116352126336,1
718,790,61,0.106702472125754,1
718,791,61,0.143517820769433,1
718,792,61,0.152442371155538,1
718,793,61,0.127020526434657,1
719,780,61,0.103265322949161,1
719,782,61,0.115360049831034,1
719,783,61,0.12270577497992,1
719,790,61,0.109834869784256,1
719,791,61,0.165731375535161,1
719,792,61,0.199914720437497,1
719,793,61,0.173193705338543,1
720,779,61,0.117208982042928,1
720,781,61,0.103122115836184,1
720,782,61,0.116909629095027,1
720,791,61,0.135034112717327,1
720,792,61,0.1848731661704,1
720,793,61,0.186106772921236,1
720,794,61,0.119530277992456,1
721,778,61,0.144527509552123,1
721,779,61,0.104801495020243,1
721,792,61,0.107402033128304,1
721,793,61,0.126214120589424,1
721,794,61,0.113322758828202,1
722,778,61,0.127033677083944,1
722,794,61,0.116759640307099,1
722,795,61,0.12092513914257,1
723,794,61,0.124617281528118,1
723,795,61,0.155201386299285,1
723,796,61,0.124855655171817,1
724,795,61,0.14152236868558,1
724,796,61,0.134274832820558,1
725,796,61,0.107194489335861,1
744,779,61,0.106187410605701,1
715,785,62,0.121166758620825,1
716,783,62,0.159145989919754,1
716,784,62,0.18026316646576,1
716,785,62,0.144929680723205,1
716,786,62,0.105437522436413,1
717,782,62,0.131554711921141,1
717,783,62,0.178470629235033,1
717,784,62,0.198724648024378,1
717,785,62,0.162967575295108,1
717,786,62,0.130919219900361,1
717,792,62,0.116240764094886,1
717,793,62,0.104501974761283,1
718,782,62,0.126639737616996,1
718,783,62,0.17093326599844,1
718,784,62,0.157625422393501,1
718,785,62,0.132866419474615,1
718,786,62,0.127099720336218,1
718,791,62,0.150597967496324,1
718,792,62,0.189076577691984,1
718,793,62,0.148818324371261,1
719,782,62,0.131926086703179,1
719,783,62,0.14594032875597,1
719,784,62,0.113519159704073,1
719,790,62,0.114227844736407,1
719,791,62,0.190773803389071,1
719,792,62,0.248168568524944,1
719,793,62,0.192663749118717,1
719,794,62,0.104307737775116,1
720,781,62,0.108592284006553,1
720,782,62,0.136332736545938,1
720,783,62,0.112795695528137,1
720,790,62,0.106536811868574,1
720,791,62,0.151772346132049,1
720,792,62,0.194972708666115,1
720,793,62,0.171473859186194,1
720,794,62,0.111215899886773,1
721,782,62,0.114275974551229,1
721,793,62,0.10816718006623,1
722,795,62,0.109399169476823,1
723,794,62,0.105942322211476,1
723,795,62,0.128836197207895,1
723,796,62,0.114499357123984,1
724,795,62,0.114805502900906,1
724,796,62,0.115197624254339,1
716,784,63,0.181993497444513,1
716,785,63,0.144760451163419,1
716,786,63,0.109247295650956,1
716,791,63,0.103210723773367,1
717,783,63,0.187168763141168,1
717,784,63,0.191086563529883,1
717,785,63,0.169792081876946,1
717,786,63,0.138128017678042,1
717,791,63,0.114245390089528,1
717,792,63,0.14070785383099,1
717,793,63,0.112696368529066,1
718,782,63,0.154987930849402,1
718,783,63,0.180807395880543,1
718,784,63,0.178963259919025,1
718,785,63,0.17107720928008,1
718,786,63,0.145759655119705,1
718,787,63,0.103627897169463,1
718,791,63,0.163565745795518,1
718,792,63,0.223981925587001,1
718,793,63,0.157101281459945,1
719,781,63,0.10968785913319,1
719,782,63,0.149943178933334,1
719,783,63,0.162680045662088,1
719,784,63,0.153565976461699,1
719,785,63,0.145662793170247,1
719,786,63,0.120407980657235,1
719,790,63,0.118978943434674,1
719,791,63,0.216809724315098,1
719,792,63,0.29528717761055,1
719,793,63,0.1971904502238,1
720,781,63,0.108926705352553,1
720,782,63,0.140144182871077,1
720,783,63,0.123015679678649,1
720,784,63,0.106433725947697,1
720,788,63,0.104842296610653,1
720,789,63,0.117430490731815,1
720,790,63,0.119777541430457,1
720,791,63,0.165484714416975,1
720,792,63,0.204265008761299,1
720,793,63,0.150658991416809,1
721,782,63,0.110369049381391,1
721,789,63,0.104114270419824,1
723,795,63,0.103847219660504,1
739,780,63,0.117446586055752,1
739,781,63,0.109684970228893,1
716,785,64,0.134944166291667,1
716,786,64,0.11139417539785,1
716,790,64,0.10690277692635,1
716,791,64,0.132406749069371,1
717,784,64,0.171824755094533,1
717,785,64,0.166653861793569,1
717,786,64,0.140480991188195,1
717,790,64,0.107886833654704,1
717,791,64,0.14245338780803,1
717,792,64,0.164276750874546,1
717,793,64,0.119381906544771,1
718,783,64,0.175419533597444,1
718,784,64,0.194348772262521,1
718,785,64,0.21025142078321,1
718,786,64,0.162589630765461,1
718,787,64,0.103766631500113,1
718,790,64,0.104935856955201,1
718,791,64,0.178691134057563,1
718,792,64,0.241352918275195,1
718,793,64,0.151646728988475,1
719,782,64,0.148121942278844,1
719,783,64,0.158915836826119,1
719,784,64,0.191638400020845,1
719,785,64,0.200404183365426,1
719,786,64,0.146983937067484,1
719,787,64,0.107681252978695,1
719,788,64,0.106996738817442,1
719,790,64,0.120940676762974,1
719,791,64,0.22708128488826,1
719,792,64,0.313043298049885,1
719,793,64,0.186227917282483,1
720,782,64,0.117648006263412,1
720,783,64,0.118248820278564,1
720,784,64,0.133137496853437,1
720,785,64,0.13407448340368,1
720,786,64,0.112603064728143,1
720,787,64,0.111084772632301,1
720,788,64,0.131773889409263,1
720,789,64,0.133870386219065,1
720,790,64,0.125689031559863,1
720,791,64,0.165993786201094,1
720,792,64,0.202574319349609,1
720,793,64,0.132858812398437,1
721,787,64,0.10944391960824,1
721,788,64,0.131138174307071,1
721,789,64,0.130540516893911,1
721,790,64,0.109030003200772,1
739,780,64,0.134058109227977,1
739,781,64,0.115405725750314,1
717,784,65,0.155475307966121,1
717,785,65,0.157434442395962,1
717,786,65,0.138673741738291,1
717,790,65,0.148932720519769,1
717,791,65,0.189789478963021,1
718,783,65,0.159523510594716,1
718,784,65,0.195163197884546,1
718,785,65,0.221854844315497,1
718,786,65,0.167376957885174,1
718,787,65,0.10468284917082,1
718,790,65,0.132314683370289,1
718,791,65,0.209596766069067,1
718,792,65,0.244146366035016,1
718,793,65,0.145142043074165,1
719,783,65,0.139121031125122,1
719,784,65,0.211643828037782,1
719,785,65,0.227039345582644,1
719,786,65,0.164123036627023,1
719,787,65,0.127966692785038,1
719,788,65,0.121456206753995,1
719,789,65,0.105629082445625,1
719,790,65,0.122030663700219,1
719,791,65,0.221497980979365,1
719,792,65,0.295292888494719,1
719,793,65,0.176514974875233,1
720,783,65,0.103892047870416,1
720,784,65,0.159297428736866,1
720,785,65,0.160059809465273,1
720,786,65,0.13885394690359,1
720,787,65,0.156511052657832,1
720,788,65,0.169390925726293,1
720,789,65,0.140343896505929,1
720,790,65,0.12197042056468,1
720,791,65,0.1564292263956,1
720,792,65,0.192889061345693,1
720,793,65,0.132336456116183,1
721,786,65,0.106625096337708,1
721,787,65,0.141676261398233,1
721,788,65,0.163218430343855,1
721,789,65,0.14350769287329,1
721,790,65,0.114887786480035,1
729,801,65,0.119478545412817,1
739,780,65,0.126007223733078,1
739,781,65,0.10431406213317,1
717,785,66,0.15045829622374,1
718,784,66,0.188089598597121,1
718,785,66,0.208583753373326,1
718,786,66,0.160273387609933,1
718,787,66,0.110601344056589,1
718,790,66,0.15105767136378,1
718,791,66,0.223329613227693,1
718,792,66,0.223997608210324,1
719,783,66,0.128497068844084,1
719,784,66,0.218595334867955,1
719,785,66,0.230315675368716,1
719,786,66,0.176538141879957,1
719,787,66,0.156635454007707,1
719,788,66,0.138061606341437,1
719,789,66,0.103381793754809,1
719,790,66,0.115799709833545,1
719,791,66,0.188629812546473,1
719,792,66,0.232170820397958,1
719,793,66,0.155046333563286,1
720,784,66,0.178961631424711,1
720,785,66,0.178032508494271,1
720,786,66,0.164494891034099,1
720,787,66,0.207222109045585,1
720,788,66,0.208239248747465,1
720,789,66,0.136772195775177,1
720,790,66,0.106520091916681,1
720,791,66,0.129880017446751,1
720,792,66,0.158234601961635,1
720,793,66,0.125087425605695,1
721,784,66,0.110751444385224,1
721,785,66,0.108160967248882,1
721,786,66,0.114642675777668,1
721,787,66,0.160569885115749,1
721,788,66,0.178539472159038,1
721,789,66,0.136425025326433,1
721,790,66,0.105034648558881,1
729,801,66,0.13444329274947,1
729,802,66,0.122755499826844,1
730,801,66,0.128535483463376,1
730,802,66,0.128146875642196,1
759,797,66,0.113134087723286,1
718,785,67,0.195293722819203,1
718,786,67,0.166162893066103,1
719,784,67,0.214962253286458,1
719,785,67,0.233476783605051,1
719,786,67,0.207434973329725,1
719,787,67,0.20047648405133,1
719,788,67,0.16010525114907,1
719,789,67,0.109344715303947,1
719,790,67,0.121911962080443,1
719,791,67,0.170670197242339,1
719,792,67,0.183555156567013,1
720,785,67,0.196072120793053,1
720,786,67,0.196491692314337,1
720,787,67,0.242588878534937,1
720,788,67,0.225962576219111,1
720,789,67,0.13295210504529,1
720,791,67,0.115346798795111,1
720,792,67,0.130891278953402,1
720,793,67,0.117131528176387,1
721,784,67,0.116144259075688,1
721,785,67,0.118135606461544,1
721,786,67,0.122333162096041,1
721,787,67,0.15927319094136,1
721,788,67,0.169881403674651,1
721,789,67,0.12045373465501,1
729,801,67,0.130197551529799,1
729,802,67,0.130495119826396,1
730,801,67,0.138679229541047,1
730,802,67,0.150333337170334,1
730,803,67,0.105879301712346,1
732,804,67,0.110220889861048,1
756,801,67,0.121535177574143,1
758,798,67,0.119799593028117,1
758,799,67,0.119489119471786,1
759,797,67,0.132403045917918,1
759,798,67,0.14505859947169,1
759,799,67,0.111773960349153,1
760,797,67,0.160788081045656,1
718,786,68,0.177102370543402,1
718,787,68,0.174366132011906,1
719,785,68,0.217963189068368,1
719,786,68,0.233906036859653,1
719,787,68,0.239209685909402,1
719,788,68,0.182737975889539,1
720,785,68,0.191535827187217,1
720,786,68,0.216558713109361,1
720,787,68,0.246977224547772,1
720,788,68,0.216079645775271,1
720,789,68,0.138547031495794,1
720,792,68,0.109378322518793,1
721,786,68,0.128393079443485,1
721,787,68,0.149532329895292,1
721,788,68,0.151411868877029,1
721,789,68,0.112303689472101,1
729,801,68,0.118882628034677,1
729,802,68,0.133067181592107,1
730,801,68,0.130759593995398,1
730,802,68,0.157698883102752,1
730,803,68,0.106497560693983,1
732,804,68,0.111510311581379,1
732,805,68,0.114727134400573,1
733,805,68,0.10642163493512,1
739,808,68,0.132738828060536,1
740,808,68,0.126420247814895,1
758,798,68,0.124212689923707,1
758,799,68,0.123381399346871,1
759,797,68,0.135615117103018,1
759,798,68,0.151142888463488,1
759,799,68,0.115467095446989,1
718,786,69,0.192455881858225,1
718,787,69,0.205853169955645,1
719,785,69,0.191949888597604,1
719,786,69,0.243489324349756,1
719,787,69,0.252019846036347,1
719,788,69,0.196858237383787,1
720,786,69,0.217655961346594,1
720,787,69,0.225430437816904,1
720,788,69,0.19115404565727,1
721,787,69,0.137139644324349,1
729,801,69,0.106517894564764,1
729,802,69,0.125649534995718,1
730,801,69,0.110584479101778,1
730,802,69,0.141726097785863,1
730,803,69,0.10627005111509,1
732,804,69,0.10550379992417,1
732,805,69,0.119181311738339,1
732,806,69,0.108146890811732,1
733,805,69,0.116975326571111,1
733,806,69,0.113060861249518,1
735,807,69,0.103865925036971,1
738,808,69,0.116713741306406,1
738,809,69,0.108101404511652,1
739,808,69,0.162873948026136,1
739,809,69,0.147076270464262,1
740,808,69,0.149992022608677,1
740,809,69,0.136813287371424,1
758,797,69,0.104362905808514,1
758,798,69,0.113535734653047,1
758,799,69,0.107516250811682,1
758,800,69,0.103766341494276,1
759,797,69,0.127891681659968,1
759,798,69,0.13645015544759,1
759,799,69,0.105683346999301,1
760,797,69,0.119544019807488,1
760,798,69,0.115111704448181,1
719,786,70,0.221600531504851,1
719,787,70,0.232248541962194,1
720,787,70,0.190522747567052,1
729,802,70,0.108715536487151,1
730,802,70,0.112358913275851,1
732,805,70,0.112820479873104,1
733,805,70,0.116056989626982,1
738,808,70,0.130772186941153,1
739,808,70,0.165566127978594,1
740,808,70,0.150499131276362,1
758,797,70,0.113902737039394,1
758,798,70,0.108949995052054,1
758,800,70,0.1033241606718,1
759,797,70,0.121261322831731,1
759,798,70,0.121194130710181,1
