x,y,z,signal,mito.p
613,663,1,0.338605639444577,2
614,662,1,0.338204516756136,2
614,663,1,0.396772600891023,2
614,664,1,0.357324690802469,2
614,665,1,0.298836670586653,2
615,662,1,0.339594135493047,2
615,663,1,0.351290494741926,2
615,664,1,0.35100318819032,2
615,665,1,0.38036148290603,2
615,666,1,0.344773171265579,2
616,660,1,0.172331696451158,1
616,662,1,0.274780463350802,1
616,663,1,0.290714209420443,2
616,664,1,0.316706495622117,2
616,665,1,0.38557070159372,2
616,666,1,0.37192354000577,2
616,667,1,0.257906942213258,2
617,659,1,0.164301334446242,1
617,660,1,0.124176952281369,1
617,661,1,0.152643735592845,1
617,662,1,0.219243497912984,1
617,663,1,0.258829004616982,1
617,664,1,0.281306799316229,1
617,665,1,0.348491269173513,2
617,666,1,0.354855023405256,2
617,667,1,0.253241484469384,2
618,659,1,0.125222880639576,1
618,661,1,0.103244598685908,1
618,662,1,0.155255271614559,1
618,663,1,0.19880161111181,1
618,664,1,0.231624895564437,1
618,665,1,0.323035248380184,2
618,666,1,0.378355891771963,2
618,667,1,0.290422998944111,2
619,658,1,0.111454228914189,1
619,663,1,0.123357139243224,1
619,664,1,0.175998652945197,1
619,665,1,0.279379532066213,2
619,666,1,0.369149500328867,2
619,667,1,0.322900529514965,2
619,668,1,0.196958891717264,1
620,664,1,0.133487968907091,1
620,665,1,0.214398816562028,1
620,666,1,0.291836822014316,2
620,667,1,0.289564269353495,2
620,668,1,0.201528179064059,1
620,669,1,0.117771504133565,1
621,665,1,0.150556150885486,1
621,666,1,0.201195743142634,1
621,667,1,0.216767606544352,1
621,668,1,0.176883851145447,1
621,669,1,0.116093574978689,1
622,666,1,0.125074297264549,1
622,667,1,0.142632511028476,1
622,668,1,0.135286774725518,1
622,669,1,0.103880246863676,1
628,675,1,0.113340348797605,1
629,679,1,0.137409115516999,1
630,678,1,0.111749042155338,1
630,679,1,0.159423023572299,1
630,680,1,0.197636635357637,1
631,679,1,0.13718932455499,1
631,680,1,0.167744094120368,1
631,681,1,0.156911773799731,1
632,680,1,0.112228366033053,1
632,681,1,0.11533672666932,1
632,682,1,0.119340603021183,1
634,683,1,0.149927942472836,1
635,683,1,0.137996935039853,1
636,683,1,0.115233941908351,1
638,645,1,0.108359822020295,1
638,684,1,0.138182092612516,1
639,645,1,0.144429755277013,1
639,684,1,0.112648617952646,1
640,646,1,0.121055184452189,1
640,684,1,0.106003201129042,1
640,685,1,0.18575626740537,1
641,646,1,0.138803095495531,1
641,685,1,0.155313172395263,1
642,646,1,0.157512253192763,1
642,685,1,0.126128078088489,1
643,639,1,0.154474553594016,1
643,645,1,0.164481305376057,1
643,646,1,0.132983838376267,1
643,685,1,0.105923728375715,1
643,686,1,0.185592257950644,1
644,639,1,0.180087646010131,1
644,645,1,0.123375576921996,1
644,686,1,0.15565829049501,1
645,639,1,0.163342207065774,1
645,640,1,0.224426192220687,1
645,644,1,0.125745370770678,1
645,686,1,0.141510612295123,1
646,639,1,0.125260057157027,1
646,640,1,0.178336735771042,1
646,641,1,0.2238884990913,1
646,642,1,0.216179586248227,1
646,643,1,0.154852676588793,1
646,644,1,0.103615728078392,1
646,686,1,0.144149698871324,1
647,639,1,0.117942607577219,1
647,640,1,0.176444614997621,1
647,641,1,0.265153184206086,1
647,642,1,0.264182155432242,1
647,643,1,0.174863993955029,1
647,644,1,0.104286913125227,1
647,686,1,0.158966097068434,1
648,639,1,0.140454801430327,1
648,640,1,0.203613588727643,1
648,642,1,0.315920133641828,1
648,643,1,0.202412986871837,1
648,644,1,0.111544576886392,1
648,685,1,0.106647192551651,1
649,643,1,0.209384749494297,1
649,644,1,0.12297646196627,1
649,685,1,0.113499718158943,1
650,644,1,0.157244354724075,1
650,685,1,0.12215759702413,1
650,686,1,0.217801588892901,1
651,644,1,0.20939574740795,1
651,645,1,0.123574721699245,1
651,685,1,0.143473561417124,1
652,645,1,0.161879373009166,1
652,646,1,0.104118430888174,1
652,654,1,0.118188064055775,1
652,655,1,0.119446153991672,1
652,684,1,0.126292622938605,1
652,685,1,0.17666894566638,1
652,686,1,0.198246339167091,1
653,646,1,0.14281472392649,1
653,653,1,0.124736128150813,1
653,654,1,0.160317870043655,1
653,655,1,0.155992801073575,1
653,656,1,0.113856514570652,1
653,684,1,0.136493444395753,1
653,685,1,0.183984733289663,1
654,647,1,0.143743378385963,1
654,648,1,0.108537919066242,1
654,653,1,0.111476146663001,1
654,654,1,0.144296687214249,1
654,655,1,0.137470496367744,1
654,684,1,0.134847627810257,1
655,648,1,0.152960421966523,1
655,649,1,0.12351282776125,1
655,650,1,0.107873326075156,1
656,649,1,0.157530122013933,1
656,650,1,0.122186798381071,1
657,650,1,0.148128155096192,1
658,651,1,0.118300887480323,1
659,651,1,0.145066630402552,1
660,651,1,0.161526134745992,1
661,651,1,0.164084030841987,1
661,652,1,0.112742289837901,1
662,651,1,0.19273134278681,1
662,652,1,0.14355892351975,1
662,676,1,0.103582332790889,1
662,677,1,0.118137513807624,1
662,678,1,0.113934804992491,1
662,679,1,0.108218600331892,1
663,653,1,0.146019188035412,1
663,676,1,0.140171989969189,1
663,677,1,0.158180672030079,1
663,678,1,0.144322653890705,1
664,654,1,0.161888898585494,1
664,655,1,0.120259531131056,1
664,674,1,0.117448660712891,1
664,675,1,0.16181259358823,1
664,676,1,0.200495401355139,1
664,677,1,0.197176708408768,1
665,655,1,0.21448445751642,1
665,656,1,0.166126285406255,1
665,657,1,0.135831394532774,1
665,658,1,0.121534207169997,1
665,659,1,0.115559016143153,1
665,660,1,0.11104481875126,1
665,661,1,0.111955515156999,1
665,662,1,0.110031694514812,1
665,663,1,0.118698485482442,1
665,664,1,0.156020106238507,1
665,665,1,0.187705095473937,1
665,666,1,0.153820713127029,1
665,672,1,0.105379287033589,1
666,657,1,0.203451051610242,1
666,660,1,0.169201217292807,1
666,661,1,0.145508766608746,1
666,662,1,0.147813900309914,1
666,663,1,0.180504730173662,1
666,669,1,0.124767783403296,1
666,670,1,0.125921750089746,1
666,671,1,0.139065394620758,1
613,663,2,0.26544791936874,2
614,662,2,0.28946921436348,2
614,663,2,0.338419611854404,2
614,664,2,0.269152253153501,2
614,665,2,0.230298944262752,2
615,660,2,0.170761437540194,1
615,661,2,0.226849235602616,2
615,662,2,0.318271144035548,2
615,663,2,0.31480544043811,2
615,664,2,0.27948817271427,2
615,665,2,0.333020595500662,2
615,666,2,0.297225152768382,2
616,659,2,0.16203172646007,1
616,660,2,0.146985030166407,1
616,661,2,0.201252829676181,1
616,662,2,0.282215075288638,2
616,663,2,0.275027949870216,2
616,664,2,0.267205711669415,2
616,665,2,0.363630399250589,2
616,666,2,0.327775081467101,2
616,667,2,0.201084626290894,2
617,659,2,0.163304238609307,1
617,660,2,0.118111647517804,1
617,661,2,0.152211414968816,1
617,662,2,0.235821837725048,1
617,663,2,0.255675258067271,1
617,664,2,0.229481172419535,2
617,665,2,0.303475737799388,2
617,666,2,0.30685314577362,2
617,667,2,0.203726177916707,2
618,659,2,0.143344821133769,1
618,662,2,0.159383917400627,1
618,663,2,0.194410588122021,1
618,664,2,0.188963631572659,1
618,665,2,0.280730825416397,2
618,666,2,0.362738787459719,2
618,667,2,0.270054505927764,2
619,658,2,0.124231272605397,1
619,663,2,0.115155629178371,1
619,664,2,0.154673542214276,1
619,665,2,0.275741341920362,2
619,666,2,0.411854198271726,2
619,667,2,0.353941728101057,2
619,668,2,0.187743019314121,2
620,664,2,0.124337849750385,1
620,665,2,0.220824453577695,2
620,666,2,0.336844054759884,2
620,667,2,0.335891229429328,2
620,668,2,0.204350783564539,2
621,665,2,0.151398160524209,1
621,666,2,0.217660155277156,2
621,667,2,0.241311759754525,2
621,668,2,0.182945363524993,1
621,669,2,0.10447986739327,1
622,666,2,0.118222541288131,1
622,667,2,0.137254553560107,1
622,668,2,0.131555470397944,1
628,675,2,0.109731047694717,1
629,679,2,0.141422082436435,1
630,678,2,0.109639729318368,1
630,679,2,0.168073719215992,1
630,680,2,0.20983885401829,1
631,679,2,0.142980183410399,1
631,680,2,0.164537533046165,1
631,681,2,0.140047979011787,1
633,683,2,0.118877028691214,1
634,683,2,0.126353847632361,1
635,683,2,0.115525531623084,1
638,645,2,0.106089065164847,1
638,684,2,0.112255370038078,1
639,645,2,0.149793502459383,1
640,646,2,0.130754206579278,1
640,685,2,0.155919831143432,1
641,646,2,0.14325210849859,1
641,685,2,0.131676659375474,1
642,646,2,0.152539411570126,1
642,685,2,0.106947593982192,1
643,639,2,0.125849304400923,1
643,646,2,0.115505298138939,1
644,639,2,0.160029883093739,1
644,645,2,0.112534299882632,1
644,686,2,0.131868565160876,1
645,639,2,0.155022039997427,1
645,640,2,0.226518160477808,1
645,644,2,0.12935197258847,1
645,686,2,0.124224736320001,1
646,639,2,0.120789606030194,1
646,640,2,0.166449084210646,1
646,641,2,0.198925822842484,1
646,642,2,0.19402960968516,1
646,643,2,0.147198597156997,1
646,686,2,0.126453386558774,1
647,639,2,0.117858885122977,1
647,640,2,0.146683669485791,1
647,641,2,0.22584309381439,1
647,642,2,0.236720677353694,1
647,643,2,0.158475719506712,1
648,639,2,0.138696250652848,1
648,640,2,0.175713030658257,1
648,643,2,0.187594090162904,1
649,644,2,0.11511047750041,1
650,644,2,0.153610826979752,1
650,685,2,0.105415046984069,1
651,644,2,0.206943368820232,1
651,645,2,0.113871516795666,1
651,685,2,0.128614733135291,1
651,686,2,0.17048094612575,1
652,645,2,0.148003776054459,1
652,684,2,0.114623044613338,1
652,685,2,0.173985900897778,1
652,686,2,0.185461008001395,1
653,646,2,0.125146832185936,1
653,654,2,0.128670470026291,1
653,655,2,0.131536831945901,1
653,684,2,0.13151546074655,1
653,685,2,0.189405042764261,1
654,647,2,0.114601796108764,1
654,654,2,0.122733158223348,1
654,655,2,0.124121616936912,1
654,684,2,0.136072300150509,1
655,648,2,0.120565487288776,1
656,649,2,0.125817347988533,1
657,650,2,0.113888448674901,1
659,651,2,0.115893571338,1
660,651,2,0.133570921730459,1
661,651,2,0.136247073283404,1
662,651,2,0.156606877278721,1
662,652,2,0.126765923618173,1
662,676,2,0.103220896285793,1
662,677,2,0.124286518717289,1
662,678,2,0.120343800134759,1
662,679,2,0.109981166574802,1
663,653,2,0.13350114186452,1
663,676,2,0.138763520852892,1
663,677,2,0.162246007311181,1
663,678,2,0.142294732307212,1
664,654,2,0.149983813212684,1
664,655,2,0.110149091108323,1
664,675,2,0.14172620932657,1
664,676,2,0.188293918863149,1
664,677,2,0.194372820438826,1
665,656,2,0.153184239548033,1
665,657,2,0.122440096171289,1
665,658,2,0.109656527348755,1
665,659,2,0.103983165473493,1
665,664,2,0.130024696897054,1
665,665,2,0.166418611289651,1
665,666,2,0.133197204593585,1
666,661,2,0.126190061259048,1
666,662,2,0.126543132211162,1
666,663,2,0.15126586209232,1
666,669,2,0.110013691844795,1
666,670,2,0.116431398316235,1
666,671,2,0.130668554470815,1
614,660,3,0.147188647725984,1
614,663,3,0.253958646595407,2
615,659,3,0.160100031044009,1
615,660,3,0.125752275140405,1
615,661,3,0.171933462667013,1
615,662,3,0.273710564894785,2
615,663,3,0.263839212376271,2
615,664,3,0.211040995135844,2
615,665,3,0.280861885746445,2
616,659,3,0.127330598444444,1
616,660,3,0.118569589042098,1
616,661,3,0.183504316313025,1
616,662,3,0.283811758192955,1
616,663,3,0.250565935236253,1
616,665,3,0.332013204456524,2
616,666,3,0.268008782447526,2
617,659,3,0.151471074683998,1
617,660,3,0.108531360472704,1
617,661,3,0.1522637387142,1
617,662,3,0.245896975114198,1
617,663,3,0.230888905367169,1
617,664,3,0.176903203458012,1
617,665,3,0.247886660543528,2
617,666,3,0.241454710323878,2
618,659,3,0.156431401439375,1
618,662,3,0.161567560964358,1
618,663,3,0.177505980589597,1
618,664,3,0.153434938439792,1
618,665,3,0.23383411541215,2
618,666,3,0.31976512025739,2
618,667,3,0.23059651255935,2
619,658,3,0.136128327047345,1
619,663,3,0.109444800779821,1
619,664,3,0.14642580968068,1
619,665,3,0.287743255780419,2
619,666,3,0.450881354507507,2
619,667,3,0.366322813438531,2
619,668,3,0.16557891054355,2
620,664,3,0.123616850624061,1
620,665,3,0.251417414680952,2
620,666,3,0.4096291396437,2
620,667,3,0.384008953238656,2
620,668,3,0.196853351900845,2
621,665,3,0.163611209787456,1
621,666,3,0.255052169373046,2
621,667,3,0.272918782036164,2
621,668,3,0.184272686777367,1
622,666,3,0.117733803374793,1
622,667,3,0.132569899660657,1
622,668,3,0.124505729667624,1
628,675,3,0.110252500497248,1
629,679,3,0.146289228085664,1
629,680,3,0.200555053324935,1
630,678,3,0.113377859937175,1
630,679,3,0.175647232795538,1
630,680,3,0.216321466026798,1
630,681,3,0.195785282712413,1
631,679,3,0.146427672410478,1
631,680,3,0.150742111551236,1
631,681,3,0.124489121256437,1
633,683,3,0.104717259478752,1
634,683,3,0.104451034120659,1
637,684,3,0.127997221476387,1
638,645,3,0.103559243864659,1
639,645,3,0.150685270407242,1
639,646,3,0.103615460380696,1
640,646,3,0.132195089424861,1
640,685,3,0.127632762218147,1
641,646,3,0.144047449505745,1
641,685,3,0.11153307703956,1
642,646,3,0.136707457549169,1
643,639,3,0.10409821971217,1
644,639,3,0.135025635623639,1
644,686,3,0.122299777962608,1
645,639,3,0.140939501570092,1
645,640,3,0.222575285738289,1
645,644,3,0.129932854279384,1
645,686,3,0.122488995616986,1
646,639,3,0.118867770812581,1
646,640,3,0.154807915303305,1
646,641,3,0.168133226182869,1
646,642,3,0.16074249435894,1
646,643,3,0.136922117638681,1
646,686,3,0.121175815726187,1
647,640,3,0.116494095347316,1
647,641,3,0.166763539770196,1
647,642,3,0.185699024714833,1
647,643,3,0.136330572656233,1
648,639,3,0.140938743093288,1
648,640,3,0.142658031542106,1
648,641,3,0.227208508218007,1
648,642,3,0.251740302717908,1
648,643,3,0.168011301036677,1
649,643,3,0.177511301081293,1
649,644,3,0.106323233723913,1
650,643,3,0.204209550722065,1
650,644,3,0.143454097563853,1
650,686,3,0.15092102284434,1
651,643,3,0.23104970244955,1
651,644,3,0.19242141577994,1
651,685,3,0.112938779946337,1
652,645,3,0.141442293612439,1
652,685,3,0.168680143728677,1
653,646,3,0.111715167242797,1
653,684,3,0.128072366450304,1
653,685,3,0.191835514757237,1
654,646,3,0.158339416763462,1
654,683,3,0.108978928711301,1
654,684,3,0.138311301366838,1
655,683,3,0.112485913524186,1
655,684,3,0.120592156671682,1
658,650,3,0.104545877183331,1
660,651,3,0.108796448115591,1
661,650,3,0.15690725640112,1
661,651,3,0.110471845296431,1
662,651,3,0.129817811194779,1
662,652,3,0.11463592756493,1
662,677,3,0.123634685983019,1
662,678,3,0.12327614953629,1
662,679,3,0.109813688204106,1
663,653,3,0.129228485872388,1
663,676,3,0.132486734909948,1
663,677,3,0.154987785846484,1
663,678,3,0.135255621406214,1
664,654,3,0.140852555589434,1
664,655,3,0.103958481515162,1
664,675,3,0.125733447069161,1
664,676,3,0.171996985099322,1
664,677,3,0.186610925760201,1
665,656,3,0.135422207451258,1
665,657,3,0.109465859665194,1
665,665,3,0.129655564083214,1
665,666,3,0.108387785275395,1
666,657,3,0.149008412043148,1
666,660,3,0.128249638095024,1
666,661,3,0.108889015747852,1
666,662,3,0.104589244209989,1
666,663,3,0.119276333266141,1
666,664,3,0.155122248168078,1
666,665,3,0.190592371276002,1
666,670,3,0.11570603794829,1
666,671,3,0.132895654293768,1
614,659,4,0.178158571800671,1
615,658,4,0.209490267002574,1
615,659,4,0.132489913820081,1
615,660,4,0.106098166886491,1
615,661,4,0.141241208026898,1
615,662,4,0.221458941732117,1
616,658,4,0.171726811200222,1
616,659,4,0.111036787820397,1
616,660,4,0.107952341511587,1
616,661,4,0.173931803655162,1
616,662,4,0.264407713048772,1
616,663,4,0.20813324046008,1
617,659,4,0.141807689812612,1
617,660,4,0.104417917684922,1
617,661,4,0.152918783820815,1
617,662,4,0.239625286581537,1
617,663,4,0.193984011844374,1
617,664,4,0.139502020716054,1
618,659,4,0.155481353472409,1
618,662,4,0.158389833162765,1
618,663,4,0.158419926845358,1
618,664,4,0.134326286548432,1
618,665,4,0.203110227827693,1
618,666,4,0.263566450732782,2
618,667,4,0.18703665432848,2
619,656,4,0.142365627580215,1
619,658,4,0.139113390586732,1
619,663,4,0.106833197833683,1
619,664,4,0.146862614241107,1
619,665,4,0.299523984419637,2
619,666,4,0.440208648937762,2
619,667,4,0.332765903451614,2
619,668,4,0.139193688741286,2
620,664,4,0.127572697547737,1
620,665,4,0.27997243784528,2
620,666,4,0.444471110109327,2
620,667,4,0.383797204361581,2
620,668,4,0.174937086579949,2
621,665,4,0.172259986930999,1
621,666,4,0.276460891017502,2
621,667,4,0.280529583673867,2
621,668,4,0.169104600732903,1
622,666,4,0.119225236468528,1
622,667,4,0.131028607871151,1
622,668,4,0.11386691016449,1
629,679,4,0.144352914884358,1
629,680,4,0.189132526510326,1
630,678,4,0.114494460486972,1
630,679,4,0.167255478901808,1
630,680,4,0.199641200317204,1
630,681,4,0.175289164819776,1
631,679,4,0.1340579865332,1
631,680,4,0.131548733339276,1
631,681,4,0.112868531609432,1
637,684,4,0.112613393397558,1
638,645,4,0.105331982619995,1
639,645,4,0.159981597121929,1
639,646,4,0.10531713655197,1
640,646,4,0.134409339758435,1
640,685,4,0.110917751578502,1
641,646,4,0.147885119050965,1
642,646,4,0.129422778628908,1
643,640,4,0.115403483782115,1
643,645,4,0.130290710327804,1
644,639,4,0.114886169139792,1
644,640,4,0.16862967155902,1
644,645,4,0.105361362442067,1
644,686,4,0.116186176073162,1
645,639,4,0.127665265179999,1
645,640,4,0.208292676745842,1
645,641,4,0.219384039203078,1
645,644,4,0.14578178479586,1
645,686,4,0.11738248361177,1
646,639,4,0.122154696965763,1
646,640,4,0.150741676542481,1
646,641,4,0.157685855148242,1
646,642,4,0.151569185889369,1
646,643,4,0.145790529587243,1
646,644,4,0.107883097041039,1
646,686,4,0.115606175553829,1
647,640,4,0.110882326250142,1
647,641,4,0.139107880475834,1
647,642,4,0.160483675303754,1
647,643,4,0.136261651653734,1
648,640,4,0.131517033470511,1
648,641,4,0.186852232924479,1
648,642,4,0.21798614414575,1
648,643,4,0.166819053579783,1
649,640,4,0.175850482270783,1
649,641,4,0.193606669634542,1
649,642,4,0.206889717740442,1
649,643,4,0.178715449931563,1
649,644,4,0.107354583711791,1
650,641,4,0.196902340579107,1
650,642,4,0.170276637013793,1
650,643,4,0.186478493479464,1
650,644,4,0.130458746402031,1
650,686,4,0.137664543734709,1
651,642,4,0.170216036947993,1
651,643,4,0.202743147362852,1
651,644,4,0.172405592169164,1
651,685,4,0.103496546833578,1
652,642,4,0.188853674744266,1
652,643,4,0.222663023657962,1
652,644,4,0.224311372217494,1
652,645,4,0.139771458446491,1
652,685,4,0.157913888968455,1
653,641,4,0.21157728285233,1
653,642,4,0.210676100868849,1
653,645,4,0.208820398136074,1
653,646,4,0.106347750371185,1
653,684,4,0.124949327057072,1
653,685,4,0.183230561957248,1
654,646,4,0.145675776508474,1
654,683,4,0.11249484793477,1
654,684,4,0.136424400698477,1
655,683,4,0.121783099102311,1
655,684,4,0.121763356397274,1
657,649,4,0.115217801968131,1
659,650,4,0.121804224912108,1
660,650,4,0.154684919366331,1
661,650,4,0.139000689856961,1
662,650,4,0.1378734371697,1
662,651,4,0.117082751425468,1
662,652,4,0.106171326435835,1
662,677,4,0.112220803573157,1
662,678,4,0.114922375253097,1
662,679,4,0.104793742941146,1
663,651,4,0.169555671349681,1
663,652,4,0.160418892461463,1
663,653,4,0.130618584234337,1
663,676,4,0.121017628696336,1
663,677,4,0.137186078720434,1
663,678,4,0.123356079606513,1
664,654,4,0.14911349454267,1
664,655,4,0.110191298111634,1
664,675,4,0.117071073113505,1
664,676,4,0.160734753433914,1
664,677,4,0.182676394265523,1
665,656,4,0.133622040836213,1
665,657,4,0.106822913780551,1
665,665,4,0.104088950679466,1
666,657,4,0.142340843235248,1
666,658,4,0.134355565983868,1
666,660,4,0.121729369944027,1
666,661,4,0.105338128512919,1
666,663,4,0.107563677920053,1
666,664,4,0.128796388329772,1
666,665,4,0.154614537180578,1
666,666,4,0.141195498645405,1
666,669,4,0.114496858612161,1
666,670,4,0.137684665678148,1
666,671,4,0.153885083268707,1
614,658,5,0.181619546072156,1
615,658,5,0.151705834408809,1
615,661,5,0.118859483338094,1
616,658,5,0.140357203312206,1
616,661,5,0.161807875416348,1
616,662,5,0.217404660135021,1
617,658,5,0.209823796022922,1
617,659,5,0.122831146733941,1
617,661,5,0.150388081349046,1
617,662,5,0.206611222904643,1
617,663,5,0.144392612221774,1
617,664,5,0.103585745936505,1
618,656,5,0.192850490569412,1
618,658,5,0.239048420356054,1
618,659,5,0.133257124261076,1
618,662,5,0.139413301238164,1
618,663,5,0.12624913321717,1
618,664,5,0.113280217202771,1
618,665,5,0.170184493236216,1
618,666,5,0.196487855314036,2
619,656,5,0.148518871036724,1
619,657,5,0.175258312660379,1
619,658,5,0.133614667995518,1
619,664,5,0.144926234115376,1
619,665,5,0.291184353498019,2
619,666,5,0.375799557245858,2
619,667,5,0.262519618894853,2
620,664,5,0.136592079842444,1
620,665,5,0.305567772980933,2
620,666,5,0.439917884624256,2
620,667,5,0.343956559445709,2
620,668,5,0.147368607501728,2
621,665,5,0.198262780267218,1
621,666,5,0.305499264679047,2
621,667,5,0.282288870620008,2
621,668,5,0.151108634312545,1
622,666,5,0.137237532448307,1
622,667,5,0.141288389745715,1
622,668,5,0.105626293927965,1
628,676,5,0.111182894991742,1
628,677,5,0.110906039804327,1
628,678,5,0.114446576061705,1
628,679,5,0.108167559304632,1
629,678,5,0.123646643146747,1
629,679,5,0.153479086251394,1
629,680,5,0.167286487218194,1
630,678,5,0.120416379672429,1
630,679,5,0.161062649648589,1
630,680,5,0.176592729901681,1
630,681,5,0.144358224221983,1
631,679,5,0.117052601972522,1
631,680,5,0.117567964652482,1
631,681,5,0.104263891123421,1
634,683,5,0.103240393601276,1
638,644,5,0.146971277197305,1
638,645,5,0.109740952509447,1
639,645,5,0.183196062416752,1
639,646,5,0.110924466329028,1
640,646,5,0.143965913249349,1
641,646,5,0.152867608944708,1
642,646,5,0.125487109419024,1
644,640,5,0.14059793046481,1
644,645,5,0.118868038510277,1
644,686,5,0.106642240144285,1
645,640,5,0.182302844439709,1
645,641,5,0.215113480176227,1
645,644,5,0.18539701709812,1
645,645,5,0.108274571458375,1
645,686,5,0.112953837941705,1
646,640,5,0.147666476958233,1
646,641,5,0.160879053645815,1
646,642,5,0.174553118852155,1
646,643,5,0.186330992049289,1
646,644,5,0.140236828581833,1
646,686,5,0.109855538277157,1
646,687,5,0.144445036353793,1
647,640,5,0.116302390335185,1
647,641,5,0.132238768765497,1
647,642,5,0.162324632355139,1
647,643,5,0.164087678223087,1
647,644,5,0.114553298209611,1
647,686,5,0.121125968184486,1
648,640,5,0.130928187773158,1
648,641,5,0.164177379259193,1
648,642,5,0.209927082717071,1
648,643,5,0.197571450968802,1
648,644,5,0.118805464173973,1
649,640,5,0.159728176636933,1
649,641,5,0.173524501611585,1
649,642,5,0.205467506809114,1
649,643,5,0.202188990825197,1
649,644,5,0.122129622614959,1
650,641,5,0.17286461563831,1
650,642,5,0.163167411624737,1
650,643,5,0.178025102191364,1
650,644,5,0.122619888635974,1
650,686,5,0.126103583749358,1
651,642,5,0.167074046788739,1
651,643,5,0.188583701618438,1
651,644,5,0.154269329848266,1
652,642,5,0.202823791293596,1
652,645,5,0.136263202069553,1
652,685,5,0.134691024658438,1
653,641,5,0.219870847462195,1
653,684,5,0.112840389889201,1
653,685,5,0.153058622404459,1
654,646,5,0.131577923542147,1
654,683,5,0.10905305866479,1
654,684,5,0.124797241303863,1
655,647,5,0.118337595526807,1
655,683,5,0.125249951569025,1
656,648,5,0.128240324446038,1
660,650,5,0.120664055811043,1
661,650,5,0.121514375232395,1
662,650,5,0.12808635365489,1
662,651,5,0.111392357284335,1
662,678,5,0.103056953755491,1
663,650,5,0.166492127769255,1
663,651,5,0.159715717540026,1
663,652,5,0.159167673433083,1
663,653,5,0.136150501339782,1
663,676,5,0.108553122064527,1
663,677,5,0.119191562329259,1
663,678,5,0.112207797926788,1
664,654,5,0.163999103748116,1
664,655,5,0.122202246768911,1
664,676,5,0.146560283156345,1
665,656,5,0.15178190517059,1
665,657,5,0.116402810433179,1
666,657,5,0.156495950046182,1
666,658,5,0.134107320987651,1
666,660,5,0.120280545400146,1
666,661,5,0.109436781003029,1
666,664,5,0.10996793784702,1
666,665,5,0.126389529504346,1
666,666,5,0.132681228439739,1
615,658,6,0.103222000538786,1
616,658,6,0.104721063016841,1
616,661,6,0.134059927341491,1
616,662,6,0.154263518577462,1
617,658,6,0.155046143944085,1
617,661,6,0.132646539280041,1
617,662,6,0.154888838085815,1
618,657,6,0.225181188954329,1
618,658,6,0.18723269827409,1
618,659,6,0.103825156908773,1
618,662,6,0.110872711441248,1
619,656,6,0.159038598527609,1
619,657,6,0.18544790196839,1
619,658,6,0.128192016166085,1
619,664,6,0.133510299356517,1
619,665,6,0.249881030682528,1
619,666,6,0.282471485064566,2
620,664,6,0.137057773445834,1
620,665,6,0.291842666747333,2
620,666,6,0.377747459526562,2
620,667,6,0.271533424154238,2
621,665,6,0.210327268463579,1
621,666,6,0.305632778904636,2
621,667,6,0.25767395598568,1
621,668,6,0.124792768521535,1
622,665,6,0.103874324052165,1
622,666,6,0.148540833401819,1
622,667,6,0.141005120967681,1
628,675,6,0.103518029573635,1
628,676,6,0.14947846688816,1
628,677,6,0.161706908768893,1
628,678,6,0.149067807469319,1
629,676,6,0.106444445009584,1
629,677,6,0.130883036095197,1
629,678,6,0.158087859008264,1
629,679,6,0.161594297271688,1
630,678,6,0.129284981240192,1
630,679,6,0.158982080851664,1
630,680,6,0.152705964152959,1
631,679,6,0.10851288933172,1
631,680,6,0.113899323893777,1
634,683,6,0.118590480616411,1
638,644,6,0.141733604475406,1
638,645,6,0.107212904706491,1
639,645,6,0.197846331885713,1
639,646,6,0.115180424677409,1
640,646,6,0.156384520880465,1
640,685,6,0.104236898272466,1
641,646,6,0.159788631699815,1
642,646,6,0.122356429487401,1
642,686,6,0.126359647749095,1
643,686,6,0.105740589689837,1
644,640,6,0.115973947571049,1
644,645,6,0.116875252249308,1
644,686,6,0.11055205421842,1
645,640,6,0.148830370767554,1
645,641,6,0.208017528131235,1
645,645,6,0.110319402612962,1
645,686,6,0.121617985394592,1
645,687,6,0.168843015468197,1
646,640,6,0.138556434377345,1
646,641,6,0.165134945069771,1
646,642,6,0.207230764604404,1
646,644,6,0.167762621031705,1
646,686,6,0.112058712618582,1
646,687,6,0.140119755456371,1
647,640,6,0.120878336662154,1
647,641,6,0.13613535411185,1
647,642,6,0.180053536862107,1
647,643,6,0.204902151584534,1
647,644,6,0.141128473834915,1
647,686,6,0.112046565835653,1
648,640,6,0.130631232950445,1
648,641,6,0.157588268184191,1
648,642,6,0.226673670530704,1
648,643,6,0.25066467106958,1
648,644,6,0.15119831304051,1
649,640,6,0.145019984079126,1
649,641,6,0.160784355586061,1
649,642,6,0.214267979313393,1
649,643,6,0.233486621495358,1
649,644,6,0.139866870366766,1
650,640,6,0.186186491064117,1
650,641,6,0.159656991358094,1
650,642,6,0.163946445380613,1
650,643,6,0.174811257509032,1
650,644,6,0.11770179119205,1
650,686,6,0.116775467933341,1
651,641,6,0.209316062727281,1
651,642,6,0.173962700430842,1
651,643,6,0.184353364170323,1
651,644,6,0.14128622585601,1
652,642,6,0.22200821278683,1
652,645,6,0.129550414659269,1
653,641,6,0.232468790241098,1
654,646,6,0.123549335034463,1
655,647,6,0.112668851436792,1
655,683,6,0.122778053357683,1
656,648,6,0.11428068156904,1
658,649,6,0.127492332468759,1
660,650,6,0.107342336542226,1
661,650,6,0.115107086662935,1
662,650,6,0.127347050698642,1
662,651,6,0.108752646080178,1
663,651,6,0.164682870586635,1
663,652,6,0.171828636711116,1
663,653,6,0.15193365630168,1
663,654,6,0.108237818795608,1
664,655,6,0.137480378874333,1
664,656,6,0.104753376359492,1
665,656,6,0.184296958035085,1
665,657,6,0.13493866733484,1
666,657,6,0.192681461782897,1
666,658,6,0.142367256074529,1
666,659,6,0.123347903672732,1
666,660,6,0.124362042929609,1
666,661,6,0.121465966565807,1
666,662,6,0.104311519005064,1
666,665,6,0.116302758419516,1
666,666,6,0.138515677403218,1
617,657,7,0.105243140447328,1
617,658,7,0.106683387510885,1
618,656,7,0.116856558026911,1
618,657,7,0.166559297582663,1
618,658,7,0.138764011632,1
619,656,7,0.158177426195522,1
619,657,7,0.187899667082223,1
619,658,7,0.122432031778215,1
619,664,7,0.121231396460198,1
619,665,7,0.207152329179647,1
619,666,7,0.213083818557714,2
620,656,7,0.109825433440493,1
620,657,7,0.109722693295806,1
620,664,7,0.147623054161222,1
620,665,7,0.285260761201966,2
620,666,7,0.332878336483689,2
620,667,7,0.217083132894684,2
621,664,7,0.118590246380928,1
621,665,7,0.242136335580834,1
621,666,7,0.320028557097821,2
621,667,7,0.238230782361684,1
622,665,7,0.121375763596522,1
622,666,7,0.16573726488446,1
622,667,7,0.139876161707611,1
627,675,7,0.103328064596525,1
628,675,7,0.117465704132833,1
628,676,7,0.201153469214899,1
628,677,7,0.22489887942637,1
629,676,7,0.137696589379665,1
629,677,7,0.179377566718966,1
629,678,7,0.202521181357068,1
629,679,7,0.171860225039175,1
630,677,7,0.105058228264219,1
630,678,7,0.14738357626453,1
630,679,7,0.166345764054285,1
630,680,7,0.135542013324028,1
631,679,7,0.11151380280549,1
631,680,7,0.113406291663242,1
634,682,7,0.103815954800493,1
634,683,7,0.132885671400543,1
635,683,7,0.117300133108217,1
638,644,7,0.149466688189561,1
638,645,7,0.10756414639102,1
639,646,7,0.126379055832013,1
640,685,7,0.106946199723361,1
642,646,7,0.130080913413091,1
643,686,7,0.119795756027816,1
644,645,7,0.122734139781564,1
644,686,7,0.120005419093681,1
644,687,7,0.186879605013835,1
645,640,7,0.124745508724223,1
645,645,7,0.117742202389987,1
645,686,7,0.134019025364446,1
645,687,7,0.172011128460896,1
645,688,7,0.191731112656024,1
646,640,7,0.135430416847251,1
646,641,7,0.187313364512976,1
646,645,7,0.103341862181909,1
646,686,7,0.117082227184148,1
646,687,7,0.142729685291912,1
647,640,7,0.132366583260988,1
647,641,7,0.159264769618025,1
647,644,7,0.176469544345506,1
647,686,7,0.103851948986456,1
648,640,7,0.139591989449855,1
648,641,7,0.167318465938725,1
648,642,7,0.269705227359668,1
648,644,7,0.182537213772047,1
648,686,7,0.119281664911908,1
649,640,7,0.14154198869584,1
649,641,7,0.159314751008573,1
649,642,7,0.235765175046185,1
649,643,7,0.26655848556632,1
649,644,7,0.151836459730102,1
649,686,7,0.123757626149639,1
650,640,7,0.171134095040356,1
650,641,7,0.163187756649588,1
650,642,7,0.179678871629229,1
650,643,7,0.18224989606637,1
650,644,7,0.11667440089925,1
651,641,7,0.214165228014635,1
651,642,7,0.190338549244463,1
651,643,7,0.195599678976924,1
651,644,7,0.141944182175063,1
652,642,7,0.240676646972147,1
652,645,7,0.127459918739472,1
653,662,7,0.112916616807971,1
654,646,7,0.117674753724813,1
654,662,7,0.135339823485494,1
655,646,7,0.189516561162543,1
655,647,7,0.107096790831104,1
656,647,7,0.189681150628942,1
657,648,7,0.152813857478282,1
658,649,7,0.116788919742535,1
660,650,7,0.107101029377948,1
661,650,7,0.120750377163745,1
662,649,7,0.174692120880501,1
662,650,7,0.132264768904164,1
662,651,7,0.11186905995545,1
662,652,7,0.102990587035169,1
663,649,7,0.197008148093221,1
663,651,7,0.174782022689878,1
663,652,7,0.199195215956639,1
663,653,7,0.178887691090423,1
663,654,7,0.117390715315904,1
664,655,7,0.153167631136847,1
664,656,7,0.116736897157059,1
665,657,7,0.164668035672681,1
665,658,7,0.10570244276824,1
666,658,7,0.157273288383321,1
666,659,7,0.121949919382839,1
666,660,7,0.130542558088838,1
666,661,7,0.136324917542417,1
666,662,7,0.11206422272948,1
666,665,7,0.115386239588902,1
666,666,7,0.150757247625098,1
667,661,7,0.193956238208474,1
618,657,8,0.113791475184736,1
619,656,8,0.128814212534659,1
619,657,8,0.161502242726676,1
619,658,8,0.105515667855334,1
620,657,8,0.10607332677117,1
620,664,8,0.147650883567475,1
620,665,8,0.271229118798972,1
620,666,8,0.293910029124617,2
621,664,8,0.130185226281739,1
621,665,8,0.259167842974957,1
621,666,8,0.310404824947569,1
621,667,8,0.202008049491236,1
622,665,8,0.127713406148891,1
622,666,8,0.161991594113899,1
622,667,8,0.122248960016761,1
624,651,8,0.114809752601821,1
625,650,8,0.11107398664599,1
626,649,8,0.122799859565789,1
626,650,8,0.112350636955435,1
627,648,8,0.125614868144162,1
627,649,8,0.141755990695185,1
628,648,8,0.145842440632013,1
628,649,8,0.128659951737675,1
628,675,8,0.130983032338506,1
629,647,8,0.156545284500634,1
629,648,8,0.135753583735973,1
629,676,8,0.175004758326536,1
629,677,8,0.228660522826092,1
630,647,8,0.11544941624502,1
630,677,8,0.126294608363179,1
630,678,8,0.159120357865418,1
630,679,8,0.15938067156607,1
631,679,8,0.111543762639235,1
631,680,8,0.106176568849036,1
633,684,8,0.127508383176413,1
634,682,8,0.110287345813935,1
634,683,8,0.134472605647119,1
635,683,8,0.128382550000799,1
636,684,8,0.14443750735611,1
638,645,8,0.1111719305403,1
639,646,8,0.136152419839933,1
642,646,8,0.133483663435823,1
643,686,8,0.136936629084587,1
644,686,8,0.121805552246515,1
644,687,8,0.164729461139709,1
645,640,8,0.108521834896376,1
645,686,8,0.134835157559279,1
645,687,8,0.16024763286082,1
646,640,8,0.138037792400616,1
646,645,8,0.109059070708866,1
646,686,8,0.115721575568695,1
647,640,8,0.162859760048278,1
648,640,8,0.178781002404728,1
648,641,8,0.193194459799882,1
649,640,8,0.17134495159178,1
649,641,8,0.179776324744431,1
649,642,8,0.257585124967084,1
649,644,8,0.143250758856042,1
650,640,8,0.19496063996168,1
650,641,8,0.192728978123834,1
650,642,8,0.20677090457996,1
650,643,8,0.184420902068063,1
650,644,8,0.108610409371347,1
651,641,8,0.2394273910602,1
651,642,8,0.203531896314258,1
651,643,8,0.198689401161148,1
651,644,8,0.139251321824296,1
652,642,8,0.233770782599043,1
652,644,8,0.246396164391727,1
652,645,8,0.118424474583041,1
653,641,8,0.206222213536919,1
653,645,8,0.160695189945346,1
653,662,8,0.10481585030916,1
654,645,8,0.190003414037942,1
654,646,8,0.104051952627145,1
654,662,8,0.148775883132466,1
655,646,8,0.171733827110656,1
656,647,8,0.156907881029076,1
657,648,8,0.122199023242495,1
660,650,8,0.111160263382409,1
661,650,8,0.138254281757714,1
662,649,8,0.185190655637165,1
662,650,8,0.150968862653325,1
662,651,8,0.123567884253941,1
662,652,8,0.109607661365271,1
663,649,8,0.175195927943276,1
663,650,8,0.172135819816607,1
663,651,8,0.183311451277547,1
663,654,8,0.123428302213922,1
664,656,8,0.129191164352019,1
665,657,8,0.202007558712128,1
665,658,8,0.121033099392317,1
666,659,8,0.130886627705944,1
666,660,8,0.135797240768467,1
666,661,8,0.140150629923909,1
666,662,8,0.11272109710368,1
666,665,8,0.112855258265367,1
666,666,8,0.152349223511603,1
619,657,9,0.120016127001498,1
620,664,9,0.149720420988534,1
620,665,9,0.271127170593301,1
621,664,9,0.138834271122977,1
621,665,9,0.272015034616435,1
621,666,9,0.291769986823027,1
622,665,9,0.133443241083815,1
622,666,9,0.156351080976679,1
622,667,9,0.107597608602947,1
624,651,9,0.129521302534892,1
625,650,9,0.125961637046363,1
625,651,9,0.10784977983203,1
626,649,9,0.165363179663256,1
626,650,9,0.132476941635924,1
627,649,9,0.209303570168161,1
627,650,9,0.114791894934722,1
628,649,9,0.186515290758513,1
628,675,9,0.135725419707601,1
629,648,9,0.209859265967565,1
629,649,9,0.129269209384303,1
629,675,9,0.115726962984815,1
629,676,9,0.200059366425587,1
630,647,9,0.159940271290198,1
630,648,9,0.124237853507076,1
630,676,9,0.110359412264356,1
630,677,9,0.151389939974146,1
630,678,9,0.174708071201519,1
631,678,9,0.106501420002425,1
631,679,9,0.113293691320107,1
634,682,9,0.11119640257129,1
634,683,9,0.123464017548119,1
635,683,9,0.135801602010088,1
636,684,9,0.157779962042251,1
637,684,9,0.111333720334968,1
638,645,9,0.124847334235118,1
639,646,9,0.143623650591688,1
640,685,9,0.105256112631485,1
642,646,9,0.135481669801853,1
643,645,9,0.172969419286066,1
643,686,9,0.15296609938848,1
644,686,9,0.118138082665227,1
644,687,9,0.141937445116395,1
645,686,9,0.122260794485713,1
646,640,9,0.153272401322391,1
646,645,9,0.120029824200246,1
646,686,9,0.108751753754527,1
647,640,9,0.213809569318132,1
648,640,9,0.230767861392558,1
648,644,9,0.15850642666319,1
649,640,9,0.210902416962183,1
649,641,9,0.202320586550636,1
649,643,9,0.24038186719321,1
649,644,9,0.119980712827208,1
650,641,9,0.22780360019492,1
650,642,9,0.219511887160781,1
650,643,9,0.171236634411771,1
651,642,9,0.196414573069915,1
651,643,9,0.190455466212937,1
651,644,9,0.133879008315672,1
651,684,9,0.105580930322662,1
651,685,9,0.110158538606157,1
652,642,9,0.205343094305169,1
652,643,9,0.29679884418843,1
652,644,9,0.228028733956766,1
652,645,9,0.106412667062324,1
652,684,9,0.120185958881099,1
653,641,9,0.171979305897353,1
653,642,9,0.193733000638637,1
653,644,9,0.264907348489128,1
653,645,9,0.134950434879368,1
654,642,9,0.177673637425423,1
654,643,9,0.216360951436872,1
654,644,9,0.216398473730513,1
654,645,9,0.164957896506465,1
654,662,9,0.121317171263438,1
655,645,9,0.238561433631807,1
655,646,9,0.155144054376184,1
656,646,9,0.226055712708975,1
656,647,9,0.133707581403969,1
657,647,9,0.186772592860092,1
658,648,9,0.153599639446897,1
659,649,9,0.150098566291453,1
660,650,9,0.120909623830306,1
661,650,9,0.168967104504094,1
662,649,9,0.205249444728055,1
662,650,9,0.179899108754063,1
662,651,9,0.138998525967256,1
662,652,9,0.115591061788108,1
663,649,9,0.153000944705167,1
663,650,9,0.169657106468103,1
663,651,9,0.190133358960926,1
663,652,9,0.226534445420946,1
663,654,9,0.127427181542137,1
664,651,9,0.230848906869846,1
664,657,9,0.108271057926123,1
665,658,9,0.143245996067878,1
666,660,9,0.145477903295278,1
666,661,9,0.137255936664867,1
666,662,9,0.113266731931365,1
666,663,9,0.104429361761401,1
666,665,9,0.108604921568591,1
666,666,9,0.140027511292158,1
620,664,10,0.135571103140264,1
620,665,10,0.243786937262636,1
621,664,10,0.12519429275652,1
621,665,10,0.244785895829368,1
621,666,10,0.239880313252705,1
622,665,10,0.12578795701239,1
622,666,10,0.138281720771494,1
624,651,10,0.115769883848647,1
625,650,10,0.122159002437031,1
626,648,10,0.155235540063592,1
626,649,10,0.19511084067695,1
626,650,10,0.135477208173596,1
627,648,10,0.280335413612124,1
627,649,10,0.269822612799109,1
627,650,10,0.127328534941376,1
628,649,10,0.238922870136903,1
629,648,10,0.282783196722738,1
629,649,10,0.156238625636462,1
629,675,10,0.119302601102504,1
629,676,10,0.19698001752706,1
630,647,10,0.205200522974218,1
630,648,10,0.163142303811721,1
630,676,10,0.118164796664415,1
630,677,10,0.1629709215163,1
631,647,10,0.121906987364936,1
631,677,10,0.103888166253832,1
631,678,10,0.113152001160737,1
634,682,10,0.10763863327477,1
634,684,10,0.126088369597002,1
635,682,10,0.10688141688107,1
635,683,10,0.128744477285003,1
635,684,10,0.167901979990311,1
636,683,10,0.111075235901902,1
636,684,10,0.166865131045607,1
637,684,10,0.124784191041211,1
639,646,10,0.135183532647652,1
639,685,10,0.129985813806794,1
640,685,10,0.104195862446573,1
642,646,10,0.123538727513282,1
643,645,10,0.198640457099169,1
643,686,10,0.16101666141533,1
644,686,10,0.11046192932763,1
646,640,10,0.162065099439432,1
647,640,10,0.259738485229021,1
648,641,10,0.225380266807154,1
648,644,10,0.129074704700441,1
649,640,10,0.244026638240741,1
649,641,10,0.223680921836645,1
649,642,10,0.232193753167198,1
649,643,10,0.187787925602527,1
650,640,10,0.265616948155255,1
650,641,10,0.255131296350183,1
650,642,10,0.209183619292473,1
650,643,10,0.143374490961678,1
650,684,10,0.114505960333805,1
650,685,10,0.126152048186299,1
651,641,10,0.232507829488347,1
651,642,10,0.174415410696004,1
651,643,10,0.166731215273474,1
651,644,10,0.117578505249239,1
651,684,10,0.146314993988848,1
652,641,10,0.181834641170424,1
652,642,10,0.170996944587737,1
652,643,10,0.243237130812531,1
652,644,10,0.187833032664205,1
652,683,10,0.11835032232141,1
652,684,10,0.141875963879015,1
653,641,10,0.140050254442198,1
653,642,10,0.155124490136277,1
653,643,10,0.22926978047272,1
653,644,10,0.198007998985604,1
653,645,10,0.106263459059341,1
654,642,10,0.139669588319314,1
654,643,10,0.157250768314694,1
654,644,10,0.162593333916914,1
654,645,10,0.133485816171457,1
655,642,10,0.17964851024894,1
655,643,10,0.170379343696268,1
655,644,10,0.180788467422663,1
655,645,10,0.198719115605339,1
655,646,10,0.131547651394424,1
656,645,10,0.242833487304124,1
656,646,10,0.18239350472589,1
656,647,10,0.11228353406645,1
657,646,10,0.199510987696525,1
657,647,10,0.152168181791006,1
658,646,10,0.185566726282943,1
658,647,10,0.172321289703249,1
658,648,10,0.122399171886102,1
659,649,10,0.130068621627243,1
660,650,10,0.125955770005205,1
661,649,10,0.283547451335013,1
661,650,10,0.187877537406068,1
662,648,10,0.187201310719303,1
662,649,10,0.20778683964221,1
662,650,10,0.194697515435226,1
662,651,10,0.148026028425391,1
662,652,10,0.119552508055247,1
663,649,10,0.132671468627927,1
663,650,10,0.160883258730447,1
663,651,10,0.188546870877177,1
663,652,10,0.219199015479262,1
663,653,10,0.198938181552755,1
663,654,10,0.136290272999002,1
664,650,10,0.184177051775679,1
664,651,10,0.196567093831879,1
664,652,10,0.259721084878819,1
664,656,10,0.143576424256588,1
664,657,10,0.112907693551457,1
665,658,10,0.161249134555659,1
666,661,10,0.131532526474633,1
666,662,10,0.117083164126082,1
666,663,10,0.113904376687778,1
666,664,10,0.106554390683906,1
666,665,10,0.111180686485755,1
666,666,10,0.130757050867291,1
620,664,11,0.115446415800018,1
620,665,11,0.197567814741773,1
621,664,11,0.107481137797299,1
621,665,11,0.202156510171486,1
621,666,11,0.179919096848654,1
622,665,11,0.122575584667382,1
622,666,11,0.119211037336601,1
625,649,11,0.105193549449252,1
625,650,11,0.106424133446944,1
626,648,11,0.17036549034053,1
626,649,11,0.194967622409902,1
626,650,11,0.124305380250745,1
627,649,11,0.285805615244706,1
627,650,11,0.125881104656325,1
629,649,11,0.164290291916306,1
629,675,11,0.107947467182716,1
629,676,11,0.166436892811433,1
630,648,11,0.192605926416507,1
630,676,11,0.11440446944503,1
630,677,11,0.15644728483597,1
631,647,11,0.155517079960677,1
631,648,11,0.120715833006965,1
631,677,11,0.1068281004234,1
631,678,11,0.108136205212056,1
632,647,11,0.132768040571549,1
632,676,11,0.109036182555908,1
632,677,11,0.117855126201171,1
632,678,11,0.1099759241616,1
633,647,11,0.114673405242288,1
633,678,11,0.103591523745098,1
633,679,11,0.107742856910852,1
634,680,11,0.108381762077248,1
634,681,11,0.114779937770994,1
635,682,11,0.112648662568929,1
635,683,11,0.110033356471337,1
635,684,11,0.126548486165071,1
635,685,11,0.18564115739634,1
636,683,11,0.117627906628115,1
636,684,11,0.152775498629343,1
637,653,11,0.105563842286438,1
637,684,11,0.127234428047366,1
638,653,11,0.122221565619264,1
639,646,11,0.126095619742919,1
639,685,11,0.124855287087486,1
640,685,11,0.104390132894952,1
642,646,11,0.113440144267642,1
642,685,11,0.115896538320791,1
643,646,11,0.105662120802868,1
643,686,11,0.168736639096481,1
644,646,11,0.118374850122753,1
644,686,11,0.106773992026713,1
646,640,11,0.162648769648007,1
649,641,11,0.23377611424481,1
649,642,11,0.197954637911651,1
649,643,11,0.138650050492247,1
650,640,11,0.260256301804523,1
650,641,11,0.241855587622765,1
650,642,11,0.173183599750541,1
650,643,11,0.117402137084242,1
650,684,11,0.170840586825472,1
651,641,11,0.187557794817034,1
651,642,11,0.145600832307828,1
651,643,11,0.141700800353646,1
651,644,11,0.104055187307631,1
651,683,11,0.125342028422178,1
651,684,11,0.186935988840932,1
652,641,11,0.143562202816519,1
652,642,11,0.145219173472658,1
652,643,11,0.18376172995531,1
652,644,11,0.145098754126002,1
652,683,11,0.122791070158123,1
653,642,11,0.129227046997275,1
653,643,11,0.158582709352313,1
653,644,11,0.139846804193681,1
654,643,11,0.115150855236136,1
654,644,11,0.120204407713941,1
654,645,11,0.106676973920266,1
655,643,11,0.124155525311665,1
655,644,11,0.138354423003941,1
655,645,11,0.155139023890324,1
655,646,11,0.111572528987422,1
656,643,11,0.182878651028481,1
656,644,11,0.179314245059929,1
656,645,11,0.186251363138973,1
656,646,11,0.144605387273348,1
657,644,11,0.182790210402358,1
657,645,11,0.166573295941319,1
657,646,11,0.148873425480234,1
657,647,11,0.120206025054184,1
658,645,11,0.135275944122925,1
658,646,11,0.136108930118498,1
658,647,11,0.128842398871172,1
659,646,11,0.13744039153108,1
659,647,11,0.153279640314238,1
659,648,11,0.152166107133867,1
659,649,11,0.109333282381539,1
660,649,11,0.204971128357386,1
660,650,11,0.126949698086077,1
661,647,11,0.215139134538705,1
661,648,11,0.250163429443052,1
661,649,11,0.253150110322682,1
661,650,11,0.19297269456737,1
661,651,11,0.119573098469653,1
662,648,11,0.154581041506438,1
662,649,11,0.189518747360389,1
662,650,11,0.197896859825723,1
662,651,11,0.167234966565896,1
662,652,11,0.139759702056034,1
662,653,11,0.112008028521583,1
663,649,11,0.118679735489692,1
663,650,11,0.150229057763898,1
663,651,11,0.18215248756745,1
663,652,11,0.210876628750857,1
663,653,11,0.203375605476417,1
663,654,11,0.155519132309675,1
663,655,11,0.105513715892971,1
664,651,11,0.156526211039835,1
664,652,11,0.212678501938711,1
664,653,11,0.266748104767241,1
664,654,11,0.262803423068278,1
664,655,11,0.207621246309453,1
664,656,11,0.150514657742696,1
664,657,11,0.124824245308888,1
665,652,11,0.161179934701393,1
665,659,11,0.119722451475554,1
666,661,11,0.12618940316888,1
666,662,11,0.129257676075259,1
666,663,11,0.134988626417247,1
666,664,11,0.123900855570758,1
666,665,11,0.125056138437543,1
666,666,11,0.126794500347159,1
666,667,11,0.117771537595777,1
622,665,12,0.103856633696126,1
626,648,12,0.169438464375371,1
626,649,12,0.169458318621114,1
626,650,12,0.103051343257958,1
627,649,12,0.256043721636871,1
627,650,12,0.110132817319256,1
629,649,12,0.159772056750841,1
630,649,12,0.108963223779836,1
631,648,12,0.150559976731716,1
631,675,12,0.105954468994405,1
632,648,12,0.11955464963681,1
632,675,12,0.125534023440146,1
632,676,12,0.137780780304874,1
632,677,12,0.122928521770649,1
632,678,12,0.104409953678483,1
633,676,12,0.125878115365393,1
633,677,12,0.129250414775271,1
633,678,12,0.125406208944654,1
634,679,12,0.155282297927725,1
635,679,12,0.103749855777867,1
635,680,12,0.141877068132008,1
636,652,12,0.132505038739872,1
636,682,12,0.112602808184518,1
636,683,12,0.121127228594468,1
636,684,12,0.130619387327423,1
637,652,12,0.125738968334129,1
637,653,12,0.128360297629867,1
637,683,12,0.114713258736694,1
637,684,12,0.125316574832972,1
638,653,12,0.137142031295467,1
638,685,12,0.165250010462518,1
639,646,12,0.112389687356754,1
639,685,12,0.110801503854267,1
642,685,12,0.118120180381846,1
643,685,12,0.110570134966932,1
643,686,12,0.163605387362581,1
644,646,12,0.119700968735497,1
647,641,12,0.200026417300909,1
648,642,12,0.215230687150537,1
648,643,12,0.164259160905143,1
649,641,12,0.228446386977899,1
649,642,12,0.161832358601408,1
650,641,12,0.1978242245177,1
650,642,12,0.130227678674604,1
651,642,12,0.114933384320821,1
651,643,12,0.107784952373457,1
651,683,12,0.141323056597271,1
652,642,12,0.11725624184024,1
652,643,12,0.12377848426174,1
653,642,12,0.102933946664447,1
653,643,12,0.103955168756181,1
655,645,12,0.110490071047861,1
656,644,12,0.12194490005105,1
656,645,12,0.130528091259215,1
656,646,12,0.110773864067215,1
657,645,12,0.119384940451986,1
657,646,12,0.107217344026607,1
659,647,12,0.107535803897518,1
659,648,12,0.110755303693666,1
660,647,12,0.142765545629028,1
660,648,12,0.174181911381176,1
660,649,12,0.16818515953578,1
660,650,12,0.137666406464507,1
660,651,12,0.103387839261097,1
661,648,12,0.174539510885971,1
661,649,12,0.20177231936228,1
661,650,12,0.204736201321516,1
661,651,12,0.1757158637922,1
661,652,12,0.127670652596119,1
662,649,12,0.156714647909268,1
662,650,12,0.204367492362362,1
662,651,12,0.223178564803053,1
662,652,12,0.196287974368124,1
662,653,12,0.143415783331196,1
663,650,12,0.141486564118818,1
663,651,12,0.185365105302012,1
663,652,12,0.215981244564064,1
663,653,12,0.215112186304033,1
663,654,12,0.173785674175676,1
663,655,12,0.12468172974829,1
664,651,12,0.125049457149228,1
664,652,12,0.169761832037364,1
664,653,12,0.225503363130764,1
664,654,12,0.241689815824878,1
664,655,12,0.211644921136705,1
664,656,12,0.160216914550271,1
664,657,12,0.133081336107752,1
664,658,12,0.104490151446402,1
665,652,12,0.12131843167342,1
665,653,12,0.17636681535489,1
665,654,12,0.239177584494093,1
665,655,12,0.260935807788058,1
665,656,12,0.240674550006866,1
665,659,12,0.126784104753321,1
665,663,12,0.104732975564287,1
665,664,12,0.103735757032575,1
666,661,12,0.121831797774736,1
666,662,12,0.145223122013665,1
666,663,12,0.176271001888072,1
666,664,12,0.177046209797718,1
666,666,12,0.13315074788936,1
667,667,12,0.165434231093248,1
626,649,13,0.134014742201319,1
627,649,13,0.196502087908175,1
628,649,13,0.191368471511299,1
628,671,13,0.115756342806887,1
629,649,13,0.146196916997028,1
630,649,13,0.118756821271901,1
632,675,13,0.135305770107822,1
632,676,13,0.135802126251409,1
633,675,13,0.11606581249686,1
633,676,13,0.157837427814201,1
633,677,13,0.145667120949656,1
634,676,13,0.106742258695736,1
634,677,13,0.11825100647641,1
634,678,13,0.13609473098657,1
635,652,13,0.116890488709805,1
635,679,13,0.159728857035243,1
636,651,13,0.115298635518077,1
636,652,13,0.172272457181977,1
636,653,13,0.123380551637502,1
636,680,13,0.112287806075506,1
637,652,13,0.152613920762018,1
637,653,13,0.142838805565007,1
637,682,13,0.130789754602415,1
637,683,13,0.140852577897575,1
637,684,13,0.132309775579206,1
638,652,13,0.103001941879083,1
638,653,13,0.133340289011786,1
640,646,13,0.111054065475822,1
641,685,13,0.107264648440201,1
642,685,13,0.12210829603189,1
643,685,13,0.123904001018679,1
644,646,13,0.115810116581454,1
646,645,13,0.135279959588356,1
647,641,13,0.170731232316894,1
647,642,13,0.228390772781676,1
647,644,13,0.134665437220384,1
648,642,13,0.175084231079863,1
648,643,13,0.130962363845606,1
649,641,13,0.200259983540161,1
649,642,13,0.128664602985133,1
660,648,13,0.1150173967809,1
660,649,13,0.133931800532022,1
660,650,13,0.147493388090005,1
660,651,13,0.149144435934632,1
660,652,13,0.116399798834105,1
661,648,13,0.112799554836579,1
661,649,13,0.14663625353149,1
661,650,13,0.211121036746773,1
661,652,13,0.222120221964221,1
661,653,13,0.123190430503403,1
662,649,13,0.120361233947173,1
662,650,13,0.202777702673702,1
662,653,13,0.189642379079389,1
662,654,13,0.113035151116688,1
663,650,13,0.132417869677802,1
663,651,13,0.190298327665727,1
663,652,13,0.22454206070652,1
663,653,13,0.220004964007599,1
663,654,13,0.178134043999329,1
663,655,13,0.136510833591885,1
663,656,13,0.106374029361619,1
664,651,13,0.104087076795598,1
664,652,13,0.134601881325864,1
664,653,13,0.181716854184441,1
664,654,13,0.204812383624004,1
664,655,13,0.196795640739342,1
664,656,13,0.166834334656563,1
664,657,13,0.140917059579959,1
664,658,13,0.105467359575381,1
665,653,13,0.132987753455063,1
665,654,13,0.188642461262582,1
665,655,13,0.208092171171974,1
665,656,13,0.19859046455455,1
665,657,13,0.218576930651395,1
665,659,13,0.129831787245293,1
665,663,13,0.145049207744209,1
665,664,13,0.159632508173034,1
665,665,13,0.12597166455587,1
666,655,13,0.197017405971854,1
666,656,13,0.193514938557579,1
666,662,13,0.155820091443748,1
666,663,13,0.228436214465473,1
666,666,13,0.15072030534313,1
628,671,14,0.107486837527398,1
632,675,14,0.120115755160475,1
632,676,14,0.114332046064349,1
633,675,14,0.127306896044329,1
633,676,14,0.165110974971961,1
633,677,14,0.139895904412649,1
634,676,14,0.142868363852209,1
634,677,14,0.150681723412778,1
634,678,14,0.159989572282438,1
635,651,14,0.107352062891826,1
635,652,14,0.132077425133655,1
635,678,14,0.113398138037603,1
635,679,14,0.217409991780788,1
636,651,14,0.125491671433916,1
636,652,14,0.190058292065503,1
636,653,14,0.147558784406181,1
636,680,14,0.164223501341299,1
637,652,14,0.166290138703992,1
637,653,14,0.151949338925003,1
637,681,14,0.144907584509262,1
637,683,14,0.164984833587066,1
637,684,14,0.14427916416927,1
638,652,14,0.107129472258086,1
638,653,14,0.122457273440079,1
638,682,14,0.132246030065485,1
638,683,14,0.117359896618719,1
638,684,14,0.11048624520163,1
644,646,14,0.110963617116983,1
646,645,14,0.116342556143568,1
647,641,14,0.161219408957397,1
647,642,14,0.17063323265223,1
647,643,14,0.164731836956756,1
647,644,14,0.105843787151421,1
648,642,14,0.137768421594602,1
660,649,14,0.112502198467324,1
660,650,14,0.159563174469921,1
660,652,14,0.162879034282348,1
661,649,14,0.108108264265097,1
661,653,14,0.165023984375021,1
662,654,14,0.127566573962955,1
663,653,14,0.212104513463454,1
663,654,14,0.171292092451005,1
663,655,14,0.138413182648085,1
663,656,14,0.116736752154141,1
664,652,14,0.111460263266406,1
664,653,14,0.147493767328406,1
664,654,14,0.170517274933832,1
664,655,14,0.171782893867412,1
664,656,14,0.160773725756739,1
664,657,14,0.139857300174155,1
665,653,14,0.108560528367434,1
665,654,14,0.155181978216368,1
665,655,14,0.169191502097278,1
665,656,14,0.166077252111711,1
665,657,14,0.184672348282554,1
665,658,14,0.171794694874151,1
665,659,14,0.129583419554299,1
665,662,14,0.108028178037885,1
665,663,14,0.185932211715683,1
665,666,14,0.103998123082225,1
666,655,14,0.16165945935238,1
666,656,14,0.1615580465421,1
666,657,14,0.220297959135233,1
666,662,14,0.154325211742185,1
633,675,15,0.114884975654233,1
633,676,15,0.141924216388614,1
633,677,15,0.119374689861066,1
634,676,15,0.151529555476377,1
634,677,15,0.160652336005938,1
634,678,15,0.171211861220875,1
635,651,15,0.12289086562816,1
635,652,15,0.144689065111307,1
635,653,15,0.117314209545368,1
635,677,15,0.105456830132695,1
635,678,15,0.148149604374038,1
636,651,15,0.140934147616183,1
636,652,15,0.198044785110583,1
636,653,15,0.177897611163922,1
636,654,15,0.117300590425114,1
636,679,15,0.134707499220777,1
636,683,15,0.121992327159421,1
637,651,15,0.11418083032865,1
637,652,15,0.173526386649523,1
637,653,15,0.166399013587532,1
637,680,15,0.119765316569033,1
637,681,15,0.220781978876689,1
637,682,15,0.258030194693857,1
637,683,15,0.169732820299623,1
638,652,15,0.11078975861788,1
638,653,15,0.113141371331415,1
638,681,15,0.154547612756723,1
638,682,15,0.186060740071695,1
638,683,15,0.129958675952921,1
644,646,15,0.112898848373438,1
645,645,15,0.195380367639953,1
646,643,15,0.155972255275452,1
646,644,15,0.140606764488759,1
647,642,15,0.142271386837358,1
647,643,15,0.108517852893156,1
659,649,15,0.107148099556059,1
659,652,15,0.106268612239977,1
660,649,15,0.103657065064193,1
660,653,15,0.107934026527592,1
663,653,15,0.184540384472784,1
663,654,15,0.159090431493884,1
663,655,15,0.137378419514591,1
663,656,15,0.121030690113059,1
664,653,15,0.11674437038439,1
664,654,15,0.139545722364831,1
664,655,15,0.14602487661144,1
664,656,15,0.144519333618342,1
664,657,15,0.128466885928926,1
664,665,15,0.112866144638314,1
665,655,15,0.137259662124461,1
665,656,15,0.141175900943286,1
665,657,15,0.152195565034434,1
665,658,15,0.147123184485384,1
665,659,15,0.13170002715347,1
665,662,15,0.108180609567284,1
665,666,15,0.125720653350134,1
633,676,16,0.106985272432821,1
634,676,16,0.128621057493345,1
634,677,16,0.139022462602855,1
635,651,16,0.132551517752239,1
635,652,16,0.151277350785082,1
635,653,16,0.13857371203277,1
635,654,16,0.117211190548915,1
635,677,16,0.105843352142666,1
635,678,16,0.164042548853268,1
636,651,16,0.159579950192167,1
636,652,16,0.204149564130151,1
636,653,16,0.211964418336186,1
636,654,16,0.175803278243825,1
636,679,16,0.152770111213223,1
636,680,16,0.234275749685165,1
636,681,16,0.251199620297589,1
636,682,16,0.200369761903423,1
637,651,16,0.138730906350334,1
637,652,16,0.181100156772694,1
637,653,16,0.188559787290981,1
637,654,16,0.144057276241981,1
637,680,16,0.164342905667526,1
637,681,16,0.296637377861811,1
637,682,16,0.297533428972797,1
638,652,16,0.117075992058659,1
638,653,16,0.112265587166787,1
638,680,16,0.110635475512755,1
638,681,16,0.22127563573518,1
638,682,16,0.230310946042763,1
639,681,16,0.106324605674602,1
644,646,16,0.116898285405184,1
645,645,16,0.156066551788662,1
646,643,16,0.117105695348779,1
663,655,16,0.147680564549455,1
663,656,16,0.126610703571114,1
664,656,16,0.133363589865358,1
664,657,16,0.119795555254544,1
628,665,17,0.104922405146006,1
629,665,17,0.127469332775094,1
635,651,17,0.135954568934878,1
635,652,17,0.160674621839081,1
635,653,17,0.161058968805277,1
635,654,17,0.151487794635891,1
635,678,17,0.162704238841312,1
636,651,17,0.179741445965532,1
636,652,17,0.218784307132778,1
636,653,17,0.244060702772483,1
636,654,17,0.231050884781038,1
636,655,17,0.123056425498705,1
636,679,17,0.154428777288099,1
636,680,17,0.228786318434797,1
637,651,17,0.174316462935336,1
637,652,17,0.198637311651248,1
637,653,17,0.213475906448936,1
637,654,17,0.195062900481329,1
637,655,17,0.105510258131072,1
637,680,17,0.189460166181375,1
637,681,17,0.334872595081983,1
638,651,17,0.133557603770112,1
638,652,17,0.134148546432745,1
638,653,17,0.118288908008453,1
638,680,17,0.135587990403216,1
638,681,17,0.25845652558195,1
644,646,17,0.116034436096143,1
653,670,17,0.104343486571525,1
654,670,17,0.117819611640245,1
628,665,18,0.12959194126427,1
629,665,18,0.131319762577129,1
635,651,18,0.134617073170079,1
635,652,18,0.17942487113256,1
635,653,18,0.187128786951986,1
635,654,18,0.179860047198673,1
635,655,18,0.110527292181594,1
636,651,18,0.190572695495388,1
636,652,18,0.243870392019182,1
636,653,18,0.271255933184797,1
636,654,18,0.269276777198153,1
636,655,18,0.1440890318811,1
637,651,18,0.199805856708027,1
637,652,18,0.221601245365372,1
637,653,18,0.238815902599443,1
637,654,18,0.24809107004212,1
637,655,18,0.138144626089228,1
638,651,18,0.168565524498756,1
638,652,18,0.159984385639589,1
638,653,18,0.1316700003953,1
638,654,18,0.123064132961519,1
639,651,18,0.103739828268359,1
643,646,18,0.176941528844739,1
644,646,18,0.103595148818057,1
653,670,18,0.129627690060679,1
654,670,18,0.147957921670048,1
635,652,19,0.193596184808138,1
635,653,19,0.211665913097654,1
635,654,19,0.19305465467845,1
636,651,19,0.179347551114867,1
636,652,19,0.256682716035833,1
636,653,19,0.277654621965792,1
636,654,19,0.262953043771875,1
637,651,19,0.192248973847809,1
637,652,19,0.221763135546676,1
637,653,19,0.232916336171554,1
637,654,19,0.253086063649053,1
643,646,19,0.156731256320454,1
