x,y,z,signal,mito.p
703,489,10,0.134592846528644,1
703,490,10,0.152510422140527,1
703,491,10,0.132399510077524,1
704,487,10,0.152065229718977,1
704,489,10,0.170493650612211,1
705,486,10,0.190486898384007,1
706,485,10,0.203408286903399,1
707,484,10,0.140472012161328,1
708,484,10,0.117111696238785,1
708,546,10,0.199932901572644,1
708,547,10,0.194076858328401,1
709,547,10,0.205099244012785,1
709,548,10,0.187410851090391,1
710,548,10,0.187185204241295,1
711,548,10,0.171246394223583,1
730,544,10,0.156218871777355,1
740,498,10,0.117184030386901,1
741,498,10,0.144115913191348,1
703,489,11,0.122291323177061,1
704,487,11,0.142652956439963,1
704,488,11,0.19138377489622,1
704,489,11,0.172982056848104,1
704,490,11,0.130404950319323,1
704,491,11,0.126106784967632,1
704,492,11,0.135636086755826,1
704,493,11,0.10879659311851,1
705,486,11,0.169587571991718,1
705,489,11,0.226979939002403,1
705,543,11,0.213791075869007,1
706,485,11,0.189457578436986,1
706,490,11,0.116458446937543,1
706,491,11,0.112545242025933,1
706,492,11,0.108412246152314,1
706,543,11,0.178206043525325,1
707,484,11,0.131434125263426,1
707,485,11,0.199390322960315,1
707,543,11,0.116469779473315,1
707,544,11,0.182228647561796,1
708,485,11,0.115531565975302,1
708,486,11,0.104385849731825,1
708,544,11,0.122753793254036,1
708,545,11,0.159180221762556,1
708,546,11,0.188524339654479,1
708,547,11,0.193131305451904,1
709,545,11,0.120950704272482,1
709,546,11,0.178507448822224,1
709,547,11,0.200724885204536,1
709,548,11,0.192273267413668,1
710,546,11,0.140836828349828,1
710,547,11,0.174948329883156,1
710,548,11,0.191720047817947,1
711,547,11,0.122894803015097,1
711,548,11,0.175177010639466,1
712,548,11,0.16249132994089,1
713,548,11,0.157763732869467,1
714,548,11,0.160641059240518,1
718,547,11,0.11128999637805,1
719,547,11,0.121119052660688,1
720,547,11,0.114870051507714,1
721,547,11,0.122559188183538,1
722,547,11,0.14872871256772,1
724,546,11,0.110385936644343,1
729,544,11,0.138340837345899,1
730,543,11,0.141932537325313,1
730,544,11,0.147045529845571,1
730,545,11,0.145261023545708,1
731,542,11,0.113956343502901,1
731,543,11,0.147372266036899,1
732,542,11,0.12020837856309,1
733,542,11,0.111623346933269,1
740,497,11,0.104782901184482,1
740,498,11,0.159026306741761,1
740,499,11,0.126850962252751,1
741,497,11,0.147768101695856,1
741,498,11,0.180264471492025,1
741,499,11,0.125544642115397,1
704,487,12,0.13336432603402,1
704,488,12,0.173508205514376,1
704,489,12,0.158085137415027,1
704,490,12,0.113111958047131,1
704,491,12,0.10360179664416,1
704,492,12,0.114927874209924,1
705,486,12,0.146456628377865,1
705,487,12,0.248519475587353,1
705,488,12,0.282552463617429,1
705,489,12,0.201654443143731,1
705,490,12,0.127293622700265,1
705,491,12,0.124394423196683,1
705,492,12,0.140560832025853,1
705,493,12,0.11452445378293,1
706,485,12,0.145949608942745,1
706,486,12,0.199234165971322,1
706,488,12,0.247222747950752,1
706,489,12,0.14858025188747,1
706,543,12,0.141968743438618,1
707,484,12,0.109103820840283,1
707,485,12,0.145296560414774,1
707,486,12,0.160408887260097,1
707,487,12,0.1687199526068,1
707,488,12,0.12657573555965,1
707,543,12,0.104004023585595,1
707,544,12,0.172175952162779,1
707,546,12,0.229061623206392,1
708,544,12,0.119764212316039,1
708,545,12,0.156996299347059,1
708,546,12,0.184451865768166,1
708,547,12,0.195000259220602,1
709,545,12,0.110700749134154,1
709,546,12,0.16669710612545,1
709,547,12,0.197415271671668,1
709,548,12,0.20350936509156,1
710,546,12,0.126086674178264,1
710,547,12,0.165811484070515,1
710,548,12,0.19771362075321,1
711,547,12,0.124697044287282,1
711,548,12,0.189792981341203,1
712,548,12,0.176856423285738,1
713,548,12,0.167650310694407,1
714,548,12,0.174464365912054,1
718,547,12,0.109528969396889,1
719,547,12,0.114831157263384,1
720,547,12,0.111044394896575,1
721,547,12,0.120975008992412,1
722,547,12,0.137635844310947,1
729,544,12,0.114405439849176,1
730,543,12,0.123502844868025,1
730,544,12,0.135743567380536,1
730,545,12,0.128911386798096,1
731,543,12,0.141645331160342,1
731,544,12,0.14079118589276,1
732,542,12,0.114118824849949,1
732,543,12,0.129660293409167,1
733,542,12,0.110391870609925,1
740,497,12,0.110567814920238,1
740,498,12,0.189305258448294,1
740,499,12,0.145291775318469,1
741,497,12,0.142439824458129,1
741,498,12,0.200652829908186,1
741,499,12,0.141443420173573,1
742,498,12,0.142307581796592,1
704,487,13,0.128371496316792,1
704,488,13,0.158223972132313,1
704,489,13,0.136706721380506,1
705,486,13,0.131515817676811,1
705,487,13,0.21647378601549,1
705,488,13,0.237215382694825,1
705,489,13,0.165223329925542,1
705,492,13,0.115230406067957,1
706,486,13,0.146003460795806,1
706,487,13,0.213670254975809,1
706,488,13,0.193252037112538,1
706,489,13,0.113204246827626,1
706,543,13,0.124813503938859,1
706,544,13,0.220901550513975,1
707,486,13,0.117574679403009,1
707,487,13,0.130218688493666,1
707,543,13,0.103226741018809,1
707,544,13,0.176153649910843,1
707,545,13,0.24589215655568,1
707,546,13,0.235038487343833,1
708,544,13,0.125393136373862,1
708,545,13,0.177437427671429,1
708,546,13,0.205233115168635,1
708,547,13,0.209654722620125,1
709,545,13,0.115487908942807,1
709,546,13,0.169720405818998,1
709,547,13,0.2108853512341,1
710,546,13,0.120078924419214,1
710,547,13,0.177116881989308,1
711,547,13,0.142871609686766,1
712,547,13,0.112137125735198,1
713,548,13,0.189625357967589,1
718,547,13,0.108513335494546,1
719,547,13,0.109754303932006,1
720,547,13,0.11014660375057,1
721,547,13,0.122465850920403,1
722,547,13,0.129226589680379,1
723,547,13,0.119937111565067,1
725,546,13,0.108323136281952,1
728,545,13,0.126441150543279,1
729,544,13,0.107843890482731,1
729,545,13,0.133486106177294,1
730,543,13,0.113050699891163,1
730,544,13,0.131411069799408,1
730,545,13,0.120080006364067,1
731,543,13,0.130842245658858,1
731,544,13,0.130185638982353,1
732,542,13,0.108880516346023,1
732,543,13,0.114799557781254,1
733,542,13,0.11278498762032,1
737,536,13,0.10664978029604,1
740,497,13,0.104804127380914,1
740,498,13,0.188019729498617,1
740,499,13,0.142718921613742,1
740,521,13,0.103032359029724,1
740,527,13,0.103901651525239,1
740,528,13,0.10722712614656,1
741,497,13,0.121782084081883,1
741,498,13,0.190271580204327,1
741,499,13,0.139327504126783,1
742,498,13,0.118275902362084,1
704,487,14,0.114463318321739,1
704,488,14,0.13551252196125,1
705,486,14,0.11780146396731,1
705,487,14,0.171264486126165,1
705,488,14,0.180152116538444,1
705,489,14,0.12217756281058,1
706,486,14,0.110630545413531,1
706,487,14,0.153543456393072,1
706,488,14,0.137217522045574,1
706,543,14,0.121758660533534,1
706,544,14,0.219830090488067,1
706,545,14,0.298996776116654,1
707,543,14,0.105593690579477,1
707,544,14,0.181459139382248,1
707,545,14,0.25515971692218,1
707,546,14,0.25242375724245,1
708,544,14,0.128595291590161,1
708,545,14,0.201418043770536,1
708,546,14,0.245101912958808,1
708,547,14,0.234640510103313,1
709,545,14,0.121835422847695,1
709,546,14,0.180676447091201,1
710,546,14,0.121282950574707,1
711,547,14,0.176927909724485,1
712,547,14,0.138063513687517,1
713,547,14,0.108291358334692,1
716,547,14,0.109247663735288,1
717,547,14,0.109527162437445,1
718,547,14,0.114487243803267,1
719,547,14,0.112825008425785,1
720,547,14,0.114005443721869,1
721,547,14,0.122941259719323,1
722,547,14,0.118440079127869,1
723,547,14,0.105603383466865,1
724,547,14,0.116281933769627,1
728,545,14,0.121065892360006,1
728,546,14,0.146710205019849,1
729,544,14,0.10487332723518,1
729,545,14,0.127246229054105,1
729,546,14,0.136267117148349,1
730,543,14,0.105490928126649,1
730,544,14,0.125941046631957,1
730,545,14,0.111195331780508,1
731,543,14,0.12042994302233,1
731,544,14,0.117744053965714,1
732,542,14,0.107269288533589,1
732,543,14,0.107558100884732,1
733,542,14,0.126332052578326,1
740,498,14,0.157020849456542,1
740,499,14,0.117573218219755,1
740,518,14,0.104727543531884,1
741,498,14,0.153642816854354,1
741,499,14,0.116156071236498,1
741,526,14,0.107587224163179,1
705,487,15,0.126997738668334,1
705,488,15,0.12529015083962,1
706,487,15,0.106313406987677,1
706,543,15,0.130878083687832,1
706,544,15,0.222393318229829,1
706,545,15,0.27853456659877,1
707,543,15,0.109787152670048,1
707,544,15,0.179944327356447,1
707,545,15,0.253156490451089,1
707,546,15,0.267624346248766,1
708,544,15,0.1259159165108,1
708,545,15,0.213914819128714,1
708,546,15,0.277982083171711,1
708,547,15,0.250326145025583,1
709,545,15,0.123595758276477,1
709,546,15,0.18512563855939,1
710,546,15,0.120583456496581,1
712,547,15,0.165791205970087,1
713,547,15,0.137467730158224,1
714,547,15,0.121891327049755,1
715,547,15,0.117738510392605,1
717,547,15,0.116453416451683,1
718,547,15,0.118216417703348,1
719,547,15,0.115278948583393,1
720,547,15,0.117703296991587,1
721,547,15,0.120629868584524,1
722,547,15,0.10929892784396,1
724,547,15,0.108196403731313,1
725,547,15,0.131393725219559,1
727,546,15,0.115526122788828,1
728,545,15,0.120175641365754,1
728,546,15,0.12859023879616,1
729,544,15,0.105399197049686,1
729,545,15,0.12960061913123,1
729,546,15,0.116192790437053,1
730,544,15,0.117907014937799,1
730,545,15,0.107823891234069,1
731,543,15,0.111436471633726,1
731,544,15,0.10465384858715,1
732,542,15,0.105133841709103,1
739,532,15,0.103489185146954,1
739,533,15,0.110326117363488,1
740,493,15,0.116109413759001,1
740,498,15,0.117469418438357,1
740,509,15,0.103249428398496,1
741,498,15,0.112424198051321,1
741,506,15,0.110825752803843,1
743,506,15,0.114831146109313,1
706,544,16,0.215617956483241,1
707,543,16,0.112754704318526,1
707,544,16,0.177001537744795,1
707,545,16,0.247190490378454,1
708,544,16,0.126643820006851,1
708,545,16,0.219569040618753,1
708,546,16,0.289958967297246,1
709,545,16,0.12687578005993,1
709,546,16,0.183811120180114,1
710,546,16,0.121231998780012,1
711,546,16,0.110799618816328,1
712,546,16,0.107062045901053,1
717,547,16,0.12047855246219,1
718,547,16,0.119974622704637,1
719,547,16,0.117004104073368,1
720,547,16,0.118937238364542,1
721,547,16,0.115649799124111,1
725,547,16,0.106344415304063,1
725,548,16,0.144754059880941,1
726,547,16,0.122611523082992,1
727,546,16,0.103860437234215,1
727,547,16,0.125263113372383,1
728,545,16,0.114705462041315,1
728,546,16,0.113650755429512,1
729,545,16,0.123661176900794,1
729,546,16,0.104430321011476,1
730,544,16,0.103060534212167,1
739,491,16,0.116055662292576,1
739,492,16,0.120966654593501,1
740,492,16,0.132564010311358,1
740,493,16,0.135216861010732,1
741,507,16,0.104176498979938,1
741,509,16,0.121144260860339,1
741,510,16,0.110043484367481,1
741,525,16,0.10575852543543,1
741,527,16,0.103927071652233,1
743,507,16,0.110295677904705,1
707,544,17,0.185600790814685,1
708,544,17,0.137172916917076,1
708,545,17,0.22333806801324,1
708,546,17,0.273493395139377,1
709,546,17,0.179951231726175,1
725,548,17,0.118840599496496,1
728,546,17,0.108344596713868,1
729,545,17,0.118576248022272,1
729,546,17,0.103072301756695,1
738,489,17,0.105704238573614,1
738,490,17,0.12254255746421,1
739,490,17,0.124938920309162,1
739,491,17,0.134008116683358,1
740,492,17,0.144837202323509,1
708,544,18,0.146079754639,1
735,487,19,0.107144407558676,1
736,488,19,0.112094595263839,1
737,489,19,0.119559892050012,1
737,490,19,0.117483740265062,1
720,480,20,0.115704398299905,1
728,546,20,0.114315950740412,1
734,487,20,0.107511331866528,1
735,487,20,0.120582296473235,1
735,488,20,0.122188583032374,1
736,487,20,0.104673111667149,1
736,488,20,0.129789044846592,1
737,488,20,0.103120632344788,1
737,489,20,0.121272376515738,1
737,490,20,0.120603243817901,1
738,489,20,0.126448646078751,1
738,490,20,0.173785674175676,1
739,490,20,0.143005826618806,1
739,491,20,0.190114486273399,1
740,492,20,0.135313042561881,1
741,493,20,0.105592441323565,1
741,494,20,0.120723618548274,1
742,495,20,0.110124440612203,1
742,496,20,0.111508571546358,1
713,545,21,0.123454570050285,1
714,545,21,0.106727457243993,1
717,546,21,0.117750601405181,1
718,546,21,0.107140336322892,1
719,546,21,0.104580443648252,1
720,480,21,0.132406581758312,1
720,481,21,0.112016460998989,1
721,480,21,0.115083094256983,1
721,481,21,0.105212645218192,1
721,547,21,0.115785008768438,1
723,547,21,0.105232019838898,1
724,548,21,0.112740739422082,1
727,546,21,0.106288946110758,1
733,486,21,0.106685328319177,1
734,486,21,0.105912563151002,1
734,487,21,0.112381667579962,1
735,487,21,0.124853703209454,1
735,488,21,0.129375886915927,1
736,487,21,0.107443950125778,1
736,488,21,0.136306591404352,1
737,488,21,0.103379362167409,1
737,489,21,0.116769009726439,1
737,490,21,0.119263606471538,1
738,489,21,0.118394637444072,1
738,490,21,0.173219593936504,1
738,491,21,0.187142305685605,1
739,490,21,0.142429875027116,1
739,491,21,0.182832528946375,1
739,492,21,0.172036637820455,1
740,492,21,0.123576852126738,1
740,493,21,0.133864943032592,1
740,494,21,0.142608072459698,1
741,494,21,0.126146214607353,1
741,495,21,0.167248005674477,1
741,496,21,0.15050031360785,1
742,495,21,0.13010051111521,1
742,496,21,0.138799749274338,1
717,546,22,0.122948219859403,1
718,546,22,0.12022765279716,1
719,546,22,0.12212200438471,1
720,480,22,0.139301358985197,1
720,481,22,0.113674446675556,1
720,546,22,0.107007848271802,1
721,480,22,0.123204194626576,1
721,481,22,0.108152211303428,1
723,547,22,0.109394495921224,1
724,548,22,0.116761536499108,1
726,547,22,0.108592328622835,1
727,546,22,0.105985142688672,1
731,483,22,0.110295577518069,1
731,484,22,0.102920048692426,1
732,483,22,0.105503286836921,1
733,486,22,0.118579605397535,1
734,486,22,0.128709799279376,1
734,487,22,0.123770520255302,1
735,486,22,0.107026207872079,1
735,487,22,0.130307675669251,1
735,488,22,0.124313210408336,1
736,487,22,0.106779089436997,1
736,488,22,0.129312375637689,1
737,489,22,0.104925829445694,1
737,490,22,0.108078293277281,1
738,489,22,0.104009477926139,1
738,490,22,0.15415966302571,1
738,491,22,0.170738739006436,1
738,492,22,0.129819718540858,1
739,490,22,0.127924731171282,1
739,491,22,0.159397469596457,1
739,492,22,0.146307621148154,1
739,493,22,0.118680415888001,1
740,492,22,0.112725569886008,1
740,493,22,0.123724286632489,1
740,494,22,0.128172775394227,1
740,495,22,0.123471479621379,1
741,494,22,0.123484607962525,1
741,495,22,0.168977857028193,1
741,496,22,0.149209419550195,1
742,495,22,0.134569400672153,1
742,496,22,0.145622906213629,1
742,497,22,0.103679161278135,1
718,545,23,0.109393703982208,1
718,546,23,0.14567396954903,1
719,545,23,0.10748878948976,1
719,546,23,0.14910428128032,1
720,480,23,0.137070667551497,1
720,481,23,0.11332186650255,1
720,546,23,0.119945053263364,1
721,480,23,0.125934142262229,1
721,481,23,0.105810369555776,1
724,547,23,0.10465368127609,1
727,544,23,0.108866629528073,1
727,545,23,0.11365732517712,1
731,483,23,0.122193356974609,1
731,484,23,0.111883716404274,1
732,484,23,0.124191619884264,1
733,485,23,0.127252464179594,1
733,486,23,0.134736276723034,1
734,485,23,0.132823264375299,1
734,486,23,0.171173223520169,1
734,487,23,0.147158799432945,1
735,486,23,0.141989824632132,1
735,487,23,0.146427137015087,1
735,488,23,0.115709317245059,1
736,487,23,0.110053009943809,1
736,488,23,0.119970729933983,1
738,490,23,0.130851447767138,1
738,491,23,0.150219353722439,1
738,492,23,0.115287358752657,1
739,491,23,0.135783666264496,1
739,492,23,0.125543526708333,1
739,493,23,0.105052405839343,1
740,492,23,0.103056853368855,1
740,493,23,0.112469282804858,1
740,494,23,0.112310114216791,1
740,495,23,0.107336837585399,1
741,494,23,0.114468616505294,1
741,495,23,0.147352634872568,1
741,496,23,0.129089517306254,1
742,495,23,0.122043780887295,1
742,496,23,0.13254996733642,1
742,528,23,0.113149725730326,1
745,507,23,0.112671751495159,1
745,508,23,0.131640564802875,1
718,545,24,0.145028985414134,1
719,480,24,0.103493936781048,1
719,481,24,0.108152557079618,1
719,545,24,0.14381416211826,1
720,480,24,0.125937376942716,1
720,481,24,0.113922067043817,1
721,480,24,0.120638802995109,1
727,544,24,0.124714701181109,1
731,483,24,0.124787871884523,1
731,484,24,0.11380856322096,1
732,484,24,0.156041544362282,1
732,485,24,0.110405969355217,1
733,483,24,0.164526412437735,1
733,484,24,0.171586147215351,1
733,485,24,0.157323515163424,1
733,486,24,0.139975009081644,1
734,485,24,0.176016655615213,1
734,486,24,0.205244068466006,1
734,487,24,0.156057673148431,1
735,486,24,0.174027985206311,1
735,487,24,0.154925568440441,1
735,488,24,0.10348842667015,1
736,487,24,0.111341160100087,1
736,488,24,0.108465406452996,1
738,490,24,0.10887005382776,1
738,491,24,0.126243756955121,1
739,491,24,0.115989150569335,1
739,492,24,0.108450437690194,1
741,495,24,0.114389433757804,1
741,496,24,0.103597156550772,1
742,496,24,0.107997348186629,1
745,506,24,0.103479849189826,1
745,507,24,0.127814082790509,1
746,506,24,0.118108490915813,1
718,481,25,0.108558754870202,1
719,481,25,0.127498199509917,1
719,482,25,0.107963707509572,1
720,480,25,0.11341285025678,1
720,481,25,0.119707304247622,1
731,483,25,0.125774884441597,1
731,484,25,0.113658764052233,1
732,483,25,0.198002065020022,1
732,484,25,0.182639273518425,1
732,485,25,0.11955898857029,1
733,482,25,0.151101741096888,1
733,483,25,0.215549760495334,1
733,484,25,0.217527801074913,1
733,485,25,0.17813805946476,1
733,486,25,0.135722441570739,1
734,483,25,0.140548785629559,1
734,484,25,0.167429192397992,1
734,485,25,0.21335356860213,1
734,486,25,0.218664668571068,1
734,487,25,0.150106385294973,1
735,485,25,0.165259491422564,1
735,486,25,0.200921799167656,1
735,487,25,0.160044439155928,1
736,487,25,0.122655949746361,1
736,488,25,0.104501785142082,1
738,491,25,0.107199742903133,1
745,506,25,0.116324586935764,1
718,481,26,0.125695824388884,1
718,482,26,0.14356395400561,1
719,480,26,0.107538826650662,1
719,481,26,0.154205372407203,1
719,482,26,0.157238420758493,1
719,544,26,0.104646620749373,1
720,481,26,0.126558491366437,1
720,482,26,0.114040445195545,1
720,545,26,0.114044795283095,1
731,483,26,0.123720795408378,1
731,484,26,0.110811899448106,1
732,483,26,0.213439901108902,1
732,484,26,0.190616107138329,1
732,485,26,0.119721447609196,1
733,482,26,0.157062186442343,1
733,483,26,0.23514106017746,1
733,484,26,0.232585662593289,1
733,485,26,0.177815059887098,1
733,486,26,0.122285656909175,1
734,483,26,0.150234634799219,1
734,484,26,0.181550915075494,1
734,485,26,0.222574348796355,1
734,486,26,0.200949528187273,1
734,487,26,0.131362460359548,1
735,485,26,0.181971501617206,1
735,486,26,0.208355831093819,1
735,487,26,0.157689680994472,1
736,486,26,0.154374144650093,1
736,487,26,0.141675313302229,1
736,488,26,0.107147051073419,1
745,506,26,0.124306540274092,1
717,482,27,0.103507968601916,1
718,481,27,0.144952211945903,1
718,482,27,0.181974780913975,1
718,483,27,0.110612698900503,1
719,480,27,0.113974636178755,1
719,481,27,0.176725797964445,1
719,482,27,0.20480102878009,1
719,483,27,0.117411216497745,1
719,544,27,0.115564080091224,1
720,481,27,0.123895813930827,1
720,482,27,0.129157367517972,1
720,544,27,0.126334618014574,1
721,544,27,0.107400114628153,1
731,483,27,0.123622360734959,1
731,484,27,0.111667896291414,1
732,483,27,0.204285108396597,1
732,484,27,0.182365251464953,1
732,485,27,0.120130489687794,1
733,482,27,0.146807568902487,1
733,483,27,0.214987216096555,1
733,484,27,0.21392586165865,1
733,485,27,0.162340348440674,1
733,486,27,0.108867466083371,1
734,483,27,0.146949760995036,1
734,484,27,0.17457733433952,1
734,485,27,0.199849402199815,1
734,486,27,0.165816369553456,1
734,487,27,0.111764323232118,1
735,486,27,0.196007271026338,1
735,487,27,0.1485319882238,1
736,487,27,0.156681408778753,1
736,488,27,0.109127077077573,1
738,528,27,0.112872089757966,1
738,529,27,0.105446088762666,1
739,491,27,0.109781241012608,1
739,528,27,0.122729365839329,1
739,529,27,0.118226054820383,1
740,492,27,0.107372898695786,1
744,506,27,0.106435845221119,1
745,505,27,0.105141058392809,1
718,481,28,0.147042484784286,1
718,482,28,0.184581598763808,1
718,483,28,0.113725454240604,1
719,481,28,0.174820180765546,1
719,482,28,0.211463689796908,1
719,483,28,0.122802603467167,1
720,481,28,0.109315647795853,1
720,482,28,0.124111243651215,1
721,544,28,0.123103227979121,1
727,539,28,0.114955525151046,1
727,540,28,0.107836015708858,1
731,483,28,0.116638741335406,1
731,484,28,0.108942521824724,1
732,484,28,0.16073884697784,1
732,485,28,0.116900371216394,1
733,483,28,0.173711655762893,1
733,484,28,0.179100187290231,1
733,485,28,0.141226295034449,1
734,486,28,0.132674837157261,1
735,487,28,0.132250826315861,1
736,488,28,0.103617557345977,1
738,528,28,0.121396889406319,1
739,491,28,0.125078290421839,1
739,492,28,0.118133342185204,1
739,527,28,0.103357634037798,1
740,492,28,0.131830395931138,1
740,493,28,0.105681406191009,1
744,505,28,0.106389421979105,1
744,506,28,0.122091921856187,1
745,505,28,0.104659537163177,1
718,482,29,0.163939875633005,1
718,483,29,0.112926387773854,1
719,481,29,0.157663357387756,1
719,482,29,0.186090030661202,1
719,483,29,0.120176076374509,1
720,482,29,0.108113941687054,1
726,483,29,0.114116326338125,1
726,484,29,0.127933275189394,1
727,482,29,0.103223896730795,1
727,483,29,0.137311573169231,1
727,484,29,0.155515261847162,1
727,485,29,0.120694272188413,1
727,541,29,0.105041999091434,1
728,482,29,0.111809051055394,1
728,483,29,0.121217186174199,1
728,484,29,0.125100252786934,1
728,485,29,0.106476189494632,1
731,483,29,0.107351560958647,1
731,484,29,0.104204339540261,1
732,484,29,0.13187627262369,1
732,485,29,0.111047294954942,1
733,485,29,0.122502425118039,1
734,486,29,0.116982320173404,1
735,487,29,0.122406645113433,1
735,529,29,0.114542545685512,1
736,488,29,0.103577882316702,1
736,490,29,0.112681132068569,1
736,528,29,0.122662430261404,1
736,529,29,0.13316655320746,1
737,490,29,0.108406646808852,1
737,491,29,0.105488764236944,1
737,528,29,0.120803704775486,1
737,529,29,0.105313455708658,1
738,490,29,0.109564193951977,1
738,491,29,0.117563826492274,1
738,492,29,0.113033321849102,1
738,527,29,0.106365485343507,1
739,491,29,0.147098032056085,1
739,492,29,0.150118732851174,1
739,493,29,0.120126005751396,1
740,493,29,0.124954602932485,1
744,502,29,0.105482306030042,1
744,503,29,0.106430301648009,1
744,505,29,0.110572131545577,1
744,506,29,0.128720852963382,1
718,482,30,0.132791709509452,1
718,483,30,0.110476195383982,1
719,482,30,0.141147859609691,1
719,483,30,0.111209062441469,1
722,532,30,0.109305363742721,1
723,530,30,0.112388806185173,1
723,531,30,0.146502962387314,1
723,532,30,0.159292799797549,1
723,533,30,0.125267485768075,1
724,531,30,0.125161600175467,1
724,532,30,0.122268791954364,1
725,484,30,0.110858746544804,1
726,483,30,0.144501509413456,1
726,484,30,0.17544117249449,1
726,485,30,0.144173992437183,1
727,482,30,0.128834825257206,1
727,483,30,0.192191731157272,1
727,484,30,0.216016491427294,1
727,485,30,0.162222751073892,1
728,482,30,0.14535049034633,1
728,483,30,0.166100184880952,1
728,484,30,0.158526704763618,1
728,485,30,0.124930610526534,1
729,482,30,0.126948616141225,1
729,483,30,0.113148264547072,1
729,537,30,0.106784465699047,1
732,484,30,0.106340645228186,1
732,485,30,0.103403376881502,1
733,485,30,0.111001317875755,1
733,486,30,0.106418935650025,1
734,486,30,0.114790824143941,1
734,529,30,0.103407001954461,1
735,487,30,0.11309665466221,1
735,528,30,0.10966286286088,1
735,529,30,0.134691660440464,1
735,530,30,0.106982896615775,1
736,488,30,0.104039482376167,1
736,489,30,0.107895500367594,1
736,490,30,0.120018870902876,1
736,491,30,0.111669859407847,1
736,528,30,0.145616001843902,1
736,529,30,0.145445779571828,1
737,489,30,0.105471798895497,1
737,490,30,0.114350751440816,1
737,491,30,0.114487254957337,1
737,492,30,0.107464406691336,1
737,529,30,0.10943020010135,1
738,490,30,0.111726042461673,1
738,491,30,0.12517988169725,1
738,492,30,0.130534371000987,1
738,493,30,0.114754127251527,1
739,492,30,0.176233412670007,1
739,493,30,0.139262676668209,1
740,493,30,0.139587137429126,1
743,505,30,0.109178742732788,1
743,506,30,0.115396155557703,1
744,502,30,0.106603535519156,1
744,505,30,0.106273531185131,1
718,483,31,0.106912503275951,1
720,485,31,0.125041749686414,1
720,486,31,0.109027482380807,1
722,531,31,0.114111072770852,1
722,532,31,0.138595774784501,1
722,533,31,0.120459311690332,1
723,530,31,0.147164499163043,1
723,531,31,0.203822214464938,1
723,532,31,0.225246038721044,1
723,533,31,0.169297688849793,1
724,530,31,0.14532791450735,1
724,531,31,0.188713378843726,1
724,532,31,0.18182639831222,1
724,533,31,0.131063073949436,1
725,483,31,0.110531441495873,1
725,484,31,0.143191196118812,1
725,485,31,0.137714882055519,1
725,531,31,0.111787434466489,1
726,482,31,0.111682296196614,1
726,483,31,0.164597463867727,1
726,484,31,0.219751052743495,1
726,485,31,0.199366118627021,1
726,486,31,0.129401619356899,1
727,482,31,0.152740842931857,1
727,483,31,0.226020622002734,1
727,484,31,0.254038777438902,1
727,485,31,0.199571286602417,1
727,486,31,0.131092844163981,1
728,482,31,0.177115956201445,1
728,483,31,0.202948672268509,1
728,484,31,0.179973060242422,1
728,485,31,0.135760398873135,1
728,486,31,0.10758775955857,1
728,537,31,0.121494331367451,1
729,483,31,0.132572677024247,1
729,484,31,0.106750590786506,1
733,486,31,0.109021905345486,1
734,529,31,0.117429698792799,1
735,490,31,0.103652648052218,1
735,491,31,0.103765560709331,1
735,528,31,0.123050815001172,1
735,530,31,0.110660772944972,1
736,489,31,0.110950042613011,1
736,490,31,0.117616607554554,1
736,491,31,0.119489420631693,1
736,492,31,0.121030132409526,1
736,493,31,0.11612327826881,1
736,529,31,0.139546960466672,1
737,490,31,0.117612614397264,1
737,491,31,0.119532731887998,1
737,492,31,0.131492104122625,1
737,493,31,0.143051089837473,1
737,494,31,0.129986940367929,1
738,491,31,0.12731732510038,1
738,492,31,0.142136389120373,1
738,493,31,0.137269678479898,1
738,494,31,0.122743252657279,1
738,495,31,0.104581380590186,1
739,492,31,0.184859201273955,1
739,493,31,0.148592175588986,1
739,494,31,0.108890030768281,1
740,494,31,0.105298319634796,1
742,518,31,0.104061177043566,1
743,505,31,0.111444167942469,1
743,506,31,0.116678539059458,1
743,507,31,0.105931246219328,1
744,506,31,0.105077814812267,1
719,485,32,0.120568342730861,1
719,486,32,0.127276255812275,1
719,487,32,0.104028785622421,1
720,484,32,0.108139975287933,1
720,485,32,0.143855644106979,1
720,486,32,0.137885751263689,1
720,487,32,0.110293045544034,1
721,485,32,0.112194513428653,1
721,486,32,0.108638517629366,1
722,531,32,0.122236657076843,1
722,532,32,0.144160061002951,1
722,533,32,0.128657720923546,1
723,529,32,0.104938344312954,1
723,530,32,0.168545815255931,1
723,531,32,0.236809463756007,1
723,532,32,0.256019785001273,1
723,533,32,0.186983471719657,1
723,534,32,0.108251895232759,1
724,483,32,0.104144609491971,1
724,484,32,0.112250953026104,1
724,485,32,0.103998926175311,1
724,529,32,0.124987518594951,1
724,530,32,0.186506233653152,1
724,531,32,0.243201571635323,1
724,532,32,0.231445292718953,1
724,533,32,0.156671370115175,1
725,483,32,0.124109503616194,1
725,484,32,0.171772375578796,1
725,485,32,0.176080958832467,1
725,486,32,0.133255339609774,1
725,530,32,0.124225160174685,1
725,531,32,0.147381646610309,1
725,532,32,0.13360410509062,1
725,533,32,0.112375800538804,1
726,482,32,0.120459746699087,1
726,483,32,0.173105387407197,1
726,484,32,0.253454371061665,1
726,485,32,0.268720657544065,1
726,486,32,0.19138272641358,1
726,487,32,0.115556506477258,1
727,482,32,0.178292721808287,1
727,483,32,0.230561288004261,1
727,484,32,0.259954606501788,1
727,485,32,0.239240493452516,1
727,486,32,0.175925772247619,1
727,487,32,0.115060005330753,1
728,483,32,0.221624601989297,1
728,484,32,0.182922107287704,1
728,485,32,0.143570646447995,1
728,486,32,0.121928068558451,1
729,483,32,0.146779449490397,1
729,484,32,0.112920710351897,1
732,488,32,0.119829999024688,1
732,489,32,0.141189776607166,1
732,490,32,0.109724065246495,1
733,486,32,0.108027475331434,1
733,488,32,0.107834097208707,1
733,489,32,0.138591424696951,1
733,490,32,0.133643155491939,1
733,491,32,0.106711551539257,1
734,489,32,0.107102557485626,1
734,490,32,0.129140357560242,1
734,491,32,0.136363867557101,1
734,492,32,0.111008947260074,1
735,490,32,0.109987513240997,1
735,491,32,0.131809337045765,1
735,492,32,0.133538842623291,1
735,493,32,0.109351307359697,1
736,489,32,0.109438844506098,1
736,490,32,0.111605087719627,1
736,491,32,0.122930997974332,1
736,492,32,0.147701444969697,1
736,493,32,0.161640843208478,1
736,494,32,0.139910181623071,1
736,528,32,0.135459696282687,1
737,490,32,0.115648996031025,1
737,491,32,0.118605616690273,1
737,492,32,0.145518470650205,1
737,493,32,0.185738900517379,1
737,494,32,0.188176934970251,1
737,495,32,0.139192350252809,1
737,496,32,0.107243701095535,1
738,491,32,0.125642586009708,1
738,492,32,0.145274018038006,1
738,493,32,0.152221565173101,1
738,494,32,0.151195513368778,1
738,495,32,0.139572190974465,1
738,496,32,0.140236739349268,1
738,497,32,0.128341335709775,1
739,493,32,0.147756679927518,1
739,494,32,0.113460890839037,1
739,495,32,0.107800166525813,1
739,496,32,0.125608599556461,1
739,497,32,0.129371458749882,1
739,503,32,0.119875753022463,1
740,494,32,0.110517130823239,1
740,497,32,0.103327573817416,1
741,518,32,0.105932774327006,1
743,506,32,0.104748647033539,1
718,485,33,0.11607744619254,1
718,486,33,0.134811945938272,1
718,487,33,0.106365351494659,1
719,484,33,0.110028738686092,1
719,485,33,0.138849485275333,1
719,486,33,0.165625880335025,1
719,487,33,0.145306699464988,1
720,484,33,0.116270132762887,1
720,485,33,0.147173076643367,1
720,486,33,0.161098844607823,1
720,487,33,0.149487434760956,1
720,488,33,0.112796487467152,1
721,485,33,0.120382482451747,1
721,486,33,0.121666260212332,1
721,487,33,0.105866139908988,1
722,486,33,0.111608155089054,1
722,531,33,0.113517943910373,1
722,532,33,0.127441402982206,1
722,533,33,0.117578650252158,1
722,534,33,0.10361413304629,1
723,486,33,0.11107712093984,1
723,487,33,0.104453956487167,1
723,530,33,0.160587229695598,1
723,531,33,0.223951988061397,1
723,532,33,0.233164246545651,1
723,533,33,0.172028015723849,1
723,534,33,0.112343520658365,1
724,483,33,0.118983628144344,1
724,484,33,0.122136158900355,1
724,485,33,0.114627628936372,1
724,486,33,0.11268445598162,1
724,487,33,0.111301540841165,1
724,529,33,0.138683211544267,1
724,530,33,0.191793463910915,1
724,531,33,0.249927810854802,1
724,532,33,0.239984514580646,1
724,533,33,0.163600234181944,1
725,483,33,0.134144620199879,1
725,484,33,0.187361683946999,1
725,485,33,0.20109479880332,1
725,486,33,0.163349390287267,1
725,487,33,0.130444636502669,1
725,488,33,0.104865050914763,1
725,530,33,0.127172768344855,1
725,531,33,0.157827054528504,1
725,532,33,0.150514624280484,1
725,533,33,0.122485281311462,1
726,483,33,0.167421139158988,1
726,484,33,0.25672260299245,1
726,485,33,0.307954654865838,1
726,486,33,0.239390024923548,1
726,487,33,0.156526512199742,1
726,488,33,0.110493283420206,1
727,483,33,0.201370772819154,1
727,484,33,0.226240134112976,1
727,485,33,0.248955845139025,1
727,486,33,0.202426661762445,1
727,487,33,0.142882540675996,1
727,488,33,0.103277748583857,1
728,484,33,0.160068710413646,1
728,485,33,0.142572557898773,1
728,486,33,0.129456586617025,1
728,487,33,0.114422672888318,1
729,484,33,0.109906980850959,1
731,488,33,0.115045560809272,1
731,489,33,0.126537510559559,1
732,488,33,0.140343573037881,1
732,489,33,0.186596336235801,1
732,490,33,0.153478595472286,1
733,488,33,0.120614922129864,1
733,489,33,0.164772103151775,1
733,490,33,0.168078671623357,1
733,491,33,0.14171649413104,1
734,489,33,0.113726547339527,1
734,490,33,0.147538695924954,1
734,491,33,0.178469134589567,1
734,492,33,0.153106350672738,1
735,490,33,0.117151203957,1
735,491,33,0.158209984927727,1
735,492,33,0.17047591563989,1
735,493,33,0.140080894674252,1
735,494,33,0.103149577158105,1
736,490,33,0.110637550169894,1
736,491,33,0.129224024244131,1
736,492,33,0.164311094258054,1
736,493,33,0.194248809481424,1
736,494,33,0.1790294927905,1
736,495,33,0.122870386754461,1
737,491,33,0.122025577444006,1
737,492,33,0.153523524068834,1
737,493,33,0.208818435019641,1
737,494,33,0.227043383356217,1
737,495,33,0.178959422918724,1
737,496,33,0.165492801118191,1
737,497,33,0.147209182370037,1
738,492,33,0.14736690092892,1
738,493,33,0.161351049299118,1
738,494,33,0.17007517218985,1
738,495,33,0.169024202191712,1
738,496,33,0.205650255102519,1
738,497,33,0.211065311009844,1
738,498,33,0.147168113081931,1
738,503,33,0.120398131612858,1
739,493,33,0.140619078582748,1
739,494,33,0.121922145746939,1
739,495,33,0.120635958707095,1
739,496,33,0.150862910136293,1
739,497,33,0.169557824085315,1
739,498,33,0.139198730381217,1
739,499,33,0.104469549877925,1
739,502,33,0.104359526125109,1
739,503,33,0.141040077825074,1
739,504,33,0.103619955471165,1
740,497,33,0.106625330573192,1
740,503,33,0.1110979567438,1
742,505,33,0.102926640748176,1
742,506,33,0.103880191093323,1
718,486,34,0.166054531269812,1
718,487,34,0.140059121928359,1
719,485,34,0.154261388149969,1
719,486,34,0.192914648783747,1
719,487,34,0.190442772880546,1
719,488,34,0.148004857999311,1
720,485,34,0.141918449734091,1
720,486,34,0.169175797165813,1
720,487,34,0.174621470997052,1
720,488,34,0.137666339540083,1
721,485,34,0.119124080201873,1
721,486,34,0.119902243940239,1
721,487,34,0.110682601461219,1
721,490,34,0.117593641323101,1
721,491,34,0.11024454764488,1
722,485,34,0.113475603058214,1
722,486,34,0.109104668549652,1
722,490,34,0.103409154690095,1
722,532,34,0.1050179620692,1
723,486,34,0.108100177563881,1
723,487,34,0.10738980826688,1
723,530,34,0.136161934262191,1
723,531,34,0.185841830281267,1
723,532,34,0.184780843927693,1
723,533,34,0.143983413986187,1
723,534,34,0.111871803856828,1
724,484,34,0.114918326325454,1
724,485,34,0.113075361541353,1
724,486,34,0.118731903078086,1
724,487,34,0.128831211338318,1
724,488,34,0.11892817010511,1
724,529,34,0.12426761256755,1
724,530,34,0.164014652522591,1
724,531,34,0.21258889013517,1
724,532,34,0.209073506307092,1
724,533,34,0.154898441740638,1
724,534,34,0.107174434316846,1
725,484,34,0.173673765384921,1
725,485,34,0.19198384158864,1
725,486,34,0.171819936536015,1
725,487,34,0.157358037012062,1
725,488,34,0.141271301709491,1
725,489,34,0.103652726130713,1
725,530,34,0.107867068641526,1
725,531,34,0.135663548077748,1
725,532,34,0.138933832357531,1
725,533,34,0.115482443448193,1
726,483,34,0.149793134375052,1
726,484,34,0.226082794792495,1
726,485,34,0.286646587554859,1
726,486,34,0.245203571158643,1
726,487,34,0.187172354751915,1
726,488,34,0.155367648876281,1
726,489,34,0.112625261328721,1
727,484,34,0.182371999677692,1
727,485,34,0.22166910673116,1
727,486,34,0.195454229895747,1
727,487,34,0.152843136913719,1
727,488,34,0.127300794767688,1
728,484,34,0.131838348783506,1
728,485,34,0.132894405037856,1
728,486,34,0.125455532245035,1
728,487,34,0.116048824847272,1
728,488,34,0.108561175303531,1
731,488,34,0.111484311442711,1
731,489,34,0.133655904594683,1
731,490,34,0.107396277627852,1
731,506,34,0.106524999707763,1
731,507,34,0.109031029375271,1
731,508,34,0.106018392973257,1
732,488,34,0.140057147657855,1
732,489,34,0.196837669277522,1
732,490,34,0.174765224659491,1
732,491,34,0.11016571067358,1
732,505,34,0.108080144853008,1
732,506,34,0.105251606386946,1
733,488,34,0.120920086348569,1
733,489,34,0.162101160549819,1
733,490,34,0.173578409234999,1
733,491,34,0.153266088118407,1
733,492,34,0.114790545292175,1
734,489,34,0.110056512321991,1
734,490,34,0.145036492103676,1
734,491,34,0.18998063742569,1
734,492,34,0.177050202955008,1
734,493,34,0.114707915936856,1
734,510,34,0.104312009784172,1
734,511,34,0.104874609953304,1
735,490,34,0.120589925857554,1
735,491,34,0.171925041343678,1
735,492,34,0.190878584728685,1
735,493,34,0.157385911034597,1
735,494,34,0.115771635037738,1
736,490,34,0.110142320587443,1
736,491,34,0.135082644078692,1
736,492,34,0.168060367793433,1
736,493,34,0.197956734876932,1
736,494,34,0.18846774390004,1
736,495,34,0.135175379022013,1
736,496,34,0.11701853744078,1
737,491,34,0.122769587418066,1
737,492,34,0.151701752018954,1
737,493,34,0.199297030313462,1
737,494,34,0.22063840367938,1
737,495,34,0.187127191919884,1
737,496,34,0.204429397454427,1
737,497,34,0.202456175433365,1
737,498,34,0.136540838041913,1
737,503,34,0.103738077079268,1
738,492,34,0.143858499549063,1
738,493,34,0.156401910076596,1
738,494,34,0.167206936386372,1
738,495,34,0.170307701100532,1
738,496,34,0.232646206888736,1
738,497,34,0.269633105138894,1
738,498,34,0.196257211441292,1
738,499,34,0.116183131011877,1
738,502,34,0.104529491853558,1
738,503,34,0.130410716973845,1
738,504,34,0.103836143668356,1
739,494,34,0.128603523294295,1
739,495,34,0.125179658615837,1
739,496,34,0.149886438175976,1
739,497,34,0.180052164911417,1
739,498,34,0.158020834197774,1
739,499,34,0.11978731239634,1
739,502,34,0.108578564499663,1
739,503,34,0.138071611542803,1
739,504,34,0.104670044297722,1
740,503,34,0.106718991304376,1
719,487,35,0.22542256304303,1
719,488,35,0.196604883823216,1
719,489,35,0.11772106542612,1
720,486,35,0.166547708503266,1
720,487,35,0.178341877797608,1
720,488,35,0.151899826005421,1
720,489,35,0.110923429000459,1
720,490,35,0.1197511955156,1
720,491,35,0.126564034939546,1
720,492,35,0.106957376102145,1
721,486,35,0.115278613961274,1
721,487,35,0.109367569994693,1
721,489,35,0.105495166673493,1
721,490,35,0.146524222045958,1
721,491,35,0.160256199187073,1
721,492,35,0.141313162936612,1
721,493,35,0.111844509845966,1
722,490,35,0.120687758211158,1
722,491,35,0.130045443468448,1
722,492,35,0.123835314251663,1
722,493,35,0.10495962627974,1
723,485,35,0.105362176689224,1
723,486,35,0.105202283086565,1
723,487,35,0.11021763287242,1
723,488,35,0.111943825690966,1
723,496,35,0.105722386246549,1
723,530,35,0.103243048270088,1
723,531,35,0.139810832315859,1
723,532,35,0.139612066777012,1
723,533,35,0.123820546262133,1
723,534,35,0.115537801100791,1
724,485,35,0.116173672359972,1
724,486,35,0.128063722045557,1
724,487,35,0.142695163443274,1
724,488,35,0.138438357385525,1
724,489,35,0.108813313070402,1
724,496,35,0.108594793672447,1
724,497,35,0.120835215025051,1
724,530,35,0.120138821778564,1
724,531,35,0.156633758588969,1
724,532,35,0.165446991350063,1
724,533,35,0.149944394727034,1
724,534,35,0.133113515601556,1
725,485,35,0.17531251028963,1
725,486,35,0.175586063872135,1
725,487,35,0.178670744416428,1
725,488,35,0.175642023844548,1
725,489,35,0.133388563829526,1
725,531,35,0.104658131750276,1
725,532,35,0.116346872768907,1
725,533,35,0.109085148926028,1
726,484,35,0.193037187403824,1
726,485,35,0.236057456313298,1
726,486,35,0.225819023329943,1
726,487,35,0.207191859206003,1
726,488,35,0.19959790021497,1
726,489,35,0.149690148840811,1
727,485,35,0.187122161434024,1
727,486,35,0.175129115060128,1
727,487,35,0.152876911439624,1
727,488,35,0.142657027675748,1
727,489,35,0.113491631457727,1
728,485,35,0.128624426022679,1
728,486,35,0.122028923665199,1
728,487,35,0.113417423425743,1
728,488,35,0.112938579173066,1
729,488,35,0.105114924405294,1
730,505,35,0.108485193774315,1
730,506,35,0.126387287536147,1
730,507,35,0.136451817404116,1
730,508,35,0.135798311559249,1
730,509,35,0.120759244649905,1
730,510,35,0.103948108229464,1
731,488,35,0.104496141182337,1
731,489,35,0.127513659051827,1
731,490,35,0.111336163076439,1
732,487,35,0.103859076437597,1
732,488,35,0.133431707774771,1
732,489,35,0.181557116738771,1
732,490,35,0.176496726815662,1
732,491,35,0.120661021903829,1
732,504,35,0.114349044868008,1
733,488,35,0.126558792526344,1
733,489,35,0.153086920281679,1
733,490,35,0.168207088438663,1
733,491,35,0.153365838972162,1
733,492,35,0.123978476748358,1
733,504,35,0.110499931246309,1
733,505,35,0.129669127433116,1
734,489,35,0.112358868659569,1
734,490,35,0.140807827766158,1
734,491,35,0.181568304271625,1
734,492,35,0.183830717882233,1
734,493,35,0.131742490700405,1
734,505,35,0.109212472642411,1
734,506,35,0.112637898890759,1
734,507,35,0.119700645267448,1
735,490,35,0.128574277321071,1
735,491,35,0.181092728161646,1
735,492,35,0.203168028221762,1
735,493,35,0.171678134835938,1
735,494,35,0.123234221384745,1
735,508,35,0.111857470876052,1
735,509,35,0.110304846550773,1
736,491,35,0.148678206935851,1
736,492,35,0.176904196170299,1
736,493,35,0.191454179390115,1
736,494,35,0.175980494118191,1
736,495,35,0.134853215999649,1
736,496,35,0.127708710285151,1
736,497,35,0.122022945083335,1
737,492,35,0.148538658358044,1
737,493,35,0.175426516045666,1
737,494,35,0.185523348102215,1
737,495,35,0.171565846806781,1
737,496,35,0.207967580202899,1
737,497,35,0.228983232397917,1
737,498,35,0.163883781811744,1
737,502,35,0.123260254985624,1
737,503,35,0.133329346868486,1
737,504,35,0.103005979652655,1
738,493,35,0.142301859758353,1
738,494,35,0.149120331987974,1
738,495,35,0.153446449440695,1
738,496,35,0.211765429715925,1
738,497,35,0.270395865105704,1
738,498,35,0.215543469599491,1
738,499,35,0.128649645376401,1
738,502,35,0.131581570923247,1
738,503,35,0.142428469614215,1
738,504,35,0.105354915389236,1
739,495,35,0.121114769497561,1
739,496,35,0.132319368079959,1
739,497,35,0.163940065252206,1
739,498,35,0.156248876227383,1
739,499,35,0.123867716826879,1
739,502,35,0.110086684083079,1
739,503,35,0.124269084904875,1
741,505,35,0.106203751319192,1
720,488,36,0.141735846443605,1
720,489,36,0.117306067073799,1
720,490,36,0.133926647351386,1
720,491,36,0.152414597519638,1
720,492,36,0.144840994707527,1
720,493,36,0.110208096142021,1
721,489,36,0.106968619405352,1
721,490,36,0.161910860950589,1
721,491,36,0.203738001231588,1
721,492,36,0.198671666188826,1
721,493,36,0.150762936201125,1
722,490,36,0.130064014996068,1
722,491,36,0.161437326035537,1
722,492,36,0.163588165477509,1
722,493,36,0.13691149896343,1
722,494,36,0.116646069559818,1
722,495,36,0.108571927827631,1
722,496,36,0.113388433996144,1
722,497,36,0.11845954298114,1
723,487,36,0.111246027031578,1
723,488,36,0.12036099971169,1
723,489,36,0.110951369947418,1
723,491,36,0.114800494723188,1
723,492,36,0.122847654758492,1
723,493,36,0.107823567766021,1
723,494,36,0.117031610011573,1
723,495,36,0.128937030006502,1
723,496,36,0.140239126320385,1
723,497,36,0.146199092040803,1
723,532,36,0.106968998643754,1
723,533,36,0.107563410222358,1
723,534,36,0.111704403564627,1
724,486,36,0.132082399849161,1
724,487,36,0.14453422430265,1
724,488,36,0.142749974546411,1
724,489,36,0.116457755385163,1
724,491,36,0.131322595711072,1
724,492,36,0.145434614347115,1
724,495,36,0.107647389220224,1
724,496,36,0.128801987673235,1
724,497,36,0.144330160580247,1
724,498,36,0.104144921805949,1
724,531,36,0.106403386875549,1
724,532,36,0.121199819286209,1
724,533,36,0.133424881483538,1
724,534,36,0.142230005235275,1
724,535,36,0.111992669366309,1
725,486,36,0.16535318561596,1
725,487,36,0.177655143976298,1
725,488,36,0.180224216451076,1
725,489,36,0.142735072708033,1
725,490,36,0.104457659638621,1
725,491,36,0.125457997294647,1
725,492,36,0.133894122081392,1
726,485,36,0.172996880607988,1
726,486,36,0.18534875343445,1
726,487,36,0.196209895873627,1
726,488,36,0.203294604615412,1
726,489,36,0.15810029579703,1
727,486,36,0.14626570415068,1
727,487,36,0.140242706777062,1
727,488,36,0.139162814273748,1
727,489,36,0.116423925088905,1
728,486,36,0.113223297980283,1
728,487,36,0.105689950209121,1
728,488,36,0.107938577388414,1
728,489,36,0.103567453260652,1
729,504,36,0.113585849892444,1
729,505,36,0.114835373502086,1
729,506,36,0.113859169239465,1
729,507,36,0.111197674135343,1
729,508,36,0.106729152662731,1
730,503,36,0.1183676892094,1
731,489,36,0.111804767892267,1
731,490,36,0.105242170043182,1
731,503,36,0.113103213255747,1
732,488,36,0.124439574874644,1
732,489,36,0.151858366324843,1
732,490,36,0.155397831791439,1
732,491,36,0.118669953369738,1
732,503,36,0.112723662539928,1
733,489,36,0.146262859862666,1
733,490,36,0.152194237700027,1
733,491,36,0.14021281386774,1
733,492,36,0.119656240912221,1
733,503,36,0.113182764087569,1
734,490,36,0.134096244995503,1
734,491,36,0.160131853607552,1
734,492,36,0.167896692960827,1
734,493,36,0.134140180879763,1
734,503,36,0.103699762846612,1
734,504,36,0.124182942017304,1
735,491,36,0.180043754742153,1
735,492,36,0.202560845232273,1
735,493,36,0.173023349217622,1
735,494,36,0.121126927434561,1
735,507,36,0.121210627580662,1
736,492,36,0.187382809756796,1
736,493,36,0.177829972879546,1
736,494,36,0.149319621768141,1
736,495,36,0.123120884872948,1
736,496,36,0.125319965670448,1
736,497,36,0.130796000881975,1
736,498,36,0.110565082172931,1
736,502,36,0.103704670637694,1
736,503,36,0.111305121297841,1
736,508,36,0.109507698584174,1
737,493,36,0.148568049334187,1
737,494,36,0.145693779178491,1
737,495,36,0.145674995723529,1
737,496,36,0.183405970872171,1
737,497,36,0.220475688096849,1
737,498,36,0.180488501000877,1
737,499,36,0.116054022644191,1
737,502,36,0.1413216400303,1
737,503,36,0.146539313503537,1
737,504,36,0.105955528631116,1
737,509,36,0.105179127235912,1
738,495,36,0.132321152731262,1
738,496,36,0.170309998839084,1
738,497,36,0.227252745262175,1
738,498,36,0.205504739096918,1
738,499,36,0.134326732711257,1
738,501,36,0.103169197168365,1
738,502,36,0.147971239630395,1
738,503,36,0.144316050680885,1
738,504,36,0.103851246280006,1
738,510,36,0.112008619687327,1
739,497,36,0.140566119055338,1
739,498,36,0.148223555862397,1
739,499,36,0.1258832797001,1
739,502,36,0.1125542210528,1
739,503,36,0.114898248998298,1
739,504,36,0.103928276291862,1
740,504,36,0.11045376454792,1
740,505,36,0.106529528260444,1
741,504,36,0.107097114299153,1
741,505,36,0.113195055873417,1
741,506,36,0.104490430298168,1
720,490,37,0.131116635796661,1
720,491,37,0.158936817632997,1
720,492,37,0.176162863173194,1
720,493,37,0.136367559554483,1
721,490,37,0.150475038483775,1
721,491,37,0.212452007380247,1
721,492,37,0.232625103387081,1
721,493,37,0.180120003969064,1
721,494,37,0.120333527235697,1
722,490,37,0.125411284046797,1
722,491,37,0.173951323278786,1
722,492,37,0.192359778385571,1
722,493,37,0.172250427892458,1
722,494,37,0.149314725131129,1
722,495,37,0.128328196214558,1
722,496,37,0.134881948885624,1
722,497,37,0.152213623474804,1
722,498,37,0.104852915285904,1
723,488,37,0.112928919747889,1
723,489,37,0.10586200174878,1
723,490,37,0.103930440181567,1
723,491,37,0.129459776681229,1
723,492,37,0.145147084714096,1
723,493,37,0.140580005873287,1
723,494,37,0.156594641263226,1
723,495,37,0.156905594444595,1
723,496,37,0.163977621008059,1
723,497,37,0.182159391937177,1
723,498,37,0.128785613497532,1
724,487,37,0.13252219370052,1
724,488,37,0.13324243435004,1
724,489,37,0.11674940087025,1
724,490,37,0.109610884891686,1
724,491,37,0.152171159927868,1
724,492,37,0.168220272550162,1
724,493,37,0.124422910693104,1
724,494,37,0.124145843578347,1
724,495,37,0.131910783318257,1
724,496,37,0.140221179420722,1
724,497,37,0.156534944677148,1
724,498,37,0.127602992003602,1
724,533,37,0.110604746048135,1
724,534,37,0.132580618722545,1
725,487,37,0.157220931175726,1
725,488,37,0.161746606106309,1
725,489,37,0.137732505487134,1
725,490,37,0.11059701627718,1
725,491,37,0.136660409679199,1
725,492,37,0.145756375822936,1
725,497,37,0.10389420060605,1
726,487,37,0.164862551510614,1
726,488,37,0.175969630053385,1
726,489,37,0.145925482687945,1
727,487,37,0.126287246676555,1
727,488,37,0.130156828017883,1
727,489,37,0.116130695725787,1
728,505,37,0.108739707358233,1
728,506,37,0.107072162643126,1
729,503,37,0.131707511534871,1
730,502,37,0.113469367932725,1
731,502,37,0.125581818632848,1
732,489,37,0.122512586476394,1
732,490,37,0.126448199915925,1
732,491,37,0.111180809180532,1
732,500,37,0.103488460132362,1
732,501,37,0.123163359573954,1
733,490,37,0.137243332565041,1
733,491,37,0.126186425032019,1
733,492,37,0.111208950900763,1
733,500,37,0.115243422868397,1
733,501,37,0.137989885667207,1
734,491,37,0.139996915676386,1
734,492,37,0.143517586533949,1
734,493,37,0.126725456649883,1
734,500,37,0.109099403828309,1
734,501,37,0.126372274157062,1
734,502,37,0.130431329696392,1
734,503,37,0.130420777945565,1
735,492,37,0.189393286373804,1
735,493,37,0.16246996989561,1
735,494,37,0.112840222578141,1
735,500,37,0.103019230688578,1
735,501,37,0.118981575795345,1
735,502,37,0.116424995879686,1
735,503,37,0.109218328529498,1
735,504,37,0.110794911798517,1
736,493,37,0.162774453716005,1
736,494,37,0.121552444075498,1
736,495,37,0.104256217122819,1
736,496,37,0.112902027283571,1
736,497,37,0.125459882332586,1
736,498,37,0.119611044617978,1
736,499,37,0.110043071666867,1
736,500,37,0.108914112406798,1
736,501,37,0.119107137168567,1
736,502,37,0.123861939018287,1
736,503,37,0.120914888551649,1
737,495,37,0.114342943591366,1
737,496,37,0.141409902191293,1
737,497,37,0.177242487978812,1
737,498,37,0.172369932605321,1
737,499,37,0.134266980354826,1
737,500,37,0.108281921990928,1
737,501,37,0.11669610672072,1
737,503,37,0.146359030259744,1
737,504,37,0.105613165586819,1
738,497,37,0.163647438208903,1
738,498,37,0.170211329930182,1
738,499,37,0.131270584279667,1
738,501,37,0.112458072963862,1
738,502,37,0.150103117152275,1
738,503,37,0.1393515857653,1
738,504,37,0.106497181455581,1
739,499,37,0.123189660872529,1
739,502,37,0.113953967685854,1
739,503,37,0.117782513201289,1
739,504,37,0.125111161468022,1
739,505,37,0.121492145169605,1
740,503,37,0.115649207958367,1
740,506,37,0.10719066348963,1
720,492,38,0.197350243439823,1
721,491,38,0.198235898956969,1
721,492,38,0.235333690977454,1
721,493,38,0.191448892360631,1
721,494,38,0.129337751148401,1
722,491,38,0.171887585974461,1
722,492,38,0.19966908549381,1
722,493,38,0.199951573486899,1
722,494,38,0.171313653269557,1
722,495,38,0.144665396173404,1
722,496,38,0.162364162381496,1
722,497,38,0.177355211016724,1
723,490,38,0.114064906072463,1
723,491,38,0.141896253133513,1
723,492,38,0.157352381898246,1
723,493,38,0.176849050445043,1
723,494,38,0.187820540105086,1
723,495,38,0.176716607010235,1
723,496,38,0.19088579025832,1
723,497,38,0.211106670303786,1
723,498,38,0.17035628823225,1
724,489,38,0.113607723024973,1
724,490,38,0.125445259345973,1
724,491,38,0.155600612795718,1
724,492,38,0.16364860938632,1
724,493,38,0.151216940338482,1
724,494,38,0.161571230653599,1
724,495,38,0.154852966594629,1
724,496,38,0.149968164051572,1
724,497,38,0.161985648994246,1
724,498,38,0.156970533443875,1
725,489,38,0.124683402858886,1
725,490,38,0.118200868928873,1
725,491,38,0.133685039027201,1
725,492,38,0.137832914431056,1
726,488,38,0.139317855855677,1
726,489,38,0.123390902615058,1
727,488,38,0.119436249176941,1
727,489,38,0.113213058543434,1
732,490,38,0.103793903202833,1
733,491,38,0.112970803283152,1
734,492,38,0.121458192178569,1
734,493,38,0.110256281727196,1
734,500,38,0.12451712912782,1
735,493,38,0.138528638433305,1
735,500,38,0.120940520605985,1
735,503,38,0.123528878468905,1
736,497,38,0.1125566526402,1
736,498,38,0.120651864411831,1
736,499,38,0.124756785489643,1
736,500,38,0.138738669583501,1
736,503,38,0.132575945166946,1
736,504,38,0.104685448069279,1
737,497,38,0.132776684976297,1
737,498,38,0.150398967721993,1
737,499,38,0.144491437287666,1
737,500,38,0.137451657142429,1
737,504,38,0.103742092544699,1
738,499,38,0.126754970320803,1
738,500,38,0.115981621571651,1
738,501,38,0.127471463202587,1
738,503,38,0.130123533117016,1
738,504,38,0.108238175725869,1
739,502,38,0.114304673974992,1
739,503,38,0.121229266032705,1
739,506,38,0.111715646867834,1
721,492,39,0.200797052041592,1
