x,y,z,signal,mito.p
131,596,1,0.117692979476242,1
131,597,1,0.106501788086757,1
132,595,1,0.109218440070205,1
132,596,1,0.116135525438375,1
135,610,1,0.104688983909673,1
135,611,1,0.121521948846361,1
135,612,1,0.113816750308812,1
136,610,1,0.118760903661756,1
136,611,1,0.141402808202364,1
136,612,1,0.130103087705528,1
136,613,1,0.114213455985279,1
137,611,1,0.122805626220311,1
137,612,1,0.126263823128206,1
138,594,1,0.116168139940933,1
138,595,1,0.113668166933784,1
138,611,1,0.104165757609909,1
138,612,1,0.116314894048375,1
139,593,1,0.104236574804418,1
139,594,1,0.119658962505458,1
139,595,1,0.108726400551957,1
139,612,1,0.105859971707923,1
139,613,1,0.107546344494275,1
140,594,1,0.105472970072915,1
140,613,1,0.104581213279126,1
144,615,1,0.105291515651704,1
145,616,1,0.117750356015627,1
146,616,1,0.113880484668462,1
147,583,1,0.114229038221966,1
148,583,1,0.108344786333069,1
131,597,2,0.116596935878639,1
132,595,2,0.128611230757109,1
132,597,2,0.107921165884142,1
133,595,2,0.123388660646859,1
135,610,2,0.107256617509339,1
135,611,2,0.130606359372913,1
135,612,2,0.11034403080094,1
136,610,2,0.128652880056888,1
136,611,2,0.164704464867399,1
136,612,2,0.134801461111868,1
136,613,2,0.10604449349856,1
137,595,2,0.106197382344855,1
137,611,2,0.134516664226156,1
137,612,2,0.128613472725308,1
137,613,2,0.11617050460391,1
138,594,2,0.112892312088041,1
138,611,2,0.107289856639853,1
138,612,2,0.11855763187837,1
139,595,2,0.123125156882004,1
139,612,2,0.112586478625097,1
139,613,2,0.111533623589021,1
140,593,2,0.10790862870874,1
140,613,2,0.104268296981325,1
131,598,3,0.107350936330691,1
133,601,3,0.111002310588042,1
134,595,3,0.108442473683755,1
134,600,3,0.121289921868858,1
134,601,3,0.126817555811177,1
135,610,3,0.106429175086875,1
135,611,3,0.142595301048813,1
135,612,3,0.119000113860753,1
136,610,3,0.132191285886772,1
136,611,3,0.191996557229172,1
136,612,3,0.152568902932905,1
136,613,3,0.108915205505721,1
137,610,3,0.103277503194303,1
137,611,3,0.153248230451309,1
137,612,3,0.141253365963898,1
137,613,3,0.119267666553252,1
138,611,3,0.114190534370109,1
138,612,3,0.129933891607954,1
138,613,3,0.127189131366487,1
139,612,3,0.12770053435137,1
139,613,3,0.126770909487751,1
140,612,3,0.107960394750591,1
140,613,3,0.11166782936699,1
158,590,3,0.105334570364384,1
131,598,4,0.122148372607708,1
131,599,4,0.108012830036681,1
131,602,4,0.10317327955822,1
132,601,4,0.107838190752633,1
132,602,4,0.105589173180867,1
133,598,4,0.108296500361258,1
133,600,4,0.123380830489268,1
133,601,4,0.13794496822473,1
133,602,4,0.121512099801984,1
134,597,4,0.114115512090968,1
134,600,4,0.149327284614673,1
134,601,4,0.167258758198577,1
134,602,4,0.130010085064512,1
135,600,4,0.113403224293816,1
135,601,4,0.124002257226968,1
135,610,4,0.107209915415559,1
135,611,4,0.153146739562534,1
135,612,4,0.127733416551624,1
136,610,4,0.132085723762213,1
136,611,4,0.20594476718376,1
136,612,4,0.160185828155391,1
136,613,4,0.105946304214695,1
137,610,4,0.107409506355634,1
137,611,4,0.164248586846174,1
137,612,4,0.144755911456667,1
137,613,4,0.116263830712974,1
138,611,4,0.118036100997343,1
138,612,4,0.134795616378851,1
138,613,4,0.132662043438234,1
138,614,4,0.121498893382343,1
139,611,4,0.104434369939119,1
139,612,4,0.137799731070895,1
139,613,4,0.141780116949985,1
139,614,4,0.128164041756914,1
140,612,4,0.110033813788234,1
140,613,4,0.117813699982805,1
146,588,4,0.107310045507716,1
146,589,4,0.107447552890595,1
149,588,4,0.103387147708717,1
131,599,5,0.121889921636854,1
131,600,5,0.114686176653174,1
131,601,5,0.124198100399307,1
131,602,5,0.131295301700211,1
131,603,5,0.122703153773319,1
131,604,5,0.107687008479146,1
132,599,5,0.109177493476876,1
132,600,5,0.118216730017326,1
132,601,5,0.13424534145778,1
132,602,5,0.131025183571464,1
132,603,5,0.11108129256226,1
133,599,5,0.112024793089759,1
133,600,5,0.146928367487544,1
133,602,5,0.148492201653819,1
133,603,5,0.108830925347947,1
134,599,5,0.106368117704178,1
134,600,5,0.167642168222838,1
134,602,5,0.159648123871933,1
135,600,5,0.120492037733596,1
135,601,5,0.144231692444616,1
135,602,5,0.117758007708087,1
135,611,5,0.148986126210005,1
135,612,5,0.127966681630968,1
136,610,5,0.11947355954324,1
136,611,5,0.188846781528609,1
136,612,5,0.149452232514009,1
137,610,5,0.105293400689643,1
137,611,5,0.155148460234087,1
137,612,5,0.133907919666777,1
137,613,5,0.107075743099802,1
138,611,5,0.112650971461552,1
138,612,5,0.12704818852985,1
138,613,5,0.127726534490037,1
138,614,5,0.113769468203359,1
139,612,5,0.133972836357916,1
139,613,5,0.146627821054085,1
139,614,5,0.128384546579444,1
140,612,5,0.104472438782222,1
140,613,5,0.119989535697086,1
140,614,5,0.114423275208133,1
145,590,5,0.106594668032996,1
146,589,5,0.124779049014645,1
132,604,6,0.109432877078305,1
133,599,6,0.122645877620571,1
133,603,6,0.126021724024913,1
134,598,6,0.108313778016683,1
134,599,6,0.108507100369057,1
134,603,6,0.114710648684163,1
135,600,6,0.114908956906114,1
135,602,6,0.124967563962572,1
135,611,6,0.144122917947712,1
135,612,6,0.124538544943454,1
136,594,6,0.10634072330668,1
136,596,6,0.113810069020497,1
136,610,6,0.115546333964832,1
136,611,6,0.16700617426888,1
136,612,6,0.13510795266498,1
137,610,6,0.107650936214689,1
137,611,6,0.140376644857335,1
137,612,6,0.122167858769121,1
138,611,6,0.104834544531556,1
138,612,6,0.118651894929368,1
138,613,6,0.122020870426195,1
138,614,6,0.105990987421688,1
139,612,6,0.121545160467368,1
139,613,6,0.138559222895006,1
139,614,6,0.119295250569951,1
140,613,6,0.113032797607782,1
140,614,6,0.108657301084327,1
132,605,7,0.108516692869809,1
132,606,7,0.107060528947446,1
133,604,7,0.123825164047379,1
133,605,7,0.107714960580176,1
134,599,7,0.110252757040873,1
134,604,7,0.127992458688222,1
134,605,7,0.132375807677409,1
134,606,7,0.117322385479149,1
135,600,7,0.104331774797351,1
135,604,7,0.106426219258154,1
135,605,7,0.127070875909536,1
135,606,7,0.124321564807247,1
135,611,7,0.134141050897274,1
135,612,7,0.11698641371733,1
136,610,7,0.114025677206014,1
136,611,7,0.142688359460182,1
136,612,7,0.120307716716231,1
137,610,7,0.116656331304809,1
137,611,7,0.125652011199401,1
137,612,7,0.113287043494005,1
138,612,7,0.113903517824339,1
138,613,7,0.117918994409669,1
138,614,7,0.103341126013247,1
139,612,7,0.11134330168165,1
139,613,7,0.12711695337536,1
139,614,7,0.113539515882995,1
140,613,7,0.104517568152041,1
140,614,7,0.105481502936956,1
132,605,8,0.127824199532582,1
133,605,8,0.130592260627621,1
133,606,8,0.108859267841449,1
134,599,8,0.109530698277838,1
134,606,8,0.148740959737285,1
134,607,8,0.111693941046364,1
135,603,8,0.108461123289869,1
135,604,8,0.136446374217642,1
135,606,8,0.169371116096832,1
135,607,8,0.123803792848028,1
135,611,8,0.124071657854505,1
136,610,8,0.114489720006949,1
136,611,8,0.123212415176639,1
136,612,8,0.107363473506093,1
137,610,8,0.12527225971031,1
137,611,8,0.11290722508049,1
137,612,8,0.104158853240182,1
138,612,8,0.107859606568266,1
138,613,8,0.111651243263945,1
139,613,8,0.113997200863664,1
139,614,8,0.103613184950285,1
146,615,8,0.103402428785497,1
133,606,9,0.115442523029363,1
134,599,9,0.108986268089783,1
134,607,9,0.114286169371796,1
135,603,9,0.10589377969604,1
135,607,9,0.130534828317883,1
136,606,9,0.109435977909943,1
136,611,9,0.10613704997675,1
137,609,9,0.10925986628857,1
137,610,9,0.122242457193577,1
137,611,9,0.10410968609679,1
138,612,9,0.107094649249541,1
138,613,9,0.111400365907057,1
139,613,9,0.108861052492752,1
134,599,10,0.107973601170232,1
137,609,10,0.108292562974321,1
138,613,10,0.103147870585297,1
158,587,10,0.103218408928039,1
136,606,11,0.10776867858439,1
163,617,11,0.103522268120479,1
136,605,12,0.107497021193894,1
162,617,12,0.103033954061826,1
163,617,12,0.107577620508356,1
144,612,14,0.105093720517003,1
139,602,15,0.103587352122678,1
139,603,15,0.117303468175339,1
140,603,16,0.103798543296221,1
148,595,18,0.104813441029901,1
159,599,19,0.103368353099685,1
160,599,19,0.1042244614837,1
160,600,19,0.105423133685284,1
160,600,20,0.103194338443593,1
