x,y,z,signal,mito.p
988,351,4,0.12495971149684,1
988,352,4,0.107356212206105,1
989,350,4,0.127357825530882,1
989,351,4,0.145105167716622,1
989,352,4,0.123883131752507,1
990,350,4,0.138643882291182,1
990,351,4,0.156415495734639,1
990,352,4,0.133426264588297,1
991,349,4,0.107652921639263,1
991,350,4,0.130922655354119,1
991,351,4,0.145315131942394,1
991,352,4,0.128728192341865,1
992,349,4,0.103189296803663,1
992,350,4,0.116294894799713,1
992,351,4,0.123345817861522,1
992,352,4,0.112893182105551,1
993,350,4,0.107197634783782,1
993,351,4,0.106654041151025,1
994,349,4,0.111821766695926,1
994,350,4,0.108173337113225,1
995,349,4,0.118911762467195,1
995,350,4,0.110656902482459,1
996,350,4,0.108579256052043,1
986,351,5,0.10562899321306,1
987,350,5,0.127627240953179,1
987,351,5,0.151098863346662,1
987,352,5,0.126083707195473,1
988,350,5,0.154360525529838,1
988,351,5,0.19084619330754,1
988,352,5,0.156692228227276,1
988,353,5,0.107701798776818,1
989,349,5,0.123070669246916,1
989,350,5,0.178526076120197,1
989,351,5,0.221296694620552,1
989,352,5,0.182582555069208,1
989,353,5,0.125762135338853,1
990,349,5,0.142967657389068,1
990,350,5,0.196132865861771,1
990,351,5,0.2364565043446,1
990,352,5,0.195851939438572,1
990,353,5,0.136926021563406,1
990,354,5,0.110774856779502,1
991,348,5,0.114464065644472,1
991,349,5,0.144919106664236,1
991,350,5,0.182962696950772,1
991,351,5,0.211456171953295,1
991,352,5,0.182760785964003,1
991,353,5,0.135859435866369,1
991,354,5,0.110392941400707,1
992,348,5,0.114463385246163,1
992,349,5,0.134544449016126,1
992,350,5,0.155804709980332,1
992,351,5,0.169886199925027,1
992,352,5,0.154624185451683,1
992,353,5,0.127308892622974,1
992,354,5,0.109485156207405,1
993,348,5,0.115497646446478,1
993,349,5,0.128775251365905,1
993,350,5,0.138318216890636,1
993,351,5,0.139269904505986,1
993,352,5,0.126974549355469,1
993,353,5,0.111913564697313,1
994,348,5,0.134703171441367,1
994,349,5,0.147852236850711,1
994,350,5,0.142112920955741,1
994,351,5,0.127318775129563,1
994,352,5,0.111203284632876,1
995,351,5,0.129396644641393,1
995,352,5,0.109359962918515,1
996,351,5,0.133641627384261,1
996,352,5,0.112366988822997,1
997,349,5,0.131737560601181,1
997,350,5,0.127639822744863,1
997,351,5,0.120008408384613,1
997,352,5,0.104243423403792,1
985,352,6,0.111362453220943,1
985,353,6,0.122951142225912,1
986,350,6,0.110205285316219,1
986,351,6,0.134889321726318,1
986,352,6,0.134378788758945,1
986,353,6,0.129525396078818,1
987,350,6,0.146204189451087,1
987,351,6,0.185002330308439,1
987,352,6,0.15704165179829,1
987,353,6,0.120299663477227,1
988,349,6,0.107503947871763,1
988,350,6,0.169203425798794,1
988,351,6,0.228370851611509,1
988,352,6,0.192282904530703,1
988,353,6,0.131842631946633,1
989,349,6,0.135620850295329,1
989,350,6,0.199896985465175,1
989,351,6,0.266203027643089,1
989,352,6,0.223586290701315,1
989,353,6,0.150840568532796,1
989,354,6,0.118279237429206,1
989,355,6,0.104060965116224,1
990,348,6,0.12758784477567,1
990,349,6,0.172716578812745,1
990,353,6,0.160371141885043,1
990,354,6,0.133432644716705,1
990,355,6,0.125338336424796,1
991,348,6,0.145757190070093,1
991,349,6,0.186604757559136,1
991,353,6,0.156026151744796,1
991,354,6,0.124217396941518,1
991,355,6,0.109059494563551,1
992,347,6,0.133258841987955,1
992,348,6,0.149374890188175,1
992,353,6,0.150611229686318,1
992,354,6,0.125885811674136,1
992,355,6,0.10805968828745,1
993,347,6,0.140661252123847,1
993,351,6,0.160059028680328,1
993,352,6,0.146260863284021,1
993,353,6,0.131504763992804,1
993,354,6,0.119294246703593,1
993,355,6,0.104568363789746,1
994,351,6,0.151629852879593,1
994,352,6,0.131016171082385,1
994,353,6,0.121105500464857,1
994,354,6,0.106864529618118,1
995,352,6,0.131875257603261,1
995,353,6,0.120030493444485,1
996,352,6,0.136743708278756,1
996,353,6,0.119217986322611,1
997,348,6,0.13999923572308,1
997,352,6,0.130032839368623,1
997,353,6,0.11439093955734,1
998,349,6,0.123535481678725,1
998,350,6,0.120264606233198,1
998,351,6,0.113997513177642,1
998,352,6,0.108746745576809,1
998,353,6,0.10368531832513,1
999,349,6,0.107993645035176,1
999,350,6,0.110138762438908,1
999,351,6,0.109971451379272,1
999,352,6,0.103959518843732,1
1000,350,6,0.10316736790078,1
1000,351,6,0.110081731675714,1
984,353,7,0.123669341680504,1
984,354,7,0.106955446447924,1
985,351,7,0.109318436313514,1
985,352,7,0.141283113870301,1
985,353,7,0.167849611628645,1
985,354,7,0.133664917083762,1
986,350,7,0.118233059576747,1
986,351,7,0.155474203713128,1
986,352,7,0.167028448947953,1
986,353,7,0.173579658490911,1
986,354,7,0.131263122206407,1
987,350,7,0.147755241052405,1
987,351,7,0.197758326268345,1
987,352,7,0.179737597811161,1
987,353,7,0.148332687289562,1
987,354,7,0.10605560295292,1
988,349,7,0.111679574603377,1
988,350,7,0.16589353341416,1
988,351,7,0.234991617938994,1
988,352,7,0.210667244536759,1
988,353,7,0.149294090100441,1
988,354,7,0.10499105845081,1
989,348,7,0.113074915378528,1
989,349,7,0.143092616442474,1
989,353,7,0.165110249957369,1
989,354,7,0.126701888098616,1
989,355,7,0.105321207787754,1
990,347,7,0.126349609085517,1
990,348,7,0.142952744396619,1
990,354,7,0.135054435434037,1
990,355,7,0.123337195764915,1
991,347,7,0.151522394563024,1
991,348,7,0.173678215859108,1
991,354,7,0.122351677853307,1
992,354,7,0.131396424504654,1
992,355,7,0.103326190712657,1
993,353,7,0.1483309249464,1
993,354,7,0.133734273095016,1
993,355,7,0.108373641913821,1
994,352,7,0.149525972075026,1
994,353,7,0.142649911378678,1
994,354,7,0.126697091848239,1
995,353,7,0.150331920603362,1
995,354,7,0.128534948067986,1
996,354,7,0.12820408487052,1
997,354,7,0.120637587201409,1
998,348,7,0.119126601021838,1
998,353,7,0.129533560858528,1
998,354,7,0.11661762667968,1
998,362,7,0.105632595977878,1
999,349,7,0.122783407311591,1
999,352,7,0.119036576517683,1
999,353,7,0.118073310977006,1
999,354,7,0.118268272977765,1
1000,350,7,0.116427260156027,1
1000,351,7,0.127493983271214,1
1000,352,7,0.123523825674904,1
1000,353,7,0.114811169168792,1
1000,354,7,0.118589699831466,1
1000,355,7,0.105696163026469,1
1001,351,7,0.104200703313232,1
984,352,8,0.122633262366674,1
984,353,8,0.14906418239636,1
984,354,8,0.120868231074152,1
985,351,8,0.123407053709349,1
985,352,8,0.17125552940744,1
985,353,8,0.20172890771934,1
985,354,8,0.149369558542407,1
986,350,8,0.119705329977118,1
986,351,8,0.173858967573867,1
986,352,8,0.203900002953598,1
986,353,8,0.211706491606651,1
986,354,8,0.148794287349026,1
987,350,8,0.144432722259804,1
987,351,8,0.19988422520836,1
987,352,8,0.201915493013046,1
987,353,8,0.176725675269668,1
987,354,8,0.120915379330758,1
988,349,8,0.122844163534381,1
988,350,8,0.161387378107201,1
988,353,8,0.162601019071587,1
988,354,8,0.111440453636945,1
989,346,8,0.121268193739247,1
989,347,8,0.11431887310692,1
989,348,8,0.122884396267188,1
989,349,8,0.152620613204403,1
989,354,8,0.126080617517905,1
990,346,8,0.15598385550892,1
990,347,8,0.141457340453735,1
990,348,8,0.151009363083827,1
990,354,8,0.128202121754087,1
990,355,8,0.106359239063947,1
991,354,8,0.118470563202935,1
992,354,8,0.13513035003883,1
993,353,8,0.164129650990914,1
993,354,8,0.150591219283586,1
993,355,8,0.111295863419208,1
994,353,8,0.160916966331929,1
994,354,8,0.149435356405127,1
994,355,8,0.104030971820267,1
995,354,8,0.154497385976621,1
998,354,8,0.133369468060586,1
998,355,8,0.103522245812338,1
999,354,8,0.126144608421181,1
999,355,8,0.106001338399245,1
1000,353,8,0.125167712606179,1
1000,354,8,0.126337718846212,1
1000,355,8,0.112859262576728,1
1001,352,8,0.119224132215535,1
1001,353,8,0.105725509386329,1
1001,354,8,0.105253368730107,1
983,352,9,0.107566265664442,1
983,353,9,0.126979981387872,1
983,354,9,0.105934246664331,1
984,352,9,0.141854614987805,1
984,353,9,0.175784115550461,1
984,354,9,0.134803736542279,1
985,351,9,0.126089998091315,1
985,352,9,0.190282979664523,1
985,353,9,0.226139279006228,1
985,354,9,0.158533631441487,1
986,350,9,0.114830499173216,1
986,351,9,0.177663085674595,1
986,352,9,0.230988711991277,1
986,353,9,0.239556555198239,1
986,354,9,0.157722730505785,1
987,349,9,0.109635858855855,1
987,350,9,0.145627334379674,1
987,351,9,0.198420677291231,1
987,352,9,0.221718363107117,1
987,353,9,0.199494390439409,1
987,354,9,0.128347470448628,1
988,347,9,0.105500754862885,1
988,348,9,0.117505925711569,1
988,349,9,0.148301913208659,1
988,350,9,0.175589700099164,1
988,353,9,0.168840762345928,1
988,354,9,0.110746369283081,1
989,347,9,0.127489688954017,1
989,348,9,0.143605949081578,1
989,354,9,0.125590898046351,1
990,354,9,0.127642812035795,1
991,354,9,0.113040014291488,1
992,354,9,0.129490238448153,1
993,353,9,0.173543798153796,1
993,354,9,0.170826532696463,1
993,355,9,0.121602994323649,1
994,354,9,0.184055427789394,1
994,355,9,0.128577578925981,1
995,355,9,0.114324583991089,1
996,355,9,0.111447213003755,1
997,355,9,0.116584777941639,1
998,355,9,0.117759424275059,1
999,355,9,0.113453808004179,1
1000,354,9,0.13240064779273,1
1000,355,9,0.120256541840124,1
1001,354,9,0.117084056451733,1
1001,355,9,0.113781793451418,1
1001,356,9,0.109688137984956,1
977,400,10,0.113153317341073,1
978,400,10,0.104208109616138,1
978,401,10,0.113337638358438,1
979,401,10,0.103106500137284,1
981,353,10,0.123991917403482,1
981,354,10,0.110795569888685,1
981,400,10,0.117645284670175,1
981,401,10,0.115453487480805,1
982,352,10,0.120184988476953,1
982,353,10,0.154669515594774,1
982,354,10,0.132414813462446,1
982,399,10,0.121686605237184,1
982,400,10,0.141305600476716,1
982,401,10,0.133584005455322,1
983,352,10,0.132698015316056,1
983,353,10,0.17460060173088,1
983,354,10,0.140556995025552,1
983,399,10,0.111286114761467,1
983,400,10,0.128753077073468,1
983,401,10,0.121678674692957,1
984,352,10,0.153864950171197,1
984,353,10,0.204422437314346,1
984,354,10,0.15246343004091,1
985,351,10,0.117969500041538,1
985,352,10,0.193758655001115,1
985,353,10,0.244313855559782,1
985,354,10,0.167577820389302,1
986,350,10,0.103240940150737,1
986,351,10,0.168812352928002,1
986,352,10,0.244523953634402,1
986,353,10,0.261909335073725,1
986,354,10,0.164157948868134,1
987,349,10,0.114756737304058,1
987,350,10,0.154719017360285,1
987,353,10,0.217951365753487,1
987,354,10,0.128951686455326,1
988,348,10,0.128366889685617,1
988,349,10,0.183390344019201,1
988,354,10,0.103177328485863,1
989,348,10,0.165937301987361,1
989,354,10,0.120322072005148,1
992,354,10,0.10912234775162,1
993,353,10,0.159075172725246,1
993,354,10,0.164206011758532,1
993,355,10,0.113497643501804,1
994,353,10,0.17553145354227,1
994,354,10,0.19302478407727,1
994,355,10,0.132878108940648,1
995,354,10,0.169406084108296,1
995,355,10,0.105343694394169,1
997,355,10,0.113224959936809,1
998,355,10,0.117016317780722,1
999,355,10,0.111097655583893,1
1000,355,10,0.124101907694087,1
1000,356,10,0.111300280431182,1
1001,355,10,0.131483192020182,1
1001,356,10,0.138206854649342,1
1001,357,10,0.120146607319872,1
1002,354,10,0.103659195491685,1
1002,355,10,0.109120696949165,1
1002,356,10,0.122776335630804,1
1002,357,10,0.114443843314397,1
1003,365,10,0.11536866077357,1
1003,366,10,0.125886815540494,1
1003,367,10,0.104909934895028,1
1004,365,10,0.108585792337439,1
1004,366,10,0.11593713913793,1
1004,367,10,0.108357111581129,1
1004,368,10,0.104199677138733,1
977,399,11,0.112392632031403,1
977,400,11,0.146123344747071,1
978,398,11,0.106868355464348,1
978,399,11,0.117348854088783,1
978,400,11,0.126159097558945,1
978,401,11,0.136204542812045,1
979,398,11,0.119145072162822,1
979,399,11,0.134103372446644,1
979,400,11,0.127204010896724,1
979,401,11,0.122331845915705,1
980,353,11,0.126093087768883,1
980,354,11,0.123266099718641,1
980,398,11,0.103739560570664,1
980,399,11,0.135005357523211,1
980,400,11,0.135097434376364,1
980,401,11,0.122822290401851,1
981,352,11,0.133776781258235,1
981,353,11,0.191314798123368,1
981,354,11,0.174331520930703,1
981,355,11,0.117587528892389,1
981,399,11,0.152894490254956,1
981,400,11,0.182723720987258,1
981,401,11,0.169582184575598,1
981,402,11,0.140794978276778,1
982,352,11,0.151423937581464,1
982,353,11,0.231250698802526,1
982,354,11,0.202002583996621,1
982,355,11,0.12242239466118,1
982,399,11,0.200744293287454,1
982,402,11,0.17724766346759,1
983,352,11,0.151624554696038,1
983,353,11,0.227983515354381,1
983,354,11,0.188766427603701,1
983,355,11,0.106987012467842,1
983,399,11,0.184516168985419,1
984,352,11,0.151965244629739,1
984,353,11,0.218049410034434,1
984,354,11,0.171152097710373,1
984,399,11,0.11665981137485,1
984,400,11,0.128789461651904,1
984,401,11,0.12366336309864,1
985,351,11,0.108308089440655,1
985,352,11,0.172391593810508,1
985,353,11,0.233424404089314,1
985,354,11,0.169166762368593,1
986,351,11,0.146631825365445,1
986,353,11,0.248453242715879,1
986,354,11,0.156391447558334,1
987,349,11,0.112594319936759,1
987,354,11,0.115022193031276,1
988,348,11,0.129519551345801,1
993,353,11,0.131544963263399,1
993,354,11,0.140674280078357,1
994,352,11,0.132452581145641,1
994,353,11,0.165556267780146,1
994,354,11,0.187035672770263,1
994,355,11,0.125622352525563,1
995,353,11,0.161701186730654,1
995,354,11,0.153131001168857,1
996,354,11,0.144783941636192,1
997,355,11,0.112404455346284,1
998,355,11,0.12202320162696,1
999,355,11,0.11383546683935,1
1000,355,11,0.131756767910827,1
1000,356,11,0.11851527987214,1
1001,356,11,0.161900164196843,1
1001,357,11,0.143686425701263,1
1002,355,11,0.131499633120308,1
1002,356,11,0.151781804783954,1
1002,357,11,0.144918838966541,1
1002,358,11,0.111546919241227,1
1002,366,11,0.109218685459759,1
1003,355,11,0.103248312991432,1
1003,356,11,0.114545144583971,1
1003,357,11,0.113890646026817,1
1003,358,11,0.105664842396105,1
1003,365,11,0.141225648098351,1
1003,367,11,0.119940446632189,1
1003,371,11,0.104639370603456,1
1003,374,11,0.113825004321087,1
1003,375,11,0.133647371730642,1
1003,376,11,0.122835887213964,1
1004,358,11,0.104189393085601,1
1004,359,11,0.109245365996735,1
1004,360,11,0.106343991449379,1
1004,361,11,0.106219255477385,1
1004,364,11,0.103148037896357,1
1004,368,11,0.124221579718009,1
1004,369,11,0.120856920846521,1
1004,370,11,0.105541902229485,1
1004,377,11,0.107692797441809,1
1004,378,11,0.117486952637407,1
1005,368,11,0.125916663833533,1
1005,369,11,0.106768348066968,1
976,399,12,0.113292587067114,1
976,400,12,0.18368828040013,1
977,399,12,0.124796538597412,1
977,400,12,0.16859598626568,1
977,401,12,0.204167031404777,1
978,357,12,0.109366766901607,1
978,398,12,0.129020652074108,1
978,399,12,0.139262643205998,1
978,400,12,0.140188832615859,1
978,401,12,0.152986834805804,1
979,354,12,0.117362372822402,1
979,355,12,0.11461456751965,1
979,398,12,0.139330783423552,1
979,399,12,0.162488842583136,1
979,400,12,0.145191500223394,1
979,401,12,0.133695122307062,1
979,402,12,0.12538390080337,1
980,352,12,0.103120788501777,1
980,353,12,0.156216239416683,1
980,354,12,0.175137179453202,1
980,355,12,0.144407424827587,1
980,356,12,0.109192038384994,1
980,361,12,0.113153774657969,1
980,398,12,0.11088594016903,1
980,399,12,0.154224267402871,1
980,400,12,0.157823764077664,1
980,401,12,0.143155793098593,1
980,402,12,0.12690320791964,1
981,352,12,0.138807902899978,1
981,353,12,0.239620847261421,1
981,354,12,0.245633359808635,1
981,355,12,0.169803704418556,1
981,356,12,0.11609203571694,1
981,399,12,0.170887010067486,1
981,402,12,0.177942684763388,1
982,352,12,0.152127023270336,1
982,353,12,0.274907932070104,1
982,354,12,0.260931926171474,1
982,355,12,0.153674159792859,1
983,352,12,0.142166304337836,1
983,353,12,0.23956594692572,1
983,354,12,0.212059919489026,1
983,355,12,0.114086823821276,1
983,398,12,0.109564015486847,1
984,352,12,0.128278025204809,1
984,353,12,0.19169526347298,1
984,354,12,0.162760332662572,1
984,399,12,0.139589736327586,1
985,352,12,0.131552826883202,1
985,353,12,0.183965436747452,1
985,354,12,0.144150133880079,1
985,400,12,0.122384760826833,1
986,351,12,0.113349941298357,1
986,352,12,0.165047597542571,1
986,353,12,0.193529014994729,1
986,354,12,0.126667712026167,1
986,399,12,0.113354481005108,1
986,400,12,0.121354972408845,1
987,349,12,0.107352676365711,1
987,353,12,0.158635903115207,1
987,399,12,0.116249497732199,1
988,348,12,0.129580341030802,1
988,353,12,0.114825926004252,1
989,347,12,0.128973481509362,1
989,353,12,0.138703880037167,1
994,352,12,0.105043437966547,1
994,353,12,0.135512555423462,1
994,354,12,0.1513271537105,1
995,352,12,0.122409210549681,1
995,353,12,0.125768102766647,1
995,354,12,0.119154118114113,1
996,353,12,0.123561894518006,1
996,354,12,0.105984863836906,1
997,354,12,0.144073985039804,1
998,355,12,0.106939897673448,1
999,355,12,0.104493475359453,1
1000,356,12,0.115464530010741,1
1001,356,12,0.167011717841989,1
1001,357,12,0.142294799231636,1
1002,357,12,0.159613892029132,1
1002,358,12,0.124597304587598,1
1002,375,12,0.116624988366304,1
1002,376,12,0.112976491859179,1
1003,358,12,0.128119905099382,1
1003,359,12,0.117542979534243,1
1003,360,12,0.106044939661386,1
1003,361,12,0.110331950942434,1
1003,364,12,0.110251496630891,1
1003,371,12,0.110735036747309,1
1003,372,12,0.104551944997761,1
1003,374,12,0.1254724529702,1
1003,375,12,0.168521499381931,1
1003,376,12,0.157645042403761,1
1003,377,12,0.121001611450894,1
1003,378,12,0.121917527961694,1
1003,379,12,0.106595448817941,1
1004,355,12,0.114563013405141,1
1004,360,12,0.126567470393304,1
1004,369,12,0.13663593764821,1
1004,370,12,0.112498885708343,1
1004,371,12,0.105721817388946,1
1004,374,12,0.103731563102013,1
1004,375,12,0.12018824546558,1
1004,376,12,0.12152330964298,1
1004,377,12,0.138167815402094,1
1004,378,12,0.167535345688296,1
1004,379,12,0.130531024779794,1
1005,369,12,0.129184114979373,1
1005,377,12,0.120645740827048,1
976,399,13,0.118398485598444,1
976,400,13,0.192992303423559,1
977,356,13,0.11418621774477,1
977,357,13,0.123405637142377,1
977,358,13,0.105642166170489,1
977,399,13,0.131946030181487,1
977,400,13,0.181726825923595,1
977,401,13,0.235478046959708,1
978,354,13,0.119608657646861,1
978,355,13,0.131032333330746,1
978,356,13,0.139632311415228,1
978,357,13,0.147819800813283,1
978,358,13,0.134820133026123,1
978,398,13,0.139173421794929,1
978,399,13,0.162839983881029,1
978,400,13,0.159638799068876,1
978,401,13,0.168318406063674,1
978,402,13,0.177919383909816,1
979,353,13,0.108528259641066,1
979,354,13,0.147139023265696,1
979,355,13,0.15558381476533,1
979,356,13,0.139615881469171,1
979,357,13,0.12519186116912,1
979,358,13,0.120891197305605,1
979,359,13,0.104339370719458,1
979,361,13,0.103257258556087,1
979,398,13,0.140119264677262,1
979,399,13,0.180130979574577,1
979,400,13,0.165757353365687,1
979,401,13,0.148750217615918,1
979,402,13,0.144350282523686,1
980,353,13,0.161085080484651,1
980,354,13,0.218603990426773,1
980,355,13,0.20484774202794,1
980,356,13,0.159104474468823,1
980,357,13,0.117095712455554,1
980,358,13,0.107787283574221,1
980,359,13,0.11509415909506,1
980,360,13,0.122019978100544,1
980,361,13,0.138155088607491,1
980,362,13,0.12545127139005,1
980,399,13,0.156899325856894,1
980,402,13,0.160039531364845,1
981,352,13,0.121440881060932,1
981,353,13,0.241904197062625,1
981,354,13,0.293749923594616,1
981,355,13,0.223324794669175,1
981,356,13,0.153060328977267,1
981,357,13,0.106471482476821,1
981,361,13,0.10804267832972,1
982,352,13,0.130009560823192,1
982,353,13,0.260334982618835,1
982,354,13,0.275220870676046,1
982,355,13,0.166704657431275,1
983,352,13,0.117401311683015,1
983,353,13,0.20596212291768,1
983,354,13,0.197051537428019,1
983,355,13,0.106577925772961,1
984,353,13,0.147094920070376,1
984,354,13,0.137948214059287,1
984,399,13,0.145096601390368,1
985,353,13,0.132921765973142,1
985,354,13,0.115936380661126,1
985,399,13,0.122676919399169,1
985,400,13,0.158433992128439,1
985,401,13,0.171980744772466,1
986,352,13,0.114026268371758,1
986,353,13,0.136702638990651,1
986,399,13,0.15084914601312,1
987,350,13,0.11907334033452,1
987,351,13,0.135959376339325,1
987,352,13,0.133434061283676,1
987,353,13,0.113448855596814,1
987,399,13,0.158951752933588,1
987,400,13,0.164512369462796,1
988,348,13,0.13454936796128,1
988,352,13,0.128097931580217,1
988,399,13,0.105199739958459,1
989,347,13,0.130743732906944,1
989,352,13,0.12004655530621,1
990,348,13,0.142661221606309,1
990,353,13,0.130158300355208,1
994,354,13,0.109667179486219,1
996,352,13,0.107030769886972,1
997,353,13,0.108723221641824,1
997,354,13,0.105998851041491,1
998,354,13,0.119054211103369,1
1000,356,13,0.10570295585549,1
1001,357,13,0.128608877248203,1
1002,358,13,0.128627493392105,1
1002,375,13,0.113053834185014,1
1002,376,13,0.110125857179175,1
1003,360,13,0.125372367494325,1
1003,374,13,0.121650622205292,1
1003,375,13,0.17896612651518,1
1003,376,13,0.166316551543273,1
1003,377,13,0.1283342974912,1
1003,378,13,0.140702142946822,1
1003,379,13,0.132607299259521,1
1003,380,13,0.103480830748043,1
1004,369,13,0.127349772291879,1
1004,370,13,0.104681845304462,1
1004,374,13,0.10540482985536,1
1004,375,13,0.1332148280252,1
1004,376,13,0.133223818206138,1
1004,377,13,0.149100678515502,1
1004,378,13,0.193409867212127,1
1004,379,13,0.162921520137425,1
1005,376,13,0.104944222508183,1
1005,377,13,0.13024358437934,1
1006,369,13,0.1042583140881,1
975,400,14,0.129541881795227,1
976,356,14,0.105499851383163,1
976,357,14,0.112267427588443,1
976,358,14,0.103665620236375,1
976,399,14,0.10984484152341,1
976,400,14,0.173902111519112,1
976,401,14,0.231215340398589,1
977,354,14,0.14160987236977,1
977,355,14,0.145237131526392,1
977,356,14,0.143912016780005,1
977,357,14,0.154880037524078,1
977,358,14,0.147933516563483,1
977,359,14,0.105654792578456,1
977,399,14,0.126531431591059,1
977,400,14,0.173639578158402,1
977,401,14,0.232740838024066,1
977,402,14,0.2553298834239,1
978,353,14,0.119253980508574,1
978,354,14,0.158957474971827,1
978,355,14,0.165363056968479,1
978,356,14,0.158754125109946,1
978,357,14,0.159468108325836,1
978,358,14,0.152809931245416,1
978,359,14,0.111364717497284,1
978,398,14,0.127684874036188,1
978,399,14,0.175787372539089,1
978,400,14,0.171902298193638,1
978,401,14,0.166470645029197,1
978,402,14,0.1775284337338,1
979,353,14,0.109808044244361,1
979,354,14,0.156418585412207,1
979,355,14,0.170096286845576,1
979,356,14,0.147918938193153,1
979,357,14,0.121181002369035,1
979,358,14,0.113352462118322,1
979,359,14,0.103412634760135,1
979,362,14,0.104165712993627,1
979,398,14,0.121726670658932,1
979,399,14,0.182415690172398,1
979,400,14,0.180113791151717,1
979,402,14,0.15486304987449,1
980,353,14,0.134619716684821,1
980,354,14,0.210960418129523,1
980,355,14,0.219292508899387,1
980,356,14,0.168227310768738,1
980,357,14,0.111992613595955,1
980,359,14,0.108885702988872,1
980,360,14,0.110617249761325,1
980,361,14,0.121306775669599,1
980,362,14,0.130710817244479,1
980,399,14,0.143661563277801,1
981,353,14,0.18589552597734,1
981,354,14,0.265573313430902,1
981,355,14,0.221585361968777,1
981,356,14,0.146498244215432,1
982,353,14,0.187455266599689,1
982,354,14,0.22053404619445,1
982,355,14,0.141495420450908,1
983,353,14,0.139943766529775,1
983,354,14,0.143613043070507,1
984,399,14,0.141934611982452,1
985,399,14,0.143986213657919,1
987,398,14,0.111904741827435,1
987,399,14,0.189652685440663,1
988,348,14,0.146663592158635,1
988,349,14,0.165800776162698,1
988,350,14,0.144031833806846,1
988,351,14,0.121722454420229,1
988,399,14,0.118523890814676,1
988,400,14,0.121152860648805,1
989,348,14,0.165624798390173,1
989,351,14,0.106955702991549,1
990,348,14,0.132679031087823,1
990,349,14,0.130461858387741,1
990,350,14,0.117086711120546,1
990,351,14,0.117323367037366,1
990,352,14,0.103147792506802,1
991,350,14,0.103092501778628,1
991,351,14,0.122412523308661,1
992,349,14,0.107251843567104,1
1003,375,14,0.148623094672807,1
1003,376,14,0.141785928220789,1
1003,377,14,0.123763861275128,1
1003,378,14,0.144145449170409,1
1003,379,14,0.141828369459583,1
1003,380,14,0.112124097780688,1
1004,375,14,0.139737416222891,1
1004,376,14,0.139305485991335,1
1004,377,14,0.151754019993984,1
1004,378,14,0.193568031933837,1
1004,379,14,0.174165492589191,1
1004,380,14,0.113416854568141,1
1005,374,14,0.104688961601532,1
1005,375,14,0.137788264686275,1
1005,376,14,0.136467288100097,1
975,400,15,0.116221434090463,1
975,401,15,0.120761910472789,1
976,354,15,0.144469831852831,1
976,355,15,0.146691778495148,1
976,356,15,0.138712602520409,1
976,357,15,0.152530187153705,1
976,358,15,0.150432809172322,1
976,359,15,0.112223290930911,1
976,400,15,0.144320556925424,1
976,401,15,0.19359638558141,1
976,402,15,0.202100940591546,1
977,353,15,0.148666695934948,1
977,356,15,0.180410690204076,1
977,357,15,0.192964262089964,1
977,358,15,0.205433174579677,1
977,359,15,0.156750842868502,1
977,392,15,0.106274300816005,1
977,399,15,0.113009485600139,1
977,400,15,0.152828368924188,1
977,401,15,0.199047513753192,1
977,402,15,0.229067579480115,1
977,403,15,0.198702674505212,1
978,353,15,0.145419879819797,1
978,354,15,0.201164913291378,1
978,355,15,0.200483823429812,1
978,356,15,0.171486786754068,1
978,357,15,0.160770256840769,1
978,358,15,0.164115362626421,1
978,359,15,0.133970203997244,1
978,399,15,0.16788512618957,1
978,400,15,0.175201003045418,1
978,401,15,0.155919173053264,1
978,402,15,0.169791345708284,1
978,403,15,0.176657891982374,1
979,353,15,0.112362025261561,1
979,354,15,0.156692395538336,1
979,355,15,0.17518227536081,1
979,356,15,0.148536171000291,1
979,357,15,0.111287453249944,1
979,399,15,0.159613445866306,1
979,400,15,0.178206679307352,1
980,353,15,0.108423745999146,1
980,354,15,0.179213267258404,1
980,355,15,0.20722826609258,1
980,356,15,0.15898721172416,1
980,362,15,0.112628328698148,1
980,399,15,0.118008450056221,1
981,353,15,0.130996339144783,1
981,354,15,0.204815886002186,1
981,355,15,0.190250677475943,1
981,356,15,0.122639899038706,1
982,353,15,0.124020616827245,1
982,354,15,0.154041987580433,1
982,355,15,0.110803968903879,1
984,399,15,0.135309395180781,1
986,398,15,0.105771765317283,1
987,398,15,0.114380878585621,1
988,348,15,0.143431220564965,1
988,349,15,0.141189018130362,1
988,399,15,0.126899928622871,1
989,348,15,0.149392335154659,1
989,349,15,0.145118028360072,1
990,347,15,0.111014122748852,1
990,348,15,0.118208844089382,1
990,349,15,0.103165326705852,1
1001,356,15,0.106792195470002,1
1003,375,15,0.119480954692076,1
1003,376,15,0.121061252266619,1
1003,377,15,0.127859535628377,1
1003,378,15,0.148464573020837,1
1003,379,15,0.150209950840888,1
1003,380,15,0.116668199235973,1
1004,374,15,0.110765978139271,1
1004,375,15,0.158000957643889,1
1004,376,15,0.153199888709145,1
1004,377,15,0.163319553148299,1
1004,378,15,0.192017950736664,1
1004,379,15,0.181398885092638,1
1004,380,15,0.121303552143183,1
1005,370,15,0.105042188710635,1
1005,374,15,0.136972589808338,1
1005,375,15,0.196360587368006,1
1005,376,15,0.170429659708936,1
975,357,16,0.111772967636866,1
975,358,16,0.106753423920449,1
975,400,16,0.112279462830666,1
975,401,16,0.13064399320726,1
975,402,16,0.125802658077497,1
976,356,16,0.164640975897303,1
976,357,16,0.187657110662033,1
976,358,16,0.195654690853332,1
976,359,16,0.147568432677287,1
976,400,16,0.125236120521429,1
976,401,16,0.172588251230004,1
976,402,16,0.18653589232699,1
976,403,16,0.159718416825121,1
977,357,16,0.214676976775708,1
977,358,16,0.242852739230053,1
977,359,16,0.193279230736764,1
977,360,16,0.108503374909462,1
977,400,16,0.134440794237646,1
977,401,16,0.169872045409382,1
977,402,16,0.205249667809468,1
977,403,16,0.192678249410552,1
978,353,16,0.153627870399693,1
978,356,16,0.167612141464669,1
978,357,16,0.146490726371819,1
978,358,16,0.155040823452388,1
978,359,16,0.13531232870136,1
978,399,16,0.136287016010375,1
978,400,16,0.161462065764222,1
978,401,16,0.146454821418421,1
978,402,16,0.168227768085634,1
978,403,16,0.189387352408222,1
979,353,16,0.103246071023233,1
979,354,16,0.138436550426081,1
979,355,16,0.154784424830532,1
979,356,16,0.129787706358115,1
979,399,16,0.122388999373677,1
979,400,16,0.158001448422997,1
980,354,16,0.126757334983779,1
980,355,16,0.156836082276351,1
980,356,16,0.122120308965972,1
981,354,16,0.127921173022747,1
981,355,16,0.130676406936547,1
984,399,16,0.118956724525954,1
988,348,16,0.125860224236082,1
988,349,16,0.108377646225181,1
989,348,16,0.128654397010495,1
989,349,16,0.110407084762281,1
1003,376,16,0.104435507654325,1
1003,377,16,0.127948890888293,1
1003,378,16,0.14740441206849,1
1003,379,16,0.146233212342898,1
1003,380,16,0.114612983641618,1
1004,374,16,0.115686808330502,1
1004,375,16,0.162252108587822,1
1004,376,16,0.162063727488743,1
1004,377,16,0.174337677977697,1
1004,378,16,0.191709250677565,1
1004,379,16,0.177321358412324,1
1004,380,16,0.120647715097552,1
1005,370,16,0.119345878896596,1
1005,371,16,0.120558493686484,1
1005,372,16,0.122610842684683,1
1005,373,16,0.112869212007741,1
1005,374,16,0.160247699785244,1
1005,375,16,0.230331224143191,1
1005,376,16,0.189354537132392,1
1005,377,16,0.144034923484414,1
1006,370,16,0.141210478562278,1
1006,375,16,0.177935066533139,1
974,401,17,0.112622316654071,1
975,356,17,0.117120184486544,1
975,357,17,0.135795991512555,1
975,358,17,0.137290837751907,1
975,359,17,0.107843756633884,1
975,400,17,0.113686292298578,1
975,401,17,0.153580543677958,1
975,402,17,0.150037140824425,1
976,356,17,0.176538632659065,1
976,357,17,0.204008598985372,1
976,358,17,0.22736656139901,1
976,359,17,0.176242960554477,1
976,400,17,0.117701066177458,1
976,401,17,0.163338938923075,1
976,402,17,0.17846900074072,1
976,403,17,0.160091632028816,1
977,357,17,0.201201097096542,1
977,358,17,0.23602015710107,1
977,359,17,0.196873830774545,1
977,360,17,0.110471767217937,1
977,400,17,0.124241868972508,1
977,401,17,0.151523978441055,1
977,402,17,0.184318005766387,1
978,356,17,0.148491320482238,1
978,357,17,0.119502660513546,1
978,358,17,0.126289087098211,1
978,359,17,0.117417139309256,1
978,400,17,0.137955653824405,1
978,401,17,0.137665859915045,1
978,402,17,0.165553356567709,1
979,355,17,0.125654766254849,1
979,356,17,0.104793709478934,1
979,400,17,0.125856733011971,1
980,355,17,0.107782676943046,1
988,348,17,0.110547324892468,1
988,399,17,0.140036445702743,1
989,348,17,0.11946730210961,1
991,346,17,0.107635197821012,1
1003,377,17,0.118317016266472,1
1003,378,17,0.137235312788249,1
1003,379,17,0.135069749973029,1
1003,380,17,0.11422562507635,1
1003,381,17,0.105678104586099,1
1004,374,17,0.116249553502552,1
1004,375,17,0.152947628247497,1
1004,376,17,0.16512814108668,1
1004,377,17,0.180838616124271,1
1004,378,17,0.189675484361056,1
1004,379,17,0.168822313513085,1
1004,380,17,0.121322514063275,1
1005,370,17,0.121660672022941,1
1005,371,17,0.125308108893355,1
1005,372,17,0.124335340084491,1
1005,373,17,0.121438516397956,1
1005,374,17,0.174463718975956,1
1005,375,17,0.23617209785136,1
1005,376,17,0.200430328507012,1
1005,377,17,0.154750549917991,1
1006,373,17,0.12176344562984,1
1006,375,17,0.192094779975249,1
974,401,18,0.137571719558823,1
975,356,18,0.121885448854526,1
975,357,18,0.144435700396666,1
975,358,18,0.153351472529175,1
975,359,18,0.117069712316887,1
975,400,18,0.11808187730326,1
975,401,18,0.178509188857244,1
976,356,18,0.167662937102374,1
976,357,18,0.191714738480321,1
976,358,18,0.225932415612094,1
976,359,18,0.177651451978915,1
976,400,18,0.117972165864421,1
976,401,18,0.163843827930703,1
977,357,18,0.161774558207339,1
977,358,18,0.190117810186451,1
977,359,18,0.164355755156906,1
977,400,18,0.12037716196005,1
977,401,18,0.147440495487018,1
978,356,18,0.120110155817013,1
978,400,18,0.113647587673449,1
978,401,18,0.131988147952233,1
979,401,18,0.137320106033272,1
980,400,18,0.11152336184403,1
988,399,18,0.142901647599006,1
1003,378,18,0.115109217090428,1
1003,379,18,0.111784456329627,1
1004,375,18,0.126523791052669,1
1004,376,18,0.155416347548706,1
1004,377,18,0.170135749947509,1
1004,378,18,0.170456485248831,1
1004,379,18,0.14727660872707,1
1004,380,18,0.110114613875967,1
1005,373,18,0.121523911962794,1
1005,374,18,0.167234308475728,1
1005,375,18,0.203135815265747,1
1005,376,18,0.186335832915948,1
1005,377,18,0.149751362380496,1
1005,378,18,0.123484998354998,1
973,371,19,0.105200197275355,1
974,357,19,0.10958645747698,1
974,358,19,0.106318515552031,1
974,400,19,0.106209662976632,1
974,401,19,0.162778759187273,1
975,356,19,0.121374492032469,1
975,357,19,0.141383645509001,1
975,358,19,0.152364036117416,1
975,359,19,0.112281939034348,1
975,400,19,0.117673370620053,1
976,356,19,0.150622093751124,1
976,357,19,0.161570561409361,1
976,358,19,0.19519052535762,1
976,359,19,0.153039493173307,1
976,400,19,0.10963091760256,1
977,356,19,0.141698904161637,1
977,357,19,0.118165443600513,1
977,358,19,0.13370274053731,1
977,359,19,0.118333446212528,1
977,400,19,0.106447043908044,1
977,401,19,0.133873843980965,1
978,354,19,0.125089634111682,1
978,355,19,0.12543808727855,1
978,401,19,0.122056819995876,1
979,401,19,0.126930702703773,1
983,400,19,0.110105735235736,1
988,399,19,0.138490469203566,1
1003,355,19,0.10911783035301,1
1003,356,19,0.108265670510002,1
1003,379,19,0.105671925230963,1
1004,375,19,0.103154763800954,1
1004,376,19,0.137009487474023,1
1004,377,19,0.151846866478011,1
1004,378,19,0.153938511267084,1
1004,379,19,0.143162909395663,1
1004,380,19,0.112399079084235,1
1005,376,19,0.162135849709517,1
1005,377,19,0.13692661272915,1
1005,378,19,0.111786698297826,1
973,371,20,0.104786816263277,1
974,357,20,0.109052601347894,1
974,358,20,0.103398948715457,1
974,400,20,0.119943257457991,1
975,356,20,0.111307664425948,1
975,357,20,0.124513169432742,1
975,358,20,0.131482165845682,1
976,355,20,0.131033772205858,1
976,356,20,0.123366820976542,1
976,357,20,0.122414876817567,1
976,358,20,0.144512161550919,1
976,359,20,0.111656719912631,1
977,354,20,0.119800206502002,1
977,355,20,0.134439355362534,1
977,356,20,0.105568995467075,1
977,401,20,0.121379578288682,1
978,401,20,0.113686437301497,1
979,401,20,0.122603124067799,1
983,401,20,0.139706173671021,1
984,402,20,0.156010034112717,1
984,403,20,0.111985184984908,1
988,399,20,0.123999847947709,1
1003,354,20,0.113938998923052,1
1003,380,20,0.104859284260241,1
1004,356,20,0.125900401198536,1
1004,376,20,0.117060130970205,1
1004,377,20,0.1262987799856,1
1004,378,20,0.132469658027794,1
1004,379,20,0.13701863381195,1
1004,380,20,0.113510414912689,1
1005,376,20,0.136989242835807,1
1005,377,20,0.11647523381386,1
971,387,21,0.11164699356303,1
971,388,21,0.108104884581692,1
972,358,21,0.106069824392989,1
973,357,21,0.11851718721822,1
973,358,21,0.110442922791255,1
973,400,21,0.121674938079292,1
974,356,21,0.105406491811886,1
974,357,21,0.11203367172999,1
975,356,21,0.105483644518519,1
975,357,21,0.109962015035509,1
975,358,21,0.107575534697146,1
976,355,21,0.1036610136052,1
976,356,21,0.103490534789502,1
977,401,21,0.109048730885381,1
978,401,21,0.10509592902299,1
979,401,21,0.11893946917867,1
982,401,21,0.107497166196813,1
983,401,21,0.114951375836767,1
983,402,21,0.135245928518826,1
984,400,21,0.114448438791502,1
984,402,21,0.146600069726326,1
988,399,21,0.116370965561495,1
1003,380,21,0.106611979150633,1
1004,355,21,0.115562741602747,1
1004,356,21,0.114996259817032,1
1004,357,21,0.11944281892455,1
1004,360,21,0.117962551055528,1
1004,378,21,0.105939879470005,1
1004,379,21,0.122139404734912,1
1004,380,21,0.110333657515242,1
1005,356,21,0.152315928610736,1
1005,375,21,0.133643534730341,1
1005,376,21,0.113717534850448,1
1006,355,21,0.128076928465197,1
1007,358,21,0.12244600782873,1
970,387,22,0.14249073163654,1
970,388,22,0.14229225610353,1
971,387,22,0.114671263660725,1
971,388,22,0.118951850197084,1
972,358,22,0.119460609667224,1
973,357,22,0.133452788968285,1
973,358,22,0.116921073171507,1
974,356,22,0.104597208216428,1
974,357,22,0.110298511038648,1
978,401,22,0.11043518186623,1
982,401,22,0.103970873687646,1
983,401,22,0.106832852057493,1
983,402,22,0.1378661424075,1
984,402,22,0.136183305461542,1
988,399,22,0.111452198873332,1
988,401,22,0.118971537131767,1
1004,355,22,0.11184250211325,1
1004,356,22,0.109772050058398,1
1004,357,22,0.110953366526063,1
1004,358,22,0.111740531599438,1
1004,359,22,0.117656204505334,1
1005,354,22,0.118195749210448,1
1005,355,22,0.126914417760636,1
1005,360,22,0.134260031368816,1
1005,367,22,0.105599278768869,1
1005,368,22,0.107456710382593,1
1005,375,22,0.115710098030004,1
1006,359,22,0.141300045749536,1
1007,358,22,0.113990441496855,1
970,386,23,0.106522713123282,1
970,387,23,0.121124841623351,1
970,388,23,0.11762556427328,1
971,386,23,0.107781918466242,1
971,387,23,0.120400540892117,1
971,388,23,0.125327572746626,1
971,389,23,0.106789284257564,1
973,358,23,0.11605521612975,1
974,357,23,0.112222008212787,1
975,400,23,0.106036540646192,1
983,401,23,0.116166377597772,1
984,402,23,0.140832076715735,1
987,398,23,0.108036275893171,1
988,398,23,0.120853574625328,1
988,399,23,0.112289456877961,1
988,401,23,0.106237893929428,1
1004,357,23,0.11507018899725,1
1005,358,23,0.145246634794579,1
1005,359,23,0.136286670234185,1
1005,360,23,0.116854940686668,1
1005,361,23,0.103045520833082,1
1005,362,23,0.1073964114767,1
1005,366,23,0.112905217347774,1
1005,367,23,0.103784254931728,1
1005,374,23,0.120611676295307,1
1005,375,23,0.103849127006584,1
1006,359,23,0.140958842728585,1
1006,360,23,0.140438605719754,1
1006,375,23,0.124575855309753,1
1007,358,23,0.111995324035122,1
1007,359,23,0.119212632368703,1
968,358,24,0.102970677019072,1
968,359,24,0.104614418947429,1
968,360,24,0.103970940612069,1
969,360,24,0.103176982709674,1
969,361,24,0.105687808627558,1
970,360,24,0.104934384617876,1
971,386,24,0.10831163643512,1
971,387,24,0.116233402408262,1
971,388,24,0.11957635545828,1
971,389,24,0.105916589770504,1
974,357,24,0.111353652659206,1
984,400,24,0.103540538488192,1
984,401,24,0.121668502180532,1
985,399,24,0.105161671115356,1
985,402,24,0.110849890212713,1
986,398,24,0.106496891449745,1
987,398,24,0.148335944278189,1
987,399,24,0.15198523272433,1
987,401,24,0.115920798424438,1
988,397,24,0.10851287817765,1
988,398,24,0.142460459488817,1
988,399,24,0.11617554624384,1
1005,359,24,0.114739091564301,1
1005,362,24,0.106954286424577,1
1005,374,24,0.113579402839612,1
1006,359,24,0.134362559586161,1
1006,360,24,0.131569323753682,1
1006,361,24,0.141670974368749,1
1007,358,24,0.109477827982993,1
1007,359,24,0.11424178732471,1
1007,360,24,0.121907065443431,1
967,362,25,0.10820382118829,1
968,362,25,0.123200023004155,1
969,362,25,0.130837616719541,1
970,361,25,0.127227412136932,1
970,362,25,0.12284189925804,1
971,386,25,0.105194174077208,1
971,387,25,0.108206219313479,1
971,388,25,0.108060000601427,1
974,356,25,0.11729930770699,1
974,357,25,0.11458175224382,1
984,400,25,0.115003074954195,1
984,401,25,0.113165519894356,1
985,399,25,0.108144537302826,1
985,401,25,0.128687279210749,1
986,398,25,0.121671926480219,1
987,397,25,0.112546223584149,1
987,398,25,0.172033838148724,1
987,399,25,0.153256707544997,1
988,397,25,0.118948002042712,1
988,398,25,0.146708331135981,1
988,399,25,0.109187398291607,1
994,394,25,0.103412757454912,1
1005,374,25,0.111635761413894,1
1006,359,25,0.132310980218836,1
1006,360,25,0.131298525226626,1
1007,358,25,0.108668912471866,1
1007,359,25,0.11482501137046,1
1007,360,25,0.115087778966653,1
962,380,26,0.181042691000744,1
966,392,26,0.115146750538139,1
966,393,26,0.125681658719168,1
966,394,26,0.117722013522124,1
966,395,26,0.10318560480628,1
967,363,26,0.109478196067325,1
967,385,26,0.105730573334401,1
968,363,26,0.111563349187283,1
969,363,26,0.106053606374275,1
970,362,26,0.142743672496498,1
974,356,26,0.129180199900577,1
974,357,26,0.112017598714194,1
975,400,26,0.103521598876241,1
983,399,26,0.113336891035705,1
984,399,26,0.119164045236984,1
985,399,26,0.114397620845655,1
985,400,26,0.144631900499265,1
985,401,26,0.109814636300111,1
986,398,26,0.120119670239271,1
986,399,26,0.130184188953169,1
987,397,26,0.123905517972286,1
987,398,26,0.169848198006348,1
987,399,26,0.135506063754348,1
988,397,26,0.114445940279678,1
988,398,26,0.130301619008892,1
1005,372,26,0.103793713583632,1
1005,373,26,0.115272691149762,1
1005,374,26,0.111841052084067,1
1006,358,26,0.143142040129491,1
1006,359,26,0.137095094966204,1
1006,360,26,0.134050312532598,1
1006,361,26,0.14796333139431,1
1006,374,26,0.122592081537863,1
1007,358,26,0.108691566389341,1
1007,359,26,0.118851697796786,1
1007,360,26,0.113280127970206,1
1007,361,26,0.115430922795895,1
961,380,27,0.159906909464907,1
962,379,27,0.212071519722494,1
962,380,27,0.240527115501115,1
962,381,27,0.132671602476775,1
963,380,27,0.162725085799342,1
965,390,27,0.105961373364133,1
965,391,27,0.118506535080757,1
965,392,27,0.15793551671143,1
966,364,27,0.124840329478754,1
966,385,27,0.12351263814205,1
966,386,27,0.108335896538767,1
966,390,27,0.106729565363345,1
966,391,27,0.121465364245992,1
967,364,27,0.105116530591466,1
967,385,27,0.128061111993026,1
967,386,27,0.122926603270498,1
967,389,27,0.106535830310357,1
967,390,27,0.110054961906172,1
967,391,27,0.113933098419682,1
967,392,27,0.119816536061423,1
967,393,27,0.131235337416437,1
967,394,27,0.130422406439879,1
973,357,27,0.115945750080465,1
974,356,27,0.145529312406869,1
974,357,27,0.105532555118286,1
975,355,27,0.111300046195699,1
975,356,27,0.108334279198524,1
985,399,27,0.117894600457174,1
986,398,27,0.107255368253427,1
986,399,27,0.109732029252933,1
987,397,27,0.124034291717853,1
987,398,27,0.144501487105314,1
987,399,27,0.107893403402313,1
988,398,27,0.105549085450978,1
1004,357,27,0.103116338027591,1
1005,355,27,0.105756484240503,1
1005,358,27,0.114041259442702,1
1005,373,27,0.118021556089226,1
1005,374,27,0.12461783923165,1
1006,357,27,0.12323761222222,1
1006,358,27,0.135637904869341,1
1006,359,27,0.140012843689263,1
1006,360,27,0.133983120411048,1
1006,361,27,0.135756740337965,1
1006,373,27,0.141244777329503,1
1006,374,27,0.125306045390286,1
1007,359,27,0.118729136868567,1
1007,360,27,0.110548763767581,1
1007,361,27,0.107150586913812,1
961,379,28,0.144125728773514,1
961,380,28,0.163390749581209,1
962,379,28,0.210234154281856,1
962,380,28,0.259058644623368,1
962,381,28,0.149420532645243,1
963,379,28,0.127391455053869,1
963,380,28,0.172455841257408,1
963,381,28,0.153846400951719,1
964,366,28,0.111096841336736,1
964,380,28,0.118306497977856,1
964,382,28,0.153952208465833,1
965,377,28,0.117186484282442,1
965,378,28,0.129406571764264,1
965,379,28,0.128622262132974,1
965,380,28,0.111889817680915,1
965,381,28,0.118722745586089,1
965,382,28,0.121859783337978,1
965,389,28,0.115306354134961,1
965,390,28,0.136031777411865,1
966,365,28,0.109100708854574,1
966,377,28,0.11333019859332,1
966,378,28,0.121395606688195,1
966,379,28,0.114462258685028,1
966,385,28,0.126967154206633,1
966,386,28,0.119699998331351,1
966,389,28,0.108587130825916,1
966,390,28,0.133539378018682,1
967,364,28,0.114828937603326,1
967,385,28,0.137795079823437,1
967,386,28,0.138736929548481,1
967,387,28,0.104506726395376,1
967,389,28,0.126820623180604,1
967,390,28,0.148074682481533,1
968,364,28,0.106678312408743,1
968,389,28,0.114741355840642,1
968,390,28,0.127964673898252,1
968,391,28,0.132004031348828,1
968,392,28,0.110993387331528,1
971,398,28,0.106855673286028,1
973,357,28,0.104116746623507,1
974,356,28,0.141573208939568,1
975,355,28,0.130610051370295,1
975,356,28,0.110000072724541,1
985,399,28,0.117728951354064,1
987,397,28,0.107143024453917,1
987,398,28,0.106350550042916,1
1005,357,28,0.108150794736457,1
1005,358,28,0.105078974835614,1
1005,359,28,0.112642059359109,1
1005,360,28,0.114522579899062,1
1005,373,28,0.117190800907781,1
1005,374,28,0.136661870862453,1
1006,358,28,0.122146688343041,1
1006,359,28,0.138949593059348,1
1006,360,28,0.134470664838827,1
1006,361,28,0.122400398833873,1
1006,362,28,0.110922090511982,1
1006,372,28,0.120341658553196,1
1006,373,28,0.127284030199512,1
961,380,29,0.148350801500285,1
962,379,29,0.173250100319711,1
962,380,29,0.235149693428138,1
962,381,29,0.171475554604931,1
963,368,29,0.147520972106703,1
963,369,29,0.11779399073998,1
963,376,29,0.110989505714944,1
963,379,29,0.112119725384996,1
963,380,29,0.165249932384024,1
963,381,29,0.18038384235604,1
963,382,29,0.144191783179858,1
964,368,29,0.116592831180642,1
964,375,29,0.105823743286476,1
964,376,29,0.111760608926594,1
964,380,29,0.117370571064324,1
964,381,29,0.165075460411036,1
964,382,29,0.164863889999091,1
964,383,29,0.107109272236153,1
964,387,29,0.108481602163568,1
964,388,29,0.118761505981571,1
964,389,29,0.140203388678047,1
965,376,29,0.115120806169825,1
965,377,29,0.124591125232462,1
965,378,29,0.13631576005042,1
965,379,29,0.132225718502845,1
965,380,29,0.107568864562902,1
965,381,29,0.111812096116679,1
965,382,29,0.117296508035259,1
965,385,29,0.108217083378284,1
965,386,29,0.117934398181226,1
965,387,29,0.112839241019925,1
965,388,29,0.108685364726064,1
965,389,29,0.137968369464937,1
966,365,29,0.116474285717855,1
966,377,29,0.113852777956987,1
966,378,29,0.11891498599361,1
966,379,29,0.108648991301699,1
966,385,29,0.126443994831293,1
966,386,29,0.132101629466949,1
966,387,29,0.106702661744955,1
966,389,29,0.128014900678355,1
967,385,29,0.129605761157796,1
967,386,29,0.138312974477434,1
967,387,29,0.106798285592572,1
967,388,29,0.106257101239074,1
967,389,29,0.144544742591266,1
968,389,29,0.120281582728716,1
968,390,29,0.149864085418408,1
973,357,29,0.106627170994848,1
974,356,29,0.137113242639139,1
975,356,29,0.107263901117468,1
1004,360,29,0.10440207890461,1
1005,359,29,0.13203498389486,1
1005,360,29,0.140987664847125,1
1005,361,29,0.111555786727388,1
1005,373,29,0.115427833118327,1
1005,374,29,0.144449866066381,1
1005,375,29,0.117289001345716,1
1006,358,29,0.106571211022435,1
1006,359,29,0.128941447018477,1
1006,360,29,0.128720596419757,1
1006,361,29,0.110053322257787,1
1006,363,29,0.107332677117049,1
1006,365,29,0.107404386637209,1
1006,371,29,0.105511596619549,1
1006,372,29,0.107828118626843,1
961,380,30,0.122874937615283,1
961,381,30,0.1102631191725,1
962,369,30,0.146556211920561,1
962,379,30,0.126545418795644,1
962,380,30,0.188367446496823,1
962,381,30,0.198436538379685,1
962,382,30,0.14512233383134,1
962,385,30,0.10709793970038,1
963,369,30,0.136069879717179,1
963,376,30,0.110129013781167,1
963,380,30,0.156524493312956,1
963,381,30,0.21508193646445,1
963,382,30,0.186721886454952,1
963,383,30,0.111447402622956,1
963,385,30,0.111863940237025,1
963,386,30,0.119934546128819,1
964,375,30,0.103157184234283,1
964,376,30,0.107869767926622,1
964,380,30,0.122177138955895,1
964,381,30,0.170061073444558,1
964,382,30,0.169165736194094,1
964,383,30,0.112830351225623,1
964,385,30,0.118411848175074,1
965,375,30,0.106773267012122,1
965,376,30,0.114289627133696,1
965,377,30,0.114048275353136,1
965,378,30,0.123287258990649,1
965,379,30,0.120540312551337,1
965,380,30,0.104081756303901,1
965,381,30,0.105476795919145,1
965,382,30,0.108147626980394,1
965,384,30,0.105711968344569,1
965,385,30,0.130740777078224,1
965,388,30,0.13159254652876,1
966,378,30,0.103401268762151,1
966,385,30,0.134583990196553,1
966,386,30,0.154962008789229,1
966,387,30,0.137198415122564,1
966,388,30,0.121798502873869,1
967,365,30,0.106750624248718,1
967,385,30,0.115562473905052,1
967,386,30,0.131851633281641,1
967,387,30,0.114169453176595,1
967,388,30,0.115586131688884,1
968,389,30,0.117171716292912,1
969,394,30,0.11206770279952,1
973,398,30,0.104288943166084,1
974,356,30,0.120966509590582,1
1004,359,30,0.114907216871094,1
1004,360,30,0.128378813387133,1
1005,359,30,0.137546210199264,1
1005,360,30,0.154503018782295,1
1005,361,30,0.11435689733374,1
1005,373,30,0.105639009568497,1
1005,374,30,0.131459255384583,1
1006,360,30,0.116127237963888,1
961,381,31,0.111395279650844,1
961,384,31,0.104792002906126,1
961,385,31,0.131282708754455,1
962,369,31,0.159817453818355,1
962,370,31,0.111132054737754,1
962,380,31,0.144571490052666,1
962,381,31,0.20690963891061,1
962,382,31,0.178922246401273,1
962,383,31,0.111790144905655,1
962,384,31,0.111547733488384,1
962,385,31,0.149798242939406,1
963,369,31,0.138142640664654,1
963,380,31,0.149846495449005,1
963,381,31,0.233578263339755,1
963,382,31,0.216445766990037,1
963,383,31,0.129313212192988,1
963,384,31,0.112281939034348,1
963,385,31,0.153551911178619,1
964,380,31,0.130952994426266,1
964,381,31,0.168631344669617,1
964,382,31,0.160549908175229,1
964,383,31,0.114227878198619,1
964,384,31,0.114231447501225,1
965,375,31,0.103313653537255,1
965,376,31,0.109080832300689,1
965,378,31,0.102940683723115,1
965,379,31,0.104841649674555,1
965,380,31,0.104181306384385,1
965,384,31,0.116509900665416,1
966,385,31,0.148417246299102,1
967,386,31,0.125670281567113,1
967,387,31,0.128894633383991,1
967,388,31,0.132227146223888,1
968,389,31,0.106615347679967,1
969,393,31,0.103707169149518,1
1004,359,31,0.121370242331554,1
1004,360,31,0.141070851905976,1
1004,361,31,0.105668389390569,1
1004,363,31,0.114010262280386,1
1004,364,31,0.103822379545183,1
1005,359,31,0.130826663422171,1
1005,360,31,0.150753265621878,1
1005,361,31,0.111728741746769,1
1005,363,31,0.105053967409233,1
1005,364,31,0.103697755113896,1
1006,360,31,0.103928309754074,1
961,384,32,0.118359412888984,1
961,385,32,0.161386931944375,1
962,370,32,0.120783605140188,1
962,380,32,0.110346763548247,1
962,381,32,0.180390166714094,1
962,382,32,0.180200547513173,1
962,383,32,0.119730326249428,1
962,384,32,0.119025199365628,1
963,369,32,0.132604075733106,1
963,380,32,0.144159514453489,1
963,381,32,0.226164442589597,1
963,382,32,0.217024752488942,1
963,383,32,0.134479342705787,1
963,384,32,0.117333115695107,1
964,368,32,0.11305013103356,1
964,380,32,0.143951100643536,1
964,381,32,0.172475728965364,1
964,382,32,0.150105448353039,1
964,383,32,0.110948492197192,1
964,384,32,0.119180162869063,1
965,380,32,0.111860460166984,1
965,381,32,0.107539250505346,1
965,384,32,0.119100455880252,1
971,396,32,0.103830064699856,1
975,355,32,0.110492502635261,1
975,399,32,0.103383132243286,1
1004,359,32,0.114795798859447,1
1004,360,32,0.136930973970772,1
1004,361,32,0.114521988733318,1
1004,362,32,0.129800310457941,1
1004,363,32,0.161513240640329,1
1004,364,32,0.122004540866775,1
1005,360,32,0.129538424033328,1
1005,362,32,0.107888239067605,1
1005,363,32,0.13049727256203,1
1005,364,32,0.113283585732105,1
961,370,33,0.127271180710132,1
961,384,33,0.115500646891481,1
962,370,33,0.128943622062252,1
962,381,33,0.134935109186305,1
962,382,33,0.155475017960285,1
962,383,33,0.123232548274148,1
963,369,33,0.117485201448316,1
963,380,33,0.13648053913602,1
963,381,33,0.195414543712401,1
963,382,33,0.188600053486,1
963,383,33,0.131757771777185,1
964,379,33,0.107758740307447,1
964,380,33,0.162663526483467,1
964,381,33,0.180821171157786,1
964,382,33,0.139829314610913,1
964,383,33,0.104911217613152,1
964,384,33,0.11891671487456,1
965,380,33,0.130439394089467,1
965,381,33,0.121959065720766,1
965,384,33,0.110899180050882,1
966,385,33,0.142321067067999,1
967,386,33,0.114330696421801,1
970,394,33,0.115461574182021,1
971,358,33,0.118233706512844,1
973,393,33,0.105268683269099,1
973,394,33,0.115550104040709,1
974,393,33,0.118779575576012,1
974,394,33,0.138082074061066,1
974,395,33,0.107993042715361,1
974,398,33,0.112895033681278,1
975,394,33,0.110813929488962,1
975,397,33,0.110199172885507,1
975,398,33,0.106600892004414,1
1003,363,33,0.109670592631835,1
1004,361,33,0.110732025148235,1
1004,362,33,0.148638520752505,1
1004,363,33,0.183518660447871,1
1004,364,33,0.124744995636974,1
1005,362,33,0.116103189787583,1
1005,363,33,0.138554225871358,1
1005,364,33,0.108871938865699,1
961,384,34,0.11230072248931,1
962,369,34,0.145460759488701,1
962,370,34,0.13996781470608,1
962,371,34,0.106556041486361,1
962,382,34,0.126073824688884,1
962,383,34,0.126330747552061,1
963,369,34,0.110306062344473,1
963,370,34,0.109782345265601,1
963,380,34,0.122363501168188,1
963,381,34,0.156476151570792,1
963,382,34,0.15152630964182,1
963,383,34,0.127063703842113,1
964,379,34,0.112442736116729,1
964,380,34,0.174398266889427,1
964,381,34,0.183066742121724,1
964,382,34,0.132215244830512,1
964,384,34,0.12035371610356,1
965,379,34,0.106026847758804,1
965,380,34,0.146507680559195,1
965,381,34,0.132066717225838,1
965,384,34,0.103859031821314,1
966,385,34,0.12479511087637,1
967,386,34,0.1090648708256,1
970,359,34,0.152403476911208,1
972,393,34,0.112909946673727,1
972,394,34,0.109076404134644,1
973,392,34,0.111988319278758,1
973,393,34,0.162860250827387,1
973,394,34,0.166426608758301,1
973,395,34,0.111840683999736,1
974,392,34,0.105468854220848,1
974,393,34,0.169984902296141,1
974,394,34,0.1863284043049,1
974,395,34,0.125382406157904,1
974,397,34,0.111369457977307,1
974,398,34,0.111053396231584,1
975,393,34,0.120697964185796,1
975,394,34,0.13290089670697,1
975,397,34,0.11347309339232,1
1003,363,34,0.106551390238903,1
1004,362,34,0.140500020032711,1
1004,363,34,0.162769467846428,1
1004,364,34,0.111628689733106,1
1005,362,34,0.10926854415553,1
1005,363,34,0.119941026643862,1
962,382,35,0.106393760912585,1
962,383,35,0.120664769671564,1
962,384,35,0.122349580888026,1
963,369,35,0.115603487422804,1
963,370,35,0.126759554643837,1
963,371,35,0.110695874805283,1
963,380,35,0.106899040312685,1
963,381,35,0.126771121415093,1
963,382,35,0.124466489647104,1
963,383,35,0.117696437238141,1
963,384,35,0.12410023458349,1
964,379,35,0.107880921997264,1
964,380,35,0.163925866120278,1
964,381,35,0.167828229275224,1
964,382,35,0.122576566225599,1
964,384,35,0.115739611700923,1
965,368,35,0.114826628710703,1
965,380,35,0.138763264309267,1
965,381,35,0.123518393642501,1
966,367,35,0.113123892902718,1
966,385,35,0.107981576330741,1
967,386,35,0.107895388826887,1
969,390,35,0.106320724058019,1
970,392,35,0.10575210069074,1
970,393,35,0.117932825457266,1
971,394,35,0.106439659913278,1
972,392,35,0.112139367703397,1
972,393,35,0.134855937592886,1
972,394,35,0.128527485994726,1
973,391,35,0.10907528872758,1
973,392,35,0.143852822127106,1
973,393,35,0.21045821725292,1
973,394,35,0.202693154818233,1
973,395,35,0.117252560996928,1
974,392,35,0.129767227484415,1
974,393,35,0.201126097125542,1
974,394,35,0.204291644681993,1
974,395,35,0.121488051625679,1
974,397,35,0.114603870765904,1
975,393,35,0.124644363611638,1
975,394,35,0.135499103614267,1
976,394,35,0.108724939368703,1
988,349,35,0.11755368744206,1
989,349,35,0.122089679887988,1
990,348,35,0.107519429721815,1
991,347,35,0.10849378240871,1
1004,362,35,0.110051782996039,1
1004,363,35,0.116146590276452,1
962,382,36,0.105089760821925,1
962,383,36,0.123749082131527,1
963,381,36,0.11307495999481,1
963,382,36,0.116030677174337,1
963,383,36,0.116181145587302,1
964,369,36,0.114601740338411,1
964,370,36,0.106517805332199,1
964,380,36,0.141437028891095,1
964,381,36,0.144288923981082,1
964,382,36,0.117495764353214,1
964,384,36,0.113632551986223,1
965,380,36,0.117612904403101,1
965,381,36,0.107329777058682,1
967,386,36,0.113220565232976,1
970,390,36,0.107224081085275,1
971,393,36,0.106612916092567,1
971,394,36,0.113991768831261,1
972,391,36,0.11294940977566,1
972,392,36,0.123723160071354,1
972,393,36,0.141646569262183,1
972,394,36,0.132074792772983,1
973,390,36,0.11313503581929,1
973,391,36,0.139021648355698,1
973,392,36,0.166402214805806,1
973,393,36,0.22262253438153,1
973,394,36,0.201890686359937,1
973,395,36,0.111917178616201,1
974,390,36,0.104260734521429,1
974,391,36,0.124570155579654,1
974,392,36,0.147449507976097,1
974,393,36,0.197937036788177,1
974,394,36,0.184608156606007,1
974,395,36,0.107486971376245,1
975,393,36,0.117410067628469,1
975,394,36,0.121706169477091,1
976,394,36,0.10703213068359,1
980,383,36,0.106256476611119,1
980,384,36,0.114617512194299,1
981,384,36,0.114377576980711,1
988,350,36,0.124002502616522,1
989,349,36,0.127443076092802,1
990,348,36,0.106397397139614,1
991,348,36,0.104215861695235,1
995,379,36,0.118585539363117,1
996,379,36,0.114824107890738,1
963,381,37,0.109435442514552,1
963,382,37,0.116464760141526,1
963,383,37,0.12045945669325,1
964,380,37,0.114954688595748,1
964,381,37,0.119286963095463,1
964,382,37,0.113212233142206,1
964,383,37,0.109711594995517,1
964,384,37,0.119908032902902,1
967,386,37,0.116019891188025,1
968,388,37,0.10668050976066,1
971,392,37,0.103855451364638,1
971,393,37,0.112038300669307,1
972,390,37,0.114422561347612,1
972,391,37,0.121489334343803,1
972,392,37,0.127443332636427,1
972,393,37,0.136749196081513,1
972,394,37,0.126769894467322,1
973,389,37,0.109226013684171,1
973,390,37,0.130947450853157,1
973,391,37,0.158518885760098,1
973,392,37,0.17391578640972,1
973,393,37,0.198441825409169,1
973,394,37,0.169840457081322,1
974,390,37,0.120405760997177,1
974,391,37,0.147531178081341,1
974,392,37,0.156308059726211,1
974,393,37,0.168428351737996,1
974,394,37,0.142635913020022,1
975,391,37,0.109162758949558,1
975,392,37,0.106583201648375,1
975,393,37,0.104544326767512,1
980,383,37,0.112296785102373,1
982,382,37,0.103956551860941,1
983,384,37,0.103559723489696,1
983,388,37,0.103932659841625,1
987,382,37,0.118452783614331,1
987,383,37,0.104708760076922,1
993,383,37,0.11095799546538,1
993,384,37,0.108930899283115,1
995,378,37,0.103316486671198,1
995,379,37,0.152665653341657,1
995,380,37,0.120606210800692,1
996,378,37,0.115143504703582,1
996,379,37,0.144083220610295,1
971,389,38,0.154775311954817,1
972,389,38,0.160226897443496,1
972,390,38,0.126559439462442,1
972,391,38,0.113335005997767,1
972,392,38,0.11517975543317,1
972,393,38,0.114601796108764,1
973,389,38,0.124733440019788,1
973,390,38,0.131591542662402,1
973,391,38,0.147925898333234,1
973,392,38,0.15152891969435,1
973,393,38,0.143415984104468,1
973,394,38,0.11666606880848,1
974,390,38,0.119776649104806,1
974,391,38,0.142496230593367,1
974,392,38,0.137926296310474,1
974,393,38,0.120274511047929,1
975,391,38,0.104492884193709,1
987,382,38,0.124116820686536,1
987,383,38,0.105441102893089,1
995,379,38,0.143988254852846,1
995,380,38,0.109646432914824,1
996,378,38,0.113123446739893,1
996,379,38,0.133327919147444,1
971,388,39,0.161901826153369,1
971,389,39,0.175447162230425,1
972,388,39,0.181885737968037,1
972,389,39,0.185341860218793,1
972,390,39,0.12996473261328,1
972,391,39,0.107178583631125,1
972,392,39,0.10616344050789,1
973,388,39,0.130075626383607,1
973,389,39,0.132974814733117,1
973,390,39,0.129318198062565,1
973,391,39,0.137254241246129,1
973,392,39,0.132041163249996,1
973,393,39,0.103359017142557,1
974,390,39,0.122715367480673,1
974,391,39,0.137457189561467,1
974,392,39,0.121934883695613,1
975,390,39,0.105192523274753,1
975,391,39,0.105512857029532,1
987,382,39,0.115574676458335,1
994,374,39,0.108778266980444,1
995,379,39,0.106797348650639,1
971,388,40,0.15250509049476,1
971,389,40,0.169929399640625,1
972,387,40,0.112539676144682,1
972,388,40,0.175940183306889,1
972,389,40,0.183165767960887,1
972,390,40,0.12920316613203,1
973,388,40,0.126567381160739,1
973,389,40,0.131092688006992,1
973,390,40,0.123607001579684,1
973,391,40,0.122624829889269,1
973,392,40,0.11279609707468,1
974,390,40,0.112771011569805,1
974,391,40,0.12128248210374,1
974,392,40,0.104258849483491,1
971,389,41,0.144365418597548,1
971,390,41,0.123520323296722,1
972,388,41,0.145510205483859,1
972,389,41,0.159856147289414,1
972,390,41,0.131844215824664,1
972,391,41,0.104541426709145,1
973,389,41,0.1258433481272,1
973,390,41,0.125524397477181,1
973,391,41,0.117378579687045,1
974,390,41,0.104718742970147,1
974,391,41,0.114322185865901,1
972,389,42,0.127100021496125,1
972,390,42,0.127459472576647,1
973,390,42,0.119251035833924,1
973,391,42,0.108460253272359,1
