x,y,z,signal,mito.p
783,530,32,0.158761854880901,1
783,531,32,0.160022577177469,1
784,526,32,0.172201260749066,1
782,530,33,0.155875605253335,1
782,531,33,0.162787325513527,1
783,526,33,0.205539874419442,1
783,529,33,0.195359197213874,1
783,530,33,0.207303957615959,1
783,531,33,0.209353562712781,1
783,532,33,0.201489340590082,1
784,525,33,0.18566493787495,1
784,526,33,0.23261189696744,1
784,527,33,0.217675815592338,1
784,529,33,0.199075287389092,1
784,530,33,0.209104581547901,1
784,531,33,0.195819570325568,1
785,525,33,0.185465213086027,1
785,526,33,0.210969207537189,1
781,531,34,0.147247920457378,1
782,529,34,0.157876065514906,1
782,530,34,0.195092860315075,1
782,531,34,0.21186621789825,1
782,532,34,0.187347339812153,1
783,526,34,0.21379129895042,1
783,527,34,0.194686049050606,1
783,528,34,0.17526649974823,1
783,529,34,0.223837257290769,1
783,530,34,0.281235792502519,2
783,531,34,0.276493393979354,1
783,532,34,0.221077584056853,1
784,524,34,0.16536846669274,1
784,525,34,0.248878525121332,1
784,526,34,0.308466537475759,3
784,527,34,0.250615548542471,1
784,528,34,0.188528533585041,1
784,529,34,0.22518607443727,1
784,530,34,0.266933128491057,1
784,531,34,0.242299408093626,1
784,532,34,0.188065773502229,1
785,524,34,0.185013941695977,1
785,525,34,0.272140027132054,1
785,526,34,0.289674159257464,3
785,527,34,0.20778893660749,1
785,529,34,0.152453157141849,1
785,530,34,0.156679936441428,1
785,531,34,0.139079303746849,1
786,525,34,0.17489648576281,1
786,526,34,0.167777612102648,1
781,530,35,0.137805497725417,1
781,531,35,0.166413413492731,1
781,532,35,0.164151323350172,1
782,526,35,0.170480678428054,1
782,529,35,0.168672335879228,1
782,530,35,0.229854209158099,2
782,531,35,0.253579385885425,1
782,532,35,0.214680769159726,1
782,533,35,0.171997687805772,1
783,525,35,0.197730619556869,1
783,526,35,0.228688921089947,3
783,527,35,0.200902681090575,1
783,528,35,0.177954552694551,1
783,529,35,0.237708169535806,2
783,530,35,0.332892055990579,2
783,531,35,0.311467116327409,2
783,532,35,0.220367627460465,1
783,533,35,0.171796713760938,1
784,524,35,0.185041458788252,1
784,525,35,0.294965360364376,3
784,526,35,0.349905359941413,3
784,527,35,0.260129680794591,3
784,528,35,0.187749287901822,1
784,529,35,0.226035702306242,1
784,530,35,0.29561881043889,2
784,531,35,0.2594009184351,1
784,532,35,0.186054817260184,1
785,524,35,0.216524447804348,1
785,525,35,0.332069978676094,3
785,526,35,0.33735776663739,3
785,527,35,0.219842783820458,3
785,528,35,0.156713164417872,1
785,529,35,0.152861964984963,1
785,530,35,0.161827986205716,1
785,531,35,0.140720078692415,1
786,524,35,0.168475600381237,1
786,525,35,0.204436246053801,1
786,526,35,0.187069235368826,3
786,527,35,0.137447284746737,1
781,530,36,0.131335032499839,1
781,531,36,0.167736107805788,1
781,532,36,0.184583115717415,1
782,525,36,0.171041382405176,1
782,526,36,0.153280119939275,1
782,529,36,0.172837087391965,1
782,530,36,0.237840345272918,1
782,531,36,0.257641564564535,1
782,532,36,0.219813381690245,1
782,533,36,0.184297370735698,1
783,524,36,0.174253799366467,1
783,525,36,0.218595022553977,3
783,526,36,0.237932388663859,3
783,527,36,0.197771131141442,1
783,528,36,0.170671368419756,1
783,529,36,0.228552863736251,1
783,530,36,0.330165577270895,2
783,531,36,0.29536704075635,1
783,532,36,0.197641967003404,1
784,524,36,0.198858273790673,3
784,525,36,0.314793170960404,3
784,526,36,0.345024673250424,3
784,527,36,0.244700031793563,3
784,528,36,0.174910339118548,1
784,529,36,0.204811513606494,1
784,530,36,0.279627286283322,1
784,531,36,0.238217999796728,1
784,532,36,0.165047385615229,1
785,523,36,0.180514110747072,1
785,524,36,0.22999002112224,3
785,525,36,0.338234855828283,3
785,526,36,0.327420025090413,3
785,527,36,0.210298446345039,3
785,528,36,0.151215111070897,1
785,530,36,0.154169065907262,1
785,531,36,0.131331496659445,1
786,524,36,0.204841741137935,1
786,525,36,0.229359280735555,3
786,526,36,0.198243751422702,3
786,527,36,0.141145439176362,1
787,525,36,0.156689774331735,1
789,526,36,0.127437465595269,1
789,527,36,0.119093796900079,1
790,525,36,0.182384213385045,1
790,527,36,0.189210649621105,1
790,528,36,0.129899247064539,1
791,528,36,0.139155162581288,1
792,525,36,0.15846075074391,1
792,527,36,0.160168182415634,1
801,550,36,0.211261890350845,1
802,550,36,0.17755638583483,1
803,550,36,0.17912013076854,1
804,549,36,0.257152101636606,1
806,533,36,0.171212073148217,1
781,530,37,0.12924606468772,1
781,531,37,0.159836226119246,1
781,533,37,0.217760251907101,1
781,534,37,0.195436361074578,1
782,525,37,0.152577658878359,1
782,526,37,0.145513317469568,1
782,529,37,0.172051974667589,1
782,530,37,0.222006896606494,1
782,531,37,0.232561101329735,1
782,532,37,0.20889671428741,1
782,533,37,0.194694816150131,1
782,534,37,0.176560650794513,1
782,535,37,0.15805150789204,1
782,536,37,0.142247874056444,1
782,537,37,0.138339588089987,1
782,538,37,0.133242590507029,1
782,539,37,0.112940308054015,1
782,540,37,0.110582817145252,1
782,541,37,0.116150984980285,1
783,524,37,0.191448602354794,1
783,525,37,0.237517301078973,1
783,526,37,0.243353557001896,1
783,527,37,0.199166996157913,1
783,529,37,0.205622459158478,1
783,530,37,0.27407893923182,1
783,531,37,0.23948035058761,1
783,532,37,0.16592618137893,1
783,535,37,0.152956149957467,1
783,536,37,0.146449657083714,1
783,537,37,0.125333227860441,1
783,538,37,0.103502246563676,1
784,523,37,0.155503126218303,1
784,524,37,0.213677995900834,1
784,525,37,0.307014723640946,3
784,526,37,0.308131290728531,3
784,527,37,0.222568258673785,1
784,528,37,0.161350948912483,1
784,529,37,0.176584498197547,1
784,530,37,0.223698768349673,1
784,531,37,0.1876113789724,1
784,535,37,0.123517267081366,1
784,536,37,0.111489442315207,1
784,543,37,0.125986778321591,1
785,523,37,0.184681003841373,1
785,524,37,0.234687223351163,1
785,525,37,0.302493666495608,3
785,526,37,0.282192231751963,3
785,527,37,0.19789453977903,1
785,528,37,0.141786709005734,1
785,529,37,0.126804829016574,1
785,530,37,0.132430016460731,1
785,531,37,0.112200648167507,1
785,543,37,0.106791358914704,1
786,523,37,0.209857146694143,1
786,524,37,0.24596508186954,1
786,525,37,0.246934682922342,1
786,526,37,0.205636357130498,1
786,527,37,0.153672899382877,1
786,528,37,0.116342812687193,1
787,524,37,0.212118612208746,1
787,525,37,0.182640623160973,1
787,526,37,0.131269156558625,1
788,525,37,0.154671869103679,1
788,526,37,0.10458180444487,1
789,524,37,0.202641176849039,1
789,525,37,0.168766442773237,1
789,526,37,0.12976053504203,1
789,527,37,0.122492397608532,1
789,528,37,0.104723751147865,1
790,523,37,0.227252187558643,1
790,524,37,0.211197531363239,1
790,525,37,0.177083497855875,1
790,526,37,0.186561892465657,1
790,527,37,0.213260030565723,1
790,528,37,0.141933463113176,1
791,523,37,0.165901798580506,1
791,524,37,0.157701314690152,1
791,525,37,0.16681380001251,1
791,527,37,0.237670290311904,1
791,528,37,0.146429200518156,1
792,523,37,0.115485745053103,1
792,524,37,0.111095335537199,1
792,525,37,0.133173234495775,1
792,526,37,0.147130601942361,1
792,527,37,0.140579236242413,1
800,549,37,0.106073092535687,1
801,549,37,0.10824409853738,1
801,550,37,0.191681142419546,1
802,549,37,0.105665857416533,1
802,550,37,0.147972756584003,1
802,551,37,0.165885636332145,1
803,549,37,0.150205522674843,1
803,550,37,0.156417860397615,1
803,551,37,0.141487857991013,1
804,548,37,0.12831572596358,1
804,549,37,0.236180931875309,1
804,550,37,0.243412093564628,1
804,551,37,0.167433018244223,1
805,532,37,0.110354080618589,1
805,533,37,0.118627010197765,1
805,548,37,0.122028109418042,1
805,549,37,0.220564162185184,1
806,532,37,0.134882015810047,1
806,533,37,0.146404193091775,1
806,534,37,0.131682169486371,1
806,535,37,0.11084617590719,1
806,548,37,0.10838178438539,1
806,549,37,0.155489217092212,1
806,550,37,0.18290590042306,1
807,533,37,0.16255870052757,1
807,534,37,0.141021417064889,1
807,535,37,0.133515664464496,1
807,536,37,0.129345938236252,1
807,548,37,0.11532231561005,1
807,549,37,0.143770248542141,1
808,536,37,0.132145342269796,1
808,546,37,0.103866906595188,1
808,547,37,0.127661729339605,1
808,548,37,0.130365743761015,1
809,546,37,0.133477974859796,1
809,547,37,0.158243837532127,1
810,541,37,0.105627342410605,1
810,545,37,0.107418953853468,1
780,533,38,0.151215267227886,1
780,534,38,0.161903008484857,1
781,529,38,0.11554559779617,1
781,530,38,0.124361496380147,1
781,531,38,0.13904235031081,1
781,532,38,0.178741684305714,1
781,533,38,0.238610645391482,1
781,534,38,0.241845928197589,1
781,535,38,0.170408466974715,1
781,536,38,0.114273531809759,1
781,537,38,0.12481768671535,1
781,538,38,0.166961781067723,1
781,539,38,0.162789221705536,1
781,540,38,0.146896834929838,1
782,529,38,0.157512822050366,1
782,530,38,0.186302593785434,1
782,531,38,0.187322198536925,1
782,532,38,0.179984437394477,1
782,533,38,0.189831083646517,1
782,534,38,0.1838445600839,1
782,535,38,0.15670843509192,1
782,536,38,0.130187100165607,1
782,537,38,0.126329721377562,1
782,538,38,0.131334932113203,1
782,539,38,0.113206879188298,1
782,540,38,0.106899062620826,1
782,541,38,0.109191224137837,1
782,542,38,0.123704075456485,1
783,524,38,0.199597164046308,1
783,525,38,0.237093803324823,1
783,526,38,0.229527551045266,1
783,527,38,0.187214004051694,1
783,528,38,0.155164165165552,1
783,529,38,0.173842113773127,1
783,530,38,0.202155394764422,1
783,531,38,0.175874463522664,1
783,532,38,0.133363065624038,1
783,533,38,0.115581480441426,1
783,534,38,0.11596181194219,1
783,535,38,0.125009536730399,1
783,536,38,0.121012531286053,1
783,537,38,0.105488306920048,1
783,543,38,0.130128753222076,1
784,523,38,0.163622821174995,1
784,524,38,0.227070420823454,1
784,525,38,0.28427320209543,1
784,526,38,0.260340515037873,1
784,527,38,0.192876903408693,1
784,528,38,0.144225658092399,1
784,529,38,0.149441156521861,1
784,530,38,0.162715270217177,1
784,531,38,0.133657867711116,1
784,544,38,0.131904079721801,1
785,523,38,0.191965950459329,1
785,524,38,0.237230953777442,1
785,525,38,0.259274966669406,1
785,526,38,0.228151004879147,1
785,527,38,0.176168462516656,1
785,528,38,0.123071862732474,1
785,529,38,0.106600044295045,1
785,530,38,0.103284552566949,1
785,544,38,0.103656473898449,1
786,522,38,0.162756384121565,1
786,523,38,0.234727021075215,1
786,524,38,0.270316001959904,1
786,525,38,0.243542172336459,1
786,526,38,0.191275446562141,1
786,527,38,0.15506932210288,1
786,528,38,0.10517059437187,1
787,523,38,0.195268068456725,1
787,524,38,0.224282973953639,1
787,525,38,0.191664790551985,1
787,526,38,0.129867714506833,1
788,523,38,0.162021408944726,1
788,524,38,0.180421052335703,1
788,525,38,0.155946935535093,1
789,523,38,0.201539489291691,1
789,524,38,0.216305917252322,1
789,525,38,0.175847035662955,1
789,526,38,0.121106493177144,1
789,527,38,0.109556308024033,1
790,522,38,0.191407220752711,1
790,523,38,0.225714866618285,1
790,524,38,0.218031965067949,1
790,525,38,0.172232681766066,1
790,526,38,0.163759135072315,1
790,527,38,0.194675341142789,1
790,528,38,0.131302986854883,1
791,522,38,0.188718108169679,1
791,523,38,0.165301899199147,1
791,524,38,0.142919650269023,1
791,525,38,0.132203979219163,1
791,526,38,0.164769626948092,1
791,527,38,0.207160605500063,1
791,528,38,0.1317366794296,1
792,522,38,0.166651876368995,1
792,523,38,0.114674665652271,1
792,526,38,0.106598828501345,1
792,527,38,0.111497004775102,1
800,550,38,0.133342475209632,1
801,550,38,0.146654390050355,1
801,551,38,0.169420517475707,1
802,550,38,0.115167129025203,1
802,551,38,0.131139133557146,1
803,549,38,0.121141003871712,1
803,550,38,0.12426187937524,1
803,551,38,0.115987232069185,1
804,548,38,0.105876892433087,1
804,549,38,0.179751696556453,1
804,550,38,0.182204911699469,1
804,551,38,0.137613301934178,1
804,552,38,0.151595509496085,1
805,533,38,0.106856911387869,1
805,549,38,0.165109881873038,1
805,550,38,0.181763690127068,1
805,551,38,0.149306716508408,1
806,532,38,0.125525468267963,1
806,533,38,0.13720668028891,1
806,534,38,0.117953594336802,1
806,535,38,0.105284377046493,1
806,549,38,0.126792961085411,1
806,550,38,0.15346651561378,1
806,551,38,0.160194394481644,1
807,531,38,0.109134985313658,1
807,532,38,0.140014427567295,1
807,533,38,0.136845924182123,1
807,534,38,0.113871985266633,1
807,535,38,0.120650492461142,1
807,536,38,0.127286573327619,1
807,549,38,0.125491347965868,1
807,550,38,0.162939165877182,1
808,533,38,0.12256372789029,1
808,536,38,0.110470562578307,1
808,548,38,0.11718714237261,1
808,549,38,0.145496363282191,1
809,546,38,0.112962393113887,1
809,547,38,0.138311970611076,1
809,548,38,0.138918729745881,1
810,536,38,0.142047691950625,1
810,545,38,0.112549781732684,1
810,546,38,0.144217426388265,1
810,547,38,0.141202057238943,1
811,538,38,0.106564830894027,1
811,543,38,0.109829370827429,1
811,545,38,0.155756502087016,1
780,533,39,0.149433281747987,1
780,534,39,0.180134303487628,1
780,535,39,0.131783080363473,1
780,538,39,0.15582845699673,1
781,529,39,0.122313151693308,1
781,530,39,0.117000032837584,1
781,532,39,0.15326596542363,1
781,533,39,0.239812184189221,1
781,534,39,0.275721331517629,1
781,535,39,0.18803211051703,1
781,536,39,0.112949142077964,1
781,537,39,0.116778289913213,1
781,538,39,0.169053548551573,1
781,539,39,0.174390403269624,1
782,527,39,0.121078306840631,1
782,528,39,0.120386319452048,1
782,529,39,0.133945676195902,1
782,530,39,0.141228659697425,1
782,531,39,0.137603296732812,1
782,532,39,0.149842959608612,1
782,533,39,0.184354769583224,1
782,534,39,0.19438955154479,1
782,535,39,0.153662637637886,1
782,536,39,0.11537335663731,1
782,537,39,0.106125427435141,1
782,538,39,0.115689764159223,1
782,539,39,0.109634364210389,1
782,540,39,0.103259165902167,1
782,541,39,0.105711399486966,1
782,542,39,0.116035506886925,1
783,524,39,0.190449643788062,1
783,525,39,0.208700581109234,1
783,526,39,0.193783483962365,1
783,527,39,0.159319603029303,1
783,528,39,0.134895891473927,1
783,529,39,0.136252672626867,1
783,530,39,0.135473493868072,1
783,531,39,0.120234902943077,1
783,532,39,0.107410432143497,1
783,533,39,0.103412311292087,1
783,543,39,0.114624862726853,1
784,523,39,0.18957536542297,1
784,524,39,0.240973077553539,1
784,525,39,0.249959733804981,1
784,526,39,0.208317104160549,1
784,527,39,0.15800497310932,1
784,528,39,0.127688086408533,1
784,529,39,0.125047694806067,1
784,530,39,0.112855637503769,1
784,544,39,0.111626737770744,1
784,545,39,0.149917457646432,1
785,523,39,0.211252186309387,1
785,524,39,0.252665064406727,1
785,525,39,0.231229974539272,1
785,526,39,0.183910335638478,1
785,527,39,0.147123876037764,1
785,528,39,0.10666141399172,1
785,545,39,0.117567295408244,1
786,522,39,0.166806895642783,1
786,523,39,0.234932813678567,1
786,524,39,0.262455728378213,1
786,525,39,0.216234375043222,1
786,526,39,0.160823997153124,1
786,527,39,0.137328549664749,1
787,523,39,0.198333854005351,1
787,524,39,0.215640532322221,1
787,525,39,0.177039595433827,1
787,526,39,0.118121340405193,1
788,522,39,0.164702680216096,1
788,523,39,0.172592188616941,1
788,524,39,0.182818363276659,1
788,525,39,0.151770862640654,1
789,522,39,0.17162139407858,1
789,523,39,0.193255450258154,1
789,524,39,0.212264931307433,1
789,525,39,0.170655964648199,1
789,526,39,0.111292639892792,1
790,521,39,0.195780664927167,1
790,522,39,0.192737544450087,1
790,523,39,0.200637058052298,1
790,524,39,0.206634490296003,1
790,525,39,0.163521586829844,1
790,526,39,0.134653401978161,1
790,527,39,0.147621213739566,1
790,528,39,0.105133919787598,1
791,521,39,0.232175058944802,1
791,522,39,0.204855081406423,1
791,523,39,0.157633787946483,1
791,524,39,0.131121052808635,1
791,525,39,0.109815695936822,1
791,526,39,0.11959770434949,1
791,527,39,0.149583013992291,1
792,520,39,0.164916068741556,1
792,521,39,0.192672538526383,1
792,522,39,0.166267574019082,1
792,523,39,0.111123544181854,1
793,520,39,0.139179233065734,1
793,521,39,0.120388416417329,1
794,520,39,0.120414327323431,1
797,520,39,0.108809676843373,1
800,551,39,0.11628024950496,1
801,522,39,0.125323468048629,1
801,551,39,0.121715683899349,1
802,522,39,0.124284477522361,1
802,523,39,0.105655406052341,1
802,552,39,0.127356174728427,1
803,523,39,0.109780962160842,1
803,552,39,0.130359084780842,1
804,549,39,0.119633508916252,1
804,550,39,0.120945618016269,1
804,551,39,0.108111766643279,1
804,552,39,0.132629005080991,1
805,549,39,0.116324854633459,1
805,550,39,0.123123952242374,1
805,551,39,0.114912135816247,1
805,552,39,0.122746420413341,1
806,532,39,0.154526118862595,1
806,533,39,0.146379163357254,1
806,534,39,0.106535852618498,1
806,550,39,0.124055517914285,1
806,551,39,0.136524374633645,1
806,552,39,0.137461584265301,1
807,531,39,0.105808930680663,1
807,532,39,0.152040300371091,1
807,533,39,0.135733171786697,1
807,534,39,0.104180960608195,1
807,535,39,0.108407594904856,1
807,536,39,0.110450976030259,1
807,549,39,0.108850389201218,1
807,550,39,0.150670524725853,1
808,532,39,0.111282143912318,1
808,548,39,0.103987705180245,1
808,549,39,0.137819284156731,1
809,547,39,0.111486151864367,1
809,548,39,0.132805763638461,1
809,549,39,0.166430735764439,1
810,536,39,0.106724356412355,1
810,545,39,0.111706946692733,1
810,546,39,0.138201456079151,1
810,547,39,0.130556266441658,1
810,548,39,0.124738983592897,1
811,535,39,0.141076272784309,1
811,536,39,0.162939913199915,1
811,537,39,0.139813364289895,1
811,538,39,0.109747957265811,1
811,543,39,0.113120067056488,1
811,544,39,0.146936331493982,1
811,545,39,0.163850442294594,1
811,546,39,0.162177945172121,1
812,538,39,0.119073529953721,1
812,539,39,0.119741391087505,1
812,540,39,0.108503932612995,1
812,543,39,0.135386570195556,1
812,545,39,0.174213455092953,1
779,538,40,0.106756000510767,1
780,534,40,0.173530825969639,1
780,535,40,0.13266978436326,1
780,538,40,0.152293475466532,1
780,543,40,0.180225543785483,1
781,533,40,0.218091929351723,1
781,534,40,0.274809753940309,1
781,535,40,0.194863844936645,1
781,536,40,0.117949801952783,1
781,537,40,0.107499441627224,1
781,538,40,0.149411352845104,1
781,539,40,0.164306030309982,1
781,542,40,0.132389226024392,1
782,526,40,0.120635144459938,1
782,527,40,0.108805137136622,1
782,528,40,0.105640124975561,1
782,529,40,0.108336755402206,1
782,532,40,0.120044201797304,1
782,533,40,0.170251596125201,1
782,534,40,0.19664680082069,1
782,535,40,0.151735325771587,1
782,536,40,0.106053126749237,1
782,542,40,0.10704271589663,1
782,543,40,0.141651443591054,1
783,524,40,0.165749188585977,1
783,525,40,0.168807701680544,1
783,526,40,0.150599149827812,1
783,527,40,0.125326501955844,1
783,528,40,0.110269867385239,1
783,544,40,0.127642310102617,1
784,523,40,0.209175789134882,1
784,524,40,0.237911575168041,1
784,525,40,0.209113571728839,1
784,526,40,0.161213017674919,1
784,527,40,0.12543930307225,1
784,528,40,0.109610371804437,1
784,545,40,0.13412918296611,1
785,522,40,0.142637162275934,1
785,523,40,0.218264348975713,1
785,524,40,0.256146852174031,1
785,525,40,0.206916777515821,1
785,526,40,0.148610267491568,1
785,527,40,0.115139678857352,1
785,545,40,0.104426874403648,1
786,522,40,0.159779418437465,1
786,523,40,0.204020154602558,1
786,524,40,0.22295086560496,1
786,525,40,0.173700390151545,1
786,526,40,0.12398232490273,1
786,546,40,0.110414223367492,1
787,522,40,0.182936997972011,1
787,523,40,0.185819622526618,1
787,524,40,0.183307926591224,1
787,525,40,0.141639408348831,1
788,521,40,0.142124253491514,1
788,522,40,0.185598247686579,1
788,523,40,0.178479507875265,1
788,524,40,0.171879789279082,1
788,525,40,0.131858548805439,1
789,521,40,0.155550932565077,1
789,522,40,0.175888004564424,1
789,523,40,0.175814610779597,1
789,524,40,0.181316255737319,1
789,525,40,0.141935593540669,1
790,520,40,0.160730347576011,1
790,521,40,0.21322837531324,1
790,522,40,0.203330855344999,1
790,523,40,0.17525434181123,1
790,524,40,0.167857464094377,1
790,525,40,0.13323791695143,1
791,520,40,0.181383024004185,1
791,521,40,0.258496033300166,1
791,522,40,0.221308027156325,1
791,523,40,0.148102701506986,1
791,524,40,0.110842060055123,1
792,519,40,0.137418674555539,1
792,520,40,0.153998475550857,1
792,521,40,0.184236235274507,1
792,522,40,0.151585939303474,1
793,519,40,0.156541469808474,1
793,520,40,0.128325720010876,1
793,521,40,0.104812816401945,1
794,519,40,0.15334392122335,1
794,520,40,0.106731483863495,1
795,519,40,0.124749892273986,1
796,519,40,0.116294035936274,1
796,520,40,0.116447538256455,1
797,519,40,0.118247916798842,1
797,520,40,0.126023519830287,1
798,519,40,0.10789352609709,1
798,520,40,0.107741094567691,1
799,519,40,0.103141981235998,1
800,521,40,0.103460151101072,1
801,521,40,0.139691751457681,1
801,522,40,0.154730171430927,1
802,521,40,0.129261624616267,1
802,522,40,0.153939068970616,1
802,523,40,0.112647201385675,1
803,522,40,0.120847038339932,1
803,523,40,0.120529236559189,1
804,523,40,0.125515964999776,1
804,524,40,0.111142327636816,1
804,552,40,0.105629651303228,1
805,552,40,0.105157867577267,1
805,553,40,0.142187095525513,1
806,532,40,0.156421507778715,1
806,533,40,0.129565260727294,1
806,551,40,0.112989084804934,1
806,552,40,0.125146162941698,1
807,532,40,0.143858588781628,1
807,533,40,0.118573381426117,1
807,550,40,0.127237060408037,1
807,551,40,0.16112588207506,1
808,549,40,0.12026046807299,1
808,550,40,0.159390877540708,1
809,530,40,0.104397371886798,1
809,531,40,0.106225691376146,1
809,548,40,0.115366195723958,1
809,549,40,0.151038999449524,1
810,531,40,0.130328254929586,1
810,532,40,0.104961466701396,1
810,546,40,0.12038427825712,1
810,547,40,0.114672702535838,1
810,548,40,0.118397191726249,1
811,532,40,0.11861093718197,1
811,533,40,0.111480530212763,1
811,535,40,0.10434531583911,1
811,536,40,0.120357028862541,1
811,537,40,0.113924175163168,1
811,538,40,0.104996334326224,1
811,539,40,0.107761763060591,1
811,543,40,0.106478866471586,1
811,544,40,0.135962566403529,1
811,545,40,0.152738745966577,1
811,546,40,0.153944634851866,1
811,547,40,0.126192325535389,1
812,536,40,0.123663073092803,1
812,537,40,0.122406667421574,1
812,538,40,0.132068446106788,1
812,539,40,0.149076987269458,1
812,540,40,0.124333321197704,1
812,543,40,0.129048503788502,1
812,544,40,0.161106128215953,1
812,545,40,0.153737459143755,1
813,539,40,0.116261555282563,1
813,540,40,0.110879604656905,1
780,535,41,0.125719114088385,1
780,538,41,0.129063383318739,1
780,539,41,0.165250679706757,1
780,542,41,0.142799286692721,1
780,543,41,0.15371828529632,1
781,532,41,0.103665821009647,1
781,534,41,0.237125993972697,1
781,535,41,0.19427218841349,1
781,536,41,0.129360639301359,1
781,538,41,0.118311818469553,1
781,539,41,0.135754766067461,1
781,540,41,0.121173662990553,1
781,541,41,0.111316197289989,1
781,542,41,0.119227277663456,1
781,543,41,0.155775095922777,1
781,544,41,0.160642587348196,1
781,545,41,0.154702018556626,1
782,533,41,0.150558738629875,1
782,534,41,0.186508743319046,1
782,535,41,0.156014785746811,1
782,536,41,0.107694727096031,1
782,543,41,0.125198040524256,1
782,544,41,0.132668457028854,1
783,524,41,0.137165666771158,1
783,526,41,0.11444493641332,1
783,544,41,0.105426279133206,1
783,545,41,0.133715534256337,1
784,523,41,0.199393758414073,1
784,524,41,0.208480466679177,1
784,525,41,0.170555801093831,1
784,526,41,0.126670221692062,1
784,545,41,0.124367129185822,1
785,522,41,0.139975321395622,1
785,523,41,0.199557656328092,1
785,524,41,0.22916316986552,1
785,525,41,0.182258741244389,1
785,526,41,0.12535108552754,1
786,521,41,0.109139101165725,1
786,522,41,0.146685119514975,1
786,523,41,0.163395523523444,1
786,524,41,0.173092638304453,1
786,525,41,0.137456129924756,1
787,521,41,0.128200928268529,1
787,522,41,0.179997008032091,1
787,523,41,0.160731128360956,1
787,524,41,0.141103689489948,1
787,525,41,0.106868723548679,1
788,521,41,0.136180539252022,1
788,522,41,0.185454226326444,1
788,523,41,0.166884338355253,1
788,524,41,0.143178435861997,1
788,525,41,0.103704916027248,1
789,520,41,0.115895088291608,1
789,521,41,0.147996637449248,1
789,522,41,0.169428336479227,1
789,523,41,0.151033879731099,1
789,524,41,0.136697508118156,1
789,525,41,0.104057808514232,1
790,519,41,0.106796802101177,1
790,520,41,0.142315133102417,1
790,521,41,0.212337365842185,1
790,522,41,0.206083724595823,1
790,523,41,0.14590489227354,1
790,524,41,0.117922775639617,1
791,519,41,0.110573648499184,1
791,520,41,0.162787715905999,1
791,521,41,0.247567988745275,1
791,522,41,0.21487130299444,1
791,523,41,0.125337388328791,1
792,518,41,0.114567776193305,1
792,519,41,0.123327625572304,1
792,520,41,0.139439714077445,1
792,521,41,0.160802625953773,1
792,522,41,0.127751207294298,1
793,518,41,0.14012756330582,1
793,519,41,0.13766836958094,1
793,520,41,0.115687622577659,1
794,518,41,0.151463066061277,1
794,519,41,0.125967861017781,1
795,518,41,0.136773645804361,1
795,519,41,0.116632952372743,1
796,518,41,0.116611101548355,1
796,519,41,0.12919951875093,1
796,520,41,0.131073190691509,1
797,519,41,0.121888281988469,1
797,520,41,0.130425328806387,1
798,518,41,0.104155897411461,1
798,519,41,0.104039103137765,1
798,520,41,0.1061485052073,1
799,518,41,0.120037966671815,1
800,519,41,0.104786961266196,1
800,520,41,0.104268776606362,1
800,521,41,0.11267073647473,1
801,520,41,0.115106941660017,1
801,521,41,0.156282014971261,1
801,522,41,0.16004778537712,1
801,553,41,0.111241587711462,1
801,554,41,0.16170372985876,1
802,520,41,0.108351824551644,1
802,521,41,0.146762707230363,1
802,522,41,0.169870952310459,1
802,523,41,0.11358944150319,1
802,553,41,0.122416895704353,1
803,521,41,0.115854621323317,1
803,522,41,0.134474133754797,1
803,523,41,0.124729346475862,1
804,522,41,0.118531408658289,1
804,523,41,0.138979865207072,1
804,524,41,0.114777561953947,1
804,553,41,0.132570412747907,1
805,523,41,0.117216566810965,1
805,524,41,0.122992468057642,1
805,553,41,0.135764570495556,1
805,554,41,0.16557074576384,1
806,525,41,0.107711447047924,1
806,532,41,0.131406998563623,1
806,533,41,0.103408563524351,1
806,552,41,0.120598559108231,1
806,553,41,0.152930986374098,1
807,526,41,0.107147965707211,1
807,532,41,0.124863440713125,1
807,550,41,0.10406280553788,1
807,551,41,0.13723394083756,1
807,552,41,0.158132832221094,1
808,550,41,0.133402629112606,1
808,551,41,0.163941749516873,1
809,530,41,0.118564636634733,1
809,531,41,0.108717109211112,1
809,549,41,0.13106557246126,1
809,550,41,0.155671184600672,1
810,530,41,0.123904815265836,1
810,531,41,0.137052029099453,1
810,548,41,0.112918535308121,1
810,549,41,0.141162348747456,1
811,531,41,0.130774540450059,1
811,532,41,0.127791941960284,1
811,533,41,0.118754612765914,1
811,544,41,0.110815245669298,1
811,545,41,0.125680621390599,1
811,546,41,0.132346171311712,1
811,547,41,0.122634690087717,1
811,548,41,0.124736920089829,1
812,532,41,0.11893720490233,1
812,533,41,0.124101628842321,1
812,536,41,0.104890972974936,1
812,537,41,0.110235892086062,1
812,538,41,0.12998070524244,1
812,539,41,0.149611679953842,1
812,540,41,0.121040494541153,1
812,543,41,0.113091412249008,1
812,544,41,0.130924629624623,1
812,545,41,0.132317494196091,1
812,546,41,0.130103098859599,1
813,536,41,0.107796742226126,1
813,537,41,0.107140314014751,1
813,538,41,0.110597830524337,1
813,539,41,0.123548353476246,1
813,540,41,0.114966467294346,1
813,543,41,0.11604514400396,1
813,544,41,0.129589621217577,1
779,539,42,0.120045105277027,1
780,535,42,0.121990497891836,1
780,539,42,0.135176684048278,1
780,540,42,0.159191877766377,1
780,542,42,0.139393123524372,1
780,543,42,0.131616260082945,1
780,544,42,0.138228593933024,1
781,533,42,0.135863139017823,1
781,534,42,0.188054039419913,1
781,535,42,0.188924436168421,1
781,536,42,0.14105946359985,1
781,539,42,0.105508785793747,1
781,540,42,0.112516263750404,1
781,541,42,0.113504190941271,1
781,542,42,0.111115903643464,1
781,543,42,0.126007179116796,1
781,544,42,0.132495881247875,1
781,545,42,0.134470754071392,1
781,546,42,0.162707440059586,1
782,533,42,0.122875974943853,1
782,534,42,0.161528298635697,1
782,535,42,0.155134885730116,1
782,536,42,0.112197792725422,1
782,543,42,0.107878010784826,1
782,544,42,0.11153463860945,1
782,545,42,0.120924614901249,1
783,524,42,0.119867175542139,1
783,525,42,0.112744621038665,1
783,545,42,0.113693085127599,1
784,523,42,0.174826583202095,1
784,524,42,0.173512633680421,1
784,525,42,0.141092501957093,1
784,545,42,0.108316689229121,1
785,522,42,0.132740568095557,1
785,523,42,0.169363509020654,1
785,524,42,0.184396920816182,1
785,525,42,0.150865531342894,1
786,522,42,0.129292777935571,1
786,523,42,0.13278229547383,1
786,524,42,0.131684467224923,1
786,525,42,0.107937785449399,1
787,521,42,0.116372582901738,1
787,522,42,0.156747652804298,1
787,523,42,0.13431479785567,1
787,524,42,0.105331469532745,1
788,521,42,0.123068605743847,1
788,522,42,0.163402439047242,1
788,523,42,0.143598620857166,1
788,524,42,0.107678631772094,1
789,521,42,0.135498490140382,1
789,522,42,0.15450675539596,1
789,523,42,0.128336115604714,1
790,520,42,0.12080203166489,1
790,521,42,0.190781365848966,1
790,522,42,0.188725380623737,1
790,523,42,0.118565149721983,1
791,520,42,0.134401643449692,1
791,521,42,0.206437174786339,1
791,522,42,0.183586109113045,1
792,519,42,0.10359885196951,1
792,520,42,0.116885346683239,1
792,521,42,0.130095536399703,1
792,522,42,0.10337712019921,1
793,518,42,0.112608853690806,1
793,519,42,0.112114917980549,1
794,518,42,0.117797515426303,1
794,519,42,0.104465233252587,1
795,518,42,0.112988170171142,1
795,519,42,0.118720191303912,1
795,520,42,0.105695438011877,1
796,518,42,0.109557758053217,1
796,519,42,0.144300803066316,1
796,520,42,0.139474046306883,1
797,519,42,0.120334308020642,1
797,520,42,0.121051235911182,1
800,520,42,0.109071920198246,1
800,521,42,0.116322735360037,1
801,520,42,0.121082322306062,1
801,521,42,0.155041269615214,1
801,522,42,0.141457641613642,1
801,554,42,0.114467612638936,1
801,555,42,0.136252393775101,1
802,520,42,0.114231045954682,1
802,521,42,0.151991222460265,1
802,522,42,0.16398632118316,1
802,523,42,0.106348062685163,1
802,554,42,0.138457665081807,1
803,521,42,0.130629983694533,1
803,522,42,0.14314046740553,1
803,523,42,0.121318308978643,1
804,522,42,0.125030272147723,1
804,523,42,0.138124905692333,1
804,524,42,0.109488089727984,1
805,523,42,0.129015208887635,1
805,524,42,0.13751382993219,1
805,553,42,0.116539436644477,1
805,554,42,0.149782292618388,1
806,523,42,0.117143083793573,1
806,524,42,0.145269355636478,1
806,525,42,0.110619960200491,1
806,552,42,0.105422029432291,1
806,553,42,0.140884534309966,1
807,524,42,0.121519784956657,1
807,525,42,0.107831598696883,1
807,551,42,0.104973892336092,1
807,552,42,0.134402290385789,1
808,550,42,0.103812586271159,1
808,551,42,0.131604849468678,1
809,527,42,0.110632631224741,1
809,530,42,0.120673960625774,1
809,550,42,0.125223226415766,1
810,530,42,0.124721951327027,1
810,531,42,0.127189945613644,1
810,549,42,0.122209251525275,1
811,531,42,0.127871202786269,1
811,532,42,0.124970954800047,1
811,533,42,0.110743603073562,1
811,546,42,0.103318550174267,1
811,547,42,0.110912832633348,1
811,548,42,0.125706097287946,1
812,532,42,0.121130072882482,1
812,533,42,0.12748348729074,1
812,538,42,0.111505225325166,1
812,539,42,0.122106120988115,1
812,545,42,0.109380029091601,1
812,546,42,0.119475935360287,1
812,547,42,0.13426791729676,1
813,536,42,0.106713135417289,1
813,537,42,0.105345021728576,1
813,538,42,0.108141157619422,1
813,539,42,0.117080855233459,1
813,540,42,0.106222690931143,1
813,543,42,0.108644485057159,1
813,544,42,0.115221393578878,1
813,545,42,0.125293385520107,1
814,538,42,0.11403376390723,1
814,539,42,0.115161585452094,1
814,540,42,0.118164975129546,1
779,539,43,0.104382949673458,1
780,536,43,0.10871324990267,1
780,539,43,0.109033806738861,1
780,540,43,0.1441871319324,1
780,541,43,0.162195724760725,1
780,542,43,0.139650369855598,1
780,543,43,0.124612585664378,1
780,544,43,0.134923408566201,1
781,535,43,0.173099832680017,1
781,536,43,0.146449880165127,1
781,540,43,0.103854547884916,1
781,541,43,0.118159208475023,1
781,542,43,0.114747825201614,1
781,543,43,0.115109674407324,1
781,544,43,0.116063771301933,1
781,545,43,0.121981585789393,1
781,546,43,0.13790329661681,1
782,534,43,0.127563584672023,1
782,535,43,0.141741345400432,1
782,536,43,0.114271010989793,1
782,545,43,0.105115035946,1
782,546,43,0.130522781921589,1
782,548,43,0.159672183202309,1
783,523,43,0.124628825991233,1
783,524,43,0.115546110883419,1
783,525,43,0.104632878934342,1
783,546,43,0.145586845103243,1
784,522,43,0.123949275391416,1
784,523,43,0.148730764916718,1
784,524,43,0.142224428199953,1
784,525,43,0.120501942548327,1
785,522,43,0.117117094808976,1
785,523,43,0.137077772694496,1
785,524,43,0.137744786118911,1
785,525,43,0.118619637357071,1
785,546,43,0.131734839007944,1
786,522,43,0.110701094910344,1
786,523,43,0.111392346130265,1
786,547,43,0.112210207206047,1
786,548,43,0.133322732504595,1
787,522,43,0.121760400568554,1
787,523,43,0.108250021348891,1
788,521,43,0.10643795334047,1
788,522,43,0.128427690524688,1
788,523,43,0.11347240183994,1
789,521,43,0.121024945766678,1
789,522,43,0.133037567534552,1
789,523,43,0.107006164007135,1
790,521,43,0.153932398836372,1
790,522,43,0.150943933305439,1
791,520,43,0.108177174113526,1
791,521,43,0.152361827611429,1
791,522,43,0.13480757354258,1
795,519,43,0.118322794075065,1
795,520,43,0.109288989567018,1
796,519,43,0.14605457990156,1
796,520,43,0.133667471365939,1
797,519,43,0.112555871855255,1
800,520,43,0.11270685335547,1
800,521,43,0.114087571144009,1
801,520,43,0.123904291024516,1
801,521,43,0.139097261800583,1
801,522,43,0.111570097400022,1
801,555,43,0.107884000520761,1
802,520,43,0.119563450198547,1
802,521,43,0.142689653332377,1
802,522,43,0.138553578935261,1
803,521,43,0.142314965791358,1
803,522,43,0.13690906737603,1
803,523,43,0.103645096746393,1
803,554,43,0.106639128158576,1
804,522,43,0.128416904538377,1
804,523,43,0.118516774517607,1
804,554,43,0.111053016993182,1
805,521,43,0.130241375873353,1
805,522,43,0.117089990417315,1
805,523,43,0.133368631505288,1
805,524,43,0.1277793601686,1
805,554,43,0.132173227446402,1
806,522,43,0.11600868134703,1
806,523,43,0.14707727433062,1
806,524,43,0.164230271862179,1
806,525,43,0.106806327677506,1
806,553,43,0.125156491611113,1
807,523,43,0.13564119532018,1
807,524,43,0.156285082340688,1
807,525,43,0.116939667007267,1
807,552,43,0.113377569931338,1
808,524,43,0.129668268569676,1
808,525,43,0.119575641597759,1
808,526,43,0.113264512271307,1
808,551,43,0.107121407865012,1
809,526,43,0.156917897384513,1
809,527,43,0.122407615517579,1
810,526,43,0.204019998445569,1
810,527,43,0.141488616467816,1
810,530,43,0.103445862736579,1
810,549,43,0.108544499967921,1
811,531,43,0.104933525754437,1
811,547,43,0.10350162193572,1
811,548,43,0.1295303038699,1
812,532,43,0.107355375650807,1
812,533,43,0.11037998037062,1
812,546,43,0.116253267808076,1
812,547,43,0.141996918621061,1
813,544,43,0.106805781128044,1
813,545,43,0.123963541447768,1
813,546,43,0.149456147592804,1
814,535,43,0.111382552856241,1
814,536,43,0.150183794545231,1
814,537,43,0.131486739014646,1
814,538,43,0.108572485531163,1
814,539,43,0.10934564109181,1
814,540,43,0.111498198260661,1
780,536,44,0.111485828396319,1
780,540,44,0.123809180264148,1
780,541,44,0.146202471724208,1
780,542,44,0.139612758329391,1
780,543,44,0.126567682320646,1
780,544,44,0.132695293722819,1
780,545,44,0.171067728320034,1
781,534,44,0.111085609187599,1
781,535,44,0.14845125506049,1
781,536,44,0.139096581402274,1
781,541,44,0.117446920677871,1
781,542,44,0.126477936668258,1
781,543,44,0.119064506310572,1
781,544,44,0.10595577402067,1
781,545,44,0.112953837941705,1
781,546,44,0.126592645130744,1
782,535,44,0.115766147234982,1
782,536,44,0.103865835804406,1
782,546,44,0.107383249673342,1
782,547,44,0.124884399211862,1
782,548,44,0.142683139355122,1
783,522,44,0.108422708670577,1
783,523,44,0.137534821893138,1
783,524,44,0.125656885528272,1
783,546,44,0.12496215423831,1
783,547,44,0.161745925708,1
783,548,44,0.175426092190982,1
783,549,44,0.164070724035711,1
784,522,44,0.105083269152811,1
784,523,44,0.132384173230391,1
784,524,44,0.123147219633734,1
784,546,44,0.137108000225937,1
785,523,44,0.107833483734822,1
785,546,44,0.106168694075163,1
785,547,44,0.153050056078206,1
785,548,44,0.155430000131172,1
786,548,44,0.103256410846718,1
786,549,44,0.118966484337766,1
790,521,44,0.10705504114469,1
795,519,44,0.105291761041258,1
796,519,44,0.126293247566561,1
796,520,44,0.114186150820346,1
800,520,44,0.106900613036646,1
801,520,44,0.118697459307943,1
801,521,44,0.119259044456646,1
802,520,44,0.120975198611613,1
802,521,44,0.129057817437489,1
802,522,44,0.110808363607712,1
803,519,44,0.120952723159268,1
803,520,44,0.151463322604902,1
803,521,44,0.146817964496325,1
803,522,44,0.120710490207128,1
804,521,44,0.16346438875559,1
804,522,44,0.127470024327474,1
805,521,44,0.137791454750479,1
805,522,44,0.131501417771611,1
805,523,44,0.128205847213682,1
805,554,44,0.109001616090987,1
806,522,44,0.12976592245815,1
806,523,44,0.1618174679171,1
806,524,44,0.150719379555267,1
806,553,44,0.105044977228296,1
807,522,44,0.121728868010848,1
807,523,44,0.149152645330625,1
807,524,44,0.171230934681673,1
807,525,44,0.118185465157316,1
808,523,44,0.141010798389638,1
808,524,44,0.150270026665367,1
808,525,44,0.132300908093046,1
808,526,44,0.11666189718606,1
809,524,44,0.12466592443019,1
809,525,44,0.156969819583354,1
809,526,44,0.186954103051656,1
809,527,44,0.13160037668635,1
810,525,44,0.202973211223922,1
810,526,44,0.228707637620485,1
810,527,44,0.148864290296378,1
811,526,44,0.197161338099423,1
811,527,44,0.159903685938491,1
811,528,44,0.132552967781422,1
811,548,44,0.125931487593416,1
812,529,44,0.111508471159723,1
812,546,44,0.11071560635625,1
812,547,44,0.146286406105792,1
813,545,44,0.11974894239333,1
813,546,44,0.157491395080662,1
814,535,44,0.115106395110555,1
814,538,44,0.107575010455826,1
814,540,44,0.104245208055095,1
814,541,44,0.112349053077404,1
814,542,44,0.111995045183356,1
814,543,44,0.110880073127872,1
814,544,44,0.121820599087811,1
780,536,45,0.109887572768041,1
780,540,45,0.103175856148539,1
780,541,45,0.124698672781596,1
780,542,45,0.135980658306111,1
780,543,45,0.132603350718514,1
780,544,45,0.137727106916943,1
780,545,45,0.183770273973422,1
781,535,45,0.131692152379596,1
781,536,45,0.126491533480371,1
781,541,45,0.11221823813691,1
781,542,45,0.144010172601658,1
781,543,45,0.137265384162701,1
781,544,45,0.108980456818979,1
781,545,45,0.117545979979246,1
781,546,45,0.136327527594948,1
781,547,45,0.13610375462972,1
782,547,45,0.118004713442556,1
782,548,45,0.140118249656834,1
783,522,45,0.105887265718785,1
783,523,45,0.156336904152893,1
783,524,45,0.146670440758009,1
783,525,45,0.103709388809576,1
783,546,45,0.109477292587603,1
783,547,45,0.14923243039793,1
784,523,45,0.130490624735927,1
784,524,45,0.121906429661404,1
784,546,45,0.117529092716294,1
785,547,45,0.129419131247808,1
787,550,45,0.119643915664161,1
788,551,45,0.127230367965652,1
800,556,45,0.106013786342081,1
801,520,45,0.106976471871085,1
801,556,45,0.118086852018766,1
802,520,45,0.112020967243528,1
802,521,45,0.109925128523894,1
803,519,45,0.103263326370516,1
803,520,45,0.135484212929959,1
803,521,45,0.133800271731007,1
804,519,45,0.120696714929884,1
804,520,45,0.158216487750912,1
804,521,45,0.156284134244683,1
804,522,45,0.123761875850554,1
805,520,45,0.139107055074607,1
805,521,45,0.142487474647913,1
805,522,45,0.146591648402991,1
805,523,45,0.120353805336125,1
806,521,45,0.122160285155154,1
806,522,45,0.146523307412165,1
806,523,45,0.161180313939795,1
806,524,45,0.121475347139217,1
807,522,45,0.129012063439714,1
807,523,45,0.155853241341697,1
807,524,45,0.162479785477775,1
807,525,45,0.112778585183771,1
808,523,45,0.152714184703022,1
808,524,45,0.164041779222394,1
808,525,45,0.143062745841294,1
808,526,45,0.116607766481232,1
809,523,45,0.156917339680981,1
809,524,45,0.130639676581922,1
809,525,45,0.156583844122844,1
809,526,45,0.19344254863911,1
809,527,45,0.1354599193641,1
810,525,45,0.181882559057904,1
810,526,45,0.238928067933823,1
810,527,45,0.17012691592356,1
811,526,45,0.190209965118098,1
811,527,45,0.168209040401025,1
811,528,45,0.13555298892954,1
811,548,45,0.117673894861373,1
812,527,45,0.16336698025667,1
812,528,45,0.161089620191402,1
812,529,45,0.104729863578577,1
812,546,45,0.105912998159757,1
812,547,45,0.144917065469308,1
813,529,45,0.116152189619915,1
813,545,45,0.115781774087952,1
813,546,45,0.16307283625976,1
814,535,45,0.113129458783969,1
814,538,45,0.106036841806099,1
814,541,45,0.105692861421559,1
814,542,45,0.105004800265842,1
814,543,45,0.105753494949571,1
814,544,45,0.119058315801365,1
815,542,45,0.159611984683052,1
780,535,46,0.113161158652735,1
780,536,46,0.114923022189194,1
780,542,46,0.124250847999375,1
780,543,46,0.138380289293761,1
780,544,46,0.155582844361185,1
780,545,46,0.19172549100442,1
780,546,46,0.197253269949658,1
781,535,46,0.124054759437481,1
781,536,46,0.119646614949257,1
781,542,46,0.151673666069076,1
781,543,46,0.155750579275505,1
781,544,46,0.126394559990206,1
781,545,46,0.128157907018061,1
781,546,46,0.139393212756937,1
781,547,46,0.135664596560388,1
782,547,46,0.112265174466173,1
783,523,46,0.162319122244242,1
783,524,46,0.163797672386385,1
783,525,46,0.105969270446148,1
783,547,46,0.138815610362792,1
784,523,46,0.125632803889755,1
784,524,46,0.124700078194497,1
785,547,46,0.112681544769183,1
789,551,46,0.117044827585284,1
789,552,46,0.132182507633177,1
790,552,46,0.11186212212351,1
794,554,46,0.128544730187939,1
795,554,46,0.128585119077735,1
800,556,46,0.118271128419849,1
801,556,46,0.116868782888335,1
803,520,46,0.116551672659972,1
803,521,46,0.113641653707867,1
804,520,46,0.127139796912036,1
804,521,46,0.136806840318592,1
804,522,46,0.113315330217154,1
805,520,46,0.123984566870929,1
805,521,46,0.143559681996554,1
805,522,46,0.150757426090228,1
805,523,46,0.108321095087025,1
806,521,46,0.137517756165056,1
806,522,46,0.163675624545416,1
806,523,46,0.148750262232201,1
807,522,46,0.149814215568566,1
807,523,46,0.160766241375338,1
807,524,46,0.139339383212017,1
808,523,46,0.171690582778775,1
808,524,46,0.164167128668273,1
808,525,46,0.142389787297227,1
808,526,46,0.107939135091947,1
809,524,46,0.144372211426569,1
809,525,46,0.146331624708176,1
809,526,46,0.162991277695223,1
809,527,46,0.12213486502816,1
810,524,46,0.133020211800632,1
810,525,46,0.153287938942796,1
810,526,46,0.212786629499519,1
810,527,46,0.179672078800207,1
810,528,46,0.104041434338529,1
811,525,46,0.152753435877613,1
811,526,46,0.191777335124766,1
811,527,46,0.182336183956859,1
811,528,46,0.126772415287287,1
811,549,46,0.129138015205408,1
812,527,46,0.145427999983224,1
812,528,46,0.133134864492765,1
812,547,46,0.133345899509319,1
813,528,46,0.123656837967314,1
813,529,46,0.106737919762256,1
813,545,46,0.106271389603567,1
813,546,46,0.156910769933373,1
814,529,46,0.1368726047191,1
814,530,46,0.116131286891531,1
814,537,46,0.110484304393339,1
814,544,46,0.113593891977377,1
815,541,46,0.143742552984736,1
815,542,46,0.137951850286316,1
815,543,46,0.141471405736815,1
816,542,46,0.164800389874924,1
780,535,47,0.136872169710345,1
780,536,47,0.146902556968077,1
780,542,47,0.109033070570199,1
781,535,47,0.128973247273878,1
781,536,47,0.125385361986624,1
781,542,47,0.140185174080688,1
781,543,47,0.171481365875736,1
781,544,47,0.167006118498526,1
781,545,47,0.151663861640982,1
781,546,47,0.140978652358046,1
781,547,47,0.132351703730751,1
782,543,47,0.113423725475656,1
782,547,47,0.112033627113708,1
783,523,47,0.145525196554802,1
783,524,47,0.159739765716331,1
783,547,47,0.130348008788694,1
784,523,47,0.109115833774365,1
784,524,47,0.117999147561305,1
789,551,47,0.126417593146082,1
790,552,47,0.133274279221724,1
791,553,47,0.118699032031903,1
795,554,47,0.124207659437847,1
803,520,47,0.107603497952246,1
804,520,47,0.106891812474909,1
804,521,47,0.115982881981634,1
805,520,47,0.112675911963508,1
805,521,47,0.137640272476992,1
805,522,47,0.137422031930803,1
806,521,47,0.154677189595376,1
806,522,47,0.173882011883815,1
806,523,47,0.129022570574259,1
807,522,47,0.183985804080445,1
807,523,47,0.163902208336445,1
807,524,47,0.108611881708672,1
808,524,47,0.151754187305044,1
808,525,47,0.123721821582877,1
809,525,47,0.13567000628465,1
809,526,47,0.122093394193512,1
810,525,47,0.140033356025175,1
810,526,47,0.16692665689927,1
810,527,47,0.160323223997564,1
811,525,47,0.158164387086941,1
811,526,47,0.196463650980742,1
811,527,47,0.188071640543387,1
811,528,47,0.117348731394006,1
811,549,47,0.117138376775762,1
812,526,47,0.161194836539772,1
812,527,47,0.146772366655539,1
812,528,47,0.113746825439954,1
812,547,47,0.1179726677976,1
813,527,47,0.110410520216039,1
813,528,47,0.108098281371872,1
813,546,47,0.144508134931417,1
814,529,47,0.11796519457027,1
814,530,47,0.117475698180129,1
814,536,47,0.105248583633802,1
814,537,47,0.107534989650361,1
814,538,47,0.105484503381959,1
814,544,47,0.108219492657543,1
814,545,47,0.141998234801396,1
815,541,47,0.141967483028635,1
815,542,47,0.132108846150654,1
815,543,47,0.143282681806221,1
816,542,47,0.145791734226873,1
780,542,48,0.103160441222911,1
781,535,48,0.124990307112612,1
781,536,48,0.131392632120636,1
781,542,48,0.118874385176472,1
781,543,48,0.180528945661026,1
781,546,48,0.134404275810363,1
781,547,48,0.126179186040172,1
782,543,48,0.118618031170898,1
782,544,48,0.118790049248345,1
782,547,48,0.111260159239082,1
783,523,48,0.11210728859623,1
783,524,48,0.132361251615221,1
783,547,48,0.120774191104566,1
784,547,48,0.125510555275514,1
785,548,48,0.139702448211427,1
789,551,48,0.124701929770223,1
790,552,48,0.1415445875943,1
795,554,48,0.113650588118452,1
805,521,48,0.121639456980579,1
805,522,48,0.112965203939689,1
806,520,48,0.117746898253728,1
806,521,48,0.15996495524853,1
806,522,48,0.16961294750243,1
806,523,48,0.10971963708045,1
807,521,48,0.164969719821346,1
807,522,48,0.209441657562714,1
807,523,48,0.160514839777129,1
808,522,48,0.183534588460748,1
808,524,48,0.135477565103856,1
809,525,48,0.133020579884963,1
810,526,48,0.126833037661229,1
810,527,48,0.120100396005201,1
811,526,48,0.181479964032138,1
811,527,48,0.1684970050428,1
811,528,48,0.104334663701647,1
812,526,48,0.181663136180227,1
812,527,48,0.15463420180712,1
812,528,48,0.103821844149793,1
812,548,48,0.128549347973185,1
813,526,48,0.139459501398765,1
813,527,48,0.115787931134946,1
813,546,48,0.129907289149472,1
814,528,48,0.103869438569224,1
814,529,48,0.107645548798568,1
814,530,48,0.117867328754453,1
814,537,48,0.108018262069084,1
814,538,48,0.114274903760448,1
814,539,48,0.115194668425619,1
814,540,48,0.109149351756646,1
814,544,48,0.104551788840772,1
814,545,48,0.134565976372466,1
815,541,48,0.144485001388905,1
815,542,48,0.126006275637074,1
815,543,48,0.141903168657311,1
815,544,48,0.155730490794278,1
816,542,48,0.136871522774248,1
816,543,48,0.158650347636689,1
781,542,49,0.106372077399256,1
781,546,49,0.128501653167118,1
781,547,49,0.126628148537599,1
781,548,49,0.134442199650547,1
782,543,49,0.121193974553192,1
782,545,49,0.105543240717962,1
782,547,49,0.110160735958074,1
783,547,49,0.11132437322377,1
784,547,49,0.105664663930975,1
785,548,49,0.123562809151799,1
789,551,49,0.118030668964941,1
803,556,49,0.126158718320543,1
804,556,49,0.140190115333983,1
805,521,49,0.105385220999171,1
805,555,49,0.123952755461457,1
806,520,49,0.1133659585438,1
806,521,49,0.150648584668899,1
806,522,49,0.151319903564582,1
807,520,49,0.127171786786638,1
807,521,49,0.172203023092228,1
807,522,49,0.210674137752416,1
807,523,49,0.147781631583545,1
807,554,49,0.118490517835314,1
808,521,49,0.151725242491727,1
808,522,49,0.179957121075474,1
808,524,49,0.120246202016638,1
809,525,49,0.136127724727531,1
810,526,49,0.11042928136286,1
811,526,49,0.156505888323125,1
811,527,49,0.135612272815005,1
811,550,49,0.111184133093583,1
812,527,49,0.158669733411465,1
812,528,49,0.104614497025923,1
812,548,49,0.106577591150842,1
812,549,49,0.132468654161437,1
813,527,49,0.136907015027032,1
813,528,49,0.107031104509091,1
813,546,49,0.112625004785096,1
814,527,49,0.137832557500796,1
814,528,49,0.114255138747269,1
814,529,49,0.109400452194947,1
814,530,49,0.116719318341727,1
814,531,49,0.110870391394554,1
814,532,49,0.103404960759533,1
814,537,49,0.115195304207646,1
814,540,49,0.116012953356086,1
814,545,49,0.124566798204391,1
815,529,49,0.116455725344306,1
815,530,49,0.135583852243008,1
815,541,49,0.142911507797454,1
815,542,49,0.118680761664191,1
815,543,49,0.135132658931453,1
816,542,49,0.138619343335769,1
781,536,50,0.11540287030823,1
781,542,50,0.107835959938504,1
781,546,50,0.126146359610271,1
781,547,50,0.138531371180612,1
782,543,50,0.121517186058197,1
782,545,50,0.112073647919172,1
782,547,50,0.113212032368935,1
783,547,50,0.104936336580239,1
785,548,50,0.105055863601243,1
801,556,50,0.129165554605824,1
802,556,50,0.127831572373277,1
803,556,50,0.122282344150194,1
803,557,50,0.160049079249315,1
804,556,50,0.129549176557427,1
805,555,50,0.12737827094237,1
805,556,50,0.159636657487313,1
806,520,50,0.109830798548472,1
806,521,50,0.134902137753486,1
806,522,50,0.127144570854271,1
806,555,50,0.158030928631705,1
807,520,50,0.134811176307398,1
807,521,50,0.169315245356984,1
807,522,50,0.184600538375759,1
807,523,50,0.12489894411998,1
807,554,50,0.108301106992433,1
807,555,50,0.167694503122292,1
808,521,50,0.152110916792328,1
808,522,50,0.162404986280047,1
808,523,50,0.143978985820142,1
808,554,50,0.134926219392003,1
809,525,50,0.132345635916322,1
811,526,50,0.131805176577415,1
811,551,50,0.111343279373509,1
812,527,50,0.146661171725305,1
812,549,50,0.114339418905043,1
813,528,50,0.116738458726949,1
813,546,50,0.104540233223586,1
813,547,50,0.125040879668904,1
814,528,50,0.12588536551131,1
814,529,50,0.10950016958649,1
814,530,50,0.108437063959493,1
814,531,50,0.107152148483702,1
814,532,50,0.106532472935094,1
814,533,50,0.109214168061149,1
814,534,50,0.110339145317999,1
814,537,50,0.118087309335663,1
814,540,50,0.117226449317554,1
814,545,50,0.119797942225662,1
815,528,50,0.144750635581253,1
815,529,50,0.126724843175998,1
815,530,50,0.123816084633876,1
815,531,50,0.13543959664739,1
815,535,50,0.160450848873854,1
815,541,50,0.140171510344151,1
815,542,50,0.119998470107671,1
815,543,50,0.130358069760413,1
780,535,51,0.161219531652174,1
780,537,51,0.117377107349721,1
781,542,51,0.120429329548445,1
781,546,51,0.13458827335968,1
782,543,51,0.125089790268671,1
782,545,51,0.124939589553401,1
782,546,51,0.113630365788377,1
782,547,51,0.132770773318856,1
783,547,51,0.109549002107762,1
786,550,51,0.105806945256089,1
787,550,51,0.105810626099401,1
795,554,51,0.106940633842111,1
796,555,51,0.116944117481454,1
799,555,51,0.114670181715873,1
801,556,51,0.146961606618058,1
802,556,51,0.129555712842824,1
803,556,51,0.12205620652199,1
804,555,51,0.115048338172862,1
804,556,51,0.133164400471826,1
805,555,51,0.147050248017453,1
805,556,51,0.149330039670121,1
806,520,51,0.108758936976021,1
806,521,51,0.121987017821796,1
806,522,51,0.107992362317052,1
806,554,51,0.110476485389818,1
806,555,51,0.161313828165385,1
807,519,51,0.110422800847816,1
807,520,51,0.146944998206872,1
807,521,51,0.163910696584204,1
807,522,51,0.150293807143977,1
807,554,51,0.108975370562766,1
807,555,51,0.146168752968656,1
808,522,51,0.141295762586409,1
808,523,51,0.112719435147155,1
808,554,51,0.120689074391494,1
809,525,51,0.11761862644134,1
809,553,51,0.112292524247388,1
811,526,51,0.119998748959437,1
812,527,51,0.132051748463036,1
813,528,51,0.125944783245622,1
814,528,51,0.138461279000695,1
814,529,51,0.113067397534915,1
814,531,51,0.108508985406996,1
814,532,51,0.123942672181596,1
814,533,51,0.135638295261813,1
814,534,51,0.126976523625972,1
814,537,51,0.11792820767202,1
814,540,51,0.117179200674313,1
814,544,51,0.103355537072517,1
815,529,51,0.140568662183444,1
815,530,51,0.121383504521548,1
815,531,51,0.123421241687206,1
815,532,51,0.153426606349022,1
815,533,51,0.190129678117614,1
815,534,51,0.187758434239749,1
815,535,51,0.143842381916985,1
815,536,51,0.143310165436283,1
816,535,51,0.161037352216372,1
780,535,52,0.120875536990423,1
780,536,52,0.132355351111851,1
782,545,52,0.143528428290614,1
782,546,52,0.13162067709492,1
793,553,52,0.115975163364749,1
795,554,52,0.121171666411908,1
796,555,52,0.131240568675568,1
797,555,52,0.13492529360414,1
798,555,52,0.139530073203719,1
799,555,52,0.121836114400075,1
800,555,52,0.110882772412967,1
802,556,52,0.131584091743213,1
803,556,52,0.120629980125231,1
804,555,52,0.130920123380083,1
804,556,52,0.136588309766567,1
805,554,52,0.116940135478234,1
805,555,52,0.166771202616727,1
805,556,52,0.147138599411012,1
806,521,52,0.107630033486305,1
806,554,52,0.121973264852694,1
806,555,52,0.164432963633893,1
807,519,52,0.116286306165319,1
807,520,52,0.150757794174559,1
807,521,52,0.154662477376199,1
807,522,52,0.120787899457386,1
807,554,52,0.110781002672426,1
807,555,52,0.133434239748807,1
808,519,52,0.136506383117698,1
808,522,52,0.126719121137758,1
808,554,52,0.107195894748762,1
809,523,52,0.11567981472821,1
809,524,52,0.112140639267451,1
810,525,52,0.148604233139351,1
811,526,52,0.109526883585679,1
812,527,52,0.121965401232891,1
813,528,52,0.12727322190506,1
813,546,52,0.104520312053419,1
814,528,52,0.145780368228888,1
814,529,52,0.120366889060989,1
814,531,52,0.110909319101096,1
814,532,52,0.142373714281431,1
814,533,52,0.164036592579545,1
814,534,52,0.145708368702891,1
814,537,52,0.115134570292998,1
814,540,52,0.119662085645238,1
815,529,52,0.159295465620433,1
815,530,52,0.124927230843129,1
815,531,52,0.117960364857682,1
815,532,52,0.156791042139097,1
815,533,52,0.199078968232404,1
815,534,52,0.181151733195344,1
815,535,52,0.132098272091685,1
815,536,52,0.140062579690258,1
816,531,52,0.130739672825231,1
816,534,52,0.161749126926275,1
783,546,53,0.116528628350025,1
789,551,53,0.137081152377901,1
791,552,53,0.117238752257472,1
792,553,53,0.151706302879776,1
793,553,53,0.114364415177353,1
795,554,53,0.13057296408541,1
797,555,53,0.136405951865634,1
798,555,53,0.135002647084045,1
799,555,53,0.132927488011382,1
800,555,53,0.126372140308215,1
801,555,53,0.106349088859662,1
802,556,53,0.131612612701845,1
803,555,53,0.103756916304583,1
803,556,53,0.121496350254237,1
803,557,53,0.130200886596921,1
804,555,53,0.141346792459598,1
804,556,53,0.137720726788535,1
805,554,53,0.129839327397048,1
805,555,53,0.180024402429589,1
805,556,53,0.14628395221025,1
806,554,53,0.137292867792764,1
806,555,53,0.170518691500803,1
807,519,53,0.117733580293381,1
807,520,53,0.151121807269973,1
807,521,53,0.152017367601851,1
807,522,53,0.109934375248457,1
807,554,53,0.122087192530235,1
807,555,53,0.135509588440671,1
808,522,53,0.131475651868427,1
808,554,53,0.109706363736385,1
809,523,53,0.112392732418039,1
810,525,53,0.123419345495197,1
812,527,53,0.11803535367461,1
813,528,53,0.127293589238053,1
814,529,53,0.134026186277798,1
814,530,53,0.110804236601574,1
814,531,53,0.116899345041895,1
814,532,53,0.153618701753625,1
814,533,53,0.177781731524018,1
814,534,53,0.155171359541116,1
814,535,53,0.103052480973163,1
814,537,53,0.112175729973692,1
814,540,53,0.120589669313929,1
815,529,53,0.180288586592754,1
815,531,53,0.127353040434577,1
815,532,53,0.161711470783786,1
815,533,53,0.193766998245955,1
815,534,53,0.166384457525344,1
815,535,53,0.123483804869439,1
816,532,53,0.148599570737822,1
816,533,53,0.163258339608613,1
816,534,53,0.146885312774864,1
783,544,54,0.110469670252656,1
783,545,54,0.1179059887633,1
787,551,54,0.111795554629916,1
788,551,54,0.132054971989452,1
789,551,54,0.125866515131925,1
790,552,54,0.149857192202751,1
791,552,54,0.119059475824712,1
791,553,54,0.172297397683933,1
792,553,54,0.136201709678102,1
793,553,54,0.109735353165985,1
796,554,54,0.1116152044617,1
797,555,54,0.14877871626641,1
798,555,54,0.147237926410082,1
801,555,54,0.120348719079912,1
802,555,54,0.106882364977075,1
802,556,54,0.139555214478947,1
803,555,54,0.11439161995565,1
803,556,54,0.126776531139354,1
803,557,54,0.124879904121393,1
804,555,54,0.143838422221907,1
804,556,54,0.134181830179542,1
805,554,54,0.133270118753375,1
805,555,54,0.177629333456831,1
805,556,54,0.138780887740882,1
806,554,54,0.143915530312258,1
806,555,54,0.165144604494948,1
807,519,54,0.107145589890165,1
807,520,54,0.139116346415452,1
807,522,54,0.103542992383733,1
807,553,54,0.104035299599676,1
807,554,54,0.12973519299353,1
809,523,54,0.114847787982711,1
810,524,54,0.146901586563931,1
810,525,54,0.107691648572533,1
812,527,54,0.113174119682821,1
813,528,54,0.123763169722748,1
813,532,54,0.107045270178807,1
813,533,54,0.112674640399455,1
813,539,54,0.102957649064562,1
813,546,54,0.10887352274373,1
814,529,54,0.142888374254942,1
814,530,54,0.124535198722261,1
814,531,54,0.128206047986953,1
814,532,54,0.163789529914816,1
814,533,54,0.183505119406111,1
814,534,54,0.156441930882061,1
814,535,54,0.107015165342143,1
814,537,54,0.113259693712789,1
814,539,54,0.149423332316974,1
814,540,54,0.120958411735296,1
815,529,54,0.192373163270341,1
815,530,54,0.161603677845098,1
815,531,54,0.152116594214285,1
815,532,54,0.17123730365601,1
815,533,54,0.180205109528066,1
815,534,54,0.150328641306593,1
815,535,54,0.119632103503351,1
815,536,54,0.132193840168949,1
815,540,54,0.130740598613094,1
816,533,54,0.160280894299476,1
816,534,54,0.136529583584635,1
816,535,54,0.143105477085925,1
783,544,55,0.11934160688754,1
783,545,55,0.141126789570248,1
784,546,55,0.107357461462017,1
787,551,55,0.114910295394591,1
788,551,55,0.116854137593582,1
789,551,55,0.113159496696209,1
790,552,55,0.145497132913066,1
791,552,55,0.125049178297462,1
791,553,55,0.148117703732,1
791,554,55,0.151834385072962,1
792,553,55,0.12468711716441,1
792,554,55,0.142593839865559,1
793,553,55,0.103837682930105,1
797,554,55,0.10528050658398,1
798,554,55,0.105107239250621,1
798,555,55,0.164150397562309,1
799,554,55,0.119167112606411,1
800,554,55,0.106949902874814,1
801,555,55,0.136247508292159,1
802,555,55,0.118754177757159,1
802,556,55,0.150994204701824,1
803,555,55,0.120633125573152,1
803,556,55,0.135083837564251,1
804,554,55,0.103781009097171,1
804,555,55,0.13790973251557,1
804,556,55,0.131123696323377,1
805,554,55,0.130718903945694,1
805,555,55,0.163327673311727,1
805,556,55,0.132432715745827,1
806,553,55,0.1061122210155,1
806,554,55,0.142326119862,1
806,555,55,0.150698242591399,1
807,520,55,0.124614961481425,1
807,522,55,0.10312881943264,1
807,553,55,0.12145560443418,1
807,554,55,0.131953983033855,1
808,552,55,0.10684581308758,1
808,553,55,0.116689916211514,1
809,523,55,0.121612765289532,1
809,550,55,0.107370422492103,1
810,524,55,0.13215809137254,1
810,549,55,0.105817820474965,1
811,525,55,0.139300857052018,1
811,550,55,0.105935964391209,1
812,527,55,0.107560432085496,1
812,547,55,0.103681592865535,1
812,548,55,0.115727587612771,1
813,528,55,0.124851996636646,1
813,531,55,0.104818125739571,1
813,532,55,0.136140094591873,1
813,533,55,0.14759331740889,1
813,534,55,0.117360030467567,1
813,545,55,0.105281209290431,1
814,529,55,0.148651693709934,1
814,530,55,0.139812884664857,1
814,531,55,0.143287054201912,1
814,532,55,0.177145614875283,1
814,533,55,0.191237478105675,1
814,534,55,0.154970084336374,1
814,535,55,0.112246078697233,1
814,537,55,0.116932706867187,1
814,538,55,0.144794638389938,1
814,539,55,0.140701351007806,1
814,540,55,0.118892265151712,1
815,529,55,0.188393747795398,1
815,530,55,0.180091025693536,1
815,531,55,0.174919351607627,1
815,532,55,0.178577150609668,1
815,533,55,0.165772656750609,1
815,534,55,0.137217711664775,1
815,535,55,0.120604816541862,1
815,536,55,0.131438676124248,1
815,540,55,0.122367851255739,1
816,534,55,0.128007226677753,1
816,535,55,0.135888681839594,1
782,543,56,0.106588477523789,1
782,544,56,0.142533228645688,1
783,544,56,0.114702138128263,1
787,551,56,0.127676720410548,1
788,551,56,0.111869160342086,1
789,551,56,0.105199349565986,1
790,552,56,0.140597395069419,1
791,552,56,0.128215584717353,1
791,553,56,0.134886388205739,1
792,553,56,0.116884565898294,1
797,554,56,0.11813553953712,1
798,554,56,0.117476445502862,1
800,554,56,0.135949638835654,1
801,555,56,0.154218277666936,1
802,555,56,0.121266230622814,1
802,556,56,0.152399829530108,1
803,555,56,0.115078443009525,1
803,556,56,0.131826547776766,1
804,555,56,0.122944617094586,1
804,556,56,0.120455363149324,1
805,554,56,0.120737304592952,1
805,555,56,0.138068990336202,1
806,553,56,0.116399252284644,1
806,554,56,0.129459843605652,1
806,555,56,0.127021407606237,1
807,520,56,0.109433334395201,1
807,521,56,0.119741156852021,1
807,522,56,0.103776424774137,1
807,552,56,0.114727179016855,1
807,553,56,0.134281480646661,1
807,554,56,0.125522969756139,1
808,523,56,0.109369064640159,1
808,550,56,0.109453322489792,1
808,551,56,0.112782098716024,1
808,552,56,0.122411753677787,1
808,553,56,0.122288233499493,1
809,549,56,0.127943369623325,1
809,550,56,0.149632147673471,1
809,551,56,0.129170585091683,1
809,552,56,0.112121409649663,1
810,524,56,0.125811280174103,1
810,549,56,0.124590868688837,1
810,550,56,0.12335533228378,1
810,551,56,0.111843349822619,1
811,525,56,0.121391044673302,1
811,548,56,0.106131205243734,1
811,549,56,0.108404605613924,1
811,550,56,0.10909751879037,1
812,525,56,0.143057023803054,1
812,526,56,0.12600951031756,1
812,527,56,0.104931640716498,1
812,547,56,0.109200047007715,1
813,528,56,0.126606933495237,1
813,529,56,0.106407870811948,1
813,530,56,0.103574524941439,1
813,531,56,0.11223386498988,1
813,532,56,0.146098716559092,1
813,533,56,0.161420907243552,1
813,534,56,0.120762758182158,1
813,545,56,0.106458019513556,1
814,529,56,0.151876792849545,1
814,530,56,0.151740858190626,1
814,531,56,0.152180239341371,1
814,532,56,0.17329800705312,1
814,533,56,0.180110813014855,1
814,534,56,0.141518330912008,1
814,535,56,0.111892963128836,1
814,536,56,0.104258247163676,1
814,537,56,0.113611270019438,1
814,538,56,0.129645201951588,1
814,539,56,0.123502064083081,1
814,540,56,0.111666792038421,1
815,530,56,0.183615031618221,1
815,531,56,0.180487775986285,1
815,532,56,0.17093969074313,1
815,533,56,0.145799887852512,1
815,534,56,0.12399917870347,1
815,535,56,0.120356906167764,1
815,536,56,0.129659546086434,1
815,537,56,0.14203614748751,1
815,538,56,0.150167063439268,1
815,539,56,0.131866869742138,1
815,540,56,0.112977361876689,1
816,535,56,0.12675700036166,1
816,536,56,0.147910751105301,1
781,541,57,0.104648026162274,1
782,543,57,0.110721294932277,1
782,544,57,0.129090197704564,1
783,544,57,0.107322348447634,1
784,545,57,0.112091695205472,1
786,548,57,0.109072868294251,1
788,551,57,0.119737520624992,1
789,551,57,0.105773940361058,1
790,552,57,0.137369641260995,1
791,552,57,0.126157547143126,1
791,553,57,0.134169192617504,1
792,553,57,0.120442747895428,1
793,553,57,0.106806383447859,1
794,553,57,0.103851915524244,1
795,553,57,0.103775710913616,1
801,554,57,0.121360181359835,1
802,555,57,0.121018253324292,1
803,555,57,0.107059168150827,1
803,556,57,0.126682669634899,1
804,555,57,0.11084340969767,1
804,556,57,0.112476811802542,1
805,553,57,0.108232565228336,1
805,554,57,0.115177312691699,1
805,555,57,0.117325564389282,1
806,552,57,0.116383547353179,1
806,553,57,0.128631308084265,1
806,554,57,0.119422920062523,1
807,521,57,0.113498078510559,1
807,522,57,0.10961026026373,1
807,551,57,0.107565674498698,1
807,552,57,0.13483223519277,1
807,553,57,0.140073700298688,1
807,554,57,0.117992365886355,1
808,523,57,0.12796638047106,1
808,550,57,0.129153731290943,1
808,551,57,0.136321303623529,1
808,552,57,0.129741840819633,1
808,553,57,0.121007913500807,1
809,524,57,0.121981820024876,1
809,549,57,0.135506844539293,1
809,550,57,0.171472029918608,1
809,551,57,0.14637440056909,1
809,552,57,0.114569114681782,1
810,525,57,0.10643499751175,1
810,548,57,0.110187338416556,1
810,549,57,0.12839004553627,1
810,550,57,0.131751625884261,1
811,525,57,0.115665392514869,1
811,547,57,0.107220322163469,1
811,548,57,0.119808828598609,1
811,549,57,0.11350973451438,1
812,525,57,0.126209458187895,1
812,526,57,0.122777975279189,1
812,527,57,0.117136636740741,1
812,547,57,0.115455216361755,1
812,548,57,0.131014085271175,1
813,528,57,0.137230315764601,1
813,529,57,0.122355347542549,1
813,530,57,0.116215678590011,1
813,531,57,0.116093630749042,1
813,532,57,0.14138501745969,1
813,533,57,0.155385751932934,1
813,534,57,0.117309245983932,1
813,544,57,0.103601149708062,1
814,529,57,0.162564690263505,1
814,530,57,0.161597163867843,1
814,531,57,0.156687521209465,1
814,532,57,0.163147557378993,1
814,533,57,0.160908723473724,1
814,534,57,0.126785264776667,1
814,535,57,0.1074037062389,1
814,536,57,0.103951487912869,1
814,537,57,0.105868036100997,1
814,538,57,0.110259694872813,1
814,539,57,0.105329941425067,1
814,540,57,0.103638359687725,1
814,541,57,0.106298728230712,1
815,530,57,0.171710615489649,1
815,531,57,0.173662031302605,1
815,532,57,0.16073206530289,1
815,533,57,0.13173875408674,1
815,534,57,0.113612675432338,1
815,535,57,0.115849133520561,1
815,536,57,0.126789626018289,1
815,537,57,0.130682976684155,1
815,538,57,0.124294281950456,1
815,539,57,0.110192569675687,1
815,540,57,0.107414046062386,1
782,543,58,0.112795070900181,1
782,544,58,0.121679533556397,1
784,545,58,0.12062927741878,1
789,551,58,0.110390755202861,1
790,552,58,0.135170839315261,1
791,552,58,0.120049923835544,1
791,553,58,0.133455097860908,1
792,552,58,0.105578889127735,1
792,553,58,0.125169698030753,1
793,553,58,0.121813895491355,1
796,553,58,0.113848070939175,1
797,553,58,0.128831110951682,1
798,553,58,0.132892999624956,1
799,553,58,0.114731205636357,1
800,553,58,0.10741846307436,1
804,552,58,0.104463002438458,1
804,553,58,0.104963050579427,1
804,554,58,0.102977737545789,1
805,552,58,0.108229910559523,1
805,553,58,0.116868024411531,1
805,554,58,0.11043119986301,1
805,555,58,0.103133972613277,1
806,552,58,0.128556832354586,1
806,553,58,0.132398205051259,1
806,554,58,0.110793829853665,1
807,521,58,0.106498754179542,1
807,522,58,0.113328882412984,1
807,523,58,0.10577570270422,1
807,551,58,0.12405751449293,1
807,552,58,0.142739947036903,1
807,553,58,0.135301654255755,1
808,523,58,0.14358289361756,1
808,524,58,0.120663018482474,1
808,550,58,0.135381863177745,1
808,551,58,0.148627377835934,1
808,552,58,0.130025566914564,1
809,524,58,0.15288795396956,1
809,525,58,0.113473428014439,1
809,549,58,0.130658649656084,1
809,550,58,0.167252099218403,1
809,551,58,0.14828578442251,1
810,525,58,0.119835029510548,1
810,548,58,0.116514194982613,1
810,549,58,0.124470337801476,1
810,550,58,0.129684854672721,1
811,525,58,0.116366481625096,1
811,526,58,0.115323297168267,1
811,527,58,0.108949995052054,1
811,547,58,0.113223108361082,1
811,548,58,0.127328746868718,1
811,549,58,0.116319266444067,1
812,525,58,0.121343338713165,1
812,526,58,0.13074625372691,1
812,527,58,0.133338827828532,1
812,528,58,0.105775200771041,1
812,547,58,0.117904449501551,1
813,526,58,0.143795902904618,1
813,527,58,0.150833218000243,1
813,528,58,0.143014337174706,1
813,529,58,0.135745976659795,1
813,530,58,0.123852904221066,1
813,531,58,0.115774858564153,1
813,532,58,0.128165636789016,1
813,533,58,0.136114830621868,1
813,534,58,0.110773808296862,1
813,544,58,0.106013295562973,1
814,528,58,0.183143537898097,1
814,529,58,0.169870996926741,1
814,530,58,0.161149093696067,1
814,531,58,0.151789924947382,1
814,532,58,0.148880173692973,1
814,533,58,0.140314706303058,1
814,534,58,0.116375282186833,1
814,535,58,0.105052918926593,1
814,536,58,0.105884622204043,1
814,537,58,0.104815582611464,1
814,541,58,0.109793633185091,1
815,530,58,0.152459280726631,1
815,531,58,0.157862111772533,1
815,532,58,0.146641908645306,1
815,533,58,0.121986716661888,1
815,534,58,0.10811665212622,1
815,535,58,0.113120513219314,1
815,536,58,0.125763551905825,1
815,537,58,0.124432659350846,1
815,538,58,0.108726668249652,1
781,542,59,0.115631060285432,1
782,543,59,0.114369256044012,1
782,544,59,0.12161152718769,1
783,544,59,0.106512997927752,1
784,545,59,0.129614305175908,1
785,546,59,0.105960414114058,1
786,547,59,0.111098425214767,1
787,548,59,0.113841356188649,1
788,550,59,0.10587693704937,1
789,551,59,0.118728534548752,1
791,552,59,0.115265831396317,1
792,552,59,0.108174530598784,1
793,552,59,0.109943365429395,1
799,553,59,0.142342215185937,1
800,553,59,0.123995687479359,1
801,553,59,0.11322497109088,1
802,554,59,0.116531037629283,1
803,553,59,0.106656283119224,1
804,552,59,0.104988370319785,1
804,553,59,0.115464987327637,1
804,554,59,0.107138897447779,1
805,552,59,0.112119424225089,1
805,553,59,0.122604351015569,1
805,554,59,0.110737412564356,1
806,551,59,0.105868024946927,1
806,552,59,0.130844922635812,1
806,553,59,0.129594796706355,1
806,554,59,0.108810234546905,1
807,521,59,0.109065171985508,1
807,522,59,0.123999658328508,1
807,523,59,0.11873214846764,1
807,551,59,0.131354462890898,1
807,552,59,0.13945732635499,1
807,553,59,0.124676966960126,1
808,524,59,0.143383436526333,1
808,525,59,0.105707305943041,1
808,550,59,0.12814468944435,1
808,551,59,0.14547601825734,1
808,552,59,0.125920656990823,1
809,525,59,0.133799223248367,1
809,549,59,0.115982179275184,1
809,550,59,0.139207419402247,1
809,551,59,0.133739392813441,1
810,525,59,0.136843057585968,1
810,526,59,0.117540168708442,1
810,547,59,0.110100972447572,1
810,548,59,0.115686819484573,1
810,549,59,0.112589902924785,1
810,550,59,0.114565110370421,1
811,525,59,0.130515899860003,1
811,526,59,0.139808512269165,1
811,527,59,0.133391430425681,1
811,547,59,0.113383001963741,1
811,548,59,0.126593582072678,1
812,525,59,0.136405784554575,1
812,526,59,0.148793361561163,1
812,527,59,0.145867983453784,1
812,528,59,0.11288326613675,1
812,547,59,0.116914759967523,1
813,526,59,0.139899139093135,1
813,527,59,0.137798236425429,1
813,528,59,0.138445049827911,1
813,529,59,0.139380497116405,1
813,530,59,0.122967683712674,1
813,531,59,0.106796289013928,1
813,532,59,0.10666749296022,1
813,533,59,0.110210248877655,1
813,542,59,0.116052929545268,1
813,543,59,0.106876832558036,1
813,544,59,0.106028052398433,1
814,528,59,0.170544981645308,1
814,529,59,0.167904679275407,1
814,530,59,0.147915324274265,1
814,531,59,0.131309132747807,1
814,532,59,0.124426334992791,1
814,533,59,0.118351850429088,1
814,534,59,0.107387789380093,1
814,541,59,0.110829768269275,1
814,542,59,0.128957252336577,1
814,543,59,0.113136720083957,1
815,531,59,0.13221694024925,1
815,532,59,0.124734588889064,1
815,533,59,0.110370744800128,1
815,534,59,0.103711809242905,1
815,535,59,0.110721272624136,1
815,536,59,0.120145391526172,1
815,537,59,0.113761292269578,1
815,541,59,0.118677482367422,1
781,542,60,0.107704854992174,1
782,543,60,0.110806991657023,1
782,544,60,0.119213513540283,1
783,544,60,0.108396753148192,1
784,545,60,0.133000457941524,1
785,546,60,0.117862365193018,1
788,550,60,0.121759775940598,1
791,552,60,0.113792824827284,1
792,552,60,0.112451893608726,1
794,552,60,0.120266959742104,1
797,552,60,0.113413675658008,1
798,552,60,0.122656641298741,1
799,552,60,0.111010397289257,1
800,553,60,0.135358908100363,1
802,553,60,0.112768847680101,1
803,553,60,0.116183119857806,1
803,556,60,0.105988120825533,1
804,553,60,0.117392388426501,1
804,554,60,0.10855942411444,1
805,552,60,0.105672717169978,1
805,553,60,0.116790079765882,1
805,554,60,0.105677134181953,1
806,552,60,0.118895734067682,1
806,553,60,0.115464139618268,1
807,522,60,0.132012976913483,1
807,523,60,0.131370033973515,1
807,524,60,0.114074409340651,1
807,551,60,0.123339482349397,1
807,552,60,0.124600516959943,1
807,553,60,0.107963863666561,1
808,525,60,0.123562284910479,1
808,526,60,0.103803540319868,1
808,550,60,0.112350324641457,1
808,551,60,0.12563497893353,1
808,552,60,0.114124970742873,1
809,526,60,0.126041076337478,1
809,550,60,0.108223474660762,1
809,551,60,0.109565197818335,1
810,525,60,0.149505627050174,1
810,526,60,0.147952456175433,1
810,527,60,0.12981453189801,1
810,547,60,0.109224106338091,1
810,548,60,0.10865022940354,1
811,525,60,0.144703431554295,1
811,526,60,0.163272482970188,1
811,527,60,0.15741148731858,1
811,528,60,0.111938293271927,1
811,547,60,0.109296931265315,1
812,526,60,0.152966579013518,1
812,527,60,0.14401750082607,1
812,528,60,0.115758395155885,1
812,543,60,0.106610752202862,1
812,546,60,0.105109893919434,1
812,547,60,0.113605336053856,1
813,527,60,0.117763183196866,1
813,528,60,0.124402476435687,1
813,529,60,0.1314421896565,1
813,530,60,0.115199118899805,1
813,542,60,0.13742788781789,1
813,543,60,0.13095653026666,1
813,544,60,0.113679153693367,1
813,545,60,0.115875892136032,1
813,546,60,0.116447047477346,1
814,529,60,0.15439215847418,1
814,530,60,0.131794468669599,1
814,531,60,0.109125838975732,1
814,541,60,0.105085555737293,1
814,542,60,0.135426111375983,1
814,543,60,0.122793089044909,1
814,544,60,0.108577371014104,1
815,531,60,0.112659738561077,1
815,534,60,0.105632584823807,1
815,535,60,0.109982293135937,1
815,536,60,0.111245681255388,1
815,541,60,0.109453857885183,1
815,542,60,0.119194685469039,1
781,542,61,0.108714287231239,1
782,543,61,0.110069908360833,1
782,544,61,0.118115618366953,1
783,544,61,0.109466763144916,1
784,545,61,0.130536702201751,1
787,547,61,0.108188629344076,1
788,549,61,0.108885167593481,1
790,551,61,0.104340229582898,1
795,552,61,0.111654544868855,1
796,552,61,0.104104666765001,1
797,552,61,0.127204167053713,1
799,552,61,0.138604921122428,1
800,552,61,0.108075248215996,1
800,553,61,0.149627239882388,1
804,553,61,0.110605080670254,1
805,553,61,0.106961413875717,1
806,522,61,0.106591109884461,1
806,523,61,0.106643165932149,1
806,552,61,0.106521285402239,1
806,553,61,0.103313508534336,1
807,524,61,0.126775527272997,1
807,525,61,0.104794423339456,1
807,551,61,0.112448168149132,1
807,552,61,0.109568845199435,1
808,525,61,0.141545546844375,1
808,526,61,0.126574787463646,1
808,551,61,0.107122445193582,1
809,526,61,0.155003055769193,1
809,527,61,0.121408958110754,1
810,525,61,0.156936022749307,1
810,526,61,0.181910343847874,1
810,527,61,0.169337118489514,1
810,528,61,0.111313910705507,1
810,547,61,0.102991044352065,1
811,525,61,0.160966245016027,1
811,526,61,0.183301669157594,1
811,527,61,0.179796156682033,1
811,528,61,0.135515734333595,1
812,526,61,0.1476414137615,1
812,527,61,0.135662856525368,1
812,528,61,0.119853957968428,1
812,529,61,0.104073703064898,1
812,542,61,0.104557243181316,1
812,543,61,0.111766844052083,1
812,546,61,0.106614109578125,1
813,527,61,0.102957805221551,1
813,528,61,0.110747339687227,1
813,529,61,0.117689655563191,1
813,530,61,0.105038318248122,1
813,542,61,0.14623758473859,1
813,543,61,0.145622761210711,1
813,544,61,0.112666431003462,1
813,545,61,0.107659078686258,1
814,529,61,0.138327184763432,1
814,530,61,0.119026437467469,1
814,542,61,0.131411370959315,1
814,543,61,0.1260965009145,1
814,544,61,0.105143434209856,1
814,545,61,0.103208660270298,1
815,535,61,0.104198461345033,1
815,542,61,0.103770423884131,1
816,541,61,0.103694631974116,1
782,543,62,0.10585383696907,1
782,544,62,0.116047943675691,1
783,544,62,0.108229821326958,1
784,545,62,0.122443353159917,1
786,546,62,0.105834707737918,1
787,547,62,0.117203672705302,1
788,549,62,0.116854996457021,1
789,550,62,0.109739368631416,1
790,551,62,0.108053821246292,1
794,551,62,0.104305529269129,1
795,552,62,0.127150270584369,1
796,552,62,0.116759986083289,1
798,551,62,0.10352297082693,1
800,552,62,0.117461710975543,1
806,522,62,0.107115440437218,1
806,523,62,0.109065305834355,1
807,524,62,0.133751037663192,1
807,525,62,0.119333352875265,1
807,526,62,0.105149000091106,1
808,525,62,0.158788535417877,1
808,526,62,0.14925361197808,1
809,525,62,0.154773739230856,1
809,526,62,0.174795864891545,1
809,527,62,0.14350874135593,1
809,543,62,0.102927611152322,1
810,525,62,0.155955178393298,1
810,526,62,0.204187532586617,1
810,527,62,0.202543556422777,1
810,528,62,0.131536876562183,1
811,526,62,0.189007043215599,1
811,527,62,0.191184250880569,1
811,528,62,0.153343798528573,1
811,529,62,0.103258095111385,1
811,547,62,0.107266388475222,1
812,526,62,0.136064436530706,1
812,527,62,0.12433516161936,1
812,528,62,0.123074974718183,1
812,529,62,0.106592727224704,1
812,543,62,0.113713709004217,1
812,546,62,0.105350453760979,1
812,547,62,0.113503265153407,1
813,529,62,0.105636812216581,1
813,542,62,0.134231387715406,1
813,543,62,0.150264895792872,1
813,544,62,0.115864927684591,1
813,546,62,0.108883349479966,1
814,529,62,0.127410372357679,1
814,530,62,0.107903274754831,1
814,542,62,0.115813072410174,1
814,543,62,0.123657373362705,1
814,544,62,0.10293452667612,1
780,539,63,0.106958837285399,1
782,542,63,0.103223863268584,1
782,543,63,0.104215125526573,1
782,544,63,0.116476706151184,1
783,544,63,0.109618491967864,1
784,545,63,0.11415825448967,1
786,546,63,0.115961912328826,1
787,547,63,0.119419651919825,1
788,549,63,0.120694417191332,1
789,550,63,0.129617305620911,1
790,550,63,0.103630507221993,1
790,551,63,0.119249262336692,1
791,551,63,0.103799179078247,1
793,551,63,0.105247847465139,1
794,549,63,0.114940857548151,1
794,550,63,0.112068639741454,1
794,551,63,0.111480005971443,1
795,549,63,0.109573150670703,1
795,550,63,0.10812358995816,1
795,551,63,0.107748645873516,1
796,551,63,0.110665658427913,1
797,551,63,0.117746351704266,1
798,551,63,0.110809579401412,1
800,552,63,0.117116191329254,1
801,553,63,0.116338685681056,1
806,522,63,0.106953483331491,1
806,523,63,0.109888833178024,1
806,524,63,0.10507874060013,1
807,524,63,0.137684531829301,1
807,525,63,0.135648412003886,1
807,526,63,0.12290179661739,1
808,525,63,0.164864001539797,1
808,526,63,0.15852517665594,1
808,527,63,0.106915592953518,1
808,543,63,0.110233783966711,1
809,525,63,0.146071969097692,1
809,526,63,0.171853075279894,1
809,527,63,0.148361230556336,1
809,543,63,0.120195172143449,1
810,525,63,0.148845517995487,1
810,526,63,0.203409736932582,1
810,527,63,0.211735313725191,1
810,528,63,0.142229536764308,1
811,526,63,0.180959827409942,1
811,527,63,0.19045655931186,1
811,528,63,0.16251669429753,1
811,529,63,0.109552928340629,1
811,547,63,0.112212426866105,1
812,528,63,0.128784431166044,1
812,529,63,0.107833260653409,1
812,543,63,0.110808977081597,1
812,547,63,0.113409392494881,1
813,542,63,0.113406168968465,1
813,543,63,0.142843635277595,1
813,544,63,0.120445369102029,1
814,543,63,0.115659291238228,1
780,538,64,0.103667494120243,1
781,540,64,0.112190096416679,1
781,541,64,0.110357192604298,1
781,547,64,0.129031259595289,1
782,543,64,0.103708028012958,1
782,544,64,0.116734945194697,1
782,548,64,0.117089767335902,1
783,544,64,0.111327005584442,1
783,545,64,0.134154993485577,1
783,548,64,0.126800345080176,1
784,545,64,0.106783796454808,1
784,546,64,0.12999928792413,1
786,546,64,0.12428184516169,1
787,547,64,0.11694509903967,1
787,548,64,0.117180383005801,1
789,549,64,0.107733353642665,1
790,550,64,0.114045163367426,1
793,551,64,0.107123939839048,1
794,549,64,0.136822366784927,1
794,550,64,0.120255493357483,1
794,551,64,0.111574302484654,1
795,548,64,0.104094248863021,1
795,549,64,0.140950142553484,1
795,550,64,0.123683942358975,1
795,551,64,0.11476945294459,1
796,550,64,0.108145797712809,1
796,551,64,0.128597778947914,1
797,551,64,0.133959596476063,1
798,551,64,0.114366690607764,1
799,552,64,0.153342794662215,1
800,552,64,0.109787152670048,1
800,553,64,0.139029333510371,1
800,554,64,0.132363080882806,1
801,553,64,0.1042473719448,1
801,554,64,0.106807008075815,1
806,523,64,0.112206024429556,1
806,524,64,0.110136821630616,1
806,525,64,0.113025235147886,1
807,524,64,0.140452481383633,1
807,525,64,0.148134267526904,1
807,526,64,0.135898397035123,1
808,525,64,0.15945742272616,1
808,526,64,0.152491237139022,1
808,527,64,0.10444515592543,1
808,542,64,0.104957752395872,1
808,543,64,0.117202657684874,1
809,526,64,0.153614005889885,1
809,527,64,0.139246112873306,1
809,543,64,0.122284864970159,1
809,544,64,0.104986741825472,1
810,526,64,0.181317850769421,1
810,527,64,0.194254319592321,1
810,528,64,0.137438383798364,1
811,528,64,0.15098180137527,1
811,529,64,0.106050438618212,1
811,547,64,0.115818995221685,1
813,543,64,0.124305681410653,1
813,544,64,0.119329002787715,1
777,527,65,0.118663339005847,1
778,528,65,0.1303408255672,1
778,529,65,0.139558147999526,1
778,530,65,0.103263270600163,1
779,537,65,0.106247620279028,1
780,538,65,0.133455064398696,1
781,539,65,0.119823931210259,1
781,540,65,0.128294332456088,1
781,541,65,0.128530218742033,1
781,542,65,0.125248546156124,1
782,542,65,0.104456756158899,1
782,543,65,0.104897520414403,1
782,544,65,0.114009838425702,1
782,547,65,0.123868954928721,1
783,544,65,0.110466022871556,1
783,545,65,0.121596993433643,1
783,546,65,0.133116917593101,1
783,547,65,0.128369733973631,1
783,548,65,0.115082503091239,1
784,545,65,0.10419633091754,1
784,546,65,0.123171925900207,1
784,547,65,0.133216300362525,1
784,548,65,0.126157725608256,1
785,546,65,0.1265338854866,1
786,546,65,0.127616901129693,1
786,547,65,0.144587786149874,1
786,548,65,0.129170964330085,1
787,547,65,0.106260101684077,1
787,548,65,0.104157827065683,1
791,551,65,0.106861540327185,1
792,551,65,0.107931249164002,1
793,551,65,0.114480618285305,1
794,548,65,0.111841765944588,1
794,549,65,0.139591989449855,1
794,550,65,0.118893704026825,1
794,551,65,0.115276282760509,1
795,548,65,0.127260617805234,1
795,549,65,0.160901272554535,1
795,550,65,0.135081528671628,1
796,549,65,0.115236551960881,1
796,550,65,0.122309292384866,1
797,551,65,0.144229684711901,1
798,546,65,0.110482107041422,1
798,551,65,0.11187096730153,1
798,552,65,0.147720629971202,1
799,552,65,0.128508089065879,1
799,553,65,0.157869997700477,1
800,553,65,0.119285211906373,1
806,525,65,0.121617673080614,1
807,541,65,0.109082170789167,1
808,543,65,0.112640040472322,1
808,544,65,0.112956961081484,1
809,543,65,0.112388984650303,1
809,544,65,0.113161125190523,1
812,544,65,0.103591311817756,1
813,543,65,0.107110889576396,1
813,544,65,0.115493251742645,1
780,537,66,0.110856549192887,1
781,538,66,0.108063268744126,1
781,539,66,0.121962623869301,1
781,540,66,0.126602025704154,1
782,543,66,0.105433440046558,1
783,544,66,0.109219332395856,1
783,546,66,0.116724504984576,1
783,547,66,0.11285774562312,1
784,545,66,0.109498474167752,1
784,546,66,0.12423409458527,1
784,547,66,0.121249756060475,1
784,548,66,0.109137316514423,1
785,545,66,0.106510722497341,1
785,546,66,0.133431194687521,1
785,547,66,0.126665771217876,1
785,548,66,0.109876463313682,1
785,549,66,0.107459119661851,1
786,545,66,0.104383830845039,1
786,546,66,0.130624339734788,1
786,547,66,0.12023928649284,1
786,548,66,0.103838697950533,1
786,549,66,0.103533321804486,1
791,551,66,0.108321083932954,1
792,551,66,0.112016115222799,1
793,551,66,0.116558052788379,1
794,548,66,0.112703484826136,1
794,549,66,0.124157889974641,1
794,550,66,0.113296323680779,1
794,551,66,0.124615017251778,1
795,548,66,0.136847050743258,1
795,549,66,0.155586826364404,1
795,550,66,0.13803108880416,1
796,548,66,0.108401348625296,1
796,549,66,0.119628723819946,1
796,550,66,0.126424486361739,1
798,546,66,0.106580613903986,1
798,551,66,0.103412077056603,1
799,552,66,0.103169844104462,1
808,543,66,0.103402975334959,1
812,544,66,0.105004521414076,1
813,544,66,0.10726653347814,1
780,537,67,0.11763511215775,1
781,538,67,0.118929274358103,1
781,539,67,0.123897353192576,1
782,542,67,0.106835685191436,1
783,546,67,0.117892782343659,1
784,545,67,0.116436205720682,1
784,546,67,0.134309834294234,1
784,547,67,0.121356433592099,1
785,545,67,0.12114305622071,1
785,546,67,0.14651280027762,1
785,547,67,0.123804283627136,1
786,545,67,0.118235245774593,1
786,546,67,0.13420557719594,1
786,547,67,0.109692789232413,1
786,549,67,0.104869757932574,1
789,549,67,0.105790013376854,1
790,550,67,0.109666008308801,1
793,551,67,0.117077319393065,1
794,548,67,0.110347733952393,1
794,549,67,0.109544406630658,1
794,550,67,0.110805329700497,1
794,551,67,0.135539012879025,1
795,548,67,0.145542585750934,1
795,549,67,0.1482678932932,1
795,550,67,0.140188721075152,1
796,548,67,0.125937321172362,1
796,549,67,0.126116968634129,1
813,544,67,0.106328163823137,1
