x,y,z,signal,mito.p
162,617,19,0.104479811622916,1
165,615,20,0.105561366082756,1
165,623,20,0.107974895042426,1
167,623,20,0.107461406246333,1
167,624,20,0.108836379688491,1
150,615,21,0.109250630718079,1
163,623,21,0.103864976940967,1
164,624,21,0.104026543654222,1
165,615,21,0.104648740022795,1
165,616,21,0.104080373199142,1
165,623,21,0.10341428556259,1
165,624,21,0.106331398503623,1
166,614,21,0.103145405535685,1
166,624,21,0.107297564102667,1
167,623,21,0.103543182002934,1
167,624,21,0.108656866075572,1
168,623,21,0.103566862094908,1
168,624,21,0.108080200623361,1
149,614,22,0.103705786044759,1
165,617,22,0.107112629611416,1
165,621,22,0.103005053864792,1
166,624,22,0.104443839745095,1
168,623,22,0.104842452767642,1
168,624,22,0.116245593807474,1
169,624,22,0.114141902622108,1
169,625,22,0.120862676346972,1
158,623,23,0.104878402337322,1
162,618,23,0.104379781917395,1
162,620,23,0.108667105512422,1
163,619,23,0.106980197330679,1
164,619,23,0.105572330534197,1
164,626,23,0.107396378014488,1
165,617,23,0.103668018361563,1
165,618,23,0.108583249209333,1
165,619,23,0.107405390503567,1
165,620,23,0.103454094440713,1
165,625,23,0.116681941051004,1
166,619,23,0.103079919986943,1
168,623,23,0.108172132473595,1
169,623,23,0.105767783314064,1
169,624,23,0.125993805386095,1
170,624,23,0.11061455047623,1
162,619,24,0.106473010584499,1
163,619,24,0.103019230688578,1
165,618,24,0.105055328205852,1
165,619,24,0.106420842996105,1
165,620,24,0.103487500882287,1
165,625,24,0.114162972661551,1
168,623,24,0.109299496701563,1
169,623,24,0.108340915870556,1
170,624,24,0.113020717749276,1
170,626,24,0.112312947350734,1
171,625,24,0.103295595096885,1
160,619,25,0.103976461877037,1
165,619,25,0.104580254029051,1
165,620,25,0.104407243239317,1
165,625,25,0.110222752590845,1
166,619,25,0.104625405707011,1
166,620,25,0.107343920420257,1
167,624,25,0.108438658991595,1
167,629,25,0.105034537018174,1
168,623,25,0.108792588807149,1
168,628,25,0.124491485919414,1
168,629,25,0.111944394548568,1
169,623,25,0.111027050316727,1
169,627,25,0.113304131530229,1
169,628,25,0.110436765744261,1
169,629,25,0.105140478381136,1
170,623,25,0.103144357053045,1
170,624,25,0.116305379626117,1
170,626,25,0.112124332016171,1
171,625,25,0.105639466885394,1
148,617,26,0.104328305881381,1
158,619,26,0.103962887373066,1
159,618,26,0.105178290680613,1
160,629,26,0.108226475105765,1
163,627,26,0.104016203830736,1
165,619,26,0.10582657642042,1
165,620,26,0.108729032912629,1
165,625,26,0.10492316362281,1
166,619,26,0.108509141563985,1
166,620,26,0.114310697173139,1
166,621,26,0.107356714139284,1
166,624,26,0.105078997143755,1
166,625,26,0.124965489305432,1
167,620,26,0.108010688455117,1
167,621,26,0.105209031299304,1
167,624,26,0.113060058156432,1
167,629,26,0.107691113177142,1
168,623,26,0.106552739881451,1
168,624,26,0.120697473406688,1
168,628,26,0.129592855898063,1
168,629,26,0.120187230445152,1
169,623,26,0.112882384965169,1
169,624,26,0.131260712927148,1
169,627,26,0.115636715399247,1
169,628,26,0.118273705010168,1
169,629,26,0.116692615496609,1
170,623,26,0.106186083271294,1
170,624,26,0.120030426520061,1
170,625,26,0.126723817001498,1
170,626,26,0.110041510096977,1
171,624,26,0.1038488927711,1
171,625,26,0.108581576098736,1
160,629,27,0.105026059924486,1
162,628,27,0.105965121131869,1
164,619,27,0.103337969411255,1
164,620,27,0.104699256808735,1
165,619,27,0.113934514986654,1
165,620,27,0.118430475473046,1
165,621,27,0.106552226794201,1
165,626,27,0.123069676534628,1
166,619,27,0.119653430086419,1
166,620,27,0.127812632761326,1
166,621,27,0.115626977895577,1
166,622,27,0.10638029794932,1
166,623,27,0.10345421713549,1
166,624,27,0.113392025606891,1
166,625,27,0.122247588066072,1
167,619,27,0.108850333430865,1
167,620,27,0.120154660558876,1
167,621,27,0.112937698001485,1
167,622,27,0.104092977298968,1
167,623,27,0.10658450667464,1
167,624,27,0.12362862932266,1
167,625,27,0.13478413884016,1
167,629,27,0.113152770791612,1
168,620,27,0.109473154427394,1
168,621,27,0.107245987680017,1
168,623,27,0.107601311754401,1
168,624,27,0.122467033251891,1
168,625,27,0.134539240065136,1
168,627,27,0.130837895571307,1
168,628,27,0.133909258155254,1
168,629,27,0.125901204291622,1
169,621,27,0.103395401720993,1
169,622,27,0.104795382589531,1
169,623,27,0.115572412181994,1
169,624,27,0.129059903248699,1
169,625,27,0.134788622776559,1
169,626,27,0.127602568148918,1
169,627,27,0.120258460340274,1
169,628,27,0.12764514323656,1
169,629,27,0.127883449955834,1
169,630,27,0.103765906485521,1
170,623,27,0.110744361550366,1
170,624,27,0.123870527652681,1
170,625,27,0.125780706866473,1
170,626,27,0.110881712776256,1
170,628,27,0.105001889053404,1
170,629,27,0.106393627063737,1
171,624,27,0.107178561322983,1
171,625,27,0.110918175433186,1
163,616,28,0.104698420253437,1
163,628,28,0.110936735806735,1
164,619,28,0.103946223191526,1
164,620,28,0.105898352865003,1
164,627,28,0.120153757079154,1
165,619,28,0.118095050260688,1
165,620,28,0.122888880203586,1
165,621,28,0.108380546283548,1
165,626,28,0.118801225627129,1
166,619,28,0.12720775866446,1
166,620,28,0.137058654617415,1
166,621,28,0.119391565969948,1
166,622,28,0.107389507106972,1
166,623,28,0.104571174615548,1
166,624,28,0.115158462312314,1
166,625,28,0.114504499150551,1
166,626,28,0.120582887638979,1
167,619,28,0.122000826561251,1
167,620,28,0.137908929422484,1
167,621,28,0.120736389959159,1
167,622,28,0.105230659042279,1
167,623,28,0.10924336941809,1
167,624,28,0.131126228297413,1
167,625,28,0.129424775207553,1
167,626,28,0.120874923516538,1
168,619,28,0.105943114150491,1
168,620,28,0.122508225234773,1
168,621,28,0.112496565661649,1
168,623,28,0.10732660930262,1
168,624,28,0.125179134374517,1
168,625,28,0.128431226365082,1
168,626,28,0.125965128270474,1
168,627,28,0.127457754849768,1
168,629,28,0.126002628255974,1
168,630,28,0.103332358913722,1
169,620,28,0.108576210990757,1
169,621,28,0.107408156713086,1
169,622,28,0.105747505213636,1
169,623,28,0.113469323316442,1
169,624,28,0.123997996371982,1
169,625,28,0.124508005098035,1
169,626,28,0.121921208805006,1
169,627,28,0.121438605630521,1
169,628,28,0.130270398765164,1
169,629,28,0.129494410070573,1
169,630,28,0.104676926359309,1
170,623,28,0.109648117179491,1
170,624,28,0.120831244175902,1
170,625,28,0.118380036765601,1
170,626,28,0.107481684346761,1
170,628,28,0.107738897215774,1
170,629,28,0.109896272943143,1
171,624,28,0.107872121435527,1
171,625,28,0.107374315262757,1
161,629,29,0.10950086113887,1
162,616,29,0.103540616566686,1
163,615,29,0.104540724002694,1
163,628,29,0.107942860551541,1
163,629,29,0.116155691998096,1
164,619,29,0.106393593601525,1
164,620,29,0.110370822878623,1
164,627,29,0.115327022627862,1
164,630,29,0.10725263550612,1
165,619,29,0.120331407962275,1
165,620,29,0.126659011851066,1
165,621,29,0.113490315277391,1
165,626,29,0.116740745311431,1
166,619,29,0.130131352120536,1
166,620,29,0.141553845472933,1
166,621,29,0.12204369165473,1
166,622,29,0.107870426016789,1
166,623,29,0.105775267695465,1
166,624,29,0.113401718494279,1
166,625,29,0.109833363984719,1
166,626,29,0.11570829107056,1
167,619,29,0.130906437335405,1
167,620,29,0.149335059001911,1
167,621,29,0.124216136531536,1
167,622,29,0.105532175879884,1
167,623,29,0.111947606920913,1
167,624,29,0.132400803949719,1
167,625,29,0.122609994975314,1
167,626,29,0.1127299422817,1
167,630,29,0.104887872143298,1
168,619,29,0.113454220704793,1
168,620,29,0.130646380178378,1
168,621,29,0.114912760444203,1
168,623,29,0.109552627180721,1
168,624,29,0.129411847639678,1
168,625,29,0.12551066681622,1
168,626,29,0.119071343755875,1
168,627,29,0.125379829567585,1
168,629,29,0.123577164440716,1
169,620,29,0.113435303400983,1
169,621,29,0.11048294359672,1
169,622,29,0.105789221437838,1
169,623,29,0.111864263705074,1
169,624,29,0.125220805982437,1
169,625,29,0.12532538654878,1
169,626,29,0.12198274581274,1
169,627,29,0.121705901779395,1
169,628,29,0.127232855323405,1
169,629,29,0.123505466074626,1
170,623,29,0.107763904642155,1
170,624,29,0.119014591844447,1
170,625,29,0.118068882810961,1
170,626,29,0.110976421990081,1
170,627,29,0.105555867125929,1
170,628,29,0.108805951383778,1
170,629,29,0.109864160373763,1
171,624,29,0.106478286459913,1
171,625,29,0.104689418918428,1
161,629,30,0.103209374130819,1
162,615,30,0.109921458834653,1
163,628,30,0.106998534622815,1
163,629,30,0.113078306216003,1
164,619,30,0.105192400579976,1
164,620,30,0.111344762864904,1
164,621,30,0.107311071682215,1
164,627,30,0.112504808519854,1
164,628,30,0.115711648445823,1
164,630,30,0.103865545798569,1
165,619,30,0.118358899801734,1
165,620,30,0.128454415677948,1
165,621,30,0.118834040902959,1
165,626,30,0.113451878349958,1
165,627,30,0.130414754747418,1
165,637,30,0.112525833943015,1
166,619,30,0.128033862598447,1
166,620,30,0.143389783192529,1
166,621,30,0.124461146847266,1
166,622,30,0.105570311647411,1
166,623,30,0.102926975370295,1
166,624,30,0.106566392463917,1
166,625,30,0.104487095231046,1
166,626,30,0.11199546903804,1
167,619,30,0.132465307940244,1
167,620,30,0.15110576771639,1
167,621,30,0.123879283598135,1
167,622,30,0.104912199171369,1
167,623,30,0.11217239490657,1
167,624,30,0.125956193859889,1
167,625,30,0.113471063351463,1
167,626,30,0.106910573621729,1
168,619,30,0.116356543348154,1
168,620,30,0.130762438283412,1
168,621,30,0.113677357887994,1
168,623,30,0.111791594934838,1
168,624,30,0.129794554957489,1
168,625,30,0.121016424056707,1
168,626,30,0.111002555977596,1
168,627,30,0.121351514646946,1
169,620,30,0.113335262541392,1
169,621,30,0.109527697832835,1
169,622,30,0.104407834405061,1
169,623,30,0.109818149832363,1
169,624,30,0.125554480005704,1
169,625,30,0.126257956087049,1
169,626,30,0.118521860773819,1
169,627,30,0.118069563209271,1
169,628,30,0.120600511070594,1
169,629,30,0.113771264008732,1
170,623,30,0.102996777544375,1
170,624,30,0.113393364095368,1
170,625,30,0.11608508673093,1
170,626,30,0.111037468218707,1
170,627,30,0.106088518615385,1
170,628,30,0.105730026784939,1
170,629,30,0.103478131462947,1
161,614,31,0.106160707760583,1
162,614,31,0.105848092622689,1
162,629,31,0.108999976442603,1
163,628,31,0.10886865956893,1
163,629,31,0.11352537252142,1
163,630,31,0.106925564692673,1
164,619,31,0.103172331462216,1
164,620,31,0.11159072127664,1
164,621,31,0.111489252696006,1
164,627,31,0.111967271547456,1
164,628,31,0.113688322339435,1
164,637,31,0.105196694897173,1
165,619,31,0.112620509694627,1
165,620,31,0.127602891616966,1
165,621,31,0.1234807040378,1
165,626,31,0.110497332347849,1
165,627,31,0.120496543978136,1
165,637,31,0.103148171745204,1
165,638,31,0.108338238893602,1
166,619,31,0.121015163646724,1
166,620,31,0.140023462364515,1
166,621,31,0.125361492275449,1
166,622,31,0.104486158289112,1
166,626,31,0.109140506578626,1
167,619,31,0.124952182499156,1
167,620,31,0.140063271242638,1
167,621,31,0.11892574967178,1
167,622,31,0.103576711139285,1
167,623,31,0.108899020949219,1
167,624,31,0.115229491434165,1
167,625,31,0.105360782430393,1
167,626,31,0.104684834595394,1
168,619,31,0.114819913960176,1
168,620,31,0.123849111837048,1
168,621,31,0.110166993391704,1
168,623,31,0.111559891425384,1
168,624,31,0.123586924252528,1
168,625,31,0.115019560670604,1
168,626,31,0.106752520440727,1
168,627,31,0.118134022583513,1
168,630,31,0.103165449400629,1
169,620,31,0.112034140200957,1
169,621,31,0.10709447078441,1
169,623,31,0.108151441672554,1
169,624,31,0.123100907932427,1
169,625,31,0.124704260970988,1
169,626,31,0.114259868073222,1
169,627,31,0.112982548519538,1
169,628,31,0.114245189316256,1
169,629,31,0.107144050628416,1
170,620,31,0.103694208119432,1
170,624,31,0.109476221796821,1
170,625,31,0.115147486706802,1
170,626,31,0.110611884653346,1
170,627,31,0.105807346802632,1
163,620,32,0.107102713642615,1
163,621,32,0.105990619337357,1
163,628,32,0.108125363455392,1
163,629,32,0.1114056306284,1
164,620,32,0.111874893534396,1
164,621,32,0.112602205864703,1
164,627,32,0.111490847728108,1
164,628,32,0.110263754954527,1
165,619,32,0.10763968175741,1
165,620,32,0.123569390053478,1
165,621,32,0.122649201533622,1
165,622,32,0.103469966683237,1
165,626,32,0.109206125976215,1
165,627,32,0.112574041836331,1
166,619,32,0.113824892780381,1
166,620,32,0.13187574838237,1
166,621,32,0.122969602212825,1
166,622,32,0.104715697908862,1
166,626,32,0.106139180404243,1
167,619,32,0.115898691056425,1
167,620,32,0.126012209602655,1
167,621,32,0.113554596186504,1
167,622,32,0.10346080919124,1
167,623,32,0.105073330875868,1
167,624,32,0.10577310380576,1
168,619,32,0.111658169941814,1
168,620,32,0.115971415597014,1
168,621,32,0.106807822322972,1
168,622,32,0.103226216777489,1
168,623,32,0.109556040326338,1
168,624,32,0.114745995934029,1
168,625,32,0.108422552513588,1
168,626,32,0.103201845133135,1
168,627,32,0.11210989864876,1
169,620,32,0.109162937414688,1
169,621,32,0.103501030769976,1
169,623,32,0.105608347028301,1
169,624,32,0.116376587213098,1
169,625,32,0.117979192928926,1
169,626,32,0.108590488201179,1
169,627,32,0.106376249021676,1
169,628,32,0.104825543196548,1
170,624,32,0.10481359718689,1
170,625,32,0.110734088651304,1
170,626,32,0.106905966990554,1
163,619,33,0.10440851480337,1
163,620,33,0.107829122493201,1
163,621,33,0.104628908085193,1
163,629,33,0.106490132082935,1
163,640,33,0.103040512655364,1
164,620,33,0.108581832642361,1
164,621,33,0.108113361675381,1
164,626,33,0.103338705579918,1
164,627,33,0.109761810621549,1
164,628,33,0.106597958483835,1
165,620,33,0.113649004240421,1
165,621,33,0.113824848164098,1
165,626,33,0.107536908150511,1
165,627,33,0.106572081039945,1
166,619,33,0.104811489067538,1
166,620,33,0.116685945362365,1
166,621,33,0.113130897659082,1
166,627,33,0.105117991774721,1
167,619,33,0.103644449810296,1
167,620,33,0.109136703040537,1
167,621,33,0.104070356843705,1
167,627,33,0.109052735196741,1
168,619,33,0.103225212911131,1
168,620,33,0.105045200309708,1
168,624,33,0.103478555317632,1
168,627,33,0.105179818788291,1
168,628,33,0.110046027495587,1
169,624,33,0.10325713586131,1
169,625,33,0.104143828707026,1
163,620,34,0.103375134774636,1
166,628,34,0.103345163786819,1
167,628,34,0.106943132353935,1
163,619,35,0.104710020486905,1
163,620,35,0.104599762498605,1
163,637,35,0.104234801307186,1
177,623,35,0.107701564541334,1
177,624,35,0.115785588780111,1
177,625,35,0.107571898470117,1
148,621,36,0.104922884771044,1
163,619,36,0.104060117406855,1
163,620,36,0.104333659835289,1
170,611,36,0.10894749654023,1
177,623,36,0.114150915111187,1
177,624,36,0.119422195047932,1
177,625,36,0.107882305102024,1
178,624,36,0.106247765281947,1
178,625,36,0.106857391012907,1
155,633,37,0.106319207104411,1
171,609,37,0.106198620446696,1
171,611,37,0.103272561941008,1
172,609,37,0.104199587906168,1
177,622,37,0.11477170606686,1
177,623,37,0.121088858591459,1
177,624,37,0.115805654953197,1
178,622,37,0.103504968156913,1
178,623,37,0.106042686539116,1
178,624,37,0.110496194632643,1
178,625,37,0.111254180657217,1
178,626,37,0.106244195979341,1
178,627,37,0.104536909310535,1
144,607,38,0.103920513058695,1
144,608,38,0.106903356938024,1
154,633,38,0.103319453653989,1
155,633,38,0.104458116955517,1
164,619,38,0.109590874488954,1
165,619,38,0.107516429276812,1
170,612,38,0.10410396405855,1
171,611,38,0.115455339056532,1
172,609,38,0.11152596074249,1
172,610,38,0.110137022403888,1
173,610,38,0.105143032663313,1
174,613,38,0.103886649300225,1
175,613,38,0.107291061279483,1
175,614,38,0.104566746449503,1
177,621,38,0.105539191790318,1
177,622,38,0.122702149906962,1
177,623,38,0.122568312213324,1
177,624,38,0.107683729182377,1
178,621,38,0.106709432265835,1
178,622,38,0.111007218379124,1
178,623,38,0.109326913407202,1
178,624,38,0.108333453797296,1
178,625,38,0.108038027082262,1
143,608,39,0.108802136691619,1
144,607,39,0.117232450207559,1
144,608,39,0.107639224440514,1
146,612,39,0.106014578281097,1
148,615,39,0.104241560673995,1
149,637,39,0.107936948894101,1
150,637,39,0.103165170548863,1
152,633,39,0.104030692968501,1
154,633,39,0.10558732160514,1
155,633,39,0.106345274167503,1
155,640,39,0.10302273306676,1
156,611,39,0.107746147361692,1
156,638,39,0.107842752767526,1
164,619,39,0.113137657025891,1
164,620,39,0.104162556391635,1
165,618,39,0.109476355645669,1
165,619,39,0.124054224042091,1
166,618,39,0.106890061285818,1
166,619,39,0.103971710242944,1
166,626,39,0.103693706186253,1
167,626,39,0.103171249517363,1
168,612,39,0.105103089936342,1
169,612,39,0.109456981024963,1
170,612,39,0.111271547545208,1
171,608,39,0.107999701695535,1
171,611,39,0.126258179168461,1
171,612,39,0.109014409810014,1
172,609,39,0.116641195230948,1
172,610,39,0.118123314675696,1
172,611,39,0.112269346088593,1
172,612,39,0.106162882804358,1
173,610,39,0.106736202035377,1
173,611,39,0.105164783101065,1
173,612,39,0.108334446509583,1
174,612,39,0.107565473725427,1
174,613,39,0.112618702735183,1
175,613,39,0.11272230174331,1
175,614,39,0.109868610847949,1
177,621,39,0.11491738938352,1
177,622,39,0.126599683349319,1
177,623,39,0.117463897173389,1
178,620,39,0.113568137228263,1
178,621,39,0.126382435515418,1
178,622,39,0.125675724753587,1
178,623,39,0.114819657416551,1
179,621,39,0.103910072848574,1
143,608,40,0.10955764651251,1
144,607,40,0.119482772805591,1
146,612,40,0.103866360045726,1
147,609,40,0.105486689579805,1
147,611,40,0.109967458221982,1
147,612,40,0.103547063619517,1
147,613,40,0.103421535708508,1
147,617,40,0.106057365296081,1
148,614,40,0.112228745271455,1
148,615,40,0.107810684814429,1
148,616,40,0.10587832015413,1
149,615,40,0.1043746510449,1
149,637,40,0.1107949564148,1
149,638,40,0.106714462751695,1
150,637,40,0.103411474736788,1
151,634,40,0.103864976940967,1
152,633,40,0.107269433536507,1
152,634,40,0.104123450219963,1
153,633,40,0.103255473904784,1
155,628,40,0.103644840202769,1
156,611,40,0.106630037591003,1
156,628,40,0.104054629604099,1
157,610,40,0.108335149216034,1
158,607,40,0.106432008220818,1
158,610,40,0.105158904905837,1
159,610,40,0.112953860249846,1
160,610,40,0.114099729081009,1
164,611,40,0.109581036598647,1
164,619,40,0.107043150905385,1
165,611,40,0.109293685430758,1
165,618,40,0.112076101814714,1
165,619,40,0.128150656872143,1
166,618,40,0.110596313570729,1
166,619,40,0.108415737376425,1
168,611,40,0.112920911125168,1
168,612,40,0.112815739393081,1
168,613,40,0.104345349301322,1
169,612,40,0.124003183014831,1
169,613,40,0.109598325408143,1
170,612,40,0.117389164900085,1
171,612,40,0.110984832159345,1
172,608,40,0.107718987199678,1
172,611,40,0.125195999329328,1
172,612,40,0.113094345769587,1
173,609,40,0.104699613738995,1
173,610,40,0.11308224360294,1
173,611,40,0.118680449350213,1
173,612,40,0.121674714997879,1
173,613,40,0.107735249834674,1
174,611,40,0.10803851786137,1
174,612,40,0.120302217759404,1
174,613,40,0.119436561490919,1
174,614,40,0.104759276862861,1
175,612,40,0.105616511808012,1
175,613,40,0.115943764655891,1
175,614,40,0.112720940946691,1
176,614,40,0.10403086027956,1
177,620,40,0.112495048708042,1
177,621,40,0.122549093749607,1
177,622,40,0.123397015045771,1
177,623,40,0.108205137368626,1
178,619,40,0.104006789795114,1
178,620,40,0.131874599513094,1
178,622,40,0.13956133806373,1
178,623,40,0.118151969483177,1
179,620,40,0.113241601810208,1
179,622,40,0.117944771466924,1
179,623,40,0.105197754533884,1
143,606,41,0.106685272548824,1
144,606,41,0.113877082676916,1
144,613,41,0.112973814882225,1
147,610,41,0.11582862118465,1
147,611,41,0.110008482893805,1
147,612,41,0.103716962423542,1
147,613,41,0.105787113318487,1
147,616,41,0.118577486124113,1
148,609,41,0.111317390775548,1
148,611,41,0.115245196365629,1
148,612,41,0.115548163232418,1
148,614,41,0.115669352209947,1
148,615,41,0.11170186043652,1
148,616,41,0.112035244453951,1
148,617,41,0.109882308046698,1
149,609,41,0.11466510661373,1
149,615,41,0.107013302612346,1
149,637,41,0.109198039275,1
150,608,41,0.104059347775981,1
150,614,41,0.123430220714073,1
150,635,41,0.104303209222435,1
151,613,41,0.118976746082757,1
151,625,41,0.10489016988185,1
151,633,41,0.115423349181929,1
151,634,41,0.108296578439753,1
152,613,41,0.104163370638792,1
152,633,41,0.11622225949169,1
152,634,41,0.110336289875914,1
152,635,41,0.104229625818408,1
153,613,41,0.103049703609573,1
153,634,41,0.105449289980941,1
153,637,41,0.104127644150524,1
154,613,41,0.102964586896501,1
155,612,41,0.106327115340497,1
155,614,41,0.106924081201277,1
156,611,41,0.109292268863787,1
156,614,41,0.103988887511733,1
156,629,41,0.105883372948131,1
157,610,41,0.108195199091684,1
158,607,41,0.105491720065664,1
158,609,41,0.107994793904452,1
159,607,41,0.104581402898327,1
159,608,41,0.11352501559116,1
159,609,41,0.116019065786798,1
160,606,41,0.105749222940515,1
160,609,41,0.126546779592263,1
160,610,41,0.104793999484771,1
162,610,41,0.108854181585236,1
164,611,41,0.111298083079266,1
165,611,41,0.121107195883595,1
165,618,41,0.107912699944524,1
165,619,41,0.120258281875144,1
166,611,41,0.109444332308854,1
166,618,41,0.10828923906127,1
166,619,41,0.106341827559674,1
167,611,41,0.104779778044702,1
168,611,41,0.119319945682353,1
168,612,41,0.12103818564853,1
168,613,41,0.107019638124471,1
168,617,41,0.104257354838025,1
169,612,41,0.139374696999671,1
169,613,41,0.118287446825199,1
169,617,41,0.107270281245876,1
169,618,41,0.105184380803184,1
170,612,41,0.125207198016253,1
171,612,41,0.112439222584477,1
171,616,41,0.103953517953726,1
172,612,41,0.118419466405322,1
172,615,41,0.103700476707133,1
172,616,41,0.113089806062835,1
173,611,41,0.137078285781746,1
173,612,41,0.136332033839487,1
173,613,41,0.114923133729901,1
173,616,41,0.103270799597847,1
174,610,41,0.103812753582219,1
174,611,41,0.125688953481368,1
174,612,41,0.138313933727509,1
174,613,41,0.126923898720682,1
174,614,41,0.108349404118315,1
175,612,41,0.114422081722574,1
175,613,41,0.117984368417704,1
175,614,41,0.113859314242383,1
175,615,41,0.103422059949828,1
176,614,41,0.108228672457682,1
176,615,41,0.104247427715153,1
177,619,41,0.112678700481169,1
177,620,41,0.125763362286624,1
177,622,41,0.112414248620308,1
178,619,41,0.114584172677149,1
178,623,41,0.117792406861949,1
179,623,41,0.122104626342649,1
180,622,41,0.104390132894952,1
143,606,42,0.110875477650767,1
143,607,42,0.104840155029089,1
144,605,42,0.104253049366757,1
144,606,42,0.122728529284031,1
144,613,42,0.104135451999974,1
145,605,42,0.107173028903945,1
145,606,42,0.107128457237658,1
146,613,42,0.122078235811509,1
147,610,42,0.110242361447035,1
147,611,42,0.107525631385092,1
147,612,42,0.10387944377059,1
147,613,42,0.110518737009412,1
147,614,42,0.124428409649931,1
147,616,42,0.123891776157255,1
148,609,42,0.103961861198566,1
148,610,42,0.112433054383411,1
148,611,42,0.110208274607151,1
148,612,42,0.111387884502008,1
148,613,42,0.118641978960567,1
148,614,42,0.122487612512226,1
148,615,42,0.120134616693932,1
148,616,42,0.119293030909893,1
148,617,42,0.119543930574923,1
149,609,42,0.108337469262728,1
149,610,42,0.114086333042167,1
149,611,42,0.119841041554624,1
149,612,42,0.13316828208841,1
149,614,42,0.130367595336742,1
149,615,42,0.114362764374898,1
149,616,42,0.106331130805928,1
149,637,42,0.108813524997745,1
150,609,42,0.115568854033459,1
150,613,42,0.14115964946236,1
150,614,42,0.122816445668834,1
150,615,42,0.10340924392266,1
150,635,42,0.109182892047067,1
151,608,42,0.106706956062153,1
151,613,42,0.121535211036355,1
151,614,42,0.106476535270822,1
151,633,42,0.121613133373863,1
151,634,42,0.116706859244819,1
151,635,42,0.105218757648904,1
152,613,42,0.108422362894387,1
152,625,42,0.104909555656626,1
152,634,42,0.121932585957061,1
152,635,42,0.108380780519032,1
153,607,42,0.103526607053959,1
153,613,42,0.105758670438349,1
153,635,42,0.106756993223054,1
154,607,42,0.105615809101561,1
154,613,42,0.106272426932137,1
155,612,42,0.112655210008396,1
155,613,42,0.108548838901401,1
155,614,42,0.121073332125124,1
156,611,42,0.112557288422226,1
156,614,42,0.112806024197552,1
157,607,42,0.118581925444229,1
157,610,42,0.109032010933488,1
158,607,42,0.104433377226832,1
158,608,42,0.10834358169344,1
158,609,42,0.105104394962608,1
159,608,42,0.107116254684375,1
159,609,42,0.106343210664434,1
160,607,42,0.110784449280255,1
160,608,42,0.115614674955658,1
160,609,42,0.112477759898546,1
161,606,42,0.111560627594046,1
161,608,42,0.120321224295779,1
161,609,42,0.112928819361254,1
162,606,42,0.109002341105579,1
162,610,42,0.104822431210839,1
164,611,42,0.114675290280227,1
165,611,42,0.130476559452847,1
165,612,42,0.108071043131363,1
165,618,42,0.105117155219422,1
165,619,42,0.109662807090527,1
166,611,42,0.123331094488274,1
166,612,42,0.108989290842927,1
166,618,42,0.105909250392021,1
167,611,42,0.119319834141647,1
167,612,42,0.110046685585755,1
168,612,42,0.132249577059949,1
168,613,42,0.10932115790675,1
168,617,42,0.105837775107345,1
169,613,42,0.122265267268041,1
169,617,42,0.112369777340657,1
169,618,42,0.110105099453709,1
170,613,42,0.107185844931113,1
170,617,42,0.115816675174992,1
170,618,42,0.108484714149278,1
171,612,42,0.11255717688152,1
171,615,42,0.104865128993258,1
171,616,42,0.115873014385806,1
171,617,42,0.108145340395912,1
172,612,42,0.118236216178739,1
172,615,42,0.123549580424017,1
172,616,42,0.130815442427104,1
172,617,42,0.104435831122373,1
173,612,42,0.143310656215392,1
173,613,42,0.119664863008828,1
173,614,42,0.106457149496046,1
173,615,42,0.11410165873523,1
173,616,42,0.116922746282103,1
173,617,42,0.10375998367401,1
174,610,42,0.114775041133982,1
174,611,42,0.141231927840123,1
174,612,42,0.15158239230901,1
174,613,42,0.131106853676707,1
174,614,42,0.110717234850564,1
174,615,42,0.105630755556222,1
174,616,42,0.108782572451712,1
174,617,42,0.110020596214523,1
175,611,42,0.108276590345161,1
175,612,42,0.121839583316045,1
175,613,42,0.117633026346539,1
175,614,42,0.112510508249952,1
175,615,42,0.111346659056914,1
175,616,42,0.110153976591264,1
175,617,42,0.10474727508285,1
176,614,42,0.109298849765466,1
176,615,42,0.112625027093238,1
176,616,42,0.105332306088043,1
177,619,42,0.123013984259911,1
177,620,42,0.130529463209904,1
177,622,42,0.104196241684975,1
178,619,42,0.121794074707824,1
178,623,42,0.112152328733484,1
180,620,42,0.109808211555421,1
180,623,42,0.108986691944468,1
143,606,43,0.111536657496236,1
144,605,43,0.114017222420467,1
144,606,43,0.133705774444525,1
145,604,43,0.112474201750011,1
145,605,43,0.111483095649011,1
145,606,43,0.109154739172766,1
146,605,43,0.103074945271437,1
146,613,43,0.124505997365319,1
147,611,43,0.104414080684621,1
147,612,43,0.106699984768001,1
147,613,43,0.120152195509264,1
147,614,43,0.134939581968633,1
148,610,43,0.108008836879391,1
148,611,43,0.109349176932204,1
148,612,43,0.109947057426777,1
148,613,43,0.118517220680432,1
148,614,43,0.128017220725049,1
148,615,43,0.127221690098692,1
148,616,43,0.125624438336773,1
149,609,43,0.106530420586096,1
149,610,43,0.112310158833074,1
149,611,43,0.115976524161368,1
149,612,43,0.121132571394306,1
149,613,43,0.125954788446988,1
149,614,43,0.126230070910443,1
149,615,43,0.120080742532729,1
149,616,43,0.113861533902441,1
149,617,43,0.109933527539088,1
150,609,43,0.114755867286547,1
150,610,43,0.12160180083809,1
150,611,43,0.131369041261227,1
150,612,43,0.136030427769317,1
150,613,43,0.130473246693867,1
150,614,43,0.12141618594853,1
150,615,43,0.109130189063282,1
150,635,43,0.115144218564103,1
151,608,43,0.107007859425872,1
151,609,43,0.114758633496067,1
151,612,43,0.142194691447621,1
151,613,43,0.131036817267144,1
151,614,43,0.120842822101229,1
151,615,43,0.105765742119136,1
151,634,43,0.126197824492215,1
151,635,43,0.108480720991988,1
152,608,43,0.106408026968937,1
152,612,43,0.139033527440932,1
152,613,43,0.122568814146503,1
152,614,43,0.113242772987625,1
152,635,43,0.109518584957121,1
153,608,43,0.105850579980442,1
153,613,43,0.11115420672205,1
153,619,43,0.10332121599715,1
154,607,43,0.103127748641858,1
154,608,43,0.110042926663949,1
154,613,43,0.108903750275171,1
154,614,43,0.106332848532807,1
155,612,43,0.125446040130918,1
155,613,43,0.115189180622863,1
155,614,43,0.126045125265121,1
155,615,43,0.121095216411725,1
156,611,43,0.120784095919297,1
156,612,43,0.110152649256858,1
156,613,43,0.107261514146351,1
156,614,43,0.113804692758447,1
156,615,43,0.105637135684629,1
157,606,43,0.103582332790889,1
157,610,43,0.115353602778202,1
158,607,43,0.110653823958962,1
158,608,43,0.113427897098077,1
158,609,43,0.111696874566943,1
158,637,43,0.104115207361758,1
159,607,43,0.104830049441087,1
159,608,43,0.104625517247718,1
160,607,43,0.109881315334411,1
160,608,43,0.108657446087246,1
160,609,43,0.103433158250117,1
161,606,43,0.108148441227551,1
161,607,43,0.116169612278258,1
161,608,43,0.115133242958591,1
161,609,43,0.106081536167163,1
162,606,43,0.106179513523686,1
162,607,43,0.117433993109997,1
162,608,43,0.122039865808499,1
162,609,43,0.114187723544307,1
162,610,43,0.104645315723108,1
163,610,43,0.123537344408522,1
163,611,43,0.107804672770353,1
164,611,43,0.123293616810916,1
164,612,43,0.108365722523665,1
165,612,43,0.119796938359304,1
165,613,43,0.103369011189853,1
166,612,43,0.128892804116405,1
166,613,43,0.109303534475135,1
167,613,43,0.109596317675427,1
167,617,43,0.104301413417062,1
168,613,43,0.114264932021293,1
168,617,43,0.108989123531868,1
168,618,43,0.103692802706531,1
169,618,43,0.11350035394097,1
170,613,43,0.117297723828959,1
170,614,43,0.104543021741247,1
170,616,43,0.114980922969899,1
170,618,43,0.119411777145952,1
171,613,43,0.107113878867328,1
171,614,43,0.106000468381734,1
171,615,43,0.121314048123658,1
171,618,43,0.106798999453094,1
172,613,43,0.108399943212396,1
172,614,43,0.117270240198896,1
173,613,43,0.127098225690752,1
173,614,43,0.123716010312072,1
173,616,43,0.1303819729338,1
173,617,43,0.114132031269589,1
173,618,43,0.106848735454088,1
174,612,43,0.160556834853098,1
174,613,43,0.136954018280719,1
174,614,43,0.120159211419698,1
174,615,43,0.120576440586147,1
174,616,43,0.120293930284917,1
174,617,43,0.121498647992789,1
174,618,43,0.116536224272132,1
175,611,43,0.11588991280283,1
175,612,43,0.128645027591155,1
175,613,43,0.119516402328577,1
175,614,43,0.113608347652929,1
175,615,43,0.119797295289565,1
175,616,43,0.121792501983863,1
175,617,43,0.117778129651526,1
175,618,43,0.10532633866025,1
176,613,43,0.102935084379652,1
176,614,43,0.108311625281049,1
176,615,43,0.119310386643812,1
176,616,43,0.118558256506326,1
176,617,43,0.106300981352982,1
177,615,43,0.104302829984034,1
177,616,43,0.104939002403122,1
177,619,43,0.12526011292738,1
178,623,43,0.10453560428427,1
180,623,43,0.117837168147436,1
143,616,44,0.109389286970234,1
144,605,44,0.110629184616913,1
144,606,44,0.12848692979387,1
144,614,44,0.113874149156337,1
145,604,44,0.115995497235531,1
145,605,44,0.109184353230321,1
145,606,44,0.106245344848617,1
145,613,44,0.109199031987287,1
146,605,44,0.103924015436877,1
146,613,44,0.125594076956484,1
147,612,44,0.10951492642195,1
147,613,44,0.129449102235624,1
147,614,44,0.142664021278041,1
148,611,44,0.1075926115793,1
148,612,44,0.109508579755754,1
148,613,44,0.120349254475303,1
148,614,44,0.132119576366612,1
148,615,44,0.131734638234673,1
148,616,44,0.129077950534998,1
149,610,44,0.109350760810235,1
149,611,44,0.111771539915823,1
149,612,44,0.110822116576814,1
149,613,44,0.114654041775653,1
149,614,44,0.122370985549589,1
149,615,44,0.124696464275609,1
149,616,44,0.120921580994035,1
149,617,44,0.118218447744205,1
150,609,44,0.109246224860175,1
150,610,44,0.11436106895616,1
150,611,44,0.120952254688301,1
150,612,44,0.122752343224852,1
150,613,44,0.121853559366559,1
150,614,44,0.12041622351544,1
150,615,44,0.116321329947136,1
150,616,44,0.110845417430386,1
150,617,44,0.103192330710877,1
150,619,44,0.103690159191789,1
150,620,44,0.107309733193738,1
150,621,44,0.108918049793734,1
150,636,44,0.105808161049789,1
151,609,44,0.109202344746268,1
151,610,44,0.117437149711989,1
151,611,44,0.132524569517567,1
151,612,44,0.138956720510489,1
151,613,44,0.138436661966787,1
151,614,44,0.134367266603972,1
151,615,44,0.119846629744016,1
151,616,44,0.10453473426676,1
151,620,44,0.104295724841034,1
151,621,44,0.104131157682777,1
151,635,44,0.113510169523135,1
152,609,44,0.109330672329008,1
152,610,44,0.123855860049786,1
152,611,44,0.141265077738072,1
152,612,44,0.142152584830946,1
152,613,44,0.139216052652924,1
152,614,44,0.139434025501418,1
152,615,44,0.122070461424271,1
152,618,44,0.103168527924127,1
152,619,44,0.112875212897746,1
152,620,44,0.105579034130653,1
152,636,44,0.104173007755827,1
153,609,44,0.115649152188014,1
153,612,44,0.138401214330286,1
153,613,44,0.120592379753095,1
153,614,44,0.115771066180135,1
153,615,44,0.107057785046068,1
153,618,44,0.121314070431799,1
154,608,44,0.106423776516684,1
154,613,44,0.113965969465865,1
154,614,44,0.109309825370978,1
154,615,44,0.113021018909184,1
154,618,44,0.1116758045275,1
154,620,44,0.107820857326855,1
155,607,44,0.109139446941915,1
155,608,44,0.116804089278609,1
155,612,44,0.139136501821103,1
155,613,44,0.120289234421176,1
155,614,44,0.122513913810801,1
155,615,44,0.133397877478513,1
156,606,44,0.104473431494509,1
156,611,44,0.131455987241885,1
156,612,44,0.128420741538678,1
156,613,44,0.112366788049725,1
156,614,44,0.107233361272049,1
156,615,44,0.110923261689399,1
157,606,44,0.104730666671664,1
157,607,44,0.123653335589133,1
157,608,44,0.131604804852396,1
157,609,44,0.132608693518352,1
157,610,44,0.118903441530496,1
157,611,44,0.103480975750961,1
158,607,44,0.114689612106932,1
158,608,44,0.120599462587953,1
158,609,44,0.119532888044987,1
158,610,44,0.104113969259917,1
159,607,44,0.107692741671456,1
159,608,44,0.106518586117144,1
159,609,44,0.103506886657063,1
159,623,44,0.103844687686468,1
160,607,44,0.109610661810274,1
160,608,44,0.104632878934342,1
161,606,44,0.104077227751221,1
161,607,44,0.112682782871024,1
161,608,44,0.109527865143895,1
162,607,44,0.110034070331859,1
162,608,44,0.111120956437465,1
162,609,44,0.105034414323397,1
162,610,44,0.104189002693128,1
162,611,44,0.103109534044499,1
163,607,44,0.107126538737507,1
163,610,44,0.125353227109103,1
163,611,44,0.123030090737919,1
163,612,44,0.119462171237114,1
163,613,44,0.112226269067772,1
164,613,44,0.118042302660621,1
165,612,44,0.132860452046821,1
165,613,44,0.118733888502661,1
165,614,44,0.104821895815448,1
166,614,44,0.11354203670296,1
166,615,44,0.105808506825979,1
166,616,44,0.103518788050439,1
166,617,44,0.104308373557143,1
167,614,44,0.112061534598455,1
167,615,44,0.104257165218824,1
167,616,44,0.107269422382436,1
167,617,44,0.110055341144574,1
168,614,44,0.105388756839565,1
168,616,44,0.112804964560841,1
168,618,44,0.107554732355398,1
169,614,44,0.109140305805355,1
169,615,44,0.106427122737876,1
173,613,44,0.13526076343278,1
173,618,44,0.115298222817463,1
173,619,44,0.105335083451633,1
174,613,44,0.140470417129226,1
174,614,44,0.135656666016161,1
174,616,44,0.127753962349747,1
174,617,44,0.12365416099036,1
174,618,44,0.119959798944754,1
174,619,44,0.10495754046853,1
175,612,44,0.129303251607904,1
175,613,44,0.121314996219662,1
175,614,44,0.1192933320698,1
175,615,44,0.127082364602298,1
175,616,44,0.128338112183359,1
175,617,44,0.122272539722099,1
175,618,44,0.111439918241555,1
176,613,44,0.103729744988498,1
176,614,44,0.10756135787336,1
176,615,44,0.121694368470351,1
176,616,44,0.128897934988901,1
176,617,44,0.118123169672778,1
177,615,44,0.107987900688795,1
177,616,44,0.119881898915387,1
177,617,44,0.116251862395175,1
177,618,44,0.107734770209637,1
177,619,44,0.120225611602232,1
177,622,44,0.103353183563611,1
178,616,44,0.104280968005575,1
178,617,44,0.103203752479215,1
178,618,44,0.104916538104848,1
144,605,45,0.111105329584495,1
144,606,45,0.128902898550337,1
144,614,45,0.103941281938231,1
144,615,45,0.122578462417608,1
145,604,45,0.112969710184229,1
145,605,45,0.107205029932618,1
145,606,45,0.111281351973302,1
145,613,45,0.104271721281012,1
145,614,45,0.129275712207488,1
146,612,45,0.10430277421368,1
146,613,45,0.128693703955439,1
147,611,45,0.103904216961487,1
147,612,45,0.118892075532511,1
147,613,45,0.141461913622698,1
147,614,45,0.152769497739338,1
148,610,45,0.104125636417809,1
148,611,45,0.112606912882514,1
148,612,45,0.116694355531629,1
148,613,45,0.129307512462889,1
148,614,45,0.137438506493141,1
148,615,45,0.136110937851214,1
149,610,45,0.110426570923694,1
149,611,45,0.113211708900886,1
149,612,45,0.111148685457082,1
149,613,45,0.116759841080371,1
149,614,45,0.124551082118856,1
149,615,45,0.128718622149254,1
149,616,45,0.129617216388346,1
150,609,45,0.10701858964183,1
150,610,45,0.110260932974654,1
150,611,45,0.11598749976688,1
150,612,45,0.119545380604106,1
150,613,45,0.125007194375564,1
150,614,45,0.12818757684597,1
150,615,45,0.129394268824346,1
150,616,45,0.128837859164421,1
150,617,45,0.117126988469636,1
150,618,45,0.115287771453271,1
151,609,45,0.107701464154699,1
151,610,45,0.112610114100789,1
151,611,45,0.127689871059836,1
151,612,45,0.140362468033549,1
151,613,45,0.150753801017269,1
151,614,45,0.153315500651353,1
151,615,45,0.139133289448758,1
151,616,45,0.121402366055004,1
151,617,45,0.105190437463543,1
151,618,45,0.107439020026554,1
151,635,45,0.11845901873982,1
151,636,45,0.106532082542621,1
152,609,45,0.108590187041272,1
152,610,45,0.119872362184988,1
152,611,45,0.138051846529625,1
152,612,45,0.147601805656649,1
152,613,45,0.158528277487579,1
152,615,45,0.145234086465106,1
152,616,45,0.110944777891668,1
152,618,45,0.121383660678537,1
152,635,45,0.11115698408564,1
152,636,45,0.105155904460834,1
153,609,45,0.113941631283724,1
153,610,45,0.132114969735437,1
153,611,45,0.146831817852063,1
153,612,45,0.141037835856875,1
153,613,45,0.13339089503029,1
153,614,45,0.133980331893387,1
153,615,45,0.122948108318697,1
153,616,45,0.103653506915658,1
153,617,45,0.111652570598352,1
154,608,45,0.106662719017985,1
154,609,45,0.121759709016174,1
154,612,45,0.140840096492527,1
154,613,45,0.119901775469272,1
154,614,45,0.111511125828536,1
154,615,45,0.119053787248684,1
154,616,45,0.106059618418351,1
154,617,45,0.10824792438361,1
154,621,45,0.109178988122342,1
155,607,45,0.111299243102613,1
155,608,45,0.116850367517704,1
155,609,45,0.12926932092501,1
155,611,45,0.154050308517132,1
155,612,45,0.151673777609783,1
155,613,45,0.124980647687435,1
155,614,45,0.11595312292116,1
155,615,45,0.136048753907382,1
155,616,45,0.114706454753602,1
155,618,45,0.103416036751681,1
155,620,45,0.106523471600085,1
155,621,45,0.10397563647581,1
156,606,45,0.107342682318416,1
156,607,45,0.121537397234201,1
156,608,45,0.126186982735551,1
156,609,45,0.132041832494235,1
156,610,45,0.135399955080327,1
156,611,45,0.142646052070236,1
156,612,45,0.143848695120969,1
156,613,45,0.115957439546499,1
156,615,45,0.114468058801762,1
157,606,45,0.108956743264793,1
157,607,45,0.128079505055516,1
157,608,45,0.136275638858319,1
157,609,45,0.137063584716639,1
157,610,45,0.124888213904022,1
157,611,45,0.114839701281496,1
157,612,45,0.108795533481798,1
158,606,45,0.106797872891959,1
158,607,45,0.126649296655537,1
158,608,45,0.136352724640529,1
158,609,45,0.134532569930892,1
158,610,45,0.114983867644549,1
159,606,45,0.10444550170162,1
159,607,45,0.117545634203056,1
159,608,45,0.117050594239806,1
159,609,45,0.112724967566193,1
159,610,45,0.103621706660256,1
159,623,45,0.103364728026726,1
160,606,45,0.10758237214245,1
160,607,45,0.117715979169907,1
160,608,45,0.109290562290978,1
160,618,45,0.104607057260805,1
161,606,45,0.107780646902189,1
161,607,45,0.118708390297172,1
161,608,45,0.112480068791169,1
161,609,45,0.103794494368577,1
161,618,45,0.10390722856056,1
162,606,45,0.103502436182877,1
162,607,45,0.114137273682791,1
162,608,45,0.112557935358324,1
162,609,45,0.107687555028608,1
162,610,45,0.111916197057984,1
162,611,45,0.116101483214774,1
162,612,45,0.11627573210635,1
162,613,45,0.116840708092528,1
162,614,45,0.111651142877309,1
162,618,45,0.106095791069444,1
162,619,45,0.104793419473098,1
163,607,45,0.10735873302607,1
163,614,45,0.11881774480575,1
163,615,45,0.104299517225053,1
163,618,45,0.106673795010133,1
163,619,45,0.104690277781868,1
164,614,45,0.116711019713169,1
164,615,45,0.108306739798108,1
164,616,45,0.108661785020726,1
164,617,45,0.109742290997924,1
164,618,45,0.106747690728139,1
165,614,45,0.122682596821126,1
165,615,45,0.121324287560507,1
165,616,45,0.120844874450227,1
165,617,45,0.117885041418634,1
165,618,45,0.109259275122826,1
166,617,45,0.119001753509138,1
166,618,45,0.110883698200831,1
167,618,45,0.113133184243564,1
173,619,45,0.111447491855521,1
174,619,45,0.111690527900748,1
175,612,45,0.12771841432661,1
175,613,45,0.130292662290166,1
175,614,45,0.138953474675932,1
175,618,45,0.122218598636473,1
175,619,45,0.110476329232829,1
175,634,45,0.104787507815657,1
176,612,45,0.105847311837744,1
176,613,45,0.111070618116656,1
176,614,45,0.114028577264381,1
176,615,45,0.125375077933492,1
176,616,45,0.139932433994002,1
176,618,45,0.119803329641782,1
176,619,45,0.108845481410135,1
176,620,45,0.108005011033161,1
176,621,45,0.104142267137136,1
177,613,45,0.105489779257373,1
177,615,45,0.111928879236305,1
177,616,45,0.137466871294785,1
177,618,45,0.120395878490588,1
177,619,45,0.118986583973064,1
177,622,45,0.108075906306164,1
178,616,45,0.114533633583069,1
178,617,45,0.116580427854088,1
178,618,45,0.109191190675625,1
180,619,45,0.107515893881421,1
144,604,46,0.109143741259113,1
144,605,46,0.114552963587492,1
144,606,46,0.122621595208782,1
144,607,46,0.103845267698142,1
144,615,46,0.110832534478794,1
145,604,46,0.113883340110547,1
145,605,46,0.112023911918178,1
145,606,46,0.116002803151801,1
145,607,46,0.10311806690854,1
145,614,46,0.121817888648645,1
146,604,46,0.106135733796415,1
146,612,46,0.105220308064723,1
146,613,46,0.127574181039133,1
147,611,46,0.103741255989401,1
147,612,46,0.12356491727115,1
147,613,46,0.145392786582206,1
148,611,46,0.111985564223309,1
148,612,46,0.120437873566557,1
148,613,46,0.134239017099726,1
148,614,46,0.13931720891958,1
149,610,46,0.10979638824054,1
149,611,46,0.111717743833115,1
149,612,46,0.112603689356099,1
149,613,46,0.120556564032263,1
149,614,46,0.125837637243031,1
149,615,46,0.130277436983739,1
149,616,46,0.136332123072052,1
150,610,46,0.106715120841863,1
150,611,46,0.111449811902214,1
150,612,46,0.118899727224972,1
150,613,46,0.12867461934057,1
150,614,46,0.135955684341942,1
150,615,46,0.143540285067707,1
150,616,46,0.145552970190702,1
150,617,46,0.127923147293251,1
151,609,46,0.10319671426064,1
151,610,46,0.107832468714393,1
151,611,46,0.121454946344012,1
151,612,46,0.13914340619083,1
151,613,46,0.155861684973174,1
151,616,46,0.137259227115706,1
151,617,46,0.112937073373529,1
152,609,46,0.104916437718213,1
152,610,46,0.115563868163882,1
152,611,46,0.133605142419189,1
152,612,46,0.151248093657787,1
152,616,46,0.121212735700013,1
152,617,46,0.108487045350042,1
152,635,46,0.115422691091761,1
152,636,46,0.10881535426533,1
152,637,46,0.1108204880825,1
153,609,46,0.109284494476549,1
153,610,46,0.125184410249931,1
153,611,46,0.13960994750359,1
153,612,46,0.144375513031479,1
153,613,46,0.148202798136931,1
153,615,46,0.137083505886806,1
153,616,46,0.115732584636419,1
153,636,46,0.108257572654716,1
154,608,46,0.104485109806472,1
154,609,46,0.117712577178361,1
154,610,46,0.134410879020184,1
154,611,46,0.146574236898719,1
154,612,46,0.146119730828183,1
154,613,46,0.129830482219028,1
154,614,46,0.122266103823339,1
154,615,46,0.124862470308979,1
154,616,46,0.120629589732758,1
154,622,46,0.107999322457133,1
154,623,46,0.103250733424761,1
155,607,46,0.107884390913234,1
155,608,46,0.113093096513675,1
155,609,46,0.125108785650975,1
155,610,46,0.139738330856683,1
155,611,46,0.156662346472025,1
155,612,46,0.160476001303152,1
155,613,46,0.129537977870502,1
155,614,46,0.114281395429562,1
155,615,46,0.132253213286979,1
155,616,46,0.12580080650177,1
155,617,46,0.11037390140212,1
155,621,46,0.114123041088652,1
155,622,46,0.108147415053052,1
155,623,46,0.105629952463136,1
156,606,46,0.104978175499218,1
156,607,46,0.115484696570462,1
156,608,46,0.120829738376365,1
156,609,46,0.127576400699191,1
156,610,46,0.135650653972085,1
156,611,46,0.150585831867465,1
156,612,46,0.151128243168734,1
156,613,46,0.117437294714907,1
156,615,46,0.115531387510171,1
156,616,46,0.109893685198753,1
156,622,46,0.104795605670944,1
157,606,46,0.107082614007318,1
157,607,46,0.124421371431355,1
157,608,46,0.135647452753811,1
157,609,46,0.136700028938121,1
157,610,46,0.12978172777625,1
157,611,46,0.127184970898137,1
157,612,46,0.118008215820737,1
158,606,46,0.108929761567909,1
158,607,46,0.1319861848358,1
158,608,46,0.148462241820073,1
158,609,46,0.145356346233418,1
158,610,46,0.124363002179684,1
158,611,46,0.105363035552663,1
158,623,46,0.103792508944003,1
159,606,46,0.108651344810604,1
159,607,46,0.125250152342297,1
159,608,46,0.130228615616538,1
159,609,46,0.124547088961566,1
159,610,46,0.111808906052475,1
159,618,46,0.103271390763591,1
160,606,46,0.111419127053877,1
160,607,46,0.123526078797174,1
160,608,46,0.11660199982671,1
160,609,46,0.108606036975655,1
160,610,46,0.106026211976777,1
160,618,46,0.110701239913262,1
161,606,46,0.110611895807417,1
161,607,46,0.1232745879664,1
161,608,46,0.116109324526436,1
161,609,46,0.107788566292345,1
161,610,46,0.107491544545209,1
161,611,46,0.103293297358332,1
161,612,46,0.10405777505202,1
161,613,46,0.115400527953395,1
161,614,46,0.120061535223083,1
161,615,46,0.109487933570995,1
161,617,46,0.105396631613438,1
161,618,46,0.116559870901894,1
161,619,46,0.104804506619316,1
162,606,46,0.10603042821548,1
162,607,46,0.117300657349538,1
162,608,46,0.113537619690986,1
162,609,46,0.109840792595767,1
162,610,46,0.118063450778559,1
162,614,46,0.142313861538364,1
162,615,46,0.121458660649536,1
162,616,46,0.10572553169447,1
162,617,46,0.111496357839005,1
162,620,46,0.110541123229191,1
163,607,46,0.106958078808595,1
163,615,46,0.120716502251204,1
163,616,46,0.114132923595241,1
163,617,46,0.118692294973235,1
163,621,46,0.103021361116071,1
164,606,46,0.103915114488504,1
164,615,46,0.124648457155564,1
166,619,46,0.105371055329455,1
167,619,46,0.113180388270522,1
167,642,46,0.108380010888158,1
168,643,46,0.10451182380566,1
170,622,46,0.105770103360757,1
170,639,46,0.105754543432211,1
171,621,46,0.103832529749468,1
171,638,46,0.109836721359983,1
171,639,46,0.115049364347361,1
172,638,46,0.111464412580685,1
172,639,46,0.113466289409228,1
173,635,46,0.105242158889112,1
173,636,46,0.105975271336153,1
173,637,46,0.104433366072761,1
174,633,46,0.107192403524651,1
174,634,46,0.120441186325538,1
174,635,46,0.123622673048937,1
174,636,46,0.116238522126687,1
175,620,46,0.107346853940836,1
175,633,46,0.120452719634582,1
175,634,46,0.128438889211613,1
175,635,46,0.123015311594317,1
175,636,46,0.10927027303648,1
176,612,46,0.106162180097908,1
176,613,46,0.114267207451704,1
176,614,46,0.120700931168587,1
176,633,46,0.105072048157745,1
176,634,46,0.108434888915718,1
176,635,46,0.10627421158344,1
177,615,46,0.112715129675887,1
178,616,46,0.119413751416455,1
180,619,46,0.107688503124612,1
180,623,46,0.106032904419162,1
144,604,47,0.112547550918556,1
144,605,47,0.110888672916337,1
144,606,47,0.112736512029308,1
144,607,47,0.104567616467013,1
145,603,47,0.103912314816773,1
145,604,47,0.116458045391,1
145,605,47,0.111834025019562,1
145,606,47,0.114223985427965,1
145,607,47,0.106604372074455,1
145,614,47,0.117813833831653,1
146,604,47,0.102988445453605,1
146,606,47,0.105861087114987,1
146,612,47,0.105517084422305,1
146,613,47,0.126252479438363,1
147,611,47,0.106093192170985,1
147,612,47,0.126686238937504,1
147,613,47,0.144831134509079,1
148,610,47,0.103673149234059,1
148,611,47,0.113935708472213,1
148,612,47,0.123652220182068,1
148,613,47,0.135915395838782,1
148,614,47,0.13915225136885,1
149,610,47,0.111252987171659,1
149,611,47,0.113634113556113,1
149,612,47,0.117732074493844,1
149,613,47,0.127842469900294,1
149,614,47,0.129690989411575,1
149,615,47,0.134203301765529,1
149,616,47,0.141604194947813,1
150,610,47,0.106646768696966,1
150,611,47,0.111359854322483,1
150,612,47,0.122984883289605,1
150,613,47,0.136383710648773,1
150,616,47,0.156936859304605,1
150,617,47,0.133075859459067,1
151,610,47,0.10630563260044,1
151,611,47,0.118783635657726,1
151,612,47,0.140634136578115,1
151,617,47,0.119433862205824,1
152,609,47,0.103141166988841,1
152,610,47,0.112498428391446,1
152,611,47,0.130632080659814,1
152,612,47,0.154527479659214,1
153,609,47,0.105841634415787,1
153,610,47,0.120262018488809,1
153,611,47,0.136548902434987,1
153,612,47,0.149443766574391,1
153,613,47,0.158907794741186,1
153,616,47,0.123710277119762,1
153,635,47,0.113788218196108,1
153,636,47,0.109731873095944,1
154,608,47,0.10335177815071,1
154,609,47,0.113428376723114,1
154,610,47,0.129427764498485,1
154,611,47,0.145652141032783,1
154,612,47,0.153074840423173,1
154,613,47,0.141079094764181,1
154,614,47,0.137244737977942,1
154,615,47,0.130316275457716,1
154,616,47,0.134016995323589,1
155,607,47,0.108444425646117,1
155,608,47,0.110793138301285,1
155,609,47,0.121019290652862,1
155,610,47,0.137406315845268,1
155,611,47,0.158389230842951,1
155,612,47,0.163878015157222,1
155,613,47,0.131337954866347,1
155,614,47,0.114021550199876,1
155,615,47,0.124161849669719,1
155,616,47,0.132507682254614,1
155,617,47,0.122257202874966,1
156,606,47,0.105679621539706,1
156,607,47,0.114437619342979,1
156,608,47,0.11787716664476,1
156,609,47,0.124871438181776,1
156,610,47,0.136540146489533,1
156,611,47,0.15355367352178,1
156,612,47,0.149480162306897,1
156,613,47,0.11528810607539,1
156,615,47,0.11150269335113,1
156,616,47,0.114266817059232,1
156,621,47,0.109621983191976,1
156,622,47,0.112370613895955,1
157,606,47,0.107232424330116,1
157,607,47,0.123951104659002,1
157,608,47,0.134213240042471,1
157,609,47,0.134800591094358,1
157,610,47,0.132953242760495,1
157,611,47,0.136584138144146,1
157,612,47,0.124448152354968,1
157,621,47,0.104510942634079,1
157,622,47,0.109760773292979,1
158,606,47,0.111649492074854,1
158,607,47,0.137977526956935,1
158,608,47,0.156142399469031,1
158,609,47,0.14931004042146,1
158,610,47,0.12856540983491,1
158,611,47,0.11713990488344,1
158,612,47,0.1058722523397,1
158,621,47,0.105873836217731,1
158,622,47,0.111141680700718,1
158,623,47,0.107498415452725,1
159,606,47,0.113277339452546,1
159,607,47,0.135471039972531,1
159,608,47,0.144822869342733,1
159,609,47,0.136242723195854,1
159,610,47,0.117906446080196,1
159,611,47,0.104579004773139,1
159,618,47,0.103703845236467,1
159,621,47,0.10587086923494,1
160,606,47,0.116169188423574,1
160,607,47,0.133082328820039,1
160,608,47,0.130616253033573,1
160,609,47,0.122597725497608,1
160,610,47,0.114468493810517,1
160,611,47,0.103713337350583,1
160,613,47,0.10585488545171,1
160,614,47,0.109022184197252,1
160,617,47,0.103500986153694,1
160,618,47,0.112951205581033,1
160,619,47,0.102950923159964,1
161,606,47,0.116443723564295,1
161,607,47,0.132054960835381,1
161,608,47,0.12446172685894,1
161,609,47,0.117709989433972,1
161,610,47,0.116932260704361,1
161,611,47,0.113038129253549,1
161,615,47,0.127768328792734,1
161,616,47,0.111568781219686,1
161,617,47,0.115996021476851,1
162,606,47,0.114121635675751,1
162,607,47,0.126545976499176,1
162,608,47,0.118448087750591,1
162,609,47,0.11690916062406,1
162,615,47,0.13781475560405,1
162,616,47,0.121249644519769,1
162,621,47,0.105528506190643,1
163,606,47,0.104821873507306,1
166,620,47,0.103056563363018,1
167,639,47,0.114796869650229,1
169,637,47,0.107936658888264,1
170,636,47,0.103160987772372,1
170,637,47,0.11799905832874,1
171,635,47,0.103538553063617,1
171,636,47,0.110431857953178,1
172,633,47,0.115545363560686,1
172,634,47,0.121832177013138,1
172,635,47,0.114328443299531,1
172,636,47,0.115544649700165,1
172,640,47,0.109514591799831,1
173,632,47,0.107297664489303,1
173,633,47,0.123687344350521,1
173,634,47,0.131250730033924,1
173,635,47,0.130502749210716,1
173,636,47,0.129576916731115,1
173,637,47,0.125021638897046,1
173,639,47,0.110115216195782,1
174,632,47,0.106433993645392,1
174,633,47,0.12956885233804,1
174,637,47,0.119241276022112,1
174,638,47,0.10340316495416,1
175,632,47,0.108233201010362,1
175,633,47,0.135443913272728,1
175,634,47,0.151289352565093,1
175,636,47,0.128170020338779,1
175,637,47,0.103572059891827,1
176,612,47,0.108494072414547,1
176,613,47,0.119158546280158,1
176,633,47,0.110694123616193,1
176,634,47,0.113617404758291,1
176,635,47,0.11341788074264,1
176,636,47,0.103646870243625,1
178,615,47,0.103839233345924,1
180,619,47,0.103306470315761,1
144,604,48,0.103826796557158,1
145,604,48,0.113743613067609,1
145,605,48,0.107478092736014,1
145,614,48,0.113516426956765,1
145,615,48,0.129733140644532,1
146,604,48,0.105223252739373,1
146,605,48,0.105406313346756,1
146,612,48,0.104347200877049,1
146,613,48,0.123214422909355,1
146,614,48,0.145050166994284,1
147,611,48,0.103882644988864,1
147,612,48,0.123039158997351,1
147,613,48,0.139325764091763,1
148,611,48,0.11256117003881,1
148,612,48,0.122746966962803,1
148,613,48,0.132653599806758,1
148,614,48,0.137860007668647,1
149,610,48,0.109353504711613,1
149,611,48,0.112897989509998,1
149,612,48,0.120166093481284,1
149,613,48,0.129877697400058,1
149,614,48,0.131049399058828,1
150,610,48,0.105202428089483,1
150,611,48,0.111097800586811,1
150,612,48,0.125581662475859,1
150,613,48,0.140197421250254,1
151,610,48,0.10339917179687,1
151,611,48,0.116121326306447,1
151,612,48,0.140980202773866,1
152,610,48,0.107618790183097,1
152,611,48,0.126613436318421,1
153,610,48,0.114949769650595,1
153,611,48,0.133552785211594,1
153,612,48,0.154078494853646,1
153,616,48,0.131907570945912,1
153,635,48,0.115500535350775,1
154,609,48,0.108574894810421,1
154,610,48,0.124880082586524,1
154,611,48,0.144245155407882,1
154,612,48,0.157233869897671,1
154,613,48,0.151112147844797,1
154,615,48,0.136918157943603,1
154,635,48,0.118104508912593,1
155,607,48,0.105456562435,1
155,608,48,0.106770601189238,1
155,609,48,0.115982736978716,1
155,610,48,0.134983105152279,1
155,611,48,0.156613134712351,1
155,612,48,0.161496275298882,1
155,613,48,0.132417791599307,1
155,614,48,0.116088198716639,1
155,615,48,0.119440141947595,1
155,616,48,0.134975810390079,1
156,606,48,0.103175733453762,1
156,607,48,0.110838936915343,1
156,608,48,0.1144989332693,1
156,609,48,0.122844777008266,1
156,610,48,0.138207390044733,1
156,611,48,0.153405636696214,1
156,612,48,0.145933558235091,1
156,613,48,0.114807031008584,1
156,615,48,0.10439427105516,1
156,616,48,0.111224053512412,1
156,617,48,0.102955507482998,1
157,606,48,0.106575795345469,1
157,607,48,0.121509099356981,1
157,608,48,0.131487921346134,1
157,609,48,0.133996951458645,1
157,610,48,0.137559104304927,1
157,611,48,0.143363325736965,1
157,612,48,0.130866204602598,1
157,613,48,0.107178706325902,1
157,621,48,0.11313988784002,1
158,606,48,0.115191232971861,1
158,607,48,0.140339992581205,1
158,608,48,0.157741536268888,1
158,609,48,0.150112787731522,1
158,610,48,0.134552859185391,1
158,611,48,0.131266736125295,1
158,612,48,0.121560285387159,1
158,613,48,0.103723152932749,1
158,623,48,0.111833311159041,1
158,634,48,0.105136072523232,1
159,606,48,0.119847020136488,1
159,607,48,0.146244779114154,1
159,609,48,0.151028046152153,1
159,610,48,0.127788796512363,1
159,611,48,0.118093589077434,1
159,612,48,0.110248775037654,1
159,620,48,0.108291871421941,1
160,606,48,0.119666881895614,1
160,610,48,0.127821723328899,1
160,611,48,0.113037136541262,1
160,612,48,0.108861665966637,1
160,615,48,0.106320891369078,1
160,617,48,0.104343854655856,1
160,618,48,0.1125228000358,1
160,619,48,0.110069306041018,1
160,620,48,0.11039092251392,1
160,621,48,0.112278392039884,1
160,631,48,0.108977099443715,1
161,606,48,0.119183843712375,1
161,610,48,0.130064070766421,1
161,616,48,0.117535651309831,1
161,621,48,0.106146341317596,1
161,622,48,0.10319880007185,1
162,602,48,0.106025955433152,1
162,606,48,0.119188929968587,1
162,607,48,0.129316424565333,1
162,608,48,0.120544038010931,1
162,609,48,0.123705012398419,1
163,602,48,0.110978630496068,1
163,606,48,0.108368455270972,1
169,636,48,0.11066994159104,1
170,635,48,0.110118361643703,1
171,633,48,0.111439182072892,1
171,634,48,0.125446731683298,1
171,635,48,0.127479984912558,1
172,631,48,0.104372085608652,1
172,632,48,0.126995362851287,1
172,633,48,0.156088648002605,1
172,641,48,0.106834380165171,1
173,631,48,0.116404137767585,1
173,632,48,0.140333768609786,1
174,631,48,0.110883296654287,1
174,632,48,0.127060301850567,1
174,639,48,0.104099491276223,1
175,632,48,0.118303486378783,1
175,633,48,0.140600072046373,1
175,637,48,0.10821249905525,1
176,612,48,0.106851668974667,1
176,633,48,0.110868785208382,1
176,634,48,0.115609387926174,1
176,636,48,0.104915467314067,1
145,603,49,0.103376372876477,1
145,604,49,0.112597967317859,1
145,605,49,0.107061053188766,1
145,609,49,0.108289529067107,1
145,613,49,0.105462719481994,1
145,614,49,0.111402317869419,1
145,615,49,0.124461091076913,1
146,603,49,0.103355960927201,1
146,604,49,0.110959155488726,1
146,605,49,0.111658236866238,1
146,606,49,0.106111161378789,1
146,608,49,0.104215002831795,1
146,612,49,0.103157574626756,1
146,613,49,0.121153061422076,1
146,614,49,0.13687347473661,1
147,612,49,0.116995158508713,1
147,613,49,0.13304604462824,1
148,611,49,0.111978648699511,1
148,612,49,0.121018019088809,1
148,613,49,0.128484587439035,1
148,614,49,0.136450992002888,1
149,610,49,0.107898255423042,1
149,611,49,0.114686622816,1
149,612,49,0.12150664546144,1
149,613,49,0.128165670251228,1
149,614,49,0.130213780702583,1
149,615,49,0.13462855070877,1
150,610,49,0.107067812555575,1
150,611,49,0.114081715256922,1
150,612,49,0.127100534583375,1
150,613,49,0.139886880769499,1
150,616,49,0.139473198597514,1
151,610,49,0.105722999720434,1
151,611,49,0.118076367192362,1
151,612,49,0.141106801475657,1
152,610,49,0.107642124498881,1
152,611,49,0.12557681045513,1
153,610,49,0.113674781297675,1
153,611,49,0.132994713595143,1
154,609,49,0.107918812375236,1
154,610,49,0.123664489659775,1
154,611,49,0.143824178473697,1
154,612,49,0.157856133190668,1
154,615,49,0.142011307372189,1
154,635,49,0.117103062988108,1
155,607,49,0.107941499754923,1
155,608,49,0.10755164267783,1
155,609,49,0.114972535108776,1
155,610,49,0.13393367441589,1
155,611,49,0.152830398965045,1
155,612,49,0.15477849086495,1
155,613,49,0.133580380382363,1
155,614,49,0.120248745144745,1
155,615,49,0.121088479353057,1
155,616,49,0.137148110263967,1
156,606,49,0.103959340378601,1
156,607,49,0.112025585028774,1
156,608,49,0.115431670118628,1
156,609,49,0.124185496299481,1
156,610,49,0.139200213872612,1
156,611,49,0.150484073280995,1
156,612,49,0.141520082101099,1
156,613,49,0.11534678764104,1
156,616,49,0.110688312345388,1
156,617,49,0.107413990292032,1
156,620,49,0.103509418631099,1
157,606,49,0.109321414450375,1
157,607,49,0.122551681493996,1
157,608,49,0.130759437838409,1
157,609,49,0.134867727445555,1
157,610,49,0.139758832038524,1
157,611,49,0.143570434520653,1
157,612,49,0.13237685616005,1
157,613,49,0.110673443969222,1
158,606,49,0.122796212184689,1
158,607,49,0.144354297989117,1
158,609,49,0.14617559041396,1
158,610,49,0.137022214268626,1
158,611,49,0.139164498538415,1
158,612,49,0.131239631733634,1
158,613,49,0.111453704672869,1
159,606,49,0.132093163527331,1
159,610,49,0.133369791528635,1
159,611,49,0.128967993706606,1
159,612,49,0.121347041864618,1
159,613,49,0.107762711156596,1
159,619,49,0.10543017190386,1
160,611,49,0.122820494596477,1
160,612,49,0.118518548014839,1
160,615,49,0.109211714165607,1
160,617,49,0.104567783778073,1
161,621,49,0.111279812711554,1
162,602,49,0.103149097533068,1
162,628,49,0.107583141773324,1
163,601,49,0.108698124982879,1
163,602,49,0.119482449337542,1
163,606,49,0.116888826753279,1
164,602,49,0.10404683290872,1
164,627,49,0.109432932848658,1
167,637,49,0.107295667910658,1
169,635,49,0.103895539094527,1
170,634,49,0.117284863185508,1
171,632,49,0.106462023824916,1
171,633,49,0.132084519122583,1
172,631,49,0.127195422262329,1
172,632,49,0.158884226189918,1
173,631,49,0.144605454197772,1
174,630,49,0.102964163041817,1
174,631,49,0.132975316666296,1
175,631,49,0.117357788499368,1
175,632,49,0.12580376233049,1
175,639,49,0.103376328260194,1
176,632,49,0.103819133710626,1
176,633,49,0.106788704245891,1
178,616,49,0.106166652880235,1
179,623,49,0.106310295001968,1
179,624,49,0.105138414878067,1
144,612,50,0.109683230193873,1
144,613,50,0.104111325745174,1
144,616,50,0.118093031373902,1
145,608,50,0.109387747708485,1
145,609,50,0.119916476534378,1
145,610,50,0.103818074073915,1
145,612,50,0.106428026217598,1
145,613,50,0.108136182903915,1
145,614,50,0.107171578874761,1
145,615,50,0.119991008034411,1
146,604,50,0.10675326776346,1
146,605,50,0.110234107434759,1
146,608,50,0.106986075525908,1
146,609,50,0.115669307593665,1
146,613,50,0.116607933792292,1
146,614,50,0.126759075018799,1
147,605,50,0.104384689708478,1
147,612,50,0.112086051245727,1
147,613,50,0.126666563156891,1
148,611,50,0.111180809180532,1
148,612,50,0.121403604156846,1
148,613,50,0.12785959139873,1
148,614,50,0.137618466268886,1
149,610,50,0.105359131627938,1
149,611,50,0.116864165103089,1
149,612,50,0.124692526888672,1
149,613,50,0.128420741538678,1
149,614,50,0.13147465915614,1
149,615,50,0.133475688275314,1
150,610,50,0.107560811323898,1
150,611,50,0.118114681425019,1
150,612,50,0.130518587991028,1
150,613,50,0.139248867928754,1
150,616,50,0.126401140891885,1
151,610,50,0.10700209277135,1
151,611,50,0.121337393593512,1
151,612,50,0.142715765011751,1
152,610,50,0.10762717804422,1
152,611,50,0.126350780262934,1
153,610,50,0.112925885840675,1
153,611,50,0.133996248752194,1
154,608,50,0.103149365230763,1
154,609,50,0.108257215724456,1
154,610,50,0.122821610003542,1
154,611,50,0.14319794433155,1
154,615,50,0.147421332793655,1
154,635,50,0.118191666820593,1
155,607,50,0.106915113328481,1
155,608,50,0.107569132260597,1
155,609,50,0.11513530646166,1
155,610,50,0.132879915900092,1
155,611,50,0.148446291499054,1
155,612,50,0.150637419444186,1
155,614,50,0.125672936235926,1
155,615,50,0.12651148811275,1
155,616,50,0.140273425087611,1
156,607,50,0.110194666640968,1
156,608,50,0.114736280738499,1
156,609,50,0.124318709365163,1
156,610,50,0.138474652731395,1
156,611,50,0.146883773513116,1
156,612,50,0.138997254403203,1
156,613,50,0.118053289420203,1
156,616,50,0.11213576493858,1
156,617,50,0.112084277748495,1
156,620,50,0.108737989631354,1
157,606,50,0.109561405434317,1
157,607,50,0.121377670942602,1
157,608,50,0.12733520507562,1
157,609,50,0.132972628535272,1
157,610,50,0.140172291129096,1
157,611,50,0.144445315205559,1
157,612,50,0.13503486004006,1
157,613,50,0.11328228070584,1
158,606,50,0.128583167115373,1
158,610,50,0.140596458127485,1
158,611,50,0.147295425644243,1
158,612,50,0.137913223739681,1
158,613,50,0.114985763836558,1
159,605,50,0.106729331127861,1
159,611,50,0.140111969915062,1
159,612,50,0.129378653125446,1
159,613,50,0.112980730406023,1
159,633,50,0.10968108861231,1
160,605,50,0.106506160482448,1
160,615,50,0.109512427910126,1
160,634,50,0.103256087378669,1
161,635,50,0.104859908888197,1
162,629,50,0.108511718154303,1
162,630,50,0.104769650148559,1
162,635,50,0.103183162064809,1
163,601,50,0.111826217170112,1
163,602,50,0.120964936866622,1
163,603,50,0.103751573504746,1
163,636,50,0.104467118290525,1
163,637,50,0.110928671413661,1
164,601,50,0.104131760002591,1
164,602,50,0.113360682668386,1
164,636,50,0.104829737127109,1
164,637,50,0.117402237470878,1
165,628,50,0.104701476468793,1
165,629,50,0.108559368344087,1
165,630,50,0.10615162834708,1
165,634,50,0.114716549187533,1
165,635,50,0.107319113767148,1
166,627,50,0.111699105381072,1
166,628,50,0.11285183396568,1
166,629,50,0.113596334718847,1
166,630,50,0.104134381209192,1
166,634,50,0.11332793431698,1
167,626,50,0.106847441581893,1
167,627,50,0.111534627455379,1
167,628,50,0.109835059403457,1
167,629,50,0.104713489402874,1
168,627,50,0.105388689915141,1
169,627,50,0.105094869386279,1
169,633,50,0.103449365114761,1
169,634,50,0.110209601941558,1
170,627,50,0.107690957020153,1
170,628,50,0.106532684862436,1
170,633,50,0.112425101531043,1
170,634,50,0.130330162275666,1
171,627,50,0.103634901925826,1
171,631,50,0.106733023125244,1
171,632,50,0.118771065020112,1
172,630,50,0.107721028394605,1
172,631,50,0.14297950301209,1
173,630,50,0.115111894067382,1
174,630,50,0.115417180980864,1
174,631,50,0.147128995756188,1
175,630,50,0.119728218130076,1
175,631,50,0.127785372212676,1
175,632,50,0.12827995485903,1
176,630,50,0.11414454613685,1
176,631,50,0.109123407388331,1
144,611,51,0.109877411409686,1
144,612,51,0.118757869754542,1
144,613,51,0.107058510060659,1
144,616,51,0.118179185415544,1
145,608,51,0.10472365076123,1
145,609,51,0.124423144928588,1
145,610,51,0.11531900285107,1
145,611,51,0.111588613157288,1
145,612,51,0.115384521862023,1
145,613,51,0.109913684447415,1
145,614,51,0.104945661383296,1
145,615,51,0.118726984132933,1
146,604,51,0.109398522540726,1
146,605,51,0.11516759749617,1
146,606,51,0.105147572370064,1
146,608,51,0.11021068388641,1
146,609,51,0.129946094161237,1
146,610,51,0.110933501126249,1
146,612,51,0.104923107852457,1
146,613,51,0.114041772529951,1
146,614,51,0.121621521234986,1
147,604,51,0.105299167344165,1
147,605,51,0.110928448332248,1
147,606,51,0.103461868827951,1
147,612,51,0.10876032008078,1
147,613,51,0.12266721535771,1
147,614,51,0.13593271811049,1
148,611,51,0.111588613157288,1
148,612,51,0.1211253547106,1
148,613,51,0.128964034011528,1
148,614,51,0.139307437953697,1
149,610,51,0.107594775469004,1
149,611,51,0.122070896433026,1
149,612,51,0.128358077969809,1
149,613,51,0.131041624671591,1
149,614,51,0.134127677166573,1
149,615,51,0.133366913778409,1
150,610,51,0.112761095601004,1
150,611,51,0.127048645846746,1
150,612,51,0.136241239704458,1
150,613,51,0.139757906250661,1
150,614,51,0.137861212308276,1
150,615,51,0.129248630123968,1
150,616,51,0.122937188483538,1
151,610,51,0.113467248659303,1
151,611,51,0.130082028820155,1
151,612,51,0.14693681111902,1
152,609,51,0.104600052504441,1
152,610,51,0.11390944063585,1
152,611,51,0.131980875498174,1
153,609,51,0.108012618109339,1
153,610,51,0.117933550471857,1
154,607,51,0.105329885654714,1
154,608,51,0.108468998063743,1
154,609,51,0.113989281473508,1
154,610,51,0.126919459400566,1
155,607,51,0.111120487966498,1
155,608,51,0.112470063589803,1
155,609,51,0.12085986552117,1
155,610,51,0.136559900348641,1
155,611,51,0.149456705296336,1
155,615,51,0.135798043861554,1
156,606,51,0.103773457791346,1
156,607,51,0.113520185878572,1
156,608,51,0.118295555834556,1
156,609,51,0.128327683127309,1
156,610,51,0.14202589689659,1
156,611,51,0.150613572041153,1
156,612,51,0.145461149881173,1
156,613,51,0.127534472547646,1
156,614,51,0.113005470134708,1
156,615,51,0.11257697535691,1
156,616,51,0.121680537422755,1
156,617,51,0.119224634148714,1
156,618,51,0.108846139500303,1
156,619,51,0.108696329177505,1
157,606,51,0.114925018767839,1
157,607,51,0.126553204336953,1
157,608,51,0.129542261033629,1
157,609,51,0.133833421628957,1
157,610,51,0.144008956807958,1
157,611,51,0.152740764853363,1
157,612,51,0.144505022945708,1
157,613,51,0.119083836314995,1
157,617,51,0.103556187649303,1
157,619,51,0.103088107074795,1
158,605,51,0.104635466678731,1
158,612,51,0.146586907922968,1
158,613,51,0.118079858416474,1
159,612,51,0.140429615538816,1
159,613,51,0.121398718673904,1
159,614,51,0.103493446001939,1
160,615,51,0.111225035070629,1
160,617,51,0.103123454324661,1
160,633,51,0.106673984629334,1
161,632,51,0.110375552204575,1
161,634,51,0.109926489320513,1
162,631,51,0.120123853015762,1
162,632,51,0.104734670983024,1
162,634,51,0.107246880005668,1
162,635,51,0.121711969593825,1
162,636,51,0.115479231075848,1
163,601,51,0.106256376224483,1
163,602,51,0.117782334736158,1
163,603,51,0.110740558012277,1
163,629,51,0.119032271046415,1
163,630,51,0.118475147525969,1
163,631,51,0.114921092534973,1
163,632,51,0.108966134992274,1
163,633,51,0.103870308586734,1
163,634,51,0.109182345497606,1
163,635,51,0.117370615680607,1
163,636,51,0.115223200538322,1
163,637,51,0.120383040155279,1
164,601,51,0.106882521134064,1
164,602,51,0.122017535359073,1
164,603,51,0.110091725723009,1
164,629,51,0.121223755921808,1
164,631,51,0.121036992162972,1
164,632,51,0.115401353354622,1
164,633,51,0.108104605729926,1
164,634,51,0.116174062752445,1
164,635,51,0.117082294108572,1
164,636,51,0.120049890373332,1
164,637,51,0.137424742369969,1
164,638,51,0.105163054220116,1
165,631,51,0.121027856979115,1
165,632,51,0.108005479504127,1
165,633,51,0.107827951315783,1
165,634,51,0.128824373893014,1
165,635,51,0.118592979128235,1
165,636,51,0.104156131646945,1
165,637,51,0.112051350931958,1
166,631,51,0.111590643198145,1
166,633,51,0.103021740354473,1
166,634,51,0.120035167000084,1
166,635,51,0.109067860116532,1
166,637,51,0.106249081462283,1
167,630,51,0.122365977371871,1
167,631,51,0.108005680277399,1
167,634,51,0.102955518637069,1
168,627,51,0.124578275743082,1
168,628,51,0.125532093785924,1
168,629,51,0.1253174002342,1
168,630,51,0.118289733409681,1
168,631,51,0.114654833714669,1
168,632,51,0.111364427491447,1
168,633,51,0.106702840210086,1
168,634,51,0.103658648942224,1
169,628,51,0.126946641870721,1
169,629,51,0.122104670958932,1
169,630,51,0.111428953790113,1
169,631,51,0.108911803514175,1
169,632,51,0.112209616040303,1
169,633,51,0.116894693794437,1
169,634,51,0.119995146194619,1
170,629,51,0.119813502154208,1
170,630,51,0.10621709158768,1
170,632,51,0.108348578717087,1
170,633,51,0.127977902626034,1
171,628,51,0.120914074304492,1
171,629,51,0.111760954702784,1
171,630,51,0.113002715079259,1
171,631,51,0.116855598776836,1
172,627,51,0.113858856925487,1
172,628,51,0.105631257489401,1
172,629,51,0.104521784390744,1
172,630,51,0.125104859418109,1
174,630,51,0.130803440647093,1
175,629,51,0.106388752734867,1
175,630,51,0.133076127156762,1
175,631,51,0.134581223987034,1
176,629,51,0.11313035110962,1
176,630,51,0.127427382315408,1
176,631,51,0.112536385693843,1
180,625,51,0.120144800360428,1
142,606,52,0.114920445598876,1
144,611,52,0.115459666835941,1
144,612,52,0.120539342147191,1
144,613,52,0.106264607928617,1
144,616,52,0.117137250214627,1
145,609,52,0.119753615948929,1
145,610,52,0.123126238826856,1
145,611,52,0.121124005068053,1
145,612,52,0.118868339670184,1
145,613,52,0.107990599973891,1
145,615,52,0.115590013305468,1
146,604,52,0.111845357555335,1
146,605,52,0.119229106931041,1
146,606,52,0.109731460395331,1
146,608,52,0.107443503962952,1
146,609,52,0.132383013207044,1
146,610,52,0.123258749186087,1
146,611,52,0.107680516810032,1
146,612,52,0.105405432175175,1
146,613,52,0.108255062988822,1
146,614,52,0.114967482314775,1
147,604,52,0.111885857985837,1
147,605,52,0.118509669374607,1
147,606,52,0.108973039362001,1
147,609,52,0.107088481048476,1
147,612,52,0.105389749551852,1
147,613,52,0.117371050689362,1
147,614,52,0.13012481583514,1
148,605,52,0.103495754894562,1
148,611,52,0.109787554216591,1
148,612,52,0.119505259412006,1
148,613,52,0.130223495898113,1
148,614,52,0.139242855884678,1
149,610,52,0.110157478969446,1
149,611,52,0.126247750112411,1
149,612,52,0.132318051899623,1
149,613,52,0.136623947022269,1
149,614,52,0.137183635978963,1
149,615,52,0.133207912501402,1
150,610,52,0.11851857032298,1
150,611,52,0.135233201724223,1
150,612,52,0.140131411460192,1
150,613,52,0.13984296719338,1
150,614,52,0.132940159035632,1
150,615,52,0.121424919585843,1
151,610,52,0.118244882891628,1
151,611,52,0.135868504125802,1
151,612,52,0.146353531302918,1
151,615,52,0.12487792985089,1
152,609,52,0.106241552464599,1
152,610,52,0.117561907992124,1
152,611,52,0.135232086317159,1
153,608,52,0.10555172896572,1
153,609,52,0.111610753987513,1
153,610,52,0.120551767781886,1
154,607,52,0.109398377537808,1
154,608,52,0.113791274411464,1
154,609,52,0.118271719585593,1
154,610,52,0.127223095511593,1
155,606,52,0.1034246923105,1
155,607,52,0.114656562595618,1
155,608,52,0.117969143111277,1
155,609,52,0.124323840237658,1
155,610,52,0.134774167101006,1
156,606,52,0.106105718192316,1
156,607,52,0.116477754633825,1
156,608,52,0.121473919418175,1
156,609,52,0.128688829626568,1
156,610,52,0.139466294227786,1
156,611,52,0.148211163689913,1
156,614,52,0.120841896313365,1
156,615,52,0.118688569513641,1
156,616,52,0.127246619446578,1
156,618,52,0.116343961556469,1
156,619,52,0.114896007030098,1
157,606,52,0.120140829511279,1
157,608,52,0.129666885464916,1
157,609,52,0.131014319506658,1
157,612,52,0.147511926155412,1
157,613,52,0.122087928698897,1
157,614,52,0.103171316441787,1
157,616,52,0.105561053768778,1
157,617,52,0.108387986048667,1
157,618,52,0.10312639899931,1
158,605,52,0.109893908280166,1
158,613,52,0.118035844453719,1
159,613,52,0.126656379490395,1
159,614,52,0.108577638711799,1
160,614,52,0.129071681947297,1
160,615,52,0.110063918624898,1
160,616,52,0.103584106288121,1
160,617,52,0.103189508731005,1
161,633,52,0.112245052522734,1
162,633,52,0.10958507437222,1
162,634,52,0.120581236836524,1
163,602,52,0.109288376093132,1
163,603,52,0.116417578422709,1
163,604,52,0.108741090462993,1
163,633,52,0.122402741188708,1
163,634,52,0.124376286677819,1
164,602,52,0.123607860443124,1
164,603,52,0.124883439961787,1
164,604,52,0.103184656710276,1
164,634,52,0.13513348433268,1
164,635,52,0.135990150420227,1
164,636,52,0.13684829999917,1
164,637,52,0.140310846994616,1
164,638,52,0.111115156320731,1
165,634,52,0.137433342158434,1
165,635,52,0.129947276492725,1
165,636,52,0.12265750016218,1
165,637,52,0.123500156737001,1
165,638,52,0.112533095243003,1
166,632,52,0.113485987497982,1
166,633,52,0.113360827671304,1
166,634,52,0.120064658362863,1
166,635,52,0.113159809010187,1
166,636,52,0.110659456764636,1
167,631,52,0.122635783186639,1
167,632,52,0.112653614976294,1
167,633,52,0.108967328477833,1
167,634,52,0.107195950519115,1
167,635,52,0.105128532371478,1
168,631,52,0.129335364177283,1
168,632,52,0.121889408549604,1
168,633,52,0.115291351909947,1
168,634,52,0.10961215645574,1
168,635,52,0.10975089078639,1
169,631,52,0.126170207013305,1
169,632,52,0.124902613809221,1
169,633,52,0.124920226086766,1
170,630,52,0.120790810669823,1
170,631,52,0.11117278940374,1
170,632,52,0.119705553058531,1
171,630,52,0.12416133658247,1
171,631,52,0.123384076323825,1
173,627,52,0.105097691366151,1
173,628,52,0.103021472656777,1
173,629,52,0.116856814570536,1
174,629,52,0.109885040794006,1
175,629,52,0.111947049217381,1
176,629,52,0.116797274141447,1
176,630,52,0.13059311949106,1
176,631,52,0.110455047266044,1
177,630,52,0.103314579325118,1
180,625,52,0.132005314066952,1
180,626,52,0.107869957545822,1
140,611,53,0.188325997970316,1
141,606,53,0.113611392714215,1
141,609,53,0.131343152663266,1
141,612,53,0.115563042762654,1
142,606,53,0.117051296946256,1
142,607,53,0.11163760183555,1
142,610,53,0.108556546364215,1
143,612,53,0.104959537047175,1
144,611,53,0.115146828616634,1
144,612,53,0.116281866845203,1
144,616,53,0.113460031975597,1
145,609,53,0.108892774669659,1
145,610,53,0.122794873696212,1
145,611,53,0.122213635075037,1
145,612,53,0.115615266121402,1
145,613,53,0.103279165150828,1
145,615,53,0.111834203484692,1
146,604,53,0.107592689657794,1
146,605,53,0.115370880433627,1
146,606,53,0.111014847763444,1
146,608,53,0.105187236245269,1
146,609,53,0.124865559986547,1
146,610,53,0.128564138270857,1
146,611,53,0.113461024687885,1
146,612,53,0.10611168562011,1
146,613,53,0.106400899517796,1
146,614,53,0.111934545504191,1
147,604,53,0.111158712966589,1
147,605,53,0.117390793394399,1
147,606,53,0.109802277589839,1
147,609,53,0.108592975558933,1
147,610,53,0.107356111819469,1
147,612,53,0.10616083045536,1
147,613,53,0.119604441408158,1
147,614,53,0.129280910004407,1
148,604,53,0.105741950486456,1
148,605,53,0.105247847465139,1
148,611,53,0.111561508765627,1
148,612,53,0.1234067302413,1
148,613,53,0.137001389618737,1
148,614,53,0.141079563235148,1
149,610,53,0.114120642963463,1
149,611,53,0.134640987497536,1
149,612,53,0.141128105750584,1
150,610,53,0.129405768671178,1
150,611,53,0.147664145757469,1
150,614,53,0.130878306769245,1
150,615,53,0.120980106402695,1
151,609,53,0.107136398935955,1
151,610,53,0.128653025059806,1
151,611,53,0.143765965379014,1
151,614,53,0.128007092828905,1
152,609,53,0.113524123265509,1
152,610,53,0.126769347917861,1
153,608,53,0.109917365290727,1
153,609,53,0.118300608628557,1
153,610,53,0.127956007185363,1
154,607,53,0.111958571372355,1
154,608,53,0.117281338499185,1
154,609,53,0.122465259754659,1
154,610,53,0.131403485031371,1
155,606,53,0.103446364669758,1
155,607,53,0.116135246586609,1
155,608,53,0.119772778642293,1
155,609,53,0.125413302933583,1
155,610,53,0.136048765061453,1
156,606,53,0.108560662216282,1
156,607,53,0.119078526977369,1
156,608,53,0.122203663335883,1
156,609,53,0.127462874568192,1
156,610,53,0.14071652054388,1
157,605,53,0.106753000065764,1
157,613,53,0.128350883594245,1
157,614,53,0.109969030945943,1
157,615,53,0.104666910003872,1
157,616,53,0.108974645548174,1
157,617,53,0.113754878678958,1
157,618,53,0.1107864458589,1
158,613,53,0.122199157091343,1
158,614,53,0.103661694003509,1
159,614,53,0.113473494938863,1
159,615,53,0.104619003270463,1
159,616,53,0.104694549790924,1
159,617,53,0.10298035875239,1
160,615,53,0.110973310004372,1
160,616,53,0.107558926285959,1
163,603,53,0.114382652082853,1
163,604,53,0.110181147907349,1
164,602,53,0.118279237429206,1
164,603,53,0.135317002256959,1
164,604,53,0.113273636301092,1
164,638,53,0.112939705734201,1
164,639,53,0.108627564331995,1
165,603,53,0.109330962334845,1
165,637,53,0.126836339266139,1
165,638,53,0.118630992200985,1
166,634,53,0.117300646195467,1
166,635,53,0.11666345875595,1
167,633,53,0.120401087441578,1
167,634,53,0.111844833314014,1
167,635,53,0.112232950356087,1
168,633,53,0.125551702642114,1
168,634,53,0.116600650184163,1
176,629,53,0.113268416196032,1
176,631,53,0.107862015847525,1
177,630,53,0.104195795522149,1
180,625,53,0.129964754921421,1
180,626,53,0.109973113335798,1
139,611,54,0.162045468275101,1
140,609,54,0.130784489881072,1
140,610,54,0.183904212053696,1
140,611,54,0.194701508592516,1
140,612,54,0.164753698935215,1
141,606,54,0.105104495349243,1
141,609,54,0.126794823815208,1
141,610,54,0.164743269879164,1
141,611,54,0.152768739262534,1
141,612,54,0.123752026806176,1
142,606,54,0.110278188321938,1
142,607,54,0.107531777278016,1
142,610,54,0.109005285780229,1
142,611,54,0.105979532191139,1
143,612,54,0.104526279481213,1
144,611,54,0.113860630422719,1
144,612,54,0.111071354285318,1
144,616,54,0.10913311142979,1
145,610,54,0.122115668872585,1
145,611,54,0.126482587915716,1
145,612,54,0.11440482637529,1
145,615,54,0.10773655486094,1
146,605,54,0.103869527801789,1
146,606,54,0.107846366686414,1
146,607,54,0.10452832067614,1
146,609,54,0.115046207745369,1
146,610,54,0.129470083042502,1
146,611,54,0.121544379682423,1
146,612,54,0.109336595140519,1
146,613,54,0.103831403188333,1
146,614,54,0.107831085609634,1
147,604,54,0.105626662012296,1
147,605,54,0.110168677656371,1
147,606,54,0.106988707886579,1
147,609,54,0.107221727576369,1
147,610,54,0.110214420500075,1
147,611,54,0.105168720488002,1
147,612,54,0.109055824874309,1
147,613,54,0.121948781667633,1
147,614,54,0.127944295411189,1
148,604,54,0.105335752695872,1
148,605,54,0.104317464124716,1
148,611,54,0.111391208415059,1
148,612,54,0.127137387632777,1
149,610,54,0.114564084195922,1
149,611,54,0.139244473224921,1
150,609,54,0.10292984196645,1
150,610,54,0.137514108783956,1
151,609,54,0.111317390775548,1
151,610,54,0.138431553402433,1
152,609,54,0.118568819411224,1
153,608,54,0.114189039724643,1
153,609,54,0.123381700506779,1
154,607,54,0.115596270739098,1
155,606,54,0.104967356050695,1
157,614,54,0.117690447502207,1
157,615,54,0.111040033654954,1
157,616,54,0.1127771686168,1
158,614,54,0.109489093594342,1
158,615,54,0.104800792313792,1
158,616,54,0.104194668961014,1
159,614,54,0.118260632439375,1
159,615,54,0.111817238143245,1
159,616,54,0.111495008196457,1
159,617,54,0.106453000181767,1
160,615,54,0.114819590492127,1
160,616,54,0.11249971110957,1
163,603,54,0.105455658955278,1
163,604,54,0.107251352787996,1
163,605,54,0.108673072940216,1
164,602,54,0.107122623658712,1
164,603,54,0.134420348826159,1
164,604,54,0.119618785543004,1
165,603,54,0.119159773227928,1
167,634,54,0.116126367946378,1
176,629,54,0.105329316797111,1
176,634,54,0.104283946142436,1
176,635,54,0.110473529561098,1
180,625,54,0.118944109272058,1
180,626,54,0.105253725660368,1
139,609,55,0.11444789224204,1
139,611,55,0.147867874857752,1
140,609,55,0.124525483526732,1
140,610,55,0.170320561743983,1
140,611,55,0.187051812710483,1
140,612,55,0.152092757965323,1
141,609,55,0.118523411189639,1
141,610,55,0.15612937151452,1
141,611,55,0.156944176374947,1
141,612,55,0.128162636344013,1
142,610,55,0.110772001337418,1
142,611,55,0.112939293033587,1
142,612,55,0.107338097995382,1
144,611,55,0.10965140763033,1
145,610,55,0.119353441356492,1
145,611,55,0.128944759777458,1
145,612,55,0.109810386599196,1
145,615,55,0.104601034062658,1
146,607,55,0.105901977937962,1
146,609,55,0.109702816741921,1
146,610,55,0.127033833240933,1
146,611,55,0.129389639885029,1
146,612,55,0.110796941839374,1
146,614,55,0.104230161213798,1
147,609,55,0.103903904647509,1
147,610,55,0.109210977996945,1
147,611,55,0.1107211722375,1
147,612,55,0.112872011679472,1
147,613,55,0.12307907941618,1
147,614,55,0.125606212585343,1
148,604,55,0.103688474927122,1
148,611,55,0.114678357649653,1
149,610,55,0.114683956993116,1
150,609,55,0.10363114300402,1
151,609,55,0.114774951901417,1
152,608,55,0.103397721767686,1
152,609,55,0.124454800181071,1
158,614,55,0.116401951569739,1
158,615,55,0.112342516792007,1
158,616,55,0.110366595485849,1
158,617,55,0.109083475815432,1
159,614,55,0.121269688384713,1
159,615,55,0.117032836959343,1
159,616,55,0.115579327705792,1
160,615,55,0.119304820762562,1
163,605,55,0.106659897038112,1
164,603,55,0.122081827422256,1
164,604,55,0.119212654676844,1
164,605,55,0.103522881594365,1
165,603,55,0.116821277701469,1
165,604,55,0.108449177280211,1
176,634,55,0.112538460350982,1
176,635,55,0.111846696043812,1
177,634,55,0.104003722425687,1
180,625,55,0.108585491177532,1
185,621,55,0.113438783471024,1
140,609,56,0.111051466577363,1
140,611,56,0.167439833381385,1
141,609,56,0.106610272577824,1
141,610,56,0.138719161113947,1
141,611,56,0.155003535394231,1
141,612,56,0.13237234991551,1
142,610,56,0.108574772115644,1
142,611,56,0.117774538040779,1
142,612,56,0.111939676376687,1
144,611,56,0.103096740325472,1
145,610,56,0.114690749822137,1
145,611,56,0.125803249243241,1
145,612,56,0.103204276720535,1
145,616,56,0.106539265764115,1
146,609,56,0.104437615773676,1
146,610,56,0.123124733027319,1
146,611,56,0.133967716639491,1
146,612,56,0.111392926141938,1
146,615,56,0.105459127871247,1
147,610,56,0.10876188165067,1
147,611,56,0.118074292535223,1
147,612,56,0.118006096547315,1
147,614,56,0.116531283018838,1
147,615,56,0.11582444956223,1
148,611,56,0.119561464773973,1
149,610,56,0.113845237805232,1
151,609,56,0.11306020315935,1
158,615,56,0.118010245861594,1
158,616,56,0.115741864823193,1
159,615,56,0.120454303512613,1
159,616,56,0.117602241111566,1
162,605,56,0.108691220613151,1
163,606,56,0.107086406391336,1
164,604,56,0.108481189462955,1
165,604,56,0.10425969719286,1
177,633,56,0.110020127743556,1
177,634,56,0.112485110431099,1
180,625,56,0.104282239569628,1
185,621,56,0.111204756970201,1
142,610,57,0.104761106130447,1
142,611,57,0.117812707270518,1
142,612,57,0.11539227394112,1
145,610,57,0.110485185564919,1
145,611,57,0.119088353713605,1
145,617,57,0.107493329196512,1
146,610,57,0.119444592421782,1
146,611,57,0.131899896945311,1
146,612,57,0.110463758595215,1
146,616,57,0.10421404358172,1
147,610,57,0.107792169057162,1
147,611,57,0.121360170205764,1
147,613,57,0.11315777896933,1
147,614,57,0.107229446193254,1
147,615,57,0.107555747375826,1
147,616,57,0.1118430152005,1
149,610,57,0.107457323856478,1
151,609,57,0.10870787364062,1
159,615,57,0.122215386264128,1
161,605,57,0.109019986845335,1
162,605,57,0.103505157776114,1
177,632,57,0.104434325322837,1
145,610,58,0.104154190838653,1
145,611,58,0.106948452845631,1
146,610,58,0.112287382220822,1
146,611,58,0.123281938498953,1
146,612,58,0.108006896071099,1
147,610,58,0.108724247816323,1
147,611,58,0.125228201131273,1
147,613,58,0.105086336522238,1
148,610,58,0.103605142865352,1
148,614,58,0.114208860508174,1
149,610,58,0.103302354463694,1
162,606,58,0.107101854779176,1
163,607,58,0.104950268014471,1
179,626,58,0.110805430087133,1
146,611,59,0.105135035194662,1
147,611,59,0.117246593569134,1
148,614,59,0.105185116971847,1
162,607,59,0.106319753653873,1
177,631,59,0.105513202805722,1
178,626,59,0.111493100850377,1
179,625,59,0.11614376829658,1
179,626,59,0.104289712796958,1
180,623,59,0.104608942298743,1
180,624,59,0.102946104601447,1
148,611,60,0.113699654875208,1
149,611,60,0.107999579000758,1
149,613,60,0.107188008820818,1
177,631,60,0.106481320367128,1
178,625,60,0.107393868348593,1
178,626,60,0.102979354886032,1
179,623,60,0.114564641899454,1
179,624,60,0.108768931023316,1
147,628,61,0.11625680364847,1
147,629,61,0.114681558867928,1
147,630,61,0.115235213472404,1
148,611,61,0.109569246745978,1
150,612,61,0.104763905802178,1
175,631,61,0.10923727929552,1
177,631,61,0.103694063116513,1
178,623,61,0.112958935351988,1
179,622,61,0.109238004310111,1
179,623,61,0.111674889893707,1
147,622,62,0.103649045287401,1
147,627,62,0.104760693429833,1
147,628,62,0.107007513649682,1
147,629,62,0.106446921213267,1
148,611,62,0.104085927926322,1
151,612,62,0.106482792704453,1
153,610,62,0.104877822325649,1
174,637,62,0.105886016462873,1
175,630,62,0.105278610391971,1
175,631,62,0.104617062462171,1
179,623,62,0.104013214539804,1
187,623,62,0.111796290798579,1
189,623,62,0.105362600543908,1
148,623,63,0.103893007120491,1
148,624,63,0.10439218524395,1
148,627,63,0.103619063145514,1
151,613,63,0.106595828056343,1
152,612,63,0.111311256036695,1
153,611,63,0.107427419793086,1
172,639,63,0.106578963101531,1
173,638,63,0.109889033951296,1
176,631,63,0.103973673359377,1
183,630,63,0.1070427270507,1
149,617,64,0.107638265190439,1
149,618,64,0.10743912041319,1
149,619,64,0.103128150188401,1
149,620,64,0.10657200296145,1
152,613,64,0.109319395563589,1
153,612,64,0.106975267231455,1
162,610,64,0.103883180384255,1
173,631,64,0.104537411243714,1
173,636,64,0.103054990639058,1
174,634,64,0.116250880836959,1
174,636,64,0.107009621769034,1
175,627,64,0.10409527503752,1
175,635,64,0.125490901803042,1
149,621,65,0.112176120366164,1
149,622,65,0.103895159856125,1
150,620,65,0.105378216242808,1
153,616,65,0.103316185511291,1
174,635,65,0.116251918165528,1
149,621,66,0.105734577645761,1
150,621,66,0.107751545931883,1
150,622,66,0.104483314001098,1
170,634,66,0.104726751592868,1
150,622,67,0.103912404049338,1
151,622,67,0.110912999944408,1
183,629,67,0.104651115839842,1
184,629,67,0.122196301649259,1
186,628,67,0.107243254932709,1
