x,y,z,signal,mito.p
142,671,1,0.105974222853513,1
142,672,1,0.107052252627029,1
143,671,1,0.118309531885071,1
143,672,1,0.122244609929211,1
143,673,1,0.105147561215994,1
144,671,1,0.106448817405276,1
144,672,1,0.109114372591111,1
163,681,1,0.146100601597031,1
164,681,1,0.171094799249483,1
164,682,1,0.246214531505386,1
165,637,1,0.111156861390863,1
165,681,1,0.15720745705839,1
165,682,1,0.219920639233542,1
166,682,1,0.220938715877356,1
166,683,1,0.248647524318328,1
167,638,1,0.111085954963789,1
167,680,1,0.112804964560841,1
167,681,1,0.165280862621915,1
167,682,1,0.260240529948635,1
167,683,1,0.299847474776408,2
167,684,1,0.202945482204305,1
168,639,1,0.103325688779478,1
168,680,1,0.150169851956928,1
168,681,1,0.202060429006973,1
168,682,1,0.284023930924714,1
168,683,1,0.311655999359667,2
168,684,1,0.2073911378321,1
169,639,1,0.115958320718079,1
169,679,1,0.111215208334393,1
169,680,1,0.177917833493997,1
169,681,1,0.234328999218412,1
169,682,1,0.268631536519632,1
169,683,1,0.25681498100551,1
169,684,1,0.178689405176613,1
170,640,1,0.103221230907912,1
170,680,1,0.160807098736101,1
170,681,1,0.228390081229296,1
170,682,1,0.255969524758958,1
170,683,1,0.223413268757511,1
171,640,1,0.118434602479184,1
171,641,1,0.104576405874679,1
171,680,1,0.118396700947141,1
171,682,1,0.22871952785979,1
171,683,1,0.214810446385015,1
172,641,1,0.130082028820155,1
172,642,1,0.125417407631579,1
172,643,1,0.11444701107046,1
172,682,1,0.203835309343872,1
172,683,1,0.211365690132244,1
173,642,1,0.181552610494232,1
173,643,1,0.199614519780227,1
173,644,1,0.138536278971695,1
173,682,1,0.186015733396653,1
173,683,1,0.197988836292241,1
174,642,1,0.1870213732517,1
174,643,1,0.213147106754539,1
174,644,1,0.154686893636835,1
175,644,1,0.118278590493109,1
181,658,1,0.108411175361532,1
181,659,1,0.107120169763171,1
142,670,2,0.104502041685707,1
142,671,2,0.120943086042233,1
142,672,2,0.118010747794773,1
143,670,2,0.115146404761949,1
143,671,2,0.153968370714193,1
143,672,2,0.149641360935821,1
143,673,2,0.109898804917178,1
144,671,2,0.13074503793321,1
144,672,2,0.125101847819036,1
162,681,2,0.108099006386464,1
163,681,2,0.165851962192876,1
163,682,2,0.229405458588014,1
164,637,2,0.106727133775945,1
164,681,2,0.174726196566313,1
164,682,2,0.242198820684573,1
164,683,2,0.18350476247585,1
165,637,2,0.133076640244012,1
165,638,2,0.10618010468943,1
165,681,2,0.150697261033183,1
165,682,2,0.22489452933882,1
165,683,2,0.222498568040411,1
166,637,2,0.119062822045905,1
166,638,2,0.108471251186012,1
166,681,2,0.152426588145579,1
166,682,2,0.253109866435804,1
166,683,2,0.28872588478773,2
166,684,2,0.196525132218123,1
167,638,2,0.123419713579528,1
167,680,2,0.107094102700079,1
167,681,2,0.158283914107945,1
167,682,2,0.26515325113051,2
167,683,2,0.325033433211343,2
167,684,2,0.230814106169441,2
167,685,2,0.124062266127024,1
168,638,2,0.143123312444882,1
168,639,2,0.113957046209352,1
168,680,2,0.14718563612691,1
168,681,2,0.189491709893152,1
168,682,2,0.262185554479113,2
168,683,2,0.320728430414349,2
168,684,2,0.247109534133732,2
168,685,2,0.136732007658653,1
169,639,2,0.121816505543885,1
169,679,2,0.111083902614791,1
169,680,2,0.189693665496203,1
169,681,2,0.244909951403053,1
169,682,2,0.249189723692254,1
169,683,2,0.244494774585602,2
169,684,2,0.19418050195281,1
170,640,2,0.105410819591295,1
170,680,2,0.178720803885471,1
170,681,2,0.25262205431033,1
170,682,2,0.249752201166609,1
170,683,2,0.207010627866206,1
170,684,2,0.151734533832572,1
171,640,2,0.121443836889653,1
171,641,2,0.106406320396128,1
171,681,2,0.186995908508423,1
171,682,2,0.232226501518604,1
171,683,2,0.226758017612902,1
171,684,2,0.160702440091263,1
172,641,2,0.138940379796998,1
172,642,2,0.13493066986619,1
172,643,2,0.116707316561716,1
172,681,2,0.143919099614863,1
172,682,2,0.232431602569577,1
172,683,2,0.270409183066051,3
172,684,2,0.190257035296209,1
173,641,2,0.163311343752306,1
173,642,2,0.196730612507497,1
173,643,2,0.216543833579124,1
173,644,2,0.144920623617843,1
173,681,2,0.127384015288751,1
173,682,2,0.219946338212302,1
173,683,2,0.255436784036937,1
173,684,2,0.178457958210784,1
174,641,2,0.157777909693253,1
174,642,2,0.188537590690402,1
174,643,2,0.228631120695878,1
174,644,2,0.16834663701647,1
174,682,2,0.163342809385588,1
174,683,2,0.179260672058634,1
175,642,2,0.1471409975362,1
175,643,2,0.147442045902838,1
175,644,2,0.121324097941307,1
142,670,3,0.106695422753108,1
142,671,3,0.133634343776131,1
142,672,3,0.129144373025674,1
143,670,3,0.126565027651833,1
143,671,3,0.184748642125748,1
143,672,3,0.170548562101984,1
143,673,3,0.109584159738427,1
144,670,3,0.113070866450884,1
144,671,3,0.149820305691137,1
144,672,3,0.135554617423854,1
162,681,3,0.132513638528337,1
163,680,3,0.119200742129398,1
163,681,3,0.215207888230144,1
163,682,3,0.241721560309926,1
164,637,3,0.111171729767029,1
164,680,3,0.108980099888718,1
164,681,3,0.193196824462858,1
164,682,3,0.231795084374298,1
164,683,3,0.168072849198482,1
165,637,3,0.150648060427579,1
165,638,3,0.119257605581533,1
165,681,3,0.155605107886187,1
165,682,3,0.239253811412863,1
165,683,3,0.234093982949977,2
165,684,3,0.150014341904032,1
166,638,3,0.128105059031357,1
166,681,3,0.171350550935242,1
166,682,3,0.302294075555533,2
166,683,3,0.326414150999882,2
166,684,3,0.214835074572993,2
167,638,3,0.144002353598138,1
167,639,3,0.108732669139658,1
167,680,3,0.107292109762123,1
167,681,3,0.161660017055913,1
167,682,3,0.264410010787325,2
167,683,3,0.325529722430506,2
167,684,3,0.264219856191013,2
167,685,3,0.140627310286882,1
168,639,3,0.129828329483394,1
168,680,3,0.143905636651598,1
168,681,3,0.183022616618262,1
168,682,3,0.231134986473682,2
168,683,3,0.306728398647556,2
168,684,3,0.301848247351957,2
168,685,3,0.167876593325529,1
169,639,3,0.138121102154244,1
169,640,3,0.105779628937086,1
169,679,3,0.110158661300934,1
169,680,3,0.196481452877487,1
169,681,3,0.255683512079546,1
169,682,3,0.235410430983474,1
169,683,3,0.230832242688306,2
169,684,3,0.21953444069162,1
170,640,3,0.125148717223875,1
170,679,3,0.107211733529074,1
170,680,3,0.203813447365413,1
170,681,3,0.280776601722313,1
170,682,3,0.246331582322708,1
170,683,3,0.194209011757372,1
170,684,3,0.154711521824813,1
171,641,3,0.114005488338151,1
171,680,3,0.15668569194188,1
171,681,3,0.209894713604067,1
171,682,3,0.232348593975856,1
171,683,3,0.238063560534614,3
171,684,3,0.179105128543526,1
172,641,3,0.153436143079421,1
172,642,3,0.148708166769596,1
172,643,3,0.120726128214168,1
172,679,3,0.106717028187943,1
172,681,3,0.155897656850995,1
172,682,3,0.259836663358816,3
172,683,3,0.337935792886219,3
172,684,3,0.239863626763024,3
172,685,3,0.137620306690542,1
173,641,3,0.175764060531446,1
173,642,3,0.203668511371486,1
173,643,3,0.209020859093659,1
173,644,3,0.141696394495743,1
173,681,3,0.13733742830498,1
173,682,3,0.25531234922485,1
173,683,3,0.321663587697007,3
173,684,3,0.217692390541312,1
173,685,3,0.127623861269774,1
174,641,3,0.159421763162316,1
174,642,3,0.181202406138272,1
174,643,3,0.218147699704935,1
174,644,3,0.169000109399125,1
174,682,3,0.170601220469486,1
174,683,3,0.189806589307387,1
174,684,3,0.140235200087519,1
175,642,3,0.135255141781177,1
175,643,3,0.140923640481638,1
175,644,3,0.122979484719414,1
142,670,4,0.106384904580495,1
142,671,4,0.137890837519902,1
143,670,4,0.129860564747551,1
143,671,4,0.192881097339254,1
143,672,4,0.17133002744526,1
144,670,4,0.117976783649667,1
144,671,4,0.151788586458905,1
144,672,4,0.13256872848324,1
162,680,4,0.103991821032312,1
162,681,4,0.163183127710272,1
163,680,4,0.156159465197113,1
164,680,4,0.127647552515818,1
164,682,4,0.215741900516219,1
165,637,4,0.158449830908751,1
165,638,4,0.130699562787201,1
165,681,4,0.153522497894335,1
165,682,4,0.230200386894556,1
165,683,4,0.228657778924714,2
166,638,4,0.156109885353108,1
166,639,4,0.103303994112078,1
166,681,4,0.178023484851121,1
166,682,4,0.307091218257411,2
166,683,4,0.324521193671162,2
166,684,4,0.228223840960442,2
167,639,4,0.12383004953032,1
167,680,4,0.108364506729965,1
167,681,4,0.161008875874022,1
167,682,4,0.247361236891848,2
167,683,4,0.309633342497518,2
167,684,4,0.307696505054891,2
167,685,4,0.173352595074844,1
168,639,4,0.143235979712441,1
168,680,4,0.135933309276234,1
168,681,4,0.172988849677125,1
168,682,4,0.205864413258853,1
168,683,4,0.291546793869473,2
168,684,4,0.365247003325073,4
168,685,4,0.213863934258443,4
169,639,4,0.154646482438897,1
169,640,4,0.123751870649187,1
169,679,4,0.109828645812838,1
169,680,4,0.190499591716398,1
169,681,4,0.246052016696127,1
169,682,4,0.2162590032312,1
169,683,4,0.212031454300746,1
169,684,4,0.243035576756023,4
169,685,4,0.153775271443232,1
170,640,4,0.150197826366099,1
170,679,4,0.119066000956038,1
170,680,4,0.227990631651451,1
170,681,4,0.29845792296392,1
170,682,4,0.234804608790603,1
170,683,4,0.178205976600901,1
170,684,4,0.159546532596522,1
171,641,4,0.122106634075365,1
171,679,4,0.117357431569107,1
171,680,4,0.195996161571978,1
171,681,4,0.248852826142572,1
171,682,4,0.233570210100752,1
171,683,4,0.239901528295066,3
171,684,4,0.200046963099033,1
172,641,4,0.164595813065272,1
172,642,4,0.161336459774718,1
172,643,4,0.12222080714246,1
172,679,4,0.114322654336868,1
172,681,4,0.180727733508015,1
172,682,4,0.27082797380239,3
172,683,4,0.376951014266413,3
172,684,4,0.291181854986195,3
172,685,4,0.165283863066918,1
173,641,4,0.184122865300498,1
173,642,4,0.203282000515586,1
173,643,4,0.188164040864589,1
173,644,4,0.13187088520757,1
173,681,4,0.150620565643446,1
173,682,4,0.266055414672207,3
173,683,4,0.364122159917071,3
173,684,4,0.26534929507612,3
173,685,4,0.149359218718922,1
174,642,4,0.17024256132798,1
174,643,4,0.195965420953288,1
174,644,4,0.163168437799236,1
174,682,4,0.174902308187686,1
174,683,4,0.201533086855142,3
174,684,4,0.15810567205908,1
175,642,4,0.127873545141104,1
175,643,4,0.138791116023661,1
175,644,4,0.131929321383665,1
175,645,4,0.104725703110228,1
175,683,4,0.110209479246781,1
176,645,4,0.120522744890075,1
176,646,4,0.116967306794319,1
176,647,4,0.111457630905735,1
177,647,4,0.12518231328465,1
177,648,4,0.113484526314728,1
142,670,5,0.107752627876735,1
143,670,5,0.125986622164602,1
143,671,5,0.174333093654663,1
143,672,5,0.151448889237491,1
144,669,5,0.104440192363995,1
144,670,5,0.112376782097021,1
144,671,5,0.132668356642218,1
144,672,5,0.117046121457478,1
162,680,5,0.133164478550321,1
164,680,5,0.134695887833238,1
164,682,5,0.189506968661791,1
165,638,5,0.140515568807186,1
165,681,5,0.150215862498328,1
165,682,5,0.209695055739568,1
165,683,5,0.211868381787955,1
166,639,5,0.119383601963509,1
166,681,5,0.175866064507471,1
166,682,5,0.271592183798382,1
166,683,5,0.284001221236886,2
166,684,5,0.230934860138216,4
167,681,5,0.162216605180968,1
167,682,5,0.220474996544469,1
167,683,5,0.271397790655227,2
167,684,5,0.328824567973843,4
167,685,5,0.20969300339057,4
168,639,5,0.14938800737525,1
168,681,5,0.163924371474812,1
168,682,5,0.18886346801829,1
168,683,5,0.258093705972095,4
168,684,5,0.379205118094392,4
168,685,5,0.24897955869321,4
169,640,5,0.132489679584597,1
169,679,5,0.107320898418451,1
169,680,5,0.171770557465281,1
169,681,5,0.216894383711273,1
169,682,5,0.193577200579905,1
169,683,5,0.182742035971253,1
169,684,5,0.23877019321795,4
169,685,5,0.173759607112585,1
170,679,5,0.128092834169933,1
170,680,5,0.229790497106589,1
170,681,5,0.2832794859419,1
170,682,5,0.212040556022391,1
170,683,5,0.158561003530843,1
170,684,5,0.164357640194845,1
171,641,5,0.126664577732317,1
171,679,5,0.130612315646636,1
171,680,5,0.228315839735101,1
171,681,5,0.284373856428907,1
171,682,5,0.236666468570372,1
171,683,5,0.224905728025745,3
171,684,5,0.209714865369029,1
171,685,5,0.15334896286328,1
172,642,5,0.16202338321523,1
172,643,5,0.114615571386007,1
172,679,5,0.116526263687049,1
172,680,5,0.16858764302084,1
172,681,5,0.225075961451889,1
172,682,5,0.276758771628078,3
172,683,5,0.359171671052001,3
172,684,5,0.309648534341733,3
172,685,5,0.187992067403424,1
173,642,5,0.188076592950752,1
173,643,5,0.154768786823491,1
173,644,5,0.115071560947939,1
173,681,5,0.180371740189393,1
173,682,5,0.267389575369885,3
173,683,5,0.353109991361395,3
173,684,5,0.290447939446067,3
173,685,5,0.170248082592948,1
174,642,5,0.156078018173283,1
174,643,5,0.166107412718728,1
174,644,5,0.152231659607032,1
174,682,5,0.195449478261653,1
174,683,5,0.209481410670484,3
174,684,5,0.173834651699867,1
175,643,5,0.139561717302132,1
175,645,5,0.12165648924645,1
175,646,5,0.107963707509572,1
175,683,5,0.113613656990555,1
176,646,5,0.156482788242824,1
176,647,5,0.16085344389962,1
176,648,5,0.131660753670738,1
177,647,5,0.182692411510965,1
177,648,5,0.168371254050378,1
177,649,5,0.124069081264186,1
178,648,5,0.153835715352043,1
178,649,5,0.131602395573137,1
143,670,6,0.120009847259726,1
143,671,6,0.144655759056369,1
144,669,6,0.109529415559714,1
144,670,6,0.107638566350346,1
144,671,6,0.110605928379623,1
161,680,6,0.127184892819643,1
162,680,6,0.16979632042379,1
164,680,6,0.136834357410867,1
165,682,6,0.196891119584041,1
165,683,6,0.196622886493232,1
166,681,6,0.164581446622284,1
166,682,6,0.220450903751881,1
166,683,6,0.232802073871893,1
166,684,6,0.22141193847843,1
167,681,6,0.160687538252885,1
167,682,6,0.195920358507892,1
167,683,6,0.233717823071633,1
167,684,6,0.312801968577466,4
167,685,6,0.226643353766698,1
168,681,6,0.159654771698036,1
168,682,6,0.182299777070283,1
168,683,6,0.222690083433341,1
168,684,6,0.328303695182985,4
168,685,6,0.241277048286686,1
168,686,6,0.115134001435395,1
169,679,6,0.108105643058496,1
169,680,6,0.153628773879415,1
169,681,6,0.189793315963322,1
169,682,6,0.178864044460661,1
169,683,6,0.161742200248406,1
169,684,6,0.203588246679143,1
169,685,6,0.170226990245364,1
170,641,6,0.105298631948774,1
170,679,6,0.134037351502511,1
170,680,6,0.211000104312869,1
170,681,6,0.247899331567778,1
170,682,6,0.190855629651303,1
170,683,6,0.143980469311538,1
170,684,6,0.154285837872817,1
171,679,6,0.138105564533839,1
171,680,6,0.230417467417398,1
171,681,6,0.286505577793798,1
171,682,6,0.234007650443205,1
171,683,6,0.203045846531945,3
171,684,6,0.204136647716347,1
171,685,6,0.168252452043966,1
172,642,6,0.152891099417481,1
172,643,6,0.10553209780139,1
172,680,6,0.18564602057114,1
172,681,6,0.253270083506511,1
172,682,6,0.273111591301288,3
172,683,6,0.311188532259045,3
172,684,6,0.310561472715671,3
172,685,6,0.216024544666297,1
172,686,6,0.109102381965171,1
173,642,6,0.165075761570943,1
173,643,6,0.127711231105116,1
173,680,6,0.135329282888737,1
173,681,6,0.190138645990411,1
173,682,6,0.248022940978637,1
173,683,6,0.302081969748197,3
173,684,6,0.295972572943383,1
173,685,6,0.198414364087248,1
174,643,6,0.141289728234192,1
174,644,6,0.142041088740804,1
174,681,6,0.169262832379036,1
174,682,6,0.20907417555133,1
174,683,6,0.199829771035484,1
174,684,6,0.17250848847084,1
175,645,6,0.130570242492173,1
175,646,6,0.119399184200196,1
175,647,6,0.119492577233685,1
175,682,6,0.154939142944412,1
175,683,6,0.118437614078257,1
176,646,6,0.186883542400772,1
176,647,6,0.209863370665562,1
176,648,6,0.171870520246378,1
176,649,6,0.107796251447018,1
177,647,6,0.228020792258468,1
177,648,6,0.209997487210966,1
177,649,6,0.155062228113951,1
177,650,6,0.105056990162377,1
178,649,6,0.166466741104473,1
178,650,6,0.132700614214516,1
144,669,7,0.109645005193781,1
148,676,7,0.102919658299954,1
158,680,7,0.116384729684667,1
158,681,7,0.103359017142557,1
159,679,7,0.11337291868388,1
159,680,7,0.1424631253117,1
160,679,7,0.114662440790847,1
160,680,7,0.148409271138592,1
161,679,7,0.122995145034596,1
161,680,7,0.185173534138729,1
161,681,7,0.183744686535368,1
162,679,7,0.133847643069026,1
163,679,7,0.124275163873375,1
164,679,7,0.113856938425336,1
165,639,7,0.114228904373118,1
165,679,7,0.10804406143448,1
166,682,7,0.177426440911846,1
166,683,7,0.190071453868861,1
166,684,7,0.212805680652176,1
167,682,7,0.172032086959633,1
167,683,7,0.201356874847133,1
167,684,7,0.278531733464826,1
167,685,7,0.234772351218306,1
168,640,7,0.104374807201889,1
168,682,7,0.180318825278265,1
168,683,7,0.193693693693694,1
168,684,7,0.254274663724847,1
168,685,7,0.211841745867261,1
169,679,7,0.107922760916244,1
169,681,7,0.179032404002937,1
169,682,7,0.176290488049484,1
169,683,7,0.158290550779977,1
169,684,7,0.172411894219077,1
170,679,7,0.136960599182398,1
170,680,7,0.18866273936301,1
170,681,7,0.21690266003169,1
170,682,7,0.187504366818656,1
170,683,7,0.150020275869614,1
170,684,7,0.152513757207649,1
171,642,7,0.107809848259131,1
171,679,7,0.145167597050007,1
171,680,7,0.224160970728952,1
171,681,7,0.27832846168144,1
171,682,7,0.240872155522367,1
171,683,7,0.195544198629548,1
171,684,7,0.205633858618675,5
171,685,7,0.18052432787578,1
172,679,7,0.124138872284196,1
172,680,7,0.201592381894677,1
172,681,7,0.273193082941402,1
172,682,7,0.275047313336851,1
172,683,7,0.277708540743277,3
172,684,7,0.327095419326578,5
172,685,7,0.258452130878117,5
172,686,7,0.123066832246615,1
173,680,7,0.142074584414944,1
173,681,7,0.193849582984992,1
173,682,7,0.232748556640951,1
173,683,7,0.260963023720425,1
173,684,7,0.309868202608964,5
173,685,7,0.239749966783178,1
173,686,7,0.116933677271332,1
174,645,7,0.105146646582201,1
174,681,7,0.16928391357255,1
174,682,7,0.214173548951334,1
174,683,7,0.186012766413862,1
174,684,7,0.16974526824246,1
174,685,7,0.133170222896701,1
175,646,7,0.130370283467767,1
175,647,7,0.143412604421063,1
175,648,7,0.131586010243363,1
175,682,7,0.184088823076898,1
175,683,7,0.121539973824519,1
176,646,7,0.206850053865238,1
176,647,7,0.262511654888414,1
176,648,7,0.223202055275826,1
176,649,7,0.135337258049246,1
177,646,7,0.197252645321702,1
177,647,7,0.273506222320616,1
177,648,7,0.249988734388651,1
177,649,7,0.178543487624469,1
177,650,7,0.121564055463036,1
178,647,7,0.154672861815967,1
144,669,8,0.106973806048201,1
156,680,8,0.111066624959366,1
157,680,8,0.127221433555067,1
158,679,8,0.127978739181332,1
158,680,8,0.179123376603096,1
158,681,8,0.144047795281935,1
159,679,8,0.167090432118512,1
159,681,8,0.166872146956041,1
160,679,8,0.155511514079426,1
160,681,8,0.165889027169621,1
161,679,8,0.162215980553012,1
164,679,8,0.140401629975574,1
165,639,8,0.119433906822106,1
165,679,8,0.131498071550418,1
166,679,8,0.110404853948153,1
166,684,8,0.204432141355805,1
167,683,8,0.190079663264854,1
167,684,8,0.242545489200138,1
167,685,8,0.220484767510352,1
168,683,8,0.17723916406576,1
168,684,8,0.194962000758298,1
169,681,8,0.18086708131255,1
169,682,8,0.174578416284372,1
170,678,8,0.108046593408515,1
170,680,8,0.173110384430845,1
170,681,8,0.193447567970899,1
170,682,8,0.181312864899844,1
170,683,8,0.16334040010633,1
170,684,8,0.151179139193075,1
171,679,8,0.149410862065996,1
171,680,8,0.214595908990279,1
171,681,8,0.256753499768129,1
171,682,8,0.229675610178973,1
171,683,8,0.194480613377514,1
171,684,8,0.207481798118282,5
171,685,8,0.179755555864895,1
172,679,8,0.125767734682316,1
172,680,8,0.202304903927313,1
172,681,8,0.262820109557959,1
172,682,8,0.253526069427754,1
172,683,8,0.257287065891378,5
172,684,8,0.338414927144734,5
172,685,8,0.27798536246848,5
172,686,8,0.129257910310743,1
173,680,8,0.141541921771416,1
173,681,8,0.186354404443568,1
173,682,8,0.20904066872312,1
173,683,8,0.234596942303383,1
173,684,8,0.310804787612664,5
173,685,8,0.253912178737111,1
173,686,8,0.123674918715826,1
174,681,8,0.155665161402525,1
174,682,8,0.190291746764048,1
174,683,8,0.164338176341574,1
174,684,8,0.159652674732755,1
174,685,8,0.135580383327038,1
175,646,8,0.13172712039106,1
175,647,8,0.15039700460556,1
175,648,8,0.145634986072135,1
175,649,8,0.109736948198087,1
176,646,8,0.199571777381526,1
176,647,8,0.276612809459651,1
176,648,8,0.243877441391828,1
176,649,8,0.149877358762473,1
177,646,8,0.19249224412852,1
177,647,8,0.282534505563695,1
177,648,8,0.254945737230976,1
177,649,8,0.174520203189689,1
178,647,8,0.147913617701457,1
178,648,8,0.157680055031508,1
145,667,9,0.10536835604436,1
145,668,9,0.103916162971145,1
151,679,9,0.109829593908842,1
152,679,9,0.133622698926381,1
152,680,9,0.119999172814121,1
153,679,9,0.140057627282892,1
153,680,9,0.134112362627581,1
154,679,9,0.117657375682752,1
154,680,9,0.1265521223921,1
155,679,9,0.104845653985916,1
155,680,9,0.119214160476381,1
156,679,9,0.108578475267098,1
156,680,9,0.130417342491807,1
157,679,9,0.11837445973028,1
157,680,9,0.15852049194627,1
157,681,9,0.135403267839308,1
158,679,9,0.178227202797334,1
158,681,9,0.184531494678482,1
159,678,9,0.105659923450952,1
165,639,9,0.118577285350841,1
167,684,9,0.197249589106346,1
169,680,9,0.147230497799034,1
169,681,9,0.177852191788266,1
169,682,9,0.164252658081958,1
170,679,9,0.145361900960597,1
170,680,9,0.171529897237101,1
170,681,9,0.180568877233926,1
170,682,9,0.173834863627209,1
170,683,9,0.173248237589914,1
170,684,9,0.149973607238046,1
171,679,9,0.16463259919025,1
171,680,9,0.223193355100725,1
171,681,9,0.239549818139571,1
171,682,9,0.210415207156523,1
171,683,9,0.195205873358824,1
171,684,9,0.207295279749,1
171,685,9,0.169089565045677,1
172,679,9,0.130863717244845,1
172,680,9,0.201568422950937,1
172,681,9,0.240762421775387,1
172,682,9,0.222775099759777,1
172,683,9,0.242992343578213,1
172,684,9,0.334538575282526,5
172,685,9,0.27425847515288,1
172,686,9,0.131170342646804,1
173,680,9,0.144870285297034,1
173,681,9,0.18594536236497,1
173,682,9,0.187638483364061,1
173,683,9,0.214697121027288,1
173,684,9,0.299568645318489,1
173,685,9,0.250319965670448,1
173,686,9,0.128771403211534,1
174,681,9,0.151865794935891,1
174,682,9,0.158052132519996,1
174,683,9,0.142572736363903,1
174,684,9,0.154110094335776,1
174,685,9,0.138475400054128,1
175,647,9,0.144871690709935,1
175,648,9,0.144002163978937,1
175,649,9,0.116956498499867,1
176,646,9,0.172500992935369,1
176,647,9,0.245494603169844,1
176,648,9,0.229310425906141,1
176,649,9,0.152009905528591,1
176,650,9,0.122048811373154,1
176,651,9,0.122164936402612,1
177,647,9,0.24587357387399,1
177,648,9,0.226657987907381,1
177,649,9,0.154440511370415,1
177,650,9,0.120184810011822,1
177,651,9,0.106387615019661,1
180,663,9,0.11356616295776,1
145,667,10,0.114159035274615,1
145,668,10,0.112694595031834,1
145,669,10,0.107476062695157,1
146,666,10,0.112887337372535,1
146,667,10,0.126517433232402,1
146,668,10,0.120141376060741,1
146,669,10,0.10821961535232,1
147,676,10,0.104985916424244,1
147,677,10,0.104852167963171,1
148,676,10,0.109785044550697,1
148,677,10,0.107254397849281,1
149,676,10,0.112623811299538,1
149,677,10,0.118764718353916,1
150,677,10,0.118190138712915,1
150,678,10,0.104267203882402,1
151,678,10,0.10602781816295,1
151,679,10,0.119924105918698,1
152,678,10,0.110773094436341,1
152,679,10,0.160584965419258,1
152,680,10,0.135746155124925,1
153,678,10,0.106232093812694,1
153,679,10,0.181668557058559,1
153,680,10,0.172867080687922,1
154,679,10,0.153834198398436,1
154,680,10,0.171880748529157,1
155,679,10,0.136948898562294,1
155,680,10,0.146436785286192,1
156,679,10,0.134650546536077,1
156,680,10,0.139933794790621,1
157,679,10,0.157410171138244,1
158,678,10,0.117920187895228,1
160,678,10,0.116235733609026,1
161,678,10,0.110118183178573,1
169,642,10,0.108594068657856,1
169,680,10,0.166914175494221,1
169,681,10,0.184229698989111,1
170,679,10,0.151570479761563,1
170,680,10,0.182121390018499,1
170,681,10,0.179458110263075,1
170,682,10,0.167678407798355,1
170,683,10,0.171772286346231,1
170,684,10,0.143696888219526,1
171,678,10,0.108433572735382,1
171,679,10,0.170823632638096,1
171,680,10,0.226517357384722,1
171,681,10,0.218984478084527,1
171,682,10,0.191080897261997,1
171,683,10,0.188904693463384,1
171,684,10,0.194488733540942,1
171,685,10,0.154005156839172,1
172,679,10,0.129541558327179,1
172,680,10,0.192561421674644,1
172,681,10,0.217120275949923,1
172,682,10,0.200787972628089,1
172,683,10,0.220409745231211,1
172,684,10,0.29274897960331,1
172,685,10,0.240795393208206,1
172,686,10,0.128830943640623,1
173,680,10,0.150693602498012,1
173,681,10,0.197805017208054,1
173,682,10,0.185471938990624,1
173,683,10,0.194808676903248,1
173,684,10,0.261039875267151,1
173,685,10,0.221572891717799,1
173,686,10,0.128930014096068,1
174,681,10,0.165061540130874,1
174,682,10,0.146029806710664,1
174,683,10,0.128681467939944,1
174,684,10,0.146031613670108,1
174,685,10,0.134815481778666,1
175,648,10,0.130508593943732,1
175,649,10,0.114959975625233,1
175,650,10,0.110223120675176,1
176,647,10,0.194311093811891,1
176,648,10,0.193322106984313,1
176,649,10,0.147986788404871,1
176,650,10,0.142565497372056,1
176,651,10,0.142053915922043,1
177,650,10,0.119701738366371,1
177,651,10,0.11461525907203,1
145,667,11,0.119852664096233,1
145,668,11,0.125162559425542,1
145,669,11,0.119592640401418,1
145,670,11,0.108303248573997,1
146,666,11,0.127499181068133,1
146,667,11,0.161787865013616,1
146,668,11,0.168462895894776,1
146,669,11,0.147097697433966,1
146,670,11,0.119307085038902,1
147,666,11,0.115132819103907,1
147,667,11,0.149536066508957,1
147,668,11,0.15135476003534,1
147,669,11,0.124392348539544,1
147,675,11,0.11134243166414,1
147,676,11,0.118272489216468,1
148,675,11,0.111011668853311,1
148,676,11,0.120664245430244,1
148,677,11,0.111448272640466,1
149,675,11,0.106741957535828,1
149,676,11,0.133334544665405,1
149,677,11,0.135023895588619,1
149,678,11,0.103467836255744,1
150,676,11,0.133500416849928,1
150,677,11,0.15479949397997,1
150,678,11,0.12359650559921,1
151,677,11,0.122042386628464,1
151,678,11,0.122514014197437,1
151,679,11,0.1245711259838,1
152,678,11,0.123443349055219,1
152,679,11,0.173988734031721,1
153,678,11,0.125317299847564,1
153,679,11,0.211622903001257,1
153,680,11,0.19539386406543,1
154,678,11,0.114106376907112,1
154,679,11,0.188958879938565,1
154,680,11,0.212743485554274,1
155,678,11,0.120349667175917,1
155,679,11,0.1659418082319,1
155,680,11,0.173553145264994,1
156,678,11,0.125882353912237,1
156,679,11,0.15742972422408,1
156,680,11,0.146704694908952,1
157,678,11,0.135473159245953,1
165,678,11,0.108541488368847,1
168,680,11,0.165783643510191,1
168,681,11,0.173988499796237,1
169,643,11,0.12290978293197,1
169,679,11,0.158941781194433,1
169,680,11,0.20249724472147,1
169,681,11,0.195043046235586,1
169,682,11,0.153558034763401,1
170,644,11,0.11206579545344,1
170,679,11,0.169324257846063,1
170,680,11,0.205580519852863,1
170,681,11,0.189258322119031,1
170,682,11,0.163034332407902,1
171,678,11,0.115132997569037,1
171,679,11,0.172309946013406,1
171,680,11,0.2153283075768,1
171,681,11,0.198205582192963,1
171,682,11,0.17625794047135,1
171,683,11,0.175018912842181,1
171,684,11,0.169798517775707,1
171,685,11,0.135789243299817,1
172,679,11,0.128630794997016,1
172,680,11,0.173333443535551,1
172,681,11,0.193731059830346,1
172,682,11,0.18921299197594,1
172,683,11,0.193472820786833,1
172,684,11,0.229856462280369,1
172,685,11,0.196439446647448,1
172,686,11,0.121076745270741,1
173,680,11,0.14865560878873,1
173,681,11,0.203860316770252,1
173,682,11,0.197233415703914,1
173,683,11,0.17741782996931,1
173,684,11,0.208347956319946,1
173,685,11,0.183472772601248,1
173,686,11,0.121917739889036,1
174,681,11,0.177733713249903,1
174,684,11,0.133807945731609,1
174,685,11,0.124977792245351,1
175,650,11,0.110765297740962,1
175,651,11,0.104217155567429,1
176,650,11,0.151571885174464,1
176,651,11,0.146116585380261,1
176,671,11,0.113860016948833,1
176,672,11,0.133038939485241,1
177,671,11,0.115063474246723,1
145,667,12,0.121034370956371,1
145,668,12,0.13567488061352,1
145,669,12,0.127980847300684,1
145,670,12,0.109141733526397,1
146,666,12,0.140451365976569,1
146,667,12,0.196595291322463,1
146,668,12,0.224147853541877,1
146,669,12,0.191794690858686,1
146,670,12,0.133710949933303,1
147,666,12,0.152800874140055,1
147,667,12,0.211907844889887,1
147,668,12,0.217068922608685,1
147,669,12,0.171769386287864,1
147,670,12,0.119596365861013,1
147,674,12,0.109709765727931,1
147,675,12,0.132218323354009,1
148,667,12,0.129199741832343,1
148,668,12,0.123536797859061,1
148,674,12,0.11480001509815,1
148,675,12,0.136866960759355,1
148,676,12,0.128294087066534,1
149,674,12,0.10844708031493,1
149,675,12,0.138165406122835,1
149,676,12,0.147980787514865,1
149,677,12,0.136017221349676,1
150,675,12,0.126397683129986,1
150,676,12,0.165462885900728,1
150,677,12,0.18140238747082,1
150,678,12,0.137725132646439,1
151,676,12,0.123435864673818,1
151,677,12,0.153541024805672,1
151,678,12,0.141833823800128,1
152,677,12,0.105112225120198,1
152,678,12,0.141783050470563,1
152,679,12,0.170638854303834,1
153,678,12,0.16056242304249,1
153,679,12,0.228673104617776,1
154,678,12,0.158065673561756,1
155,678,12,0.151174554870041,1
155,679,12,0.187023235981497,1
156,678,12,0.154359320890209,1
156,680,12,0.149982519340489,1
158,677,12,0.109080698451842,1
159,677,12,0.108093117037165,1
165,678,12,0.11985104675599,1
168,680,12,0.172925929564632,1
168,681,12,0.158263301385398,1
169,645,12,0.107577464351367,1
169,679,12,0.175548920816896,1
169,680,12,0.218715464208773,1
169,681,12,0.192601487096391,1
169,682,12,0.145902170680303,1
170,645,12,0.107001724687019,1
170,679,12,0.176272909234152,1
170,680,12,0.214117756289981,1
170,681,12,0.190274926425519,1
170,682,12,0.154838265529523,1
171,679,12,0.159024789788154,1
171,680,12,0.187083902971721,1
171,681,12,0.174850798689459,1
171,682,12,0.161835626744106,1
172,680,12,0.151658351530084,1
172,681,12,0.172465221830818,1
172,682,12,0.178843342505549,1
172,683,12,0.168960333983214,1
172,684,12,0.178965390346518,1
172,685,12,0.166655155665764,1
173,681,12,0.196803493205074,1
173,684,12,0.166835193520003,1
173,685,12,0.162375539533551,1
175,651,12,0.103302544082895,1
176,671,12,0.13041774403835,1
145,667,13,0.117812952660072,1
145,668,13,0.133891512028862,1
145,669,13,0.124368713063853,1
146,665,13,0.102941944133097,1
146,666,13,0.144018694311629,1
146,667,13,0.210296862467007,1
146,668,13,0.247060969310155,1
146,669,13,0.208323506597097,1
146,670,13,0.132617125995757,1
147,665,13,0.1129178214476,1
147,666,13,0.178344844780399,1
147,667,13,0.252355427405694,1
147,668,13,0.255823964137075,1
147,669,13,0.200888314647588,1
147,670,13,0.133098847998661,1
147,674,13,0.125000368084331,1
148,666,13,0.12862375677844,1
148,667,13,0.164472962131216,1
148,668,13,0.154430071160294,1
148,669,13,0.130503953850345,1
148,670,13,0.107316325249488,1
148,673,13,0.110337059506788,1
148,674,13,0.148883687225225,1
148,675,13,0.169210664790641,1
149,673,13,0.108051679664728,1
149,674,13,0.150521339031011,1
149,675,13,0.171810310573051,1
149,676,13,0.155266191449718,1
150,674,13,0.118778225933464,1
150,675,13,0.155856353327406,1
150,676,13,0.181060236353865,1
150,677,13,0.185886413101625,1
151,675,13,0.103178365814433,1
151,676,13,0.143246263765573,1
151,677,13,0.173568158644079,1
151,678,13,0.153908417584491,1
152,677,13,0.124576703019121,1
152,678,13,0.158358211372494,1
153,677,13,0.115280655156201,1
153,678,13,0.198226507229489,1
154,677,13,0.117185692343427,1
155,677,13,0.120810285677165,1
155,678,13,0.173324509124967,1
156,677,13,0.137895957238327,1
156,678,13,0.182317634737381,1
157,677,13,0.141147536141643,1
158,642,13,0.112270294184598,1
159,677,13,0.135198300637183,1
160,677,13,0.108466800711826,1
164,677,13,0.105900795606474,1
165,677,13,0.103662664407655,1
168,645,13,0.117373560355256,1
168,680,13,0.173502048467382,1
169,646,13,0.116865023966529,1
169,679,13,0.179231403777268,1
169,680,13,0.213968135586384,1
169,681,13,0.184496370510029,1
170,679,13,0.177568164533428,1
170,680,13,0.20782331345321,1
170,681,13,0.18233202348851,1
170,682,13,0.14737194256885,1
171,680,13,0.160630574414115,1
171,681,13,0.156948336843296,1
172,681,13,0.1605148509312,1
178,666,13,0.103564553202285,1
178,667,13,0.115158651931515,1
145,666,14,0.104591508486329,1
145,667,14,0.121775748569758,1
145,668,14,0.128330460490899,1
145,669,14,0.115429707002195,1
146,665,14,0.112282184423903,1
146,666,14,0.151241245058412,1
146,667,14,0.208432905721958,1
146,668,14,0.235943751717169,1
146,669,14,0.195911881414204,1
146,670,14,0.122617233967161,1
147,665,14,0.140347644273665,1
147,666,14,0.205639457962137,1
147,667,14,0.276429213456878,1
147,668,14,0.277794739401201,1
147,669,14,0.21864508202302,1
147,670,14,0.143680692508953,1
147,673,14,0.105230034414323,1
147,675,14,0.170960861169209,1
148,665,14,0.110177020901211,1
148,666,14,0.158638780865433,1
148,667,14,0.20187616375996,1
148,668,14,0.19566073635962,1
148,669,14,0.169460549435243,1
148,670,14,0.138201534157646,1
148,671,14,0.109682906725824,1
148,672,14,0.10954913595661,1
148,673,14,0.138082430991326,1
148,674,14,0.190276978774517,1
148,675,14,0.205645302695154,1
148,676,14,0.151618542651962,1
149,669,14,0.104426472857104,1
149,672,14,0.104327536250507,1
149,673,14,0.143806488117658,1
149,674,14,0.194554743331003,1
149,675,14,0.20113403882384,1
150,674,14,0.140731846236942,1
150,675,14,0.168783541963532,1
150,676,14,0.175714659152571,1
151,675,14,0.11148481337589,1
151,676,14,0.150098889759501,1
151,677,14,0.173841165677122,1
152,676,14,0.104741385733551,1
152,677,14,0.138349247515163,1
152,678,14,0.174188782288692,1
153,677,14,0.132105723010875,1
154,677,14,0.135110138862826,1
155,676,14,0.111022722537317,1
155,677,14,0.143686046462861,1
155,678,14,0.189398461862582,1
156,676,14,0.129539405591545,1
156,677,14,0.17806097368255,1
157,676,14,0.114109578125386,1
158,676,14,0.102972115894185,1
160,677,14,0.132657470269271,1
161,677,14,0.116061908572135,1
162,677,14,0.107758517226034,1
162,678,14,0.153626877687406,1
163,677,14,0.113102053232401,1
166,644,14,0.103017881046031,1
168,646,14,0.108933933190329,1
168,680,14,0.170818624460377,1
169,679,14,0.168923380547176,1
169,680,14,0.191375944738629,1
169,681,14,0.17680819308428,1
170,680,14,0.185528144352591,1
170,681,14,0.168464490926877,1
176,660,14,0.122639296718892,1
176,661,14,0.120130902388408,1
145,666,15,0.110286118866165,1
145,667,15,0.123582384545776,1
145,668,15,0.118855356331956,1
146,665,15,0.116980189745911,1
146,666,15,0.149208850692592,1
146,667,15,0.187585479220368,1
146,668,15,0.20031970243438,1
146,669,15,0.165169846156811,1
146,670,15,0.110048726780683,1
147,664,15,0.112595859198508,1
147,665,15,0.170851082805947,1
147,666,15,0.227326942140088,1
147,667,15,0.278397973849683,1
147,668,15,0.283542409695082,1
147,669,15,0.223795496450284,1
147,670,15,0.148095495977351,1
147,671,15,0.104122044807062,1
147,674,15,0.139501853404994,1
147,675,15,0.166918425195136,1
148,665,15,0.136946188123128,1
148,666,15,0.190012894997988,1
148,667,15,0.238594784303028,1
148,668,15,0.254920551339466,1
148,669,15,0.224030758108273,1
148,670,15,0.170835500569259,1
148,671,15,0.125398479173699,1
148,672,15,0.120967212297033,1
148,673,15,0.16085934440299,1
148,674,15,0.225230980725677,1
148,675,15,0.236199737638412,1
148,676,15,0.165018306953064,1
149,667,15,0.121285594089449,1
149,668,15,0.144670683202889,1
149,669,15,0.148990520913838,1
149,670,15,0.130904931535868,1
149,671,15,0.108472377747147,1
149,672,15,0.121870647402784,1
149,673,15,0.176080780367337,1
149,674,15,0.232441641233155,1
149,675,15,0.226048819493318,1
149,676,15,0.159182842969156,1
150,673,15,0.122438255749633,1
150,674,15,0.157850154608804,1
150,675,15,0.170109783271053,1
151,675,15,0.118539974984543,1
151,676,15,0.145997426443589,1
152,671,15,0.128271656230472,1
152,672,15,0.124483968075801,1
152,676,15,0.12009795326373,1
152,677,15,0.152140028916705,1
153,671,15,0.142795170840654,1
153,672,15,0.15909748086653,1
153,673,15,0.12946692644051,1
153,674,15,0.105407674143374,1
153,676,15,0.104952666139659,1
153,677,15,0.150944691782243,1
154,672,15,0.133528993578914,1
154,673,15,0.147697083728076,1
154,674,15,0.136497147547206,1
154,675,15,0.115112462924985,1
154,676,15,0.109519321125783,1
155,673,15,0.124373442389805,1
155,674,15,0.141718156087566,1
155,675,15,0.137914908004348,1
155,676,15,0.148924823437754,1
155,677,15,0.173194296504287,1
156,674,15,0.114110593145815,1
156,675,15,0.14227003719481,1
156,676,15,0.186277831748608,1
156,677,15,0.21697246220577,1
157,675,15,0.108815075413564,1
157,676,15,0.158444186949006,1
158,676,15,0.128043655872471,1
159,676,15,0.108512454322965,1
160,677,15,0.157261967001619,1
161,677,15,0.138452478438958,1
162,677,15,0.118207338289845,1
169,680,15,0.157070719306385,1
174,657,15,0.112421788772063,1
174,658,15,0.109522154259726,1
174,659,15,0.103848457762345,1
174,668,15,0.114740084276588,1
174,669,15,0.12438741844032,1
175,658,15,0.126662681540308,1
175,659,15,0.134910559076821,1
175,660,15,0.138780564272834,1
175,661,15,0.130303091346217,1
175,662,15,0.104156243187651,1
175,668,15,0.116542002080725,1
175,669,15,0.121758649379463,1
176,660,15,0.167327601122581,1
176,661,15,0.167533371417792,1
146,665,16,0.11213714804334,1
146,666,16,0.139263044752541,1
146,667,16,0.159943996749793,1
146,668,16,0.161148602916959,1
146,669,16,0.134688470376261,1
147,664,16,0.113353164824773,1
147,665,16,0.17238971992664,1
147,666,16,0.223204263781814,1
147,667,16,0.253357241414511,1
147,668,16,0.260516749354023,1
147,669,16,0.205442410150169,1
147,670,16,0.138617525222254,1
147,674,16,0.126178684106993,1
147,675,16,0.14329344548439,1
148,665,16,0.138354623777213,1
148,666,16,0.194115942191932,1
148,667,16,0.247604038701591,1
148,668,16,0.286389240836998,1
148,669,16,0.248691538281083,1
148,670,16,0.175625292738584,1
148,671,16,0.127094433306733,1
148,672,16,0.120457248187263,1
148,673,16,0.158195752333588,1
148,674,16,0.217639654095315,1
148,675,16,0.226803682378112,1
148,676,16,0.163213734480115,1
149,667,16,0.133135957591688,1
149,668,16,0.171503384011184,1
149,669,16,0.17409150763862,1
149,670,16,0.139418688654285,1
149,671,16,0.111008032626281,1
149,672,16,0.121641888567979,1
149,673,16,0.174694106305075,1
149,674,16,0.227800253973727,1
149,675,16,0.219252398861357,1
149,676,16,0.150874041898794,1
150,673,16,0.125071742982372,1
150,674,16,0.153058354706763,1
150,675,16,0.153326833187126,1
151,675,16,0.116544422514054,1
152,670,16,0.114342765126236,1
152,671,16,0.173259993980371,1
152,672,16,0.156044154414812,1
152,673,16,0.105186243532981,1
152,675,16,0.108951065842836,1
152,676,16,0.125280156792325,1
153,670,16,0.125943857457759,1
153,671,16,0.209355525829214,1
153,672,16,0.220279532610532,1
153,673,16,0.165364228145896,1
153,674,16,0.125044493587792,1
153,675,16,0.111480262515068,1
153,676,16,0.116443556253235,1
154,671,16,0.135817663871813,1
154,672,16,0.17889250964894,1
154,673,16,0.198165561387499,1
154,674,16,0.177517893137043,1
154,675,16,0.134650747309348,1
154,676,16,0.123390601455151,1
155,672,16,0.110011371798101,1
155,673,16,0.159943383275908,1
155,674,16,0.190466575667297,1
155,675,16,0.182347505338561,1
155,676,16,0.178065758778856,1
155,677,16,0.190237292591172,1
156,673,16,0.10856185570184,1
156,674,16,0.151958931425755,1
156,675,16,0.194449850450682,1
156,676,16,0.228615371148131,1
156,677,16,0.232055018836548,1
157,674,16,0.105840095154038,1
157,675,16,0.1391057277402,1
157,676,16,0.195896578029283,1
158,676,16,0.146804735768544,1
159,676,16,0.115691883432645,1
160,676,16,0.10554356418601,1
160,677,16,0.176712312693038,1
173,657,16,0.115910625912013,1
173,658,16,0.121266888712982,1
173,659,16,0.102990765500299,1
174,658,16,0.133989422460961,1
174,659,16,0.13479576138177,1
174,660,16,0.12465168068198,1
174,661,16,0.108371466870046,1
175,660,16,0.190581663368185,1
175,661,16,0.171935682327071,1
146,667,17,0.140128332936695,1
147,665,17,0.145916057498253,1
147,666,17,0.195516982697181,1
147,667,17,0.220989533823202,1
147,668,17,0.225686914517255,1
147,669,17,0.17603951030596,1
148,665,17,0.12025108749958,1
148,666,17,0.174520861279857,1
148,667,17,0.234674686175761,1
148,668,17,0.280732743916548,1
148,669,17,0.234878961825506,1
148,670,17,0.158155553062993,1
148,674,17,0.185121690018383,1
148,675,17,0.189723313015971,1
149,667,17,0.13311290212767,1
149,668,17,0.176709423788742,1
149,669,17,0.173664786358054,1
149,670,17,0.13358691666776,1
149,671,17,0.107509212593106,1
149,672,17,0.114515095517661,1
149,674,17,0.200846486882679,1
149,675,17,0.194474054783976,1
150,673,17,0.123453978884541,1
151,671,17,0.108359030081279,1
152,670,17,0.124204469373644,1
152,671,17,0.192014470666623,1
152,672,17,0.165752925199642,1
152,673,17,0.114850699195149,1
152,674,17,0.107587636863793,1
152,675,17,0.120545476886044,1
153,670,17,0.140951213344266,1
153,671,17,0.245069097682978,1
153,672,17,0.244781322660405,1
153,673,17,0.180754592510122,1
153,674,17,0.140151332630359,1
153,675,17,0.121933199430946,1
154,671,17,0.162203989927071,1
154,672,17,0.202426014826348,1
154,673,17,0.217630931612073,1
154,674,17,0.196754660683802,1
154,675,17,0.147983944116857,1
154,676,17,0.141035404269475,1
155,672,17,0.123872312303984,1
155,673,17,0.172835124275532,1
155,674,17,0.210893850635929,1
155,675,17,0.20990432841296,1
155,676,17,0.19622627004933,1
156,673,17,0.132311816774134,1
156,674,17,0.182500751115117,1
156,675,17,0.229019929290331,1
156,676,17,0.245892892724343,1
157,673,17,0.115456153303688,1
157,674,17,0.136072199763873,1
157,675,17,0.164370177370247,1
158,675,17,0.103828949292792,1
159,676,17,0.119891982195248,1
147,667,18,0.195181423635975,1
147,668,18,0.200467181556414,1
147,669,18,0.161501082703329,1
148,666,18,0.143899044595848,1
148,667,18,0.210445434687964,1
148,668,18,0.252373831622254,1
148,669,18,0.208200187192075,1
149,667,18,0.126707989375257,1
149,668,18,0.166007940716739,1
149,669,18,0.158483181579971,1
149,670,18,0.124397535182393,1
152,671,18,0.176658616996965,1
152,672,18,0.154494151296134,1
153,671,18,0.230488875777651,1
153,672,18,0.223797481874858,1
153,673,18,0.17119546473703,1
153,674,18,0.141973004293603,1
154,672,18,0.195563584404325,1
154,673,18,0.20025146183019,1
154,674,18,0.18598737974908,1
154,675,18,0.155433647512272,1
155,673,18,0.163657789186459,1
155,674,18,0.197836315530277,1
155,675,18,0.210842251905138,1
156,674,18,0.188108382052083,1
156,675,18,0.230150550506926,1
157,675,18,0.170067542805531,1
147,668,19,0.189512010301721,1
148,667,19,0.176177608854583,1
148,668,19,0.218905462648096,1
148,669,19,0.196375288433113,1
149,668,19,0.147136245902106,1
148,668,20,0.18737194569199,1
149,666,32,0.108179259924736,1
148,667,33,0.109931374803454,1
149,666,33,0.103130169075187,1
149,667,33,0.11408723652189,1
150,668,33,0.11546399461535,1
152,669,33,0.109044670803667,1
166,657,33,0.104852379890513,1
147,668,34,0.105918999049762,1
149,668,34,0.129068168415045,1
150,668,34,0.112705860643183,1
150,669,34,0.125648441896795,1
151,669,34,0.110080950890769,1
152,669,34,0.1074243747318,1
153,669,34,0.105293891468751,1
153,670,34,0.141389858326349,1
154,670,34,0.108081773347321,1
147,670,35,0.115066508153938,1
148,668,35,0.10764297220825,1
149,668,35,0.110177154750059,1
149,669,35,0.132277082998154,1
150,668,35,0.105172122479548,1
150,669,35,0.113963950579079,1
150,670,35,0.11467030441065,1
151,670,35,0.111652291746586,1
152,670,35,0.131720617567875,1
153,669,35,0.107462811659234,1
153,670,35,0.144591020830361,1
153,671,35,0.131345796178009,1
154,670,35,0.103233723467031,1
154,671,35,0.103670093018703,1
144,669,36,0.107878780415701,1
145,670,36,0.106952490619204,1
147,671,36,0.113517341590558,1
148,670,36,0.105184693117162,1
149,669,36,0.105085042650043,1
149,670,36,0.106677888554059,1
149,671,36,0.103923580428122,1
150,672,36,0.110355619880337,1
151,672,36,0.107602137155628,1
152,670,36,0.116772958267446,1
152,671,36,0.110806880116316,1
152,672,36,0.113450071390514,1
153,670,36,0.13123591742811,1
153,671,36,0.115407398860911,1
153,672,36,0.114978078681885,1
142,669,37,0.106319441339895,1
143,669,37,0.103121714289641,1
144,670,37,0.126516462828256,1
145,671,37,0.117610550894195,1
146,672,37,0.117209550900531,1
147,672,37,0.124783365639984,1
148,672,37,0.112995688014755,1
144,670,38,0.110727050432729,1
145,671,38,0.105941162188129,1
147,673,38,0.121781425991715,1
148,673,38,0.111865613347621,1
142,670,39,0.106403007637148,1
143,670,39,0.105257071881561,1
144,671,39,0.115251386874836,1
145,672,39,0.10381624480633,1
166,662,39,0.103248926465317,1
166,663,39,0.103189319111804,1
138,669,40,0.106102093119357,1
143,671,40,0.108563919204909,1
144,672,40,0.109240803981843,1
166,662,40,0.108342789754424,1
166,666,40,0.108264800492492,1
138,669,41,0.104672342036275,1
146,676,41,0.106310741164794,1
149,677,41,0.110405166262131,1
159,676,41,0.105741827791679,1
166,662,41,0.10313629265997,1
166,666,41,0.110611003481765,1
166,667,41,0.123989720051566,1
139,672,42,0.115844761124869,1
140,672,42,0.124386526114669,1
140,673,42,0.144328454007439,1
141,673,42,0.143734968216699,1
141,674,42,0.115999200386984,1
142,672,42,0.108355706168228,1
142,673,42,0.125477606150836,1
142,674,42,0.122257805194781,1
142,675,42,0.107258948710103,1
145,676,42,0.106164567069025,1
166,666,42,0.104079268946148,1
166,667,42,0.111543796101447,1
166,668,42,0.106017534109817,1
167,666,42,0.121286742958725,1
170,658,42,0.10317691578525,1
171,658,42,0.104034630355437,1
139,673,43,0.112696848154104,1
140,672,43,0.105512533561483,1
140,673,43,0.128510676810268,1
140,674,43,0.106142783169061,1
141,672,43,0.106010328580182,1
141,673,43,0.129494555073492,1
141,674,43,0.112633704960197,1
142,673,43,0.105349449894621,1
142,674,43,0.105480610611305,1
142,675,43,0.104275915211574,1
143,675,43,0.104500591656523,1
143,676,43,0.104557287797598,1
167,666,43,0.103554034913669,1
167,667,43,0.108302066242509,1
171,658,43,0.103830354705693,1
137,670,44,0.109776500532585,1
140,673,44,0.106425159621443,1
141,673,44,0.107074917698574,1
146,638,44,0.103444435015537,1
147,679,44,0.108689692505473,1
148,638,44,0.113668033084937,1
148,679,44,0.116171129231866,1
158,678,44,0.106395434023181,1
137,670,45,0.116110640706772,1
137,671,45,0.103434697511866,1
142,634,45,0.103278127822259,1
146,638,45,0.106071051340759,1
148,638,45,0.119207568420631,1
148,679,45,0.105030198084694,1
148,680,45,0.108025947223756,1
149,680,45,0.104834276833861,1
157,679,45,0.11598662974937,1
158,678,45,0.133913262466615,1
158,679,45,0.139164253148861,1
159,678,45,0.13219853603269,1
159,679,45,0.134512782609572,1
137,670,46,0.115309611123589,1
137,671,46,0.105850100355404,1
142,634,46,0.108025478752789,1
146,638,46,0.108738424640109,1
147,639,46,0.104915880014681,1
147,681,46,0.109820681806399,1
148,638,46,0.126059123623777,1
148,639,46,0.106513979485969,1
148,681,46,0.107693065139505,1
149,681,46,0.103041103821108,1
152,640,46,0.113191252335328,1
156,680,46,0.117753858393808,1
156,682,46,0.146528527517226,1
157,678,46,0.115836919813208,1
157,679,46,0.132936500500461,1
157,680,46,0.134925014752374,1
157,681,46,0.14725769142326,1
157,682,46,0.147930136880078,1
158,677,46,0.104430142546346,1
158,678,46,0.175034751622493,1
158,679,46,0.179392635868404,1
158,680,46,0.139079392979414,1
159,677,46,0.105963224939859,1
159,678,46,0.163749709882623,1
159,679,46,0.169455340484253,1
159,680,46,0.137776452525465,1
160,678,46,0.120489115367088,1
160,679,46,0.139946376582305,1
160,680,46,0.139754660416104,1
160,681,46,0.120498116702096,1
161,680,46,0.121370978500217,1
165,671,46,0.104273896324787,1
166,668,46,0.114988429659441,1
166,669,46,0.115084510823955,1
166,671,46,0.10397512338856,1
167,669,46,0.103754629720102,1
137,670,47,0.103245056002804,1
142,634,47,0.106331365041411,1
143,635,47,0.111962386064515,1
144,636,47,0.11456803273693,1
145,637,47,0.10954895749148,1
146,638,47,0.109428593915178,1
147,639,47,0.10703976006791,1
147,681,47,0.104432830677371,1
147,682,47,0.110245451124602,1
148,639,47,0.114355179606861,1
148,682,47,0.104193743173151,1
149,638,47,0.118960193441924,1
149,639,47,0.105272297187987,1
152,640,47,0.122456336498145,1
152,641,47,0.106686387955888,1
153,641,47,0.115403249546632,1
154,642,47,0.104900610091971,1
155,681,47,0.113000350416283,1
155,682,47,0.126548374624364,1
156,680,47,0.119455389562163,1
156,681,47,0.156220310652468,1
156,682,47,0.172010224981174,1
156,683,47,0.136337956650998,1
157,678,47,0.127395838603632,1
157,679,47,0.146176047730856,1
157,680,47,0.139609869425095,1
157,681,47,0.170644765961274,1
157,682,47,0.184877594336445,1
157,683,47,0.137404163109634,1
158,677,47,0.107049386030874,1
158,678,47,0.200899379485665,1
158,679,47,0.210343664947423,1
158,680,47,0.153210261994842,1
158,681,47,0.139039015243688,1
158,682,47,0.139887906943998,1
159,677,47,0.109966298198635,1
159,678,47,0.186199619405263,1
159,679,47,0.200160020759064,1
159,680,47,0.165930977629307,1
159,681,47,0.13847420656857,1
160,678,47,0.139344569854866,1
160,679,47,0.164881558046988,1
160,680,47,0.17736053150842,1
160,681,47,0.159967476068495,1
160,682,47,0.140696063978321,1
161,679,47,0.130696183103796,1
161,680,47,0.152690426532554,1
161,681,47,0.152969155603836,1
161,682,47,0.142989697832657,1
162,680,47,0.12092097867422,1
162,681,47,0.125510521813302,1
164,671,47,0.107337629524415,1
165,668,47,0.106866537350833,1
165,669,47,0.122072246075574,1
165,670,47,0.115580532345422,1
166,668,47,0.136603501610782,1
166,670,47,0.117841317461715,1
166,671,47,0.110772436346173,1
167,668,47,0.119268224256784,1
167,669,47,0.124098673013601,1
171,660,47,0.103094219505507,1
143,634,48,0.11541867562633,1
143,635,48,0.105643504658966,1
144,636,48,0.106077186079613,1
145,637,48,0.104994661215628,1
146,638,48,0.104335544873228,1
147,639,48,0.104058522374753,1
147,681,48,0.109783438364524,1
147,682,48,0.106788882711021,1
148,639,48,0.116798066080462,1
148,681,48,0.103731596564225,1
149,638,48,0.122747111965721,1
149,639,48,0.108781914361544,1
151,639,48,0.107933357283354,1
152,640,48,0.125348029312184,1
152,641,48,0.113675260922713,1
153,641,48,0.124686258300971,1
153,642,48,0.117597757175168,1
154,641,48,0.114681882335976,1
155,641,48,0.103370706608591,1
155,642,48,0.104369174396215,1
155,681,48,0.110372774840985,1
155,682,48,0.131934641875362,1
156,679,48,0.103974231062909,1
156,680,48,0.115463570760666,1
156,681,48,0.1527473234469,1
156,682,48,0.18717226551935,1
156,683,48,0.145542384977662,1
157,678,48,0.130863561087856,1
157,679,48,0.156314718706385,1
157,680,48,0.138634334406712,1
157,681,48,0.173979186147251,1
157,682,48,0.207464308535514,1
157,683,48,0.148729638355583,1
158,678,48,0.200940114151651,1
158,679,48,0.225540082331319,1
158,680,48,0.162436663840671,1
158,681,48,0.144859666621783,1
158,682,48,0.148164015433308,1
159,677,48,0.108244477775782,1
159,678,48,0.19204565744814,1
159,679,48,0.218402503294689,1
159,680,48,0.186274697454757,1
159,681,48,0.162253424768158,1
159,682,48,0.1402662864824,1
160,645,48,0.109888331244845,1
160,677,48,0.111379117402483,1
160,678,48,0.159729950134166,1
160,679,48,0.187995592089747,1
160,680,48,0.211226598871333,1
160,681,48,0.216615978108039,1
160,682,48,0.188455519038615,1
160,683,48,0.13459382808686,1
161,677,48,0.107823980466635,1
161,678,48,0.13553752938763,1
161,679,48,0.153869467569807,1
161,680,48,0.187968220000391,1
161,681,48,0.216548986759761,1
161,682,48,0.201454205267559,1
161,683,48,0.135704093124533,1
162,679,48,0.121480377625077,1
162,680,48,0.144023155939886,1
162,681,48,0.16845306915854,1
162,682,48,0.154764481352223,1
163,681,48,0.149836936410465,1
164,671,48,0.11568555907459,1
164,675,48,0.109141008511805,1
165,668,48,0.110287992750033,1
165,670,48,0.134275959381693,1
166,671,48,0.119079541997798,1
167,668,48,0.129081017904425,1
167,670,48,0.109049299742983,1
139,677,49,0.116618764394886,1
143,634,49,0.109974819908606,1
143,635,49,0.1048108198233,1
144,635,49,0.115282283650515,1
147,638,49,0.122797216051047,1
147,681,49,0.116741091087621,1
147,682,49,0.106571579106766,1
148,639,49,0.114675636056417,1
148,681,49,0.107908963330859,1
149,638,49,0.127200887756944,1
149,639,49,0.10989778989675,1
150,638,49,0.119096674650304,1
150,679,49,0.103656630055438,1
151,639,49,0.105532666658993,1
152,640,49,0.123140939891963,1
152,641,49,0.115163503952244,1
152,642,49,0.106014366353755,1
153,641,49,0.128973961134399,1
154,682,49,0.105333767271298,1
155,641,49,0.10725333821257,1
155,681,49,0.112337965931185,1
155,682,49,0.136303992505892,1
156,679,49,0.108826162559782,1
156,680,49,0.119621585214735,1
156,681,49,0.149919108448887,1
156,682,49,0.190480205941622,1
156,683,49,0.151782518644475,1
157,678,49,0.122595829305598,1
157,679,49,0.15880542268083,1
157,680,49,0.144678680671539,1
157,681,49,0.170893546352882,1
157,682,49,0.209958001800892,1
157,683,49,0.154207458218413,1
158,678,49,0.170935039495672,1
158,679,49,0.21452126594954,1
158,680,49,0.171318951453112,1
158,681,49,0.153438585820892,1
158,682,49,0.155838941823134,1
158,683,49,0.123971405067571,1
159,678,49,0.177213900095755,1
159,679,49,0.217531481918225,1
159,680,49,0.194870805076726,1
159,681,49,0.180712787053354,1
159,682,49,0.158366945009807,1
159,683,49,0.120762535100745,1
160,677,49,0.117090626199341,1
160,678,49,0.180872937199638,1
160,679,49,0.2114354253819,1
160,680,49,0.232450542181527,1
160,681,49,0.274446131237367,6
160,682,49,0.246246142141587,1
160,683,49,0.151596502208372,1
161,677,49,0.121735047365984,1
161,678,49,0.158187219469546,1
161,679,49,0.174991150360352,1
161,680,49,0.215142503068039,1
161,681,49,0.289314864333931,6
161,682,49,0.266677321034944,6
161,683,49,0.1524866862782,1
162,677,49,0.108061350243975,1
162,678,49,0.123225666212562,1
162,679,49,0.133053841323619,1
162,680,49,0.15954753646288,1
162,681,49,0.208762463893158,1
162,682,49,0.185688249882592,1
162,683,49,0.109342517952031,1
163,680,49,0.129294451046167,1
163,681,49,0.183268385410797,1
163,682,49,0.164190072591584,1
164,675,49,0.103519814224938,1
164,681,49,0.156304891970149,1
165,668,49,0.104204741086804,1
167,668,49,0.126349073690126,1
171,660,49,0.103881585352153,1
171,661,49,0.103366345366969,1
135,667,50,0.10706755601195,1
135,668,50,0.121540040748943,1
135,669,50,0.123088259216319,1
136,667,50,0.112338445556223,1
136,668,50,0.107495069231532,1
137,667,50,0.103002365733767,1
139,677,50,0.127391176202103,1
142,633,50,0.1040475244611,1
143,633,50,0.116365355063961,1
144,634,50,0.121656756944145,1
144,635,50,0.105790749545516,1
145,635,50,0.129795536515706,1
145,636,50,0.118356958993442,1
146,637,50,0.118507204324995,1
147,637,50,0.13777499134221,1
147,638,50,0.11374987050124,1
147,681,50,0.11113770985157,1
148,638,50,0.131800926876501,1
148,639,50,0.110521012439823,1
149,638,50,0.131812928656512,1
149,639,50,0.111477038988652,1
150,638,50,0.124997155711986,1
150,639,50,0.10419997829864,1
151,638,50,0.115362358723657,1
151,639,50,0.104747252774709,1
152,640,50,0.118537164158741,1
152,641,50,0.114124892664378,1
154,682,50,0.111373707678221,1
155,680,50,0.10873981889894,1
155,681,50,0.132771554103801,1
155,682,50,0.15106862466115,1
155,683,50,0.145801973663722,1
156,679,50,0.110706292707263,1
156,680,50,0.139133735611583,1
156,681,50,0.168862724711023,1
156,682,50,0.198019777684203,1
156,683,50,0.167951191749985,1
156,684,50,0.123267159355352,1
157,678,50,0.107844894349089,1
157,679,50,0.156822552388662,1
157,680,50,0.170144829361012,1
157,681,50,0.184699943453323,1
157,682,50,0.205811275266312,1
157,683,50,0.16199092486966,1
157,684,50,0.116812254058319,1
158,678,50,0.136239343512449,1
158,679,50,0.194659658519466,1
158,680,50,0.190388965643767,1
158,681,50,0.173248561057963,1
158,682,50,0.165972147304048,1
158,683,50,0.134559161235304,1
159,678,50,0.152729666553074,1
159,679,50,0.20143807648141,1
159,680,50,0.197384954907662,1
159,681,50,0.197586843586289,6
159,682,50,0.182593976837546,1
159,683,50,0.132560307159905,1
160,677,50,0.112259340887227,1
160,678,50,0.182448739683712,1
160,679,50,0.213006186226043,1
160,680,50,0.233136249828339,6
160,681,50,0.315584931510883,6
160,682,50,0.301334446241886,6
160,683,50,0.16658806393085,1
161,677,50,0.126719455759877,1
161,678,50,0.163688407110372,1
161,679,50,0.17571272949835,1
161,680,50,0.227806321788156,6
161,681,50,0.356796813255248,6
161,682,50,0.334639296540427,6
161,683,50,0.16742516577849,6
162,677,50,0.122025722446925,1
162,678,50,0.13141995959371,1
162,679,50,0.132934860852076,1
162,680,50,0.16553809779907,1
162,681,50,0.239790188361914,6
162,682,50,0.213232234621682,6
162,683,50,0.115943296184924,1
163,680,50,0.133701413202904,1
163,681,50,0.195842101548265,1
163,682,50,0.175975407861978,1
164,674,50,0.105658484575839,1
164,680,50,0.113424338949542,1
164,681,50,0.168980712470278,1
164,682,50,0.161980060804855,1
165,681,50,0.118751311161004,1
169,665,50,0.104352108668132,1
170,660,50,0.103791036606678,1
170,661,50,0.110652128540224,1
171,660,50,0.109368105390084,1
171,661,50,0.114732544124834,1
134,668,51,0.108903962202513,1
134,669,51,0.105110875477651,1
135,667,51,0.104567527234448,1
135,668,51,0.139582318870608,1
135,669,51,0.137094180332411,1
136,667,51,0.114380566271643,1
136,668,51,0.118622961270122,1
136,669,51,0.103392390121919,1
137,667,51,0.108143678439387,1
138,677,51,0.110413119114499,1
139,677,51,0.129975362442602,1
139,678,51,0.114347505606259,1
142,633,51,0.104599472492768,1
143,633,51,0.114588054293733,1
144,634,51,0.116596311250683,1
145,635,51,0.123582496086483,1
145,636,51,0.108531182007574,1
146,636,51,0.129364342452812,1
146,637,51,0.109466060438466,1
147,637,51,0.133034700938396,1
147,638,51,0.109277868958587,1
148,638,51,0.133769687269306,1
148,639,51,0.111046112623454,1
149,638,51,0.139048886596207,1
149,639,51,0.116766366211697,1
150,638,51,0.132991144292538,1
150,639,51,0.110115762745243,1
151,638,51,0.118217477340059,1
151,639,51,0.104853651454567,1
152,639,51,0.11688988638999,1
152,640,51,0.114200907655806,1
152,641,51,0.110878333092852,1
152,642,51,0.105807893352094,1
153,640,51,0.125071419514323,1
154,681,51,0.116249096185656,1
154,682,51,0.123120349477557,1
155,680,51,0.128325753473088,1
155,681,51,0.170505708162576,1
155,682,51,0.176880549540537,1
155,683,51,0.16230971936269,1
156,642,51,0.105838678587067,1
156,679,51,0.112101053470741,1
156,680,51,0.172628673582012,1
156,681,51,0.210526636322241,1
156,682,51,0.213366908870618,1
156,683,51,0.1862132831418,1
156,684,51,0.146326583068246,1
157,642,51,0.10306267579373,1
157,679,51,0.150707846246222,1
157,680,51,0.209907674634153,1
157,681,51,0.216323786073491,1
157,682,51,0.203426512654829,1
157,683,51,0.169560880300671,1
157,684,51,0.1336945757576,1
158,678,51,0.106379048693408,1
158,679,51,0.17454730758135,1
158,680,51,0.217008556778369,1
158,681,51,0.200549297824483,1
158,682,51,0.179842011066444,1
158,683,51,0.148278366965533,1
159,678,51,0.128916963833417,1
159,679,51,0.182552651005816,1
159,680,51,0.20087185123932,1
159,681,51,0.210708983069102,6
159,682,51,0.205478281641355,1
159,683,51,0.1483757196941,1
160,678,51,0.16624913634031,1
160,679,51,0.198721658733445,1
160,680,51,0.221871575421461,6
160,681,51,0.321285553934795,6
160,682,51,0.321628073136081,6
160,683,51,0.174260737198406,1
161,677,51,0.125110391837148,1
161,678,51,0.157964093440416,1
161,679,51,0.167091369060446,1
161,680,51,0.221678431534217,6
161,681,51,0.375874780298271,6
161,682,51,0.361656931839973,6
161,683,51,0.173749780376349,6
162,677,51,0.133461321832326,1
162,678,51,0.13979192616612,1
162,679,51,0.133285422138296,1
162,680,51,0.166478586727495,1
162,681,51,0.252916722548561,6
162,682,51,0.233031267715453,6
162,683,51,0.126774088397884,1
163,677,51,0.114581964171162,1
163,678,51,0.118489480506745,1
163,680,51,0.134759878736513,1
163,681,51,0.187050306910946,1
163,682,51,0.171748762411246,1
163,683,51,0.103820193347337,1
164,674,51,0.106351397752285,1
164,681,51,0.159638018283931,1
164,682,51,0.159050444150631,1
170,660,51,0.105320572005728,1
170,661,51,0.123892177703798,1
170,662,51,0.114583759976535,1
170,665,51,0.112869401626942,1
171,660,51,0.111764390156542,1
171,661,51,0.129578165987027,1
171,662,51,0.116279223330461,1
134,668,52,0.120070625790656,1
134,669,52,0.109567439786534,1
135,667,52,0.111591970532552,1
135,668,52,0.15390857374148,1
135,669,52,0.134588206435256,1
136,667,52,0.118062134598223,1
136,668,52,0.13505257270424,1
136,669,52,0.106793433571843,1
139,677,52,0.115567883629313,1
142,633,52,0.103808738116788,1
143,633,52,0.113209288467557,1
144,634,52,0.114466028760905,1
145,634,52,0.135169534288996,1
145,635,52,0.120253374084061,1
146,635,52,0.13979279618363,1
146,636,52,0.118891328209778,1
147,637,52,0.124932417485978,1
148,638,52,0.131316349431513,1
148,639,52,0.108821968629221,1
149,639,52,0.120414148858301,1
150,639,52,0.115866210402715,1
151,638,52,0.122926514037933,1
151,639,52,0.106262533271477,1
152,639,52,0.11370403842497,1
152,640,52,0.110700191430622,1
152,641,52,0.107939570100702,1
153,640,52,0.122088006777392,1
153,642,52,0.114503640287111,1
154,681,52,0.129707508590196,1
154,682,52,0.131411292880821,1
154,683,52,0.116929014869804,1
155,680,52,0.143320772957464,1
155,681,52,0.214661004146548,1
155,682,52,0.204280847541612,1
155,683,52,0.1684726891688,1
155,684,52,0.160146643905224,1
155,685,52,0.173436060985461,1
156,679,52,0.112142278915835,1
156,680,52,0.2134200691713,1
156,681,52,0.274381348395076,7
156,682,52,0.236916007438784,1
156,683,52,0.196313740271308,1
156,684,52,0.17385641329169,1
156,685,52,0.168409032887643,1
157,679,52,0.148337015068971,1
157,680,52,0.260222103423934,1
157,681,52,0.264134527550599,7
157,682,52,0.207039316135898,1
157,683,52,0.17729385247412,1
157,684,52,0.159896670028057,1
158,679,52,0.162783343510307,1
158,680,52,0.244619298630253,1
158,681,52,0.224893436239897,1
158,682,52,0.189931604131147,1
158,683,52,0.160156805263579,1
159,678,52,0.108247188214948,1
159,679,52,0.162910243372006,1
159,680,52,0.204224898723269,1
159,681,52,0.226178608259313,1
159,682,52,0.231930584024462,1
159,683,52,0.16721385191017,1
159,684,52,0.119404984316931,1
160,678,52,0.136533967134397,1
160,679,52,0.168171462337031,1
160,680,52,0.204043488918342,1
160,681,52,0.302539487417807,6
160,682,52,0.313492717864208,6
160,683,52,0.177514937308323,1
161,677,52,0.11655477349161,1
161,678,52,0.14307951040947,1
161,679,52,0.150538092445116,1
161,680,52,0.203196314944911,6
161,681,52,0.341848529326863,6
161,682,52,0.339514116190258,6
161,683,52,0.173349137312945,6
162,677,52,0.134869255553233,1
162,678,52,0.14354434514942,1
162,679,52,0.131986898696321,1
162,680,52,0.160610731322442,1
162,681,52,0.240868318522066,6
162,682,52,0.237482366529721,6
162,683,52,0.138970161165613,1
163,677,52,0.119580772470255,1
163,678,52,0.125858707282475,1
163,680,52,0.130368320351334,1
163,681,52,0.165652895494121,1
163,682,52,0.159825596289924,1
163,683,52,0.108220920378585,1
164,673,52,0.113693865912544,1
164,681,52,0.13592873610727,1
164,682,52,0.139058724486513,1
169,668,52,0.108197831452355,1
170,661,52,0.129496986660892,1
170,662,52,0.129262360784929,1
170,663,52,0.106310428850816,1
170,665,52,0.104286355421695,1
170,666,52,0.114259165366771,1
171,660,52,0.10824339583093,1
171,661,52,0.134953123010393,1
171,662,52,0.129706504723838,1
171,663,52,0.103829562766677,1
134,668,53,0.120789684108688,1
135,667,53,0.127879590647392,1
135,668,53,0.153073970405663,1
135,669,53,0.114339608524244,1
136,667,53,0.115570159059724,1
136,668,53,0.132974033948172,1
142,633,53,0.106494314859426,1
143,633,53,0.112492684045066,1
144,634,53,0.114684358539659,1
145,634,53,0.131962359740908,1
145,635,53,0.117013796960757,1
146,635,53,0.137334851714662,1
146,636,53,0.112993423738414,1
146,680,53,0.104215694384175,1
146,681,53,0.108222091556003,1
147,637,53,0.118867380420109,1
147,681,53,0.104891062207501,1
148,638,53,0.128723753021749,1
149,639,53,0.117163808056826,1
150,639,53,0.11607032989547,1
151,638,53,0.122691040452602,1
151,639,53,0.10500077364634,1
152,638,53,0.116218645572802,1
152,639,53,0.107476921558597,1
152,640,53,0.107419143472669,1
152,641,53,0.10777355291326,1
153,642,53,0.108030208078742,1
154,681,53,0.132313545655083,1
154,682,53,0.135204903847003,1
154,683,53,0.112604068594501,1
154,685,53,0.155971831420767,1
154,686,53,0.153411704510644,1
155,680,53,0.145907725407483,1
155,681,53,0.241965879073277,7
155,682,53,0.225739940969089,1
155,683,53,0.166128036595346,1
155,684,53,0.168703790358439,1
155,685,53,0.201782759572401,1
155,686,53,0.168394722215009,1
156,679,53,0.11069512748255,1
156,680,53,0.243028772772931,7
156,681,53,0.335234210052209,7
156,682,53,0.264173455257141,7
156,683,53,0.200324877923158,1
156,684,53,0.203142574632556,1
156,685,53,0.205236461389828,1
156,686,53,0.153861570487793,1
157,679,53,0.150343431604265,1
157,680,53,0.298457342952247,7
157,681,53,0.3111999094111,7
157,682,53,0.218360229366955,7
157,683,53,0.190487255314268,1
157,684,53,0.198669769996817,1
157,685,53,0.171096862752552,1
158,679,53,0.157003214870857,1
158,680,53,0.260785874770483,1
158,681,53,0.24635384584771,7
158,682,53,0.200328804156025,1
158,683,53,0.170836493281546,1
158,684,53,0.155276631659839,1
159,679,53,0.146907687840573,1
159,680,53,0.210169929143097,1
159,681,53,0.251496474733665,1
159,682,53,0.260045400636817,1
159,683,53,0.184380814338174,1
159,684,53,0.132701874624498,1
160,678,53,0.108444247180987,1
160,679,53,0.140449057083946,1
160,680,53,0.192925334383422,1
160,681,53,0.283939918464636,1
160,682,53,0.297973903222465,1
160,683,53,0.185366008781734,1
160,684,53,0.116028368281714,1
161,677,53,0.109130702150532,1
161,678,53,0.129229980517854,1
161,679,53,0.140075585336627,1
161,680,53,0.189213237365494,1
161,681,53,0.287350810958937,6
161,682,53,0.290138993997415,6
161,683,53,0.174120240524595,1
162,677,53,0.136511647839042,1
162,678,53,0.15088873180983,1
162,679,53,0.141373774156482,1
162,680,53,0.16526463344913,1
162,681,53,0.224973990938076,1
162,682,53,0.228403756119904,1
162,683,53,0.151348446831356,1
163,677,53,0.126101252548594,1
163,678,53,0.140923584711285,1
163,680,53,0.133910552027449,1
163,681,53,0.150285118122947,1
163,682,53,0.14741812042131,1
164,673,53,0.106293675436711,1
169,667,53,0.104658589067173,1
169,668,53,0.111234560646958,1
169,669,53,0.116198155545032,1
170,661,53,0.12611334356117,1
170,662,53,0.140645045259203,1
170,663,53,0.120976626332655,1
170,664,53,0.104575569319381,1
170,666,53,0.107815648375865,1
170,667,53,0.119881374674067,1
171,661,53,0.126343117416403,1
171,662,53,0.134478071141733,1
171,663,53,0.112440773000296,1
134,667,54,0.118372295840576,1
134,668,54,0.116093965371162,1
135,667,54,0.149265658374374,1
135,668,54,0.14126659469168,1
136,667,54,0.108487915367552,1
136,668,54,0.112875725984996,1
141,633,54,0.104784239672959,1
142,632,54,0.11918688877366,1
142,633,54,0.109135743790462,1
143,632,54,0.117800917417849,1
143,633,54,0.110733731721044,1
144,634,54,0.110704173433841,1
145,634,54,0.127719897818005,1
145,635,54,0.113108890677704,1
146,636,54,0.108311212580435,1
146,680,54,0.103975837249081,1
146,681,54,0.106440608009283,1
147,637,54,0.111537014426497,1
147,679,54,0.103319275188858,1
147,680,54,0.105359800872177,1
148,638,54,0.125750535105385,1
148,679,54,0.108513558575959,1
148,680,54,0.106402472241757,1
149,639,54,0.114580235290212,1
149,680,54,0.103594646884878,1
150,639,54,0.116254082055233,1
151,638,54,0.124531450954525,1
151,639,54,0.105404696006513,1
152,638,54,0.113975149266004,1
152,639,54,0.102944565339698,1
152,640,54,0.104604670289687,1
152,641,54,0.107131502298943,1
153,686,54,0.123705268942044,1
154,681,54,0.122277291356193,1
154,682,54,0.127327263377322,1
154,685,54,0.160647227441584,1
154,686,54,0.186890502540853,1
154,687,54,0.176985085490598,1
155,680,54,0.13374249364508,1
155,681,54,0.231734026991602,7
155,682,54,0.21933007580931,1
155,683,54,0.153323275038591,1
155,684,54,0.162252465518083,1
155,685,54,0.204545422097249,1
155,686,54,0.178142141854615,1
155,687,54,0.14269473958859,1
156,679,54,0.103889359739391,1
156,680,54,0.23818277524164,7
156,681,54,0.34865721943653,7
156,682,54,0.2678676834539,7
156,683,54,0.195723444544772,1
156,684,54,0.228925900474815,1
156,685,54,0.230390363025737,1
156,686,54,0.152258618995775,1
157,679,54,0.143831250154484,1
157,680,54,0.293459806217208,7
157,681,54,0.327276494509386,7
157,682,54,0.222424638860193,7
157,683,54,0.201870385951368,1
157,684,54,0.250896854204072,1
157,685,54,0.213697136286057,1
157,686,54,0.125572850760052,1
158,679,54,0.14538729877945,1
158,680,54,0.248752707204486,1
158,681,54,0.255197841535635,7
158,682,54,0.199297454168147,1
158,683,54,0.17044310036406,1
158,684,54,0.171676573266048,1
158,685,54,0.143252086190449,1
159,679,54,0.131351172440058,1
159,680,54,0.207122123956347,1
159,681,54,0.266944527951253,1
159,682,54,0.258575918754106,1
159,683,54,0.180026231697174,1
159,684,54,0.134397984914521,1
160,679,54,0.123699613828228,1
160,680,54,0.181618374894739,1
160,681,54,0.25846502498378,1
160,682,54,0.264675321511625,1
160,683,54,0.183435718778574,1
160,684,54,0.124756317018676,1
161,677,54,0.103419516821722,1
161,678,54,0.123211969013813,1
161,679,54,0.136126765477455,1
161,680,54,0.175853449253574,1
161,681,54,0.23155480338452,1
161,682,54,0.232583721784998,1
161,683,54,0.171629514242008,1
161,684,54,0.110088122958192,1
162,677,54,0.132664296560504,1
162,678,54,0.156236662520029,1
162,679,54,0.149877637614239,1
162,680,54,0.164417582170477,1
162,681,54,0.200007254607546,1
162,682,54,0.199602540308357,1
162,683,54,0.154754621153775,1
163,677,54,0.125621192502216,1
163,678,54,0.152764355712771,1
163,679,54,0.147210833172492,1
163,680,54,0.136156658386777,1
163,681,54,0.140691412730864,1
163,682,54,0.13772758654198,1
164,672,54,0.111201767679269,1
169,667,54,0.107368782843719,1
169,668,54,0.116121850547767,1
170,661,54,0.115522575794364,1
170,662,54,0.138017135061786,1
170,663,54,0.128742257624945,1
170,664,54,0.106109399035628,1
170,667,54,0.114720363879693,1
171,662,54,0.122707236163175,1
171,663,54,0.110583207537725,1
134,667,55,0.156757200688768,1
134,668,55,0.120007783756657,1
135,666,55,0.111313999938073,1
135,667,55,0.182684469812668,1
135,668,55,0.134270895433622,1
136,667,55,0.107177233988577,1
141,632,55,0.104133098491068,1
142,631,55,0.11361113617059,1
142,632,55,0.115562819681242,1
142,633,55,0.10996203734365,1
143,631,55,0.120959739069702,1
143,632,55,0.120678667643585,1
143,633,55,0.113468609455921,1
143,634,55,0.104651182764266,1
144,632,55,0.118239172007459,1
144,633,55,0.114943289135551,1
144,634,55,0.110781281524192,1
145,634,55,0.123096011295415,1
145,635,55,0.108596143314995,1
146,636,55,0.106771828137009,1
148,679,55,0.108764290929929,1
148,680,55,0.106023445767258,1
149,680,55,0.104106406800021,1
151,639,55,0.106803461081351,1
152,638,55,0.115547058979424,1
153,686,55,0.152139170053266,1
153,687,55,0.156109606501342,1
154,681,55,0.111795543475846,1
154,682,55,0.115339102486367,1
154,685,55,0.161948338627948,1
154,686,55,0.235499886630026,1
154,687,55,0.215810431126246,1
154,688,55,0.128472016801421,1
155,680,55,0.117986409612632,1
155,681,55,0.193698980723178,1
155,682,55,0.187149667372229,1
155,683,55,0.135909484181342,1
155,684,55,0.149176448117376,1
155,685,55,0.190789619861242,1
155,686,55,0.189810448615829,1
155,687,55,0.15250109733747,1
156,680,55,0.200259648918042,1
156,681,55,0.298980825795635,7
156,682,55,0.239419382437479,1
156,683,55,0.183708692349405,1
156,684,55,0.237345662239928,1
156,685,55,0.236761947415071,1
156,686,55,0.147687881619796,1
157,679,55,0.126003241729859,1
157,680,55,0.246370755418804,1
157,681,55,0.300896760509878,7
157,682,55,0.220792374470527,1
157,683,55,0.206231895270237,1
157,684,55,0.283432475174831,1
157,685,55,0.245862330570782,1
157,686,55,0.128488580596325,1
158,679,55,0.129344543977422,1
158,680,55,0.219683570616109,1
158,681,55,0.254969896947987,1
158,682,55,0.198726722681517,1
158,683,55,0.167427552749608,1
158,684,55,0.180398855735124,1
158,685,55,0.155626713321021,1
158,686,55,0.106751293492956,1
159,679,55,0.121679399707549,1
159,680,55,0.201221888284219,1
159,681,55,0.267478807935024,1
159,682,55,0.231137261904093,1
159,683,55,0.165683056101138,1
159,684,55,0.131492003735989,1
159,685,55,0.131730578152959,1
160,679,55,0.122053239539199,1
160,680,55,0.176099530360086,1
160,681,55,0.23244277894836,1
160,682,55,0.220221799140887,1
160,683,55,0.174395790685744,1
160,684,55,0.12741699787564,1
161,678,55,0.128075902290698,1
161,679,55,0.145050769314099,1
161,680,55,0.167355151677068,1
161,681,55,0.188380452143192,1
161,682,55,0.179589237517546,1
161,683,55,0.159971313068796,1
162,677,55,0.130322622123912,1
162,678,55,0.170037649896209,1
162,679,55,0.168355537964843,1
162,680,55,0.159884065928231,1
162,681,55,0.166943834168059,1
162,682,55,0.155074620286435,1
163,671,55,0.107142511366667,1
163,672,55,0.107053167260822,1
163,677,55,0.124587087458889,1
163,678,55,0.163074665527345,1
163,679,55,0.163505480351837,1
163,680,55,0.136037722531517,1
163,681,55,0.127317023940473,1
164,670,55,0.116620069421151,1
164,672,55,0.133333429258341,1
165,669,55,0.110598689387776,1
169,663,55,0.105995069811543,1
169,667,55,0.110673667050634,1
169,668,55,0.126583331481758,1
170,662,55,0.12628385583908,1
170,663,55,0.129549198865569,1
170,664,55,0.108747860983873,1
134,667,56,0.17082284069908,1
134,668,56,0.117454449675555,1
135,666,56,0.109655478866115,1
135,667,56,0.180838571507988,1
135,668,56,0.120498317475368,1
135,674,56,0.104037385410886,1
142,631,56,0.109824808812537,1
142,632,56,0.108295028023933,1
142,633,56,0.107309331647195,1
143,630,56,0.10438229158329,1
143,631,56,0.119686356902955,1
143,632,56,0.118868841603363,1
143,633,56,0.112117449954585,1
143,634,56,0.103335113969171,1
144,631,56,0.118800422534042,1
144,632,56,0.118300050925025,1
144,633,56,0.114717787289374,1
144,634,56,0.109941770397293,1
145,633,56,0.118520031506234,1
145,634,56,0.118045805038802,1
145,635,56,0.103241910554883,1
147,680,56,0.103623402078994,1
148,638,56,0.112221461663325,1
148,679,56,0.108392938456032,1
148,680,56,0.107940183574587,1
149,680,56,0.103688764932958,1
151,639,56,0.106262321344135,1
153,686,56,0.158993402233366,1
153,687,56,0.156524928321711,1
154,685,56,0.146777486373964,1
154,686,56,0.240813150488669,1
154,687,56,0.210463972753372,1
154,688,56,0.115524215442748,1
155,681,56,0.146904542392652,1
155,682,56,0.14175104944189,1
155,683,56,0.11324269490913,1
155,684,56,0.129237152585277,1
155,685,56,0.163979874130328,1
155,686,56,0.182941403829915,1
155,687,56,0.143920070019009,1
156,680,56,0.15269556855912,1
156,681,56,0.21968323599399,1
156,682,56,0.194392607760146,1
156,683,56,0.163107324646186,1
156,684,56,0.214391410259122,1
156,685,56,0.213909509791088,1
156,686,56,0.136360264792283,1
157,679,56,0.105285235909933,1
157,680,56,0.190891924997174,1
157,681,56,0.257566229971416,1
157,682,56,0.223996470495118,1
157,683,56,0.198529987183527,1
157,684,56,0.264716993119545,1
157,685,56,0.238839393072216,1
157,686,56,0.124414098977297,1
158,679,56,0.114126219998785,1
158,680,56,0.194993789859629,1
158,681,56,0.256330760490783,1
158,682,56,0.216681229421297,1
158,683,56,0.166911018892229,1
158,684,56,0.175870024202549,1
158,685,56,0.159368647477917,1
158,686,56,0.109628173701182,1
159,679,56,0.114552004337417,1
159,680,56,0.19196041804029,1
159,681,56,0.250083811686807,1
159,682,56,0.203560629200233,1
159,683,56,0.149996751934629,1
159,684,56,0.128674195485885,1
159,685,56,0.12918076875818,1
160,679,56,0.120997439828474,1
160,680,56,0.169513508962653,1
160,681,56,0.203457766360769,1
160,682,56,0.179515129872198,1
160,683,56,0.157200909618923,1
161,678,56,0.127662755514104,1
161,679,56,0.151032340469351,1
161,680,56,0.156381955444217,1
161,681,56,0.157811461137746,1
161,682,56,0.144347694779297,1
162,677,56,0.122816869523519,1
162,678,56,0.17327733856022,1
162,679,56,0.181914035845257,1
162,680,56,0.148839907497954,1
162,681,56,0.13332039014976,1
163,671,56,0.14645427486896,1
163,672,56,0.132506131838795,1
163,678,56,0.161632042646741,1
163,679,56,0.170722889072054,1
163,680,56,0.133169341725121,1
164,670,56,0.12791965606914,1
164,672,56,0.149110315632537,1
164,679,56,0.13862302417908,1
165,669,56,0.105703000471773,1
168,667,56,0.103162103179437,1
169,663,56,0.119810512863276,1
169,664,56,0.114334477651749,1
170,662,56,0.109016138690964,1
170,663,56,0.122213668537249,1
134,666,57,0.104740683027101,1
134,667,57,0.168243941488065,1
134,668,57,0.114752242213589,1
134,674,57,0.11478889448972,1
135,666,57,0.104487351774671,1
135,667,57,0.163084860347912,1
135,668,57,0.111364539032153,1
135,674,57,0.110399778846011,1
135,675,57,0.111212062886472,1
141,631,57,0.103511850218499,1
142,631,57,0.111731061793462,1
142,632,57,0.104900141621004,1
142,633,57,0.104003510498345,1
143,631,57,0.11891116014738,1
143,632,57,0.116216437066815,1
143,633,57,0.11033673603874,1
143,634,57,0.104000565823696,1
144,632,57,0.119245124176484,1
144,633,57,0.116944987498964,1
144,634,57,0.113963537878465,1
145,632,57,0.118521091142945,1
145,633,57,0.11829841127664,1
148,679,57,0.104786113556827,1
148,680,57,0.107141418267744,1
149,680,57,0.103147067492211,1
151,639,57,0.103149711006953,1
153,686,57,0.150512371158215,1
153,687,57,0.148988067018297,1
154,685,57,0.133810366164939,1
154,686,57,0.216638665487726,1
154,687,57,0.184204278862117,1
154,688,57,0.104041913963567,1
155,684,57,0.119657579400698,1
155,685,57,0.151137277965954,1
155,686,57,0.179323893331035,1
155,687,57,0.136960677260892,1
156,681,57,0.148501236451039,1
156,682,57,0.149501790049873,1
156,683,57,0.140662490225688,1
156,684,57,0.178500589068779,1
156,685,57,0.186395462577602,1
156,686,57,0.140190304953184,1
157,680,57,0.138728352068157,1
157,681,57,0.203214116841656,1
157,682,57,0.213149761423352,1
157,683,57,0.181792489937467,1
157,684,57,0.215278337340322,1
157,685,57,0.205677314877897,1
157,686,57,0.122943802847429,1
158,680,57,0.163092935895057,1
158,681,57,0.234870685505089,1
158,682,57,0.224496552098299,1
158,683,57,0.167692751933201,1
158,684,57,0.169295714579289,1
158,685,57,0.161186537911214,1
159,670,57,0.10307377409402,1
159,671,57,0.103724357572378,1
159,679,57,0.105837195095671,1
159,680,57,0.167663539422189,1
159,681,57,0.208704908888643,1
159,682,57,0.173189344096922,1
159,683,57,0.135107461885871,1
159,684,57,0.127903281893436,1
160,680,57,0.154523999589173,1
160,681,57,0.168355259113076,1
160,682,57,0.142887258847877,1
161,679,57,0.14545952138686,1
161,680,57,0.141043223272995,1
161,681,57,0.132454566570215,1
162,678,57,0.159010624118438,1
162,679,57,0.180059225438134,1
162,680,57,0.140362936504516,1
163,670,57,0.117167767751904,1
163,671,57,0.184219381473767,1
163,672,57,0.146011826348788,1
163,679,57,0.165537807793233,1
164,670,57,0.144289849768946,1
164,671,57,0.202438440461043,1
164,672,57,0.153710667066072,1
165,669,57,0.10664215091172,1
165,670,57,0.137773585929309,1
169,662,57,0.103317144761366,1
169,663,57,0.129123347602513,1
134,636,58,0.129260185741154,1
134,666,58,0.112886712744579,1
134,667,58,0.14659440345844,1
134,668,58,0.109278571665038,1
134,674,58,0.113444907055806,1
135,666,58,0.107647969231898,1
135,667,58,0.135395292678798,1
135,668,58,0.104144263715781,1
135,674,58,0.107684086112638,1
135,675,58,0.109493365603398,1
142,631,58,0.107417581902779,1
143,631,58,0.110059936621678,1
143,632,58,0.10781156598601,1
143,633,58,0.105328446779601,1
144,631,58,0.113677971361879,1
144,632,58,0.117498630949369,1
144,633,58,0.116382108478066,1
144,634,58,0.113189757689862,1
145,632,58,0.120737014587115,1
153,686,58,0.137391447469101,1
154,685,58,0.124148040930264,1
154,686,58,0.178492747757117,1
154,687,58,0.156618075965646,1
155,686,58,0.173706290654914,1
156,682,58,0.115858893332373,1
156,684,58,0.139829526538256,1
156,685,58,0.154077100594815,1
157,681,58,0.154343058255212,1
157,682,58,0.18397356806495,1
157,683,58,0.156618354817412,1
157,684,58,0.163208692840184,1
157,685,58,0.161949621346071,1
158,680,58,0.12792383884563,1
158,681,58,0.19198645164117,1
158,682,58,0.20418340558048,1
158,683,58,0.158543246250381,1
158,684,58,0.155037856469597,1
159,670,58,0.130863605704138,1
159,671,58,0.124346594541769,1
159,680,58,0.134428368602951,1
159,681,58,0.159803310456781,1
159,682,58,0.143008581674255,1
160,681,58,0.130499269140675,1
162,671,58,0.110591584244777,1
162,679,58,0.157263740498851,1
163,670,58,0.13103275718543,1
163,671,58,0.197458616390184,1
163,672,58,0.142699223524988,1
164,670,58,0.156594395873672,1
164,671,58,0.206602210415564,1
164,672,58,0.146033130623715,1
165,669,58,0.109073782928043,1
165,670,58,0.134932644136693,1
165,671,58,0.144889804920658,1
133,636,59,0.127265871372507,1
134,635,59,0.124904866931491,1
134,636,59,0.109377017492527,1
134,666,59,0.113451421033061,1
134,667,59,0.117776925011897,1
135,666,59,0.112579652333864,1
135,667,59,0.110834241051602,1
144,631,59,0.106059741113128,1
144,632,59,0.109549905587484,1
144,633,59,0.108974534007468,1
144,634,59,0.10590835806637,1
145,631,59,0.115100126522854,1
145,632,59,0.123271788294668,1
154,686,59,0.141792174500349,1
157,682,59,0.146733784725187,1
157,684,59,0.119569395318199,1
158,670,59,0.121216528084031,1
158,671,59,0.105104751892868,1
158,681,59,0.145658777704815,1
158,682,59,0.162360894238798,1
159,669,59,0.104101777860705,1
159,670,59,0.164968437103222,1
159,671,59,0.147819443883023,1
160,670,59,0.119986256400317,1
160,671,59,0.11159576291657,1
162,671,59,0.112128057475766,1
163,670,59,0.138643971523747,1
163,671,59,0.179473703653833,1
163,672,59,0.128578103167301,1
164,669,59,0.107467741758458,1
164,670,59,0.162426000549137,1
164,671,59,0.18564584210601,1
165,669,59,0.112884080383907,1
133,635,60,0.14163226974362,1
133,636,60,0.109128036327648,1
134,635,60,0.121397659037193,1
134,666,60,0.103906771243664,1
135,665,60,0.111485705701542,1
135,666,60,0.115748791501062,1
145,631,60,0.108373931919657,1
145,632,60,0.117366399441904,1
145,634,60,0.104955008494494,1
146,631,60,0.112452172460493,1
147,636,60,0.1037240452584,1
158,670,60,0.140679265947934,1
158,671,60,0.114958770985603,1
159,669,60,0.111754262260398,1
159,670,60,0.176747358782996,1
159,671,60,0.150751190964739,1
160,670,60,0.127243340149809,1
160,671,60,0.115357149772667,1
162,671,60,0.105217597625557,1
163,670,60,0.139326957577322,1
163,671,60,0.144972088499787,1
164,669,60,0.120201016876466,1
164,670,60,0.157827232993634,1
133,635,61,0.126082881794246,1
134,635,61,0.119421313876351,1
135,665,61,0.122194204683978,1
135,666,61,0.119748585463069,1
145,632,61,0.108540785662397,1
146,631,61,0.110756151403035,1
158,669,61,0.103553042201382,1
158,670,61,0.155778910614936,1
158,671,61,0.121853358593288,1
159,669,61,0.117211848639083,1
159,670,61,0.175657996473708,1
159,671,61,0.142621524268893,1
160,670,61,0.125674196645908,1
160,671,61,0.110892465300355,1
163,669,61,0.117814012296783,1
163,670,61,0.136699928551485,1
133,635,62,0.105924620701366,1
134,635,62,0.114827822196261,1
135,665,62,0.117495675120649,1
135,666,62,0.112956548380871,1
136,666,62,0.111887441863868,1
148,636,62,0.104318300680015,1
149,677,62,0.105125710391605,1
150,676,62,0.117649344751889,1
150,677,62,0.119401983871928,1
158,669,62,0.108367083320283,1
158,670,62,0.147676593700306,1
158,671,62,0.114503171816144,1
159,669,62,0.125111841866331,1
159,670,62,0.159036033091361,1
159,671,62,0.124194542250772,1
160,669,62,0.106912748665505,1
160,670,62,0.118438138319578,1
134,635,63,0.105347988711367,1
136,666,63,0.117451705774177,1
137,666,63,0.12488384150833,1
143,676,63,0.10471288708306,1
143,677,63,0.106855528283109,1
146,633,63,0.111950451208927,1
149,676,63,0.108708777120342,1
149,677,63,0.119402664270237,1
150,676,63,0.129518759406785,1
150,677,63,0.132622268022323,1
158,669,63,0.1052348306647,1
158,670,63,0.120963051828683,1
159,669,63,0.133110838624601,1
159,670,63,0.134687511126185,1
160,669,63,0.113675260922713,1
160,670,63,0.107607000330428,1
136,666,64,0.116182528692062,1
137,665,64,0.111730147159669,1
137,666,64,0.147869793357903,1
143,676,64,0.113223509907626,1
143,677,64,0.108775556541278,1
147,632,64,0.104127097601063,1
149,676,64,0.110725845793099,1
149,677,64,0.126137547894464,1
149,678,64,0.1031691079358,1
150,676,64,0.125265299570229,1
150,677,64,0.133497606024126,1
153,666,64,0.104355477197466,1
159,669,64,0.132426279847066,1
159,670,64,0.109899730705042,1
160,669,64,0.113325067720824,1
164,660,64,0.10974794611174,1
135,636,65,0.108864197940673,1
136,666,65,0.104794791423787,1
137,665,65,0.124629015610434,1
137,666,65,0.140476696870998,1
143,676,65,0.110989840337064,1
149,677,65,0.119625232595835,1
150,676,65,0.106827185789607,1
153,666,65,0.127721470541966,1
137,665,66,0.110907512141652,1
137,666,66,0.1083729280533,1
149,677,66,0.104053123804562,1
153,666,66,0.125569660695848,1
153,666,67,0.108999017192528,1
158,692,68,0.103326871110966,1
143,672,69,0.106672077283254,1
150,683,69,0.104617820938975,1
151,683,69,0.104973390402913,1
157,691,69,0.10681404629439,1
157,692,69,0.106656673511697,1
158,691,69,0.106212094564032,1
158,692,69,0.111328689849109,1
158,693,69,0.105004632954782,1
142,672,70,0.106614265735114,1
143,672,70,0.10787860195057,1
149,683,70,0.105357536595837,1
149,684,70,0.108956877113641,1
150,682,70,0.103122796234493,1
150,683,70,0.113344944274709,1
150,684,70,0.112013984795306,1
151,682,70,0.110499931246309,1
151,683,70,0.114010451899587,1
151,684,70,0.10742037042044,1
152,682,70,0.104572736185438,1
152,683,70,0.104582183683272,1
157,691,70,0.113635597047509,1
158,691,70,0.115617753479155,1
158,692,70,0.114980878353616,1
159,692,70,0.103231001873795,1
