x,y,z,signal,mito.p
795,488,6,0.108320269685797,1
801,490,6,0.12010056331626,1
801,492,6,0.116723445347865,1
801,493,6,0.10299476981166,1
802,485,6,0.103566973635614,1
802,486,6,0.104386228970227,1
802,490,6,0.107386975132936,1
802,491,6,0.107611283493555,1
802,494,6,0.104815247989345,1
803,485,6,0.103859411059716,1
803,486,6,0.106751293492956,1
803,487,6,0.104766170078518,1
803,497,6,0.109751314641074,1
804,484,6,0.103997799614176,1
804,495,6,0.114489218073771,1
804,496,6,0.125425695106067,1
804,498,6,0.113834987214312,1
805,496,6,0.11127384528376,1
805,498,6,0.122341516494952,1
806,498,6,0.116400468078344,1
807,498,6,0.11134851063264,1
809,495,6,0.12564279793705,1
809,496,6,0.115027290441559,1
794,486,7,0.107068202948048,1
795,487,7,0.111481177148861,1
796,488,7,0.10961875966556,1
800,490,7,0.127646771730874,1
801,486,7,0.11347448765115,1
801,490,7,0.116249832354318,1
801,491,7,0.124350509620564,1
801,492,7,0.105743623597052,1
801,494,7,0.104536730845404,1
802,484,7,0.106300312108743,1
802,486,7,0.11917785397644,1
802,490,7,0.104053491888894,1
802,495,7,0.106203862859898,1
803,496,7,0.104941846691136,1
804,496,7,0.105368077192594,1
805,495,7,0.105785194818336,1
805,498,7,0.109436937160018,1
806,498,7,0.109460070702531,1
807,494,7,0.103036173721884,1
807,498,7,0.112304425640763,1
808,495,7,0.107281758784567,1
808,497,7,0.108327742913127,1
809,496,7,0.12337842121001,1
794,485,8,0.114052658902898,1
799,486,8,0.105072605861277,1
800,486,8,0.115905115801115,1
800,490,8,0.108121069138195,1
800,492,8,0.105424115243501,1
800,494,8,0.108532654344899,1
801,495,8,0.106032246328995,1
802,483,8,0.105259882707362,1
807,498,8,0.115033402872271,1
808,495,8,0.105423881008017,1
794,484,9,0.11472275085081,1
799,490,9,0.107371337125896,1
800,482,9,0.103547989407381,1
801,498,9,0.116062287810537,1
799,498,10,0.113918787747048,1
800,497,10,0.105049940789731,1
800,498,10,0.112982080048571,1
797,490,11,0.10506519955837,1
798,491,11,0.12130279366638,1
798,492,11,0.119688766182214,1
798,496,11,0.103772721622683,1
799,495,11,0.104692385901219,1
804,490,11,0.122818788023669,1
805,491,11,0.107784338899572,1
807,492,11,0.104047859083219,1
797,491,12,0.119665844567044,1
797,492,12,0.123634775215584,1
804,489,12,0.107481740117114,1
805,490,12,0.112342606024572,1
807,491,12,0.11044595669847,1
797,491,13,0.104884894006436,1
806,489,13,0.111958281366518,1
795,501,18,0.10649211750751,1
800,501,18,0.104029387942235,1
795,502,19,0.109352344688266,1
797,502,19,0.10344674390816,1
798,502,19,0.114843471357373,1
799,501,19,0.112661478596097,1
800,501,19,0.105637938777716,1
798,502,20,0.104121877496002,1
798,503,20,0.110265015364509,1
799,501,20,0.105807034488654,1
799,502,20,0.116670943137351,1
800,501,20,0.105899735969763,1
801,492,20,0.107178962869527,1
802,492,20,0.112728447636234,1
802,493,20,0.117074352410274,1
801,493,21,0.109425794243447,1
802,492,21,0.131853540627721,1
802,493,21,0.148394369300214,1
802,494,21,0.124266486006415,1
803,493,21,0.122864073550477,1
776,502,22,0.109861862635211,1
781,492,22,0.103240159365792,1
781,493,22,0.104219453305982,1
782,506,22,0.116249073877515,1
800,502,22,0.103901305749049,1
801,492,22,0.105662912741884,1
801,493,22,0.103902923089292,1
802,492,22,0.128951240292501,1
802,493,22,0.148713877653765,1
802,494,22,0.130073105563642,1
803,492,22,0.108018641307486,1
803,493,22,0.133622375458332,1
803,494,22,0.128819577642638,1
776,503,23,0.108245570874705,1
777,504,23,0.107050256048384,1
783,506,23,0.102956712122628,1
798,500,23,0.103517025707277,1
802,492,23,0.119045265538714,1
802,493,23,0.134400818048464,1
802,494,23,0.123237679146644,1
803,492,23,0.114385875609269,1
803,493,23,0.134161741698315,1
803,494,23,0.12544276083415,1
783,508,24,0.114882722531963,1
785,508,24,0.10442517898491,1
786,508,24,0.118071872101894,1
786,509,24,0.108963591864167,1
787,508,24,0.103879778392709,1
802,493,24,0.112489873219264,1
802,494,24,0.107989596107533,1
803,492,24,0.107914763447593,1
803,493,24,0.11863298877963,1
803,494,24,0.109433970177227,1
783,509,25,0.114094442051524,1
785,508,25,0.109311286554232,1
785,509,25,0.110356266816435,1
786,508,25,0.12550023776017,1
786,509,25,0.115823323001095,1
784,509,26,0.111040635974769,1
784,510,26,0.106992098724055,1
785,508,26,0.110023574351384,1
785,509,26,0.11686731055101,1
785,510,26,0.106177260401416,1
786,508,26,0.122044126663485,1
786,509,26,0.117944671080288,1
790,486,26,0.104876271909829,1
785,508,27,0.111809586450785,1
785,510,27,0.125064002057346,1
786,508,27,0.113178770930279,1
786,509,27,0.120337687704047,1
786,510,27,0.115131859853832,1
796,496,27,0.104830740993467,1
785,511,28,0.119372648666138,1
775,504,29,0.116039845820405,1
776,504,31,0.135861086668824,1
777,503,31,0.146158781229502,1
778,502,31,0.107661264884103,1
778,503,31,0.1215601180761,1
776,503,32,0.133543616565526,1
779,503,32,0.119392458295599,1
780,504,32,0.11432703788663,1
781,495,32,0.116113763846552,1
786,488,32,0.108582914587213,1
780,503,33,0.114512184305223,1
781,496,33,0.107682948397432,1
783,505,33,0.103184645556205,1
785,506,33,0.108932572393711,1
786,489,33,0.106718790531104,1
799,502,33,0.103248647613551,1
801,486,33,0.104773241759306,1
801,501,33,0.104232938577388,1
781,503,34,0.114382730161348,1
784,505,34,0.103999584265479,1
785,505,34,0.105417177411561,1
794,506,34,0.118127185138209,1
800,486,34,0.119692078941195,1
800,502,34,0.103592851079504,1
801,486,34,0.106593050692753,1
801,502,34,0.104918791227118,1
801,503,34,0.105868114179492,1
779,502,35,0.146444961219973,1
779,503,35,0.154344642133244,1
780,502,35,0.107579226694529,1
781,497,35,0.112584838976713,1
782,503,35,0.106069590157505,1
784,504,35,0.110003642027146,1
784,505,35,0.115722802516465,1
785,503,35,0.10560988629005,1
785,504,35,0.132417791599307,1
785,505,35,0.13092215342094,1
786,506,35,0.110266275774492,1
794,506,35,0.136161555023789,1
800,486,35,0.110755839089057,1
800,487,35,0.118357494388833,1
800,503,35,0.109731181543565,1
801,487,35,0.112409976611252,1
779,501,36,0.140992316094583,1
779,502,36,0.123975108219024,1
780,500,36,0.113412102934047,1
780,502,36,0.103282890610423,1
780,503,36,0.125206439539449,1
782,503,36,0.108687595540192,1
784,500,36,0.115924490421821,1
784,501,36,0.107113878867328,1
784,504,36,0.11283915178736,1
784,505,36,0.112521283082193,1
785,500,36,0.104829179423577,1
785,501,36,0.104806915898575,1
785,503,36,0.119620436345459,1
785,504,36,0.145992429419941,1
785,505,36,0.133917121775057,1
786,504,36,0.103944594697212,1
786,505,36,0.103998546936909,1
786,506,36,0.111961147962673,1
794,506,36,0.133003614543516,1
800,487,36,0.10387615331975,1
800,488,36,0.105890779251037,1
801,497,36,0.111056296289951,1
780,498,37,0.140046963991358,1
780,499,37,0.128949466795269,1
780,500,37,0.104546602197923,1
781,497,37,0.11956854760883,1
781,503,37,0.1050834253098,1
782,496,37,0.109423663815954,1
783,490,37,0.121811296592895,1
784,500,37,0.124409659657181,1
784,501,37,0.10883236422306,1
785,490,37,0.108010298062645,1
785,500,37,0.116417399957579,1
785,501,37,0.113612786973045,1
785,503,37,0.113780376884447,1
785,504,37,0.128998254700258,1
785,505,37,0.116629003831736,1
787,484,37,0.105529588135495,1
787,485,37,0.104399368465443,1
798,494,37,0.107222396820608,1
766,497,38,0.131514523804616,1
766,498,38,0.125296408273251,1
766,500,38,0.110645993801371,1
766,501,38,0.126690555562843,1
779,491,38,0.109382672606343,1
781,496,38,0.122285991531294,1
783,489,38,0.119359453400568,1
783,490,38,0.105172401331314,1
783,514,38,0.123137749827759,1
783,515,38,0.136044136122137,1
784,514,38,0.110400236162907,1
784,515,38,0.111672536384802,1
785,500,38,0.106763217194473,1
785,501,38,0.104057005421146,1
764,500,39,0.13131926064395,1
765,498,39,0.137387130843763,1
765,499,39,0.120282419284014,1
765,500,39,0.117801073574838,1
765,501,39,0.134612946163941,1
766,495,39,0.119111554180541,1
766,496,39,0.110031739131094,1
766,497,39,0.107617842087093,1
766,501,39,0.116616857048806,1
766,502,39,0.120533162792055,1
770,488,39,0.118959613430251,1
775,493,39,0.107089206063067,1
775,494,39,0.113026049395043,1
775,495,39,0.110142164430454,1
776,491,39,0.104365370858125,1
776,495,39,0.111792710341903,1
778,491,39,0.104923141314669,1
779,492,39,0.104778952643475,1
779,495,39,0.105824211757443,1
780,514,39,0.107901099711056,1
781,495,39,0.105498546356898,1
781,514,39,0.107996344320271,1
781,515,39,0.132949249603205,1
782,492,39,0.103593966486569,1
782,493,39,0.104223747623179,1
782,514,39,0.109861583783445,1
782,515,39,0.140790985119488,1
783,488,39,0.103117464588726,1
783,514,39,0.107660774104995,1
783,515,39,0.126267370122671,1
784,511,39,0.103934466801069,1
784,514,39,0.105371077637596,1
784,515,39,0.105107540410529,1
784,516,39,0.136653393768765,1
785,514,39,0.103912928290658,1
786,517,39,0.144174483216291,1
787,517,39,0.143895899147927,1
788,514,39,0.104422780859722,1
790,516,39,0.152540705442321,1
793,513,39,0.167039614172666,1
794,512,39,0.153834354555425,1
765,496,40,0.125119147782602,1
765,497,40,0.12237794568967,1
765,498,40,0.115116333387497,1
765,499,40,0.10905322597585,1
765,500,40,0.111008344940259,1
766,494,40,0.110659144450658,1
767,485,40,0.148654638384584,1
767,486,40,0.138963914886053,1
767,487,40,0.141696829504498,1
767,492,40,0.118606966332821,1
767,493,40,0.104134459287687,1
768,484,40,0.14890235913948,1
768,485,40,0.150525376804584,1
768,490,40,0.123867192585559,1
769,484,40,0.133822379099021,1
769,488,40,0.118286956046091,1
770,483,40,0.117514826659942,1
770,484,40,0.131579775117874,1
770,487,40,0.127597448430493,1
772,483,40,0.114452554643569,1
781,516,40,0.12505626113232,1
782,515,40,0.111939609452263,1
782,516,40,0.157514115922561,1
783,515,40,0.106159425042459,1
783,516,40,0.148416510130439,1
784,516,40,0.111838542418172,1
786,517,40,0.131837690693338,1
787,517,40,0.126754412617271,1
787,518,40,0.156871027979674,1
788,517,40,0.113968467977689,1
789,517,40,0.112378075969215,1
790,516,40,0.115267549123196,1
790,517,40,0.126678921867163,1
791,516,40,0.121614193010574,1
792,513,40,0.104579930561002,1
793,513,40,0.119681638731074,1
793,514,40,0.112209694118798,1
794,512,40,0.117234658713547,1
794,513,40,0.129260486901061,1
795,512,40,0.128344124227436,1
795,513,40,0.138831226061691,1
764,490,41,0.154206588200903,1
764,499,41,0.144346133209407,1
764,500,41,0.125857212637009,1
765,489,41,0.145047713098743,1
765,490,41,0.144055056581923,1
765,494,41,0.13086572497756,1
765,495,41,0.118619235810527,1
765,496,41,0.122184054479693,1
765,497,41,0.117924259131012,1
765,498,41,0.107941354752004,1
765,499,41,0.104313236731943,1
765,500,41,0.103968419792104,1
766,485,41,0.13391751216753,1
766,486,41,0.142288296408452,1
766,488,41,0.1421406722835,1
766,490,41,0.131616427394005,1
766,491,41,0.12898126705067,1
766,492,41,0.129861479381343,1
766,493,41,0.115735027377889,1
767,484,41,0.151674391083668,1
767,485,41,0.131056571126251,1
767,486,41,0.120009490329465,1
767,487,41,0.119556991991645,1
767,488,41,0.124477811028806,1
767,489,41,0.124844367252327,1
767,490,41,0.1186378631085,1
767,491,41,0.106621962043858,1
768,483,41,0.127294682336976,1
768,484,41,0.12994563684434,1
768,485,41,0.125786640832054,1
768,486,41,0.119307720820929,1
768,487,41,0.114036864738868,1
768,488,41,0.109410970483563,1
768,489,41,0.107314674447032,1
769,483,41,0.109327638421794,1
769,484,41,0.112799130981895,1
769,485,41,0.122131262263343,1
769,486,41,0.123986541141433,1
769,487,41,0.1107659669852,1
770,482,41,0.113541144377309,1
770,484,41,0.104040542012878,1
770,485,41,0.117436324310761,1
770,486,41,0.119608523798013,1
771,481,41,0.115282763275553,1
772,481,41,0.140954102248562,1
772,482,41,0.106030272058491,1
773,482,41,0.119950217598072,1
773,483,41,0.108767012523166,1
774,482,41,0.108271927943633,1
774,483,41,0.105384239440954,1
782,516,41,0.113882392014542,1
782,517,41,0.117884751412797,1
783,475,41,0.1415530981502,1
783,516,41,0.108378817402599,1
783,517,41,0.121407229229804,1
783,518,41,0.141834615739143,1
783,519,41,0.129182542255412,1
784,475,41,0.15375542835156,1
784,517,41,0.124960492281785,1
784,519,41,0.167693142325674,1
786,517,41,0.118134546824833,1
786,519,41,0.179822647599809,1
787,518,41,0.133438199443885,1
787,519,41,0.121945513524935,1
788,518,41,0.106254803500522,1
789,518,41,0.108430371517108,1
790,518,41,0.103452053245785,1
793,516,41,0.107281691860143,1
795,513,41,0.107708937382029,1
796,512,41,0.105816236596934,1
796,513,41,0.112241382833493,1
762,500,42,0.144516946647225,1
763,490,42,0.170058909554854,1
763,499,42,0.15005649313699,1
763,500,42,0.122507020595144,1
764,490,42,0.148336914682335,1
764,491,42,0.151051168540595,1
764,495,42,0.160212977163334,1
764,496,42,0.171845267430444,1
764,498,42,0.15218300555089,1
764,499,42,0.133678469279592,1
764,500,42,0.115039269913429,1
765,489,42,0.124969649773782,1
765,490,42,0.125004718171882,1
765,491,42,0.129908359940253,1
765,492,42,0.135813458787181,1
765,493,42,0.127174240682179,1
765,494,42,0.107420125030886,1
765,495,42,0.103570085621323,1
765,496,42,0.110330132828919,1
765,497,42,0.10814478269238,1
766,485,42,0.129900942483276,1
766,488,42,0.117710502521222,1
766,489,42,0.107160525190755,1
767,484,42,0.128445659732493,1
767,485,42,0.111938594431834,1
768,483,42,0.108079520225052,1
768,484,42,0.104491367240102,1
769,482,42,0.12778510451498,1
770,480,42,0.133890820476482,1
770,481,42,0.128495217268357,1
772,480,42,0.125562812096474,1
772,481,42,0.110703403802967,1
773,478,42,0.116215355121963,1
773,479,42,0.136539733788919,1
773,481,42,0.126390890300964,1
774,478,42,0.139239520817556,1
774,479,42,0.1430107678721,1
775,478,42,0.130948443565444,1
775,479,42,0.110472927241283,1
776,478,42,0.103098948831459,1
782,475,42,0.122956975804858,1
783,474,42,0.134576784666918,1
783,475,42,0.164988815590285,1
783,476,42,0.150694862907995,1
783,518,42,0.107256851744822,1
783,519,42,0.106989834447714,1
784,474,42,0.141121647543682,1
784,475,42,0.161417884490408,1
784,476,42,0.137703404516828,1
784,518,42,0.147096080093723,1
784,519,42,0.136419849837655,1
785,475,42,0.110054950752101,1
785,517,42,0.107428691357139,1
785,519,42,0.173816615567638,1
785,520,42,0.108447872253946,1
786,518,42,0.171393282179873,1
786,519,42,0.159345000848156,1
787,518,42,0.109698310497381,1
787,519,42,0.106495374496137,1
761,499,43,0.149646424883893,1
762,499,43,0.141954176222359,1
762,500,43,0.149880158434204,1
763,495,43,0.178473908531802,1
763,496,43,0.176907932783964,1
763,498,43,0.167011416682082,1
763,499,43,0.13780744968778,1
763,500,43,0.126794232649464,1
763,501,43,0.104097650854567,1
764,489,43,0.144086856837325,1
764,490,43,0.150778719211084,1
764,491,43,0.149540059666247,1
764,492,43,0.150612590482936,1
764,493,43,0.151800811320329,1
764,494,43,0.149156058476242,1
764,495,43,0.148681330075631,1
764,496,43,0.157337658524998,1
764,497,43,0.161000008387861,1
764,498,43,0.145945838866868,1
764,499,43,0.121376856695445,1
764,500,43,0.104647646923872,1
765,488,43,0.133868668492186,1
765,489,43,0.115465835037006,1
765,490,43,0.115170017929499,1
765,491,43,0.114883079462224,1
765,492,43,0.111029994991376,1
765,497,43,0.103248056447807,1
766,484,43,0.15777195341953,1
766,487,43,0.114168226228824,1
766,488,43,0.10291924559934,1
767,483,43,0.126195883683924,1
767,484,43,0.11576992846493,1
769,482,43,0.113613088132952,1
770,479,43,0.104796564921019,1
770,480,43,0.11075034013223,1
770,481,43,0.107320396485272,1
773,477,43,0.108531505475623,1
773,478,43,0.128159769747858,1
773,479,43,0.119705686907379,1
773,480,43,0.107554910820528,1
774,477,43,0.119785572361319,1
774,478,43,0.147164677628173,1
774,479,43,0.121932362875648,1
775,477,43,0.112595993047355,1
775,478,43,0.123895122378448,1
776,477,43,0.108916778229681,1
782,474,43,0.108152557079618,1
782,475,43,0.137380750715355,1
782,476,43,0.132487136456491,1
783,473,43,0.105154755591558,1
783,474,43,0.165548939555734,1
783,475,43,0.193951776580217,1
783,476,43,0.162866987886055,1
783,477,43,0.109075679120053,1
784,473,43,0.111463765644588,1
784,474,43,0.163821597867913,1
784,475,43,0.17052523894027,1
784,476,43,0.133308511064526,1
784,518,43,0.107708546989556,1
784,519,43,0.107438406552668,1
785,474,43,0.110334962541508,1
785,475,43,0.108421292103605,1
785,518,43,0.136257223487689,1
785,519,43,0.133526818535139,1
786,518,43,0.129702344255489,1
786,519,43,0.129522261784967,1
761,497,44,0.148349864558351,1
761,498,44,0.133683142835192,1
761,499,44,0.136388785750916,1
762,496,44,0.165784848149821,1
762,497,44,0.154187682051164,1
762,498,44,0.135882335173398,1
762,499,44,0.126641589192723,1
762,500,44,0.144989968475027,1
763,489,44,0.163416314711122,1
763,495,44,0.171083924030606,1
763,496,44,0.162894404591694,1
763,497,44,0.164458863385924,1
763,498,44,0.147290595931655,1
763,499,44,0.125822400782534,1
763,500,44,0.125621103269651,1
763,501,44,0.104357618779029,1
764,489,44,0.140278232492058,1
764,490,44,0.153262106115188,1
764,492,44,0.149044830083796,1
764,493,44,0.146368377370943,1
764,494,44,0.143663225234327,1
764,495,44,0.138067451074454,1
764,496,44,0.139907660803106,1
764,497,44,0.146812599388346,1
764,498,44,0.135104606443787,1
764,499,44,0.10800933881257,1
765,488,44,0.123212359406286,1
765,489,44,0.106731595404202,1
765,490,44,0.106688351072321,1
765,491,44,0.105197888382732,1
767,483,44,0.117709721736277,1
767,484,44,0.105412102309419,1
768,482,44,0.116962733625356,1
769,479,44,0.128666041860246,1
769,481,44,0.124244657490168,1
773,477,44,0.105892697751188,1
773,478,44,0.125439492691451,1
774,477,44,0.116031703348836,1
774,478,44,0.134809726278214,1
782,474,44,0.118070879389606,1
782,475,44,0.144410759894709,1
782,476,44,0.130598741142664,1
783,473,44,0.116805360842662,1
783,474,44,0.182867809271817,1
783,475,44,0.211280227642982,1
783,476,44,0.16435964792756,1
784,473,44,0.116829765949228,1
784,474,44,0.16928392472662,1
784,475,44,0.172522743373121,1
784,476,44,0.126738350755546,1
785,474,44,0.108468061121809,1
788,474,44,0.115875613284266,1
789,474,44,0.117392611507913,1
790,476,44,0.11079409755136,1
761,497,45,0.135575765541792,1
761,498,45,0.1175898043228,1
761,499,45,0.127125307774271,1
762,496,45,0.168714966737223,1
762,497,45,0.142093155942563,1
762,498,45,0.11730660246919,1
762,499,45,0.115773955084431,1
762,500,45,0.139020722567835,1
763,493,45,0.17896333799752,1
763,494,45,0.179822480288749,1
763,495,45,0.172724587435466,1
763,496,45,0.164786424978479,1
763,497,45,0.156988580730174,1
763,498,45,0.136455208241591,1
763,499,45,0.120842275551767,1
763,500,45,0.124239905856074,1
763,501,45,0.10519072746938,1
764,489,45,0.141140944085893,1
764,492,45,0.152502156974181,1
764,493,45,0.145655152631856,1
764,494,45,0.141241196872827,1
764,495,45,0.134212213867972,1
764,496,45,0.13445891960244,1
764,497,45,0.140618063562319,1
764,498,45,0.129389539498393,1
764,499,45,0.103877279880885,1
765,488,45,0.116419552693213,1
765,489,45,0.104536295836649,1
765,490,45,0.10475335405135,1
767,483,45,0.111217662229934,1
768,482,45,0.108122474551095,1
769,478,45,0.112942449635579,1
769,479,45,0.11801311245775,1
773,477,45,0.103333117390526,1
773,478,45,0.11731597188853,1
774,477,45,0.111085241103268,1
774,478,45,0.117745972465864,1
777,475,45,0.105749289864938,1
778,474,45,0.133143687362643,1
778,475,45,0.110022827028651,1
779,474,45,0.103117442280584,1
782,474,45,0.131660742516667,1
782,475,45,0.149674800839607,1
782,476,45,0.122100354333593,1
783,473,45,0.129013167692707,1
783,474,45,0.201134150364546,1
783,475,45,0.219213002683848,1
783,476,45,0.156550024980657,1
784,473,45,0.122499692370732,1
784,474,45,0.173184257840709,1
784,475,45,0.171438813096235,1
784,476,45,0.121930968616818,1
785,474,45,0.109142023532234,1
786,473,45,0.103027808168902,1
787,472,45,0.145049441979692,1
787,473,45,0.154061875288388,1
787,474,45,0.107796307217371,1
788,472,45,0.14052465937476,1
788,473,45,0.15044283668183,1
788,474,45,0.109040599567882,1
789,473,45,0.119855374535399,1
789,474,45,0.107740057239121,1
790,473,45,0.11641272640198,1
790,475,45,0.122176927028553,1
761,497,46,0.125192061942391,1
761,498,46,0.104154503152631,1
761,499,46,0.118751166158086,1
761,500,46,0.142225978615773,1
762,493,46,0.152780529115203,1
762,494,46,0.169862196365004,1
762,496,46,0.183701085273227,1
762,497,46,0.13522862855526,1
762,498,46,0.10308698051366,1
762,499,46,0.106361079485603,1
762,500,46,0.127714443477461,1
762,501,46,0.117827698341461,1
763,493,46,0.16384915957647,1
763,494,46,0.166267663251647,1
763,495,46,0.181756339594515,1
763,496,46,0.183390377481413,1
763,497,46,0.155729765779686,1
763,498,46,0.125650193085886,1
763,499,46,0.11370732887581,1
763,500,46,0.114406198325979,1
764,488,46,0.152002923080369,1
764,489,46,0.146623783280512,1
764,492,46,0.149053496796685,1
764,493,46,0.13663386299107,1
764,494,46,0.130375458956545,1
764,495,46,0.129359390045447,1
764,496,46,0.134324803057036,1
764,497,46,0.13360809824791,1
764,498,46,0.119048634068047,1
765,487,46,0.132250647850731,1
765,488,46,0.113833336411857,1
765,489,46,0.107251397404278,1
766,482,46,0.133531246701184,1
766,483,46,0.129814074581113,1
766,486,46,0.106969634425781,1
767,482,46,0.123563489550108,1
768,481,46,0.135879725120868,1
769,479,46,0.106479937262368,1
777,474,46,0.115537912641497,1
778,473,46,0.117345552483873,1
778,474,46,0.139865442645724,1
778,475,46,0.110926540986168,1
779,473,46,0.105788541039529,1
779,474,46,0.110225864576554,1
782,474,46,0.134543411687556,1
782,475,46,0.142311831497507,1
782,476,46,0.103158589647184,1
783,473,46,0.130796536277366,1
783,474,46,0.201062652771729,1
783,475,46,0.201268289218092,1
783,476,46,0.130895863276436,1
784,473,46,0.123416211201346,1
784,474,46,0.16676864833455,1
784,475,46,0.153432071843637,1
784,476,46,0.105099810639574,1
785,474,46,0.10533241762875,1
786,472,46,0.111455243934617,1
786,473,46,0.112129362502031,1
787,471,46,0.111531470853387,1
787,472,46,0.176718759745869,1
787,473,46,0.184755501879193,1
787,474,46,0.113508552182892,1
788,471,46,0.108578140644978,1
788,472,46,0.16070480475424,1
788,473,46,0.167618688904136,1
788,474,46,0.106105171642855,1
789,472,46,0.120822231686823,1
789,473,46,0.116699441787842,1
790,472,46,0.116620905976449,1
790,473,46,0.112915813714885,1
790,474,46,0.118408412721316,1
790,475,46,0.108994354790999,1
791,472,46,0.10808296683288,1
791,473,46,0.114870185356561,1
791,475,46,0.112500190734608,1
792,473,46,0.104612935456033,1
792,474,46,0.107382190036631,1
761,497,47,0.116445787067364,1
761,499,47,0.108133282845548,1
761,500,47,0.128768123914765,1
761,501,47,0.115762209848045,1
762,493,47,0.144687804701325,1
762,494,47,0.160045710719981,1
762,495,47,0.207794223636975,1
762,496,47,0.200943817303105,1
762,497,47,0.128707256151269,1
762,500,47,0.107588484573162,1
762,501,47,0.104178562483007,1
763,492,47,0.176558999992058,1
763,493,47,0.150331407516113,1
763,494,47,0.155883546951633,1
763,495,47,0.20018426970864,1
763,496,47,0.216236650473633,1
763,497,47,0.159035754239595,1
763,498,47,0.11567808584726,1
764,488,47,0.145796352012118,1
764,491,47,0.156276002927185,1
764,492,47,0.140821190342788,1
764,493,47,0.124638117332078,1
764,494,47,0.118729828420947,1
764,495,47,0.130939286073447,1
764,496,47,0.146285290698728,1
764,497,47,0.132538891344272,1
764,498,47,0.109926366625736,1
765,487,47,0.119768250089612,1
765,488,47,0.113059935461655,1
765,489,47,0.114819445489209,1
766,482,47,0.124155581082018,1
766,483,47,0.117407870276552,1
767,482,47,0.115394036284281,1
768,481,47,0.113896379219128,1
777,473,47,0.105155781766057,1
777,474,47,0.108208048581064,1
778,473,47,0.125124401349875,1
778,474,47,0.132962601025764,1
778,475,47,0.104024591691859,1
779,473,47,0.127307364515296,1
779,474,47,0.115523624277004,1
782,474,47,0.130348153791612,1
782,475,47,0.130507311225608,1
783,473,47,0.125342508047216,1
783,474,47,0.188871231251457,1
783,475,47,0.171870932946992,1
783,476,47,0.104005640925838,1
784,473,47,0.123226045450964,1
784,474,47,0.159678418327798,1
784,475,47,0.13245534735516,1
785,474,47,0.105684819336625,1
786,471,47,0.105778368527103,1
786,472,47,0.117718678455002,1
786,473,47,0.118384554164212,1
787,471,47,0.120763750894445,1
787,472,47,0.183478572717982,1
787,473,47,0.187646179672804,1
787,474,47,0.114058760179539,1
788,471,47,0.114039999032719,1
788,472,47,0.164947233214931,1
788,473,47,0.167057951464802,1
788,474,47,0.103421479938155,1
789,471,47,0.119356397185212,1
789,472,47,0.123337218073057,1
789,473,47,0.113092416115366,1
790,471,47,0.129352463367578,1
790,472,47,0.118795102042346,1
790,473,47,0.106368363093732,1
790,474,47,0.106365340340588,1
791,472,47,0.104251855881198,1
791,473,47,0.106398300619336,1
791,474,47,0.112876395229234,1
760,500,48,0.155390927421712,1
761,497,48,0.115014240178908,1
761,500,48,0.109859330661175,1
761,501,48,0.103528469783756,1
762,493,48,0.140223298694144,1
762,494,48,0.15071371328738,1
762,495,48,0.205155460528823,1
762,496,48,0.205558434792991,1
762,497,48,0.125768571237614,1
762,502,48,0.109837334833868,1
763,492,48,0.16393510169077,1
763,493,48,0.136191381008687,1
763,494,48,0.141692334414029,1
763,495,48,0.200512489391363,1
763,496,48,0.223327940117096,1
763,497,48,0.150859061981921,1
763,502,48,0.116007242471917,1
763,503,48,0.122472967217473,1
764,488,48,0.142614196044481,1
764,491,48,0.139604470854904,1
764,492,48,0.125592626927301,1
764,493,48,0.107970466876381,1
764,495,48,0.120150410857961,1
764,496,48,0.137750184689102,1
764,497,48,0.115912176327832,1
765,487,48,0.111542479921111,1
765,488,48,0.110785330451835,1
765,489,48,0.118274173481135,1
766,482,48,0.116441013125129,1
766,483,48,0.106982896615775,1
766,484,48,0.117526460355622,1
766,485,48,0.119298808718486,1
767,482,48,0.104553885806052,1
777,473,48,0.112779354814646,1
778,473,48,0.131566434849386,1
778,474,48,0.115841414903677,1
779,472,48,0.160048766935337,1
779,473,48,0.145601825020115,1
779,474,48,0.110443458186646,1
780,472,48,0.116394601037186,1
782,474,48,0.120016997019008,1
782,475,48,0.114747200573658,1
783,473,48,0.112189036779968,1
783,474,48,0.161677729720093,1
783,475,48,0.138630854336671,1
784,473,48,0.11690967371131,1
784,474,48,0.144321482713287,1
784,475,48,0.112025138865949,1
785,473,48,0.112402001450743,1
785,474,48,0.111069023084554,1
786,471,48,0.10786852982478,1
786,472,48,0.127060937632594,1
786,473,48,0.138996830548519,1
786,474,48,0.108163030751951,1
787,471,48,0.121404228784801,1
787,472,48,0.166401813259263,1
787,473,48,0.171922866299903,1
787,474,48,0.11343125447334,1
788,471,48,0.114257536872457,1
788,472,48,0.148804827945783,1
788,473,48,0.145638666915447,1
789,471,48,0.114937968643855,1
789,472,48,0.118423972649862,1
789,473,48,0.104173944697761,1
790,471,48,0.120937754396466,1
790,472,48,0.111463921801577,1
761,497,49,0.123427521428977,1
762,493,49,0.143515177254691,1
762,494,49,0.146518633856566,1
762,495,49,0.189586787191308,1
762,496,49,0.197760646315039,1
762,497,49,0.1320660479816,1
762,502,49,0.106476390267904,1
763,492,49,0.152459336496985,1
763,493,49,0.127013889762624,1
763,494,49,0.131559151241256,1
763,495,49,0.183115786570338,1
763,496,49,0.203362577521906,1
763,497,49,0.141021751687009,1
763,502,49,0.113783600410862,1
763,503,49,0.123925762610502,1
764,487,49,0.145460514099147,1
764,488,49,0.143863451956428,1
764,490,49,0.136349133029782,1
764,491,49,0.120942651033478,1
764,492,49,0.109298448218922,1
764,495,49,0.109128828266664,1
764,496,49,0.121588527494026,1
765,483,49,0.126665938528935,1
765,484,49,0.143614571178185,1
765,486,49,0.126478739761344,1
765,487,49,0.105216526834775,1
765,488,49,0.106469541668529,1
765,489,49,0.112678153931707,1
766,482,49,0.114921538697799,1
766,484,49,0.103432700933221,1
766,485,49,0.105193482524828,1
767,481,49,0.12214683334596,1
768,480,49,0.105638005702139,1
778,473,49,0.13473116815868,1
779,472,49,0.16088122868959,1
779,473,49,0.152050417113164,1
780,472,49,0.115179097343002,1
780,473,49,0.107768879357661,1
782,474,49,0.11311818201855,1
783,474,49,0.133944304245213,1
783,475,49,0.112334508169286,1
784,474,49,0.121283898670711,1
785,473,49,0.12716609821061,1
785,474,49,0.113593903131447,1
786,472,49,0.13146961751621,1
786,473,49,0.167158940420398,1
786,474,49,0.124169445591827,1
787,471,49,0.10980281298523,1
787,472,49,0.135361540461034,1
787,473,49,0.148057572137167,1
787,474,49,0.107236707493242,1
788,471,49,0.106594121483534,1
788,472,49,0.117266213579394,1
788,473,49,0.110009509068304,1
789,471,49,0.103318996337092,1
789,472,49,0.103150402559333,1
760,498,50,0.128676426300014,1
761,486,50,0.17252620113502,1
761,497,50,0.130053340550463,1
762,486,50,0.166967190791985,1
762,494,50,0.142015188988773,1
762,495,50,0.162194118574553,1
762,496,50,0.173851762044232,1
762,497,50,0.137937204991563,1
763,487,50,0.166769652200908,1
763,492,50,0.138008334500049,1
763,493,50,0.11745470621918,1
763,494,50,0.119266919230519,1
763,495,50,0.14756449529035,1
763,496,50,0.158881348439693,1
763,497,50,0.125953617269571,1
763,503,50,0.105905011845177,1
764,486,50,0.152040936153118,1
764,487,50,0.135599612944825,1
764,488,50,0.13926477363349,1
764,489,50,0.142293527667583,1
764,490,50,0.121668870264863,1
764,491,50,0.103518442274249,1
765,483,50,0.119216826299264,1
765,484,50,0.126029933420906,1
765,485,50,0.131222833703247,1
765,486,50,0.114761065083467,1
766,482,50,0.114802513609974,1
767,481,50,0.114984793432412,1
778,473,50,0.12539189827202,1
779,472,50,0.139279653163727,1
779,473,50,0.139384501427766,1
780,473,50,0.106430234723586,1
785,473,50,0.132580507181838,1
785,474,50,0.110872510667976,1
786,472,50,0.12555389999403,1
786,473,50,0.18527477963795,1
786,474,50,0.134972508785169,1
787,472,50,0.104527495274913,1
787,473,50,0.125540950118015,1
760,498,51,0.133886849627334,1
760,499,51,0.110505653284548,1
761,486,51,0.171191159265762,1
761,497,51,0.138572998172249,1
761,498,51,0.109060844206098,1
762,486,51,0.160735400370012,1
762,494,51,0.145751122255664,1
762,495,51,0.14504923005235,1
762,496,51,0.151795468520491,1
762,497,51,0.141405273251976,1
762,498,51,0.105179160698123,1
763,487,51,0.1534996766658,1
763,492,51,0.131064847446668,1
763,493,51,0.115300029776907,1
763,494,51,0.113890389483193,1
763,495,51,0.120812159561033,1
763,496,51,0.125030651386125,1
763,497,51,0.117560000646044,1
764,486,51,0.144924761778052,1
764,487,51,0.129333646450404,1
764,488,51,0.13548092247912,1
764,489,51,0.13515466591283,1
764,490,51,0.116015775335958,1
765,483,51,0.123464619867934,1
765,484,51,0.121155191849569,1
765,485,51,0.12062875317746,1
765,486,51,0.109867205435048,1
776,473,51,0.103067561276672,1
778,472,51,0.121725555251867,1
778,473,51,0.112050837844709,1
779,472,51,0.114635860640506,1
779,473,51,0.119014000678703,1
785,473,51,0.133576733001263,1
785,474,51,0.113871405254959,1
786,472,51,0.117311209100365,1
786,473,51,0.184363458604255,1
786,474,51,0.139019707547406,1
787,473,51,0.114643456562613,1
759,498,52,0.155888644361916,1
760,498,52,0.132647610070823,1
761,486,52,0.163826851435185,1
761,487,52,0.168327351628329,1
761,497,52,0.141817326929648,1
761,498,52,0.119190234994853,1
762,486,52,0.153139935579442,1
762,487,52,0.155565589013901,1
762,494,52,0.14289581402006,1
762,495,52,0.131614709667126,1
762,496,52,0.129232624032596,1
762,497,52,0.133397029769144,1
762,498,52,0.114852762698218,1
763,487,52,0.140854150621536,1
763,488,52,0.159421216612855,1
763,492,52,0.120972410093952,1
763,493,52,0.105825282548225,1
764,483,52,0.159808017474592,1
764,486,52,0.134986339832766,1
764,487,52,0.122093238036523,1
764,488,52,0.127922734592637,1
764,489,52,0.129222641139371,1
764,490,52,0.11245265208553,1
765,483,52,0.133292839595273,1
765,484,52,0.116108655282198,1
765,485,52,0.110214520886711,1
765,486,52,0.104276506377318,1
766,482,52,0.132230425520656,1
766,483,52,0.102935530542478,1
767,481,52,0.103935403743003,1
775,473,52,0.116694054371722,1
785,473,52,0.120819777791282,1
785,474,52,0.109627827924992,1
786,473,52,0.154248795204214,1
786,474,52,0.126811398764183,1
759,498,53,0.134110276816371,1
760,488,53,0.189949361411609,1
760,498,53,0.127118760334804,1
761,486,53,0.152796602130999,1
761,487,53,0.160175321020846,1
761,497,53,0.148913858986313,1
761,498,53,0.131655299330194,1
762,487,53,0.142794691215616,1
762,488,53,0.163444869131966,1
762,494,53,0.142495851354965,1
762,495,53,0.129962256409597,1
762,496,53,0.118767897264049,1
762,497,53,0.1285015081642,1
762,498,53,0.129453340782468,1
763,487,53,0.130822067945066,1
763,488,53,0.148545674268478,1
763,489,53,0.167731077319928,1
763,490,53,0.160909660415658,1
763,491,53,0.142091125901706,1
763,492,53,0.116158413591333,1
764,483,53,0.160212352535378,1
764,486,53,0.128442280049089,1
764,487,53,0.117098556743568,1
764,488,53,0.122183318311031,1
764,489,53,0.127547500502156,1
764,490,53,0.115592299889949,1
765,484,53,0.115077851843781,1
765,485,53,0.103510400189316,1
766,483,53,0.116843786616025,1
767,480,53,0.111632850201456,1
774,473,53,0.127815086656867,1
775,472,53,0.115162823553935,1
775,473,53,0.124008838128647,1
781,473,53,0.110518246230303,1
782,473,53,0.104275368662112,1
785,473,53,0.103003425370478,1
786,473,53,0.114705261268043,1
759,490,54,0.162805662805663,1
759,497,54,0.147744455066094,1
759,498,54,0.118406706148507,1
760,487,54,0.17248156254431,1
760,488,54,0.188157705352464,1
760,489,54,0.181448163776736,1
760,498,54,0.121963248497257,1
761,487,54,0.154889250786429,1
761,488,54,0.181022780984647,1
761,497,54,0.157115157123824,1
761,498,54,0.13848237134828,1
762,487,54,0.135779450025793,1
762,488,54,0.155389555471023,1
762,489,54,0.172246747049146,1
762,493,54,0.149402217661248,1
762,494,54,0.139944112305965,1
762,495,54,0.13150017966977,1
762,496,54,0.116490972207536,1
762,497,54,0.123580912208452,1
762,498,54,0.133266270599003,1
763,482,54,0.137377281799385,1
763,487,54,0.12645662123926,1
763,488,54,0.138818722348501,1
763,489,54,0.156186803824258,1
763,490,54,0.149225994499169,1
763,491,54,0.130824276451053,1
763,492,54,0.111035951265099,1
764,483,54,0.154930498539664,1
764,486,54,0.127357858993094,1
764,487,54,0.116278766013565,1
764,488,54,0.117961859503148,1
764,489,54,0.125091619536257,1
764,490,54,0.116784145800301,1
765,484,54,0.114312548748866,1
766,478,54,0.152175922716032,1
766,480,54,0.146531483345946,1
766,483,54,0.125592381537747,1
767,477,54,0.125979148937271,1
767,479,54,0.125807275862743,1
767,480,54,0.105153216329809,1
768,476,54,0.110935185390916,1
768,477,54,0.110875399572273,1
768,478,54,0.109180705849221,1
774,472,54,0.117316652286839,1
774,473,54,0.129603842657646,1
774,474,54,0.106561105434433,1
775,472,54,0.109849146994678,1
775,473,54,0.117346656736867,1
781,473,54,0.111380043190346,1
759,490,55,0.154800787852164,1
759,497,55,0.140386828523832,1
759,498,55,0.113300718384612,1
760,487,55,0.168781378073828,1
760,488,55,0.186564491364117,1
760,489,55,0.177734694808119,1
760,490,55,0.178778358889986,1
760,497,55,0.157576969110631,1
760,498,55,0.118167005170403,1
761,487,55,0.157304218621212,1
761,488,55,0.184430148792625,1
761,489,55,0.186711691634385,1
761,497,55,0.163205926630665,1
761,498,55,0.137344801145675,1
762,488,55,0.154045077258001,1
762,489,55,0.163918035962687,1
762,490,55,0.160263482795203,1
762,493,55,0.146591681865203,1
762,494,55,0.141852060705628,1
762,496,55,0.12962059607175,1
762,497,55,0.126574062449054,1
762,498,55,0.128732732048616,1
763,481,55,0.148404441426004,1
763,482,55,0.129690275551053,1
763,487,55,0.128215004705679,1
763,488,55,0.135774943781253,1
763,489,55,0.145992987123473,1
763,490,55,0.138253411740204,1
763,491,55,0.120500682138344,1
763,492,55,0.106897936059692,1
764,480,55,0.148380326325275,1
764,481,55,0.13919931039289,1
764,482,55,0.136566760102086,1
764,483,55,0.141931198836836,1
764,486,55,0.125916764220169,1
764,487,55,0.117847619511628,1
764,488,55,0.117238830335967,1
764,489,55,0.122737575235322,1
764,490,55,0.115895010213113,1
765,479,55,0.142936314450563,1
765,480,55,0.147370983318775,1
765,483,55,0.162252878218697,1
765,484,55,0.112439769133938,1
766,478,55,0.14290223876475,1
766,479,55,0.143489667895131,1
766,480,55,0.132970933116534,1
766,481,55,0.134963987075198,1
766,482,55,0.144280313038546,1
766,483,55,0.130156549166117,1
767,477,55,0.124118404564567,1
767,478,55,0.128581304385575,1
767,479,55,0.11981752877371,1
768,476,55,0.113407964773839,1
768,477,55,0.106508290909941,1
768,478,55,0.106105751654528,1
774,472,55,0.118020953769411,1
774,473,55,0.123820836267969,1
774,474,55,0.1068112689308,1
775,471,55,0.114749509466281,1
775,472,55,0.111679708452225,1
775,473,55,0.108270968693558,1
781,473,55,0.103990237154281,1
759,490,56,0.147608263863551,1
759,496,56,0.154991210146171,1
759,497,56,0.133120074195093,1
759,498,56,0.107645805342193,1
760,487,56,0.166305129774935,1
760,488,56,0.179938438007148,1
760,489,56,0.173501223066154,1
760,490,56,0.16919379983583,1
760,491,56,0.172563901893792,1
760,497,56,0.147710234377363,1
760,498,56,0.111052760449557,1
761,487,56,0.169034977023953,1
761,488,56,0.184416875448561,1
761,489,56,0.18128709899666,1
761,490,56,0.179467133906224,1
761,497,56,0.159936233516626,1
761,498,56,0.126535558597196,1
761,499,56,0.103405853085185,1
762,488,56,0.154990953602546,1
762,489,56,0.155492730624465,1
762,490,56,0.152646635651212,1
762,491,56,0.151531195124761,1
762,492,56,0.148514442870679,1
762,493,56,0.142906153843546,1
762,494,56,0.143319021768373,1
762,496,56,0.140504816283087,1
762,497,56,0.123947936902939,1
762,498,56,0.112995286468212,1
763,481,56,0.142966240822096,1
763,482,56,0.132996375551669,1
763,483,56,0.131876384164396,1
763,487,56,0.139000611778467,1
763,488,56,0.134725936899548,1
763,489,56,0.134813083653477,1
763,490,56,0.127293990784596,1
763,491,56,0.111775376916124,1
764,480,56,0.135633153235247,1
764,481,56,0.13163022497939,1
764,482,56,0.132430641088687,1
764,483,56,0.135148698485036,1
764,484,56,0.127348612268532,1
764,486,56,0.12675701151573,1
764,487,56,0.121069193964916,1
764,488,56,0.115923798869441,1
764,489,56,0.116611224243132,1
764,490,56,0.109308955353468,1
765,479,56,0.133892315121948,1
765,480,56,0.135652059384986,1
765,481,56,0.138995681679243,1
765,482,56,0.152586303283107,1
765,483,56,0.151138549530008,1
765,484,56,0.113660080232569,1
766,478,56,0.131996156574954,1
766,479,56,0.133547074327425,1
766,480,56,0.128436167618377,1
766,481,56,0.128967647930416,1
766,482,56,0.135953196984189,1
766,483,56,0.1286747978057,1
767,477,56,0.122795041007271,1
767,478,56,0.121057995277991,1
767,479,56,0.115339771730606,1
767,480,56,0.104031886454059,1
768,476,56,0.113211195813636,1
774,472,56,0.117399761267195,1
774,473,56,0.11140423636957,1
775,471,56,0.116335886009324,1
775,472,56,0.114836633912069,1
759,491,57,0.14688246848685,1
759,496,57,0.150974941621825,1
759,497,57,0.130773190807511,1
759,498,57,0.107257654837909,1
760,487,57,0.165851415643415,1
760,488,57,0.17037469244881,1
760,489,57,0.165534539650535,1
760,490,57,0.156940752075259,1
760,491,57,0.154874895497512,1
760,496,57,0.172068047683384,1
760,497,57,0.13556895040463,1
760,498,57,0.105076052469105,1
761,488,57,0.178536315557046,1
761,489,57,0.17032555876763,1
761,490,57,0.16848051932639,1
761,491,57,0.166403285596588,1
761,492,57,0.173594080704252,1
761,497,57,0.147979449026388,1
761,498,57,0.114744356285644,1
761,499,57,0.105586351200994,1
762,483,57,0.145110610903095,1
762,489,57,0.146460376145601,1
762,490,57,0.150249257785831,1
762,491,57,0.148641677354497,1
762,492,57,0.146946504006408,1
762,493,57,0.145725322890268,1
762,494,57,0.150389074061334,1
762,496,57,0.144081023258379,1
762,497,57,0.11807945686993,1
763,482,57,0.13888884799063,1
763,483,57,0.140150931083816,1
763,488,57,0.137526601343075,1
763,489,57,0.12830305493933,1
763,490,57,0.124181157366001,1
763,491,57,0.11239136046735,1
763,492,57,0.104809559413317,1
764,480,57,0.127627809810781,1
764,481,57,0.126274988352919,1
764,482,57,0.129292833705924,1
764,483,57,0.134698486731698,1
764,484,57,0.131120004325995,1
764,486,57,0.128201720207544,1
764,487,57,0.12369374678707,1
764,488,57,0.115967098971675,1
764,489,57,0.112424900757772,1
764,490,57,0.104109875715991,1
765,479,57,0.124997456871894,1
765,480,57,0.126031874229198,1
765,481,57,0.125230788875662,1
765,482,57,0.131357485644042,1
765,483,57,0.133994307943902,1
765,484,57,0.114443620232984,1
766,478,57,0.128471447943818,1
766,479,57,0.126089161536017,1
766,480,57,0.124346505309204,1
766,481,57,0.11946922060976,1
766,482,57,0.118860598745158,1
766,483,57,0.115460034920272,1
767,477,57,0.127123813128805,1
767,478,57,0.119160230544825,1
767,479,57,0.110870915635874,1
768,476,57,0.114418255876344,1
769,475,57,0.10397877076966,1
774,472,57,0.116778379145778,1
775,471,57,0.117575203644329,1
775,472,57,0.118044968483504,1
776,471,57,0.106813075890244,1
777,470,57,0.111771718380954,1
759,491,58,0.139789929587475,1
759,495,58,0.165853612995331,1
759,496,58,0.148346473720876,1
759,497,58,0.128499355428566,1
759,498,58,0.108256223012168,1
760,488,58,0.155869526284835,1
760,489,58,0.152406745053906,1
760,490,58,0.14211810759859,1
760,491,58,0.142242899340937,1
760,492,58,0.168365018924889,1
760,496,58,0.159813527585489,1
760,497,58,0.127613421059653,1
760,498,58,0.105301208539092,1
761,489,58,0.159999956722206,1
761,490,58,0.158641759002294,1
761,491,58,0.155335737080173,1
761,492,58,0.166556542527214,1
761,497,58,0.13656283386922,1
761,498,58,0.109468358177018,1
761,499,58,0.109416201742694,1
761,500,58,0.103835407499694,1
762,483,58,0.152435221396256,1
762,484,58,0.143766668085464,1
762,489,58,0.141298272252304,1
762,490,58,0.149222692894259,1
762,491,58,0.148998395687711,1
762,492,58,0.150679526060861,1
762,493,58,0.156228966211286,1
762,496,58,0.141133526628916,1
762,497,58,0.112066475851749,1
763,482,58,0.1460530071776,1
763,483,58,0.148710062961606,1
763,484,58,0.141109679225883,1
763,488,58,0.141299019575037,1
763,489,58,0.124409525808333,1
763,490,58,0.12336591749682,1
763,491,58,0.11644208391591,1
763,492,58,0.111697421116405,1
763,493,58,0.106585220535162,1
764,480,58,0.123536530161365,1
764,481,58,0.123927959962419,1
764,482,58,0.127417711736161,1
764,483,58,0.132590378534357,1
764,484,58,0.12734893573658,1
764,485,58,0.122038058849055,1
764,487,58,0.122819602270826,1
764,488,58,0.113731990526,1
764,489,58,0.107713912097535,1
765,479,58,0.118342815631868,1
765,480,58,0.118785286460181,1
765,481,58,0.113556737768067,1
765,482,58,0.111502760275554,1
765,483,58,0.114154830189982,1
765,484,58,0.107301758033229,1
766,478,58,0.129326764388818,1
766,479,58,0.121047198137609,1
766,480,58,0.118821894120029,1
766,481,58,0.109401902224131,1
767,477,58,0.132232801337703,1
767,478,58,0.119111833032307,1
767,479,58,0.108660334991542,1
768,476,58,0.113108701058503,1
769,475,58,0.103376473263113,1
774,472,58,0.109906110833449,1
775,471,58,0.111720543504846,1
775,472,58,0.113953086514274,1
776,471,58,0.105487593059527,1
777,470,58,0.113728041984993,1
759,492,59,0.167055386028554,1
759,495,59,0.178237174536488,1
759,496,59,0.152934299133079,1
759,497,59,0.130414810517771,1
759,498,59,0.114871981161935,1
759,499,59,0.107511867261919,1
760,488,59,0.145413109298917,1
760,489,59,0.140947398652106,1
760,490,59,0.133184399720488,1
760,491,59,0.140069484059985,1
760,492,59,0.163475241666325,1
760,496,59,0.153999825193405,1
760,497,59,0.126279974222497,1
760,498,59,0.113781313826381,1
760,499,59,0.117010774207613,1
760,500,59,0.109354921278585,1
761,489,59,0.153358555364033,1
761,490,59,0.149820974935376,1
761,491,59,0.14988321464956,1
761,492,59,0.162499438950247,1
761,496,59,0.165146567611381,1
761,497,59,0.127234751515414,1
761,498,59,0.109344269141121,1
761,499,59,0.113613445063213,1
761,500,59,0.108874247758322,1
762,483,59,0.166408159925459,1
762,484,59,0.143521122374343,1
762,490,59,0.146880828838466,1
762,491,59,0.148370053426214,1
762,492,59,0.156748065504912,1
762,493,59,0.171271847812789,1
762,495,59,0.155532282958963,1
762,496,59,0.130769889202601,1
762,497,59,0.105857450887958,1
763,482,59,0.165754944086429,1
763,483,59,0.168951343802276,1
763,484,59,0.143828818567084,1
763,489,59,0.129195291358156,1
763,490,59,0.126104241839526,1
763,491,59,0.120772127601497,1
763,492,59,0.119875652635827,1
763,493,59,0.119114242311566,1
763,494,59,0.105216192212656,1
764,480,59,0.12795925301992,1
764,481,59,0.136766752588704,1
764,482,59,0.142586545103359,1
764,483,59,0.142605897415923,1
764,484,59,0.129060048251617,1
764,485,59,0.117128293495901,1
764,488,59,0.114975368242719,1
764,489,59,0.108671310597054,1
765,479,59,0.11471649341718,1
765,480,59,0.118035777529295,1
765,481,59,0.116290723177293,1
765,482,59,0.111008233399553,1
765,483,59,0.10903414136098,1
765,484,59,0.104975966993231,1
766,478,59,0.132523431802361,1
766,479,59,0.11562252742139,1
766,480,59,0.112313583132761,1
766,481,59,0.104649085798985,1
767,477,59,0.135924642563345,1
767,478,59,0.119007364006671,1
767,479,59,0.104982603665263,1
768,476,59,0.112501696534145,1
769,475,59,0.106617288488258,1
774,472,59,0.105976844060114,1
775,471,59,0.10617402572093,1
775,472,59,0.106958580741774,1
783,469,59,0.108671031745288,1
759,493,60,0.163227989382396,1
759,496,60,0.161181819739332,1
759,497,60,0.132752681416274,1
759,498,60,0.121039758372491,1
760,488,60,0.135102676789566,1
760,489,60,0.127863863407786,1
760,490,60,0.124441705302137,1
760,491,60,0.136938090267841,1
760,492,60,0.155204732520478,1
760,496,60,0.151726469439497,1
760,497,60,0.127523563866558,1
760,498,60,0.12349007345714,1
760,499,60,0.132750985997537,1
760,500,60,0.120256062215086,1
761,489,60,0.149445171987292,1
761,490,60,0.141199480648624,1
761,491,60,0.145540020314686,1
761,496,60,0.147945306416152,1
761,497,60,0.121292966930144,1
761,498,60,0.111699629622392,1
761,499,60,0.115428067353811,1
761,500,60,0.108009294196287,1
762,484,60,0.14961043069793,1
762,490,60,0.148957683329867,1
762,491,60,0.150611642386932,1
762,492,60,0.162301498812627,1
762,495,60,0.149712412365813,1
762,496,60,0.119469376766749,1
763,482,60,0.186035275328418,1
763,483,60,0.18669651094424,1
763,484,60,0.150074785812843,1
763,489,60,0.138229419334252,1
763,490,60,0.133845323022332,1
763,491,60,0.128630594223744,1
763,492,60,0.125257313255649,1
763,493,60,0.127437052894655,1
763,494,60,0.112078076085217,1
764,481,60,0.156373389117964,1
764,482,60,0.162163456034357,1
764,483,60,0.15167356568244,1
764,484,60,0.131162735570626,1
764,485,60,0.117826192541924,1
764,488,60,0.114319029263909,1
764,489,60,0.10955121061375,1
765,479,60,0.111807154863384,1
765,480,60,0.118074471000353,1
765,481,60,0.123526413419293,1
765,482,60,0.11497851369064,1
765,483,60,0.107325114657154,1
765,484,60,0.104483447849946,1
766,478,60,0.131795695617369,1
766,479,60,0.108607185844931,1
766,480,60,0.104349665926661,1
767,477,60,0.135390239884797,1
767,478,60,0.115611964516492,1
768,476,60,0.113423602780879,1
769,475,60,0.108617704133547,1
780,470,60,0.104307035068666,1
783,469,60,0.115275323510434,1
760,489,61,0.117225278140136,1
760,490,61,0.1181289363273,1
760,491,61,0.133365062202683,1
760,492,61,0.151313110735561,1
760,497,61,0.128974228832095,1
760,498,61,0.128143797118698,1
760,499,61,0.138892428447306,1
761,490,61,0.133664560153501,1
761,491,61,0.143070944083216,1
761,496,61,0.140999778167843,1
761,497,61,0.121314215434717,1
761,498,61,0.113478536578793,1
761,499,61,0.113104362125024,1
762,482,61,0.165388577482109,1
762,483,61,0.178565951922743,1
762,484,61,0.156334305254433,1
762,490,61,0.153505499090676,1
762,491,61,0.155981323534884,1
762,492,61,0.170397480215133,1
762,495,61,0.146546675190161,1
762,496,61,0.1164363507236,1
763,481,61,0.173123390077214,1
763,482,61,0.196928307255562,1
763,483,61,0.191949799365039,1
763,484,61,0.153592578920181,1
763,485,61,0.134430253640889,1
763,489,61,0.145138418001207,1
763,490,61,0.143756015948001,1
763,491,61,0.139245042082524,1
763,492,61,0.132738426513993,1
763,493,61,0.133570654032763,1
763,494,61,0.118646741748732,1
764,481,61,0.176790368879393,1
764,482,61,0.180516720799602,1
764,483,61,0.154192411377116,1
764,484,61,0.127740510540552,1
764,485,61,0.11563224261692,1
764,486,61,0.112640776640985,1
764,488,61,0.110920406247315,1
764,489,61,0.107562595975201,1
765,480,61,0.119834482961086,1
765,481,61,0.134023676611904,1
765,482,61,0.125548813737817,1
765,483,61,0.108749534094469,1
766,478,61,0.127508238173495,1
766,479,61,0.103369803128869,1
767,477,61,0.130197863843777,1
767,478,61,0.108714264923098,1
768,476,61,0.115410075837865,1
769,475,61,0.112430343944245,1
769,476,61,0.10304200730083,1
773,472,61,0.108958282526542,1
773,473,61,0.108611469008058,1
774,472,61,0.103523517376391,1
780,470,61,0.104393032953319,1
760,490,62,0.115464195388622,1
760,491,62,0.12762518860418,1
760,497,62,0.131638200139899,1
760,498,62,0.13320196738175,1
760,499,62,0.133868188867149,1
761,490,62,0.132318196902541,1
761,491,62,0.140842695390986,1
761,496,62,0.133266382139709,1
761,497,62,0.12146115916136,1
761,498,62,0.119411475986044,1
761,499,62,0.109979281536863,1
762,482,62,0.159932954219857,1
762,491,62,0.157482137202029,1
762,495,62,0.139836073977723,1
762,496,62,0.109266882199005,1
763,481,62,0.174334153291374,1
763,482,62,0.192944006297678,1
763,483,62,0.185917521804647,1
763,484,62,0.156951906145902,1
763,490,62,0.146218845899911,1
763,491,62,0.143083525874901,1
763,492,62,0.135383246282504,1
763,494,62,0.123507273034071,1
764,482,62,0.185715633126019,1
764,483,62,0.151784782920816,1
764,484,62,0.124263329404423,1
764,485,62,0.112787720367627,1
764,486,62,0.107179141334657,1
764,487,62,0.105700602346584,1
764,488,62,0.104909823354322,1
765,481,62,0.136250921437776,1
765,482,62,0.131534879983538,1
765,483,62,0.10887769436615,1
769,476,62,0.109791223905833,1
773,473,62,0.108396485450496,1
760,499,63,0.123054875082886,1
761,491,63,0.141721323843628,1
761,496,63,0.130476659839483,1
761,497,63,0.122662999119007,1
761,499,63,0.107245987680017,1
762,495,63,0.132512634661979,1
762,496,63,0.106544084322632,1
763,482,63,0.17062907218388,1
763,491,63,0.145043374165263,1
763,492,63,0.137463960082347,1
763,494,63,0.128926969034783,1
763,495,63,0.104044501707956,1
764,482,63,0.173977066873829,1
764,483,63,0.149052158308208,1
764,484,63,0.123399290476182,1
764,485,63,0.108949348115957,1
764,491,63,0.104478506596651,1
764,492,63,0.104108559535655,1
764,493,63,0.106867797760816,1
765,481,63,0.132522316395297,1
765,482,63,0.13525485177534,1
765,483,63,0.115618980426926,1
768,477,63,0.104166081077958,1
769,476,63,0.111305656693232,1
763,486,64,0.118242585153075,1
763,487,64,0.111048923449256,1
763,492,64,0.139713591127999,1
763,495,64,0.104816764942952,1
764,483,64,0.147255572149838,1
764,484,64,0.123133176658795,1
764,491,64,0.110180958288148,1
764,492,64,0.11714251493597,1
764,493,64,0.125823438111104,1
764,494,64,0.115524025823547,1
765,482,64,0.12990187942521,1
765,483,64,0.120553953979732,1
769,481,64,0.105777933518348,1
769,482,64,0.111863996007378,1
772,477,64,0.103692758090248,1
784,470,64,0.106511804442193,1
762,496,65,0.10473181554094,1
762,503,65,0.116005547053179,1
762,504,65,0.108502047575056,1
763,486,65,0.116794061769102,1
763,495,65,0.108255966468544,1
763,503,65,0.112833463211332,1
763,504,65,0.11388132122376,1
763,505,65,0.117442269430413,1
764,484,65,0.125095133068509,1
764,492,65,0.133927115822353,1
764,493,65,0.143421271133952,1
764,494,65,0.126535837448962,1
765,483,65,0.118038030651565,1
765,492,65,0.103704960643531,1
765,493,65,0.110463691670791,1
768,482,65,0.105061251017363,1
769,481,65,0.105784637114804,1
769,482,65,0.109720005164781,1
772,477,65,0.104659202541058,1
784,470,65,0.1110482988213,1
784,471,65,0.105672694861837,1
763,495,66,0.10835036336839,1
763,503,66,0.114010418437375,1
763,504,66,0.131168401838512,1
763,505,66,0.139845376472638,1
764,493,66,0.14541873095052,1
764,494,66,0.123485622982954,1
765,491,66,0.105622278462534,1
765,492,66,0.125428227080103,1
765,493,66,0.126311016001094,1
784,471,66,0.109352121606854,1
