x,y,z,signal,mito.p
120,511,1,0.202110086929473,1
120,512,1,0.225866294281326,1
120,514,1,0.110696432508816,1
121,510,1,0.183158852437089,1
121,511,1,0.238508563336962,1
121,512,1,0.251237945684316,1
121,513,1,0.191028651595108,1
121,514,1,0.120618379891763,1
122,507,1,0.108590555125603,1
122,508,1,0.116337503349567,1
122,509,1,0.126482030212183,1
122,510,1,0.154657848436882,1
122,511,1,0.19019698177987,1
122,512,1,0.195660847900327,1
122,513,1,0.152640422833864,1
123,504,1,0.106752832754705,1
123,505,1,0.103413315158444,1
123,506,1,0.108189120123184,1
123,507,1,0.117752419518696,1
123,508,1,0.12041101456445,1
123,509,1,0.12995413624617,1
123,510,1,0.152998312344496,1
123,511,1,0.176301452500926,1
123,512,1,0.178426682196702,1
123,513,1,0.138730125565389,1
123,524,1,0.106574367624427,1
123,525,1,0.11466389082003,1
124,502,1,0.166015492022564,1
124,503,1,0.148425991090485,1
124,504,1,0.126383740541683,1
124,505,1,0.119199035556589,1
124,506,1,0.127873009745713,1
124,507,1,0.141688608954434,1
124,508,1,0.137970098345887,1
124,509,1,0.145808565719472,1
124,510,1,0.161883410782738,1
124,511,1,0.171665430349477,1
124,512,1,0.16340760338195,1
124,513,1,0.12364182458823,1
124,523,1,0.111496725923336,1
124,524,1,0.123408068729777,1
124,525,1,0.139195116462329,1
124,526,1,0.134139578559949,1
125,500,1,0.219222639800883,1
125,501,1,0.214105486812275,1
125,502,1,0.213637060461577,1
125,503,1,0.193615793664327,1
125,504,1,0.153149951934879,1
125,505,1,0.1283440238408,1
125,506,1,0.130426756527429,1
125,507,1,0.148514431716609,1
125,508,1,0.15781761818474,1
125,509,1,0.175070968889869,1
125,510,1,0.172444363718717,1
125,511,1,0.157022054096172,1
125,512,1,0.134897229962404,1
125,522,1,0.104412519114731,1
125,523,1,0.113402153503034,1
125,524,1,0.124609964457777,1
125,525,1,0.147496901622257,1
125,526,1,0.142775015435003,1
125,527,1,0.110019068106845,1
126,499,1,0.231705227181203,1
126,500,1,0.217154273557241,1
126,501,1,0.204508859053683,1
126,502,1,0.204882966583029,1
126,503,1,0.192578576635292,1
126,504,1,0.153419333894963,1
126,505,1,0.12233939722153,1
126,506,1,0.118349151143993,1
126,507,1,0.138487256831221,1
126,508,1,0.162656131334631,1
126,509,1,0.183642693713414,1
126,510,1,0.161190196446384,1
126,511,1,0.124329473043333,1
126,524,1,0.105763221299171,1
126,525,1,0.122263806084786,1
126,526,1,0.117942819504561,1
127,499,1,0.203111923246431,1
127,500,1,0.180503057063065,1
127,501,1,0.163182692701517,1
127,502,1,0.155163183607335,1
127,503,1,0.144854223435309,1
127,504,1,0.122685184565515,1
127,505,1,0.104296293698637,1
127,506,1,0.103155711896959,1
127,507,1,0.116713049754026,1
127,508,1,0.128521842034981,1
127,509,1,0.131613259637942,1
127,510,1,0.107619715970961,1
128,500,1,0.158823715356684,1
128,501,1,0.132800454300836,1
128,502,1,0.116397322630423,1
128,503,1,0.103224342893621,1
129,500,1,0.147593852804281,1
129,501,1,0.111326024026225,1
130,500,1,0.124492043622946,1
131,499,1,0.141000536644647,1
132,498,1,0.152105930922751,1
132,499,1,0.10824271543262,1
133,498,1,0.116366225081472,1
134,497,1,0.135134477044967,1
139,490,1,0.169663542366863,1
139,495,1,0.136443128383085,1
140,490,1,0.162831272551858,1
140,495,1,0.112482098832026,1
141,490,1,0.161249937648745,1
142,490,1,0.149049403252759,1
143,491,1,0.154160421502514,1
143,494,1,0.128025318580335,1
144,492,1,0.145330558022092,1
144,493,1,0.129405434049059,1
144,525,1,0.108518332518194,1
145,492,1,0.153968649565959,1
145,493,1,0.113153417727709,1
147,493,1,0.103435165982833,1
148,493,1,0.108051802359505,1
149,492,1,0.151245740148881,1
149,493,1,0.104270538949524,1
150,493,1,0.107934896545102,1
151,493,1,0.127022311085959,1
152,493,1,0.142472795890947,1
153,492,1,0.182669066041111,1
153,493,1,0.127384193753881,1
154,492,1,0.124087452018534,1
154,493,1,0.114034656232881,1
155,493,1,0.129792803768398,1
155,494,1,0.142781596336682,1
155,495,1,0.127906137335521,1
156,494,1,0.168259233718916,1
156,495,1,0.182450635875721,1
156,496,1,0.130045365389954,1
157,495,1,0.200803387553717,1
157,496,1,0.15753476210732,1
158,496,1,0.133483752668388,1
119,511,2,0.107869779080692,1
119,512,2,0.12611229507853,1
120,510,2,0.161353302421388,1
120,511,2,0.215582776544435,1
120,512,2,0.247628309959309,1
120,513,2,0.204962584339274,1
121,510,2,0.189104507484872,1
121,511,2,0.272460773587446,1
121,512,2,0.29611315884976,1
121,513,2,0.225913989087393,1
121,514,2,0.134402747702685,1
122,508,2,0.107469738337103,1
122,509,2,0.113440099651359,1
122,510,2,0.142418062866305,1
122,511,2,0.184689146312942,1
122,512,2,0.195463019303413,1
122,513,2,0.153871040293768,1
123,507,2,0.116408722090619,1
123,508,2,0.126456375849706,1
123,509,2,0.131509537935039,1
123,510,2,0.152799145259105,1
123,511,2,0.177889167532446,1
123,512,2,0.182998066508779,1
123,513,2,0.143418069915678,1
123,524,2,0.109796667092306,1
123,525,2,0.120483672180615,1
124,502,2,0.145562562691454,1
124,503,2,0.132303830459554,1
124,504,2,0.116788562812275,1
124,505,2,0.111039275178151,1
124,506,2,0.119740654918843,1
124,507,2,0.145920809132346,1
124,508,2,0.151486790769534,1
124,509,2,0.152539679267822,1
124,510,2,0.177850897916072,1
124,511,2,0.211828450215055,1
124,512,2,0.208717758378023,1
124,513,2,0.148094224413298,1
124,522,2,0.106878026043595,1
124,523,2,0.121413107425033,1
124,524,2,0.140858868793418,1
124,525,2,0.169715698801187,1
124,526,2,0.160478087114363,1
125,501,2,0.197534307913563,1
125,502,2,0.201615805443026,1
125,503,2,0.181458592832787,1
125,504,2,0.14496206099028,1
125,505,2,0.123457760114489,1
125,506,2,0.12352288873297,1
125,507,2,0.14496536259519,1
125,508,2,0.154893656644333,1
125,509,2,0.170542717368967,1
125,510,2,0.185511402092557,1
125,511,2,0.198274135111132,1
125,512,2,0.179060344949896,1
125,513,2,0.118561613881589,1
125,522,2,0.111548770816954,1
125,523,2,0.128148158360319,1
125,524,2,0.152650182645676,1
125,525,2,0.194975385643069,1
125,526,2,0.183435250307607,1
125,527,2,0.12207461073855,1
126,500,2,0.206370897298582,1
126,501,2,0.198248815370773,1
126,502,2,0.199788969445074,1
126,503,2,0.18135013064986,1
126,504,2,0.141922398275099,1
126,505,2,0.115649910664817,1
126,506,2,0.111010419597399,1
126,507,2,0.128225322221024,1
126,508,2,0.151292743402568,1
126,509,2,0.17814760734923,1
126,510,2,0.165430985258691,1
126,511,2,0.13980476450143,1
126,512,2,0.113822081954579,1
126,521,2,0.106517359169373,1
126,522,2,0.114525424187076,1
126,523,2,0.110481861651868,1
126,524,2,0.122262121820119,1
126,525,2,0.153053469223822,1
126,526,2,0.147333829109465,1
126,527,2,0.108811394570252,1
127,500,2,0.178939323283426,1
127,501,2,0.161743226422905,1
127,502,2,0.149453403691426,1
127,503,2,0.134746940014568,1
127,504,2,0.113915508450279,1
127,507,2,0.111652425595433,1
127,508,2,0.123720393861835,1
127,509,2,0.131361199949566,1
127,510,2,0.108612662493617,1
127,525,2,0.112971907536145,1
127,526,2,0.108100043715034,1
128,500,2,0.154282380110918,1
128,501,2,0.129048269553019,1
128,502,2,0.112737393200889,1
129,501,2,0.108902478711118,1
130,500,2,0.120599953367061,1
132,499,2,0.112107098977029,1
133,498,2,0.124355283562799,1
144,494,2,0.105689392505589,1
144,525,2,0.109353259322059,1
145,493,2,0.110161739824431,1
153,493,2,0.117201932670282,1
154,492,2,0.106311923496282,1
155,493,2,0.12419659459977,1
155,494,2,0.140228552261416,1
155,495,2,0.120804630563349,1
156,494,2,0.153361221186916,1
156,495,2,0.174686398842261,1
156,496,2,0.131864962396059,1
157,495,2,0.188310627660971,1
157,496,2,0.165768607822965,1
158,496,2,0.132463222129034,1
119,511,3,0.110001734681066,1
119,512,3,0.118853482448088,1
119,513,3,0.118960427677407,1
120,510,3,0.177288710447554,1
120,511,3,0.227080615644021,1
120,512,3,0.257313077184117,1
120,513,3,0.228874948680121,1
120,514,3,0.146417209892215,1
121,510,3,0.188447577340318,1
121,511,3,0.292294317375784,1
121,512,3,0.325081574180236,1
121,513,3,0.248546869984851,1
121,514,3,0.142964511941146,1
122,508,3,0.103568167121173,1
122,509,3,0.106883246148656,1
122,510,3,0.132931035005846,1
122,511,3,0.180170186132885,1
122,512,3,0.192407116261377,1
122,513,3,0.152373461307109,1
123,507,3,0.11700379175939,1
123,508,3,0.143867099337529,1
123,509,3,0.143922222754643,1
123,510,3,0.160885690317847,1
123,511,3,0.192819950723993,1
123,512,3,0.193488101863613,1
123,513,3,0.151494832854467,1
123,521,3,0.11109986408988,1
123,522,3,0.109279698226173,1
123,523,3,0.105529688522131,1
123,524,3,0.112858504099924,1
123,525,3,0.12748923163712,1
124,503,3,0.123939716352876,1
124,504,3,0.115234365763035,1
124,505,3,0.105839158212104,1
124,506,3,0.111737508846293,1
124,507,3,0.152563627057491,1
124,508,3,0.193879498202455,1
124,509,3,0.186995172339761,1
124,510,3,0.221079123318602,1
124,511,3,0.293361895785109,2
124,512,3,0.280589302568086,1
124,513,3,0.18247736102898,1
124,520,3,0.106258004718797,1
124,521,3,0.121360014048775,1
124,522,3,0.121603808570806,1
124,523,3,0.12986558407934,1
124,524,3,0.161092999874807,1
124,525,3,0.202874252309183,1
124,526,3,0.186907679809642,1
125,501,3,0.188742290194831,1
125,502,3,0.194662469345268,1
125,503,3,0.175104754569845,1
125,504,3,0.146578865838035,1
125,505,3,0.122797004123705,1
125,506,3,0.117658268008403,1
125,507,3,0.142439132905749,1
125,508,3,0.172053145845006,1
125,509,3,0.179504990821985,1
125,510,3,0.213426047753164,1
125,511,3,0.262403393478759,2
125,512,3,0.229684868057606,1
125,513,3,0.138521410595528,1
125,522,3,0.114948241542917,1
125,523,3,0.138013878073158,1
125,524,3,0.182186909029452,1
125,525,3,0.239015984318626,1
125,526,3,0.217251023965993,1
126,500,3,0.21087823493703,1
126,501,3,0.213253650437315,1
126,502,3,0.208185664592099,1
126,503,3,0.17168372302533,1
126,504,3,0.132411679168595,1
126,505,3,0.110989896107417,1
126,506,3,0.107522920945926,1
126,507,3,0.120725548202495,1
126,508,3,0.144791504096087,1
126,509,3,0.165747928175994,1
126,510,3,0.162278978744,1
126,511,3,0.150772662550725,1
126,512,3,0.12036257243565,1
126,521,3,0.107605226833196,1
126,522,3,0.115443314968379,1
126,523,3,0.114674375646434,1
126,524,3,0.132867044102571,1
126,525,3,0.171301740722111,1
126,526,3,0.165919444320262,1
126,527,3,0.111725194752304,1
127,500,3,0.197929295863151,1
127,501,3,0.186167417603319,1
127,502,3,0.16196470164958,1
127,503,3,0.129201493021433,1
127,504,3,0.10607610413476,1
127,507,3,0.110527716036279,1
127,508,3,0.125922586645044,1
127,509,3,0.133619832330225,1
127,510,3,0.108032751206848,1
127,521,3,0.116993251162633,1
127,522,3,0.110976555838928,1
127,525,3,0.128075556514508,1
127,526,3,0.123411292256193,1
128,500,3,0.154491340470332,1
128,501,3,0.132632886697575,1
128,502,3,0.112161162757433,1
128,525,3,0.112970658280233,1
129,500,3,0.12940909258423,1
129,501,3,0.106400866055584,1
130,500,3,0.112543602377548,1
131,499,3,0.129338676936264,1
132,499,3,0.114493992016005,1
133,498,3,0.126810283357118,1
139,491,3,0.141479603978737,1
143,495,3,0.104154179684583,1
144,494,3,0.119858966146146,1
145,492,3,0.126332699514423,1
145,493,3,0.108661461552677,1
155,493,3,0.112577231900535,1
155,494,3,0.130616688042328,1
155,495,3,0.110147317611091,1
156,494,3,0.1311513472645,1
156,495,3,0.151431633890207,1
156,496,3,0.130081270343352,1
157,495,3,0.154895240522364,1
157,496,3,0.159804548558622,1
119,512,4,0.105404026762274,1
120,511,4,0.200311470730246,1
120,512,4,0.226299897623478,1
120,513,4,0.211656275980619,1
121,510,4,0.163350505694332,1
121,511,4,0.255798488239728,1
121,512,4,0.289026420067119,1
121,513,4,0.223448359463752,1
121,514,4,0.133850364662262,1
122,510,4,0.119603236768528,1
122,511,4,0.159473997675135,1
122,512,4,0.168691665883651,1
122,513,4,0.134043419316941,1
123,507,4,0.110685590752151,1
123,508,4,0.150204139570083,1
123,509,4,0.149729210396201,1
123,510,4,0.167803411468044,1
123,511,4,0.205057996259549,2
123,512,4,0.194660974699802,1
123,513,4,0.144553442766367,1
123,521,4,0.113125499088891,1
123,522,4,0.111155288666902,1
123,524,4,0.107241447973265,1
124,503,4,0.11494846462433,1
124,504,4,0.109072968680887,1
124,507,4,0.146201590552627,1
124,508,4,0.221054227432928,1
124,509,4,0.215742926690718,1
124,510,4,0.265072629507906,2
124,511,4,0.364384302885308,2
124,512,4,0.325625580513607,2
124,513,4,0.189730987016573,1
124,520,4,0.11312721681577,1
124,521,4,0.126771099106952,1
124,522,4,0.125220259432975,1
124,523,4,0.126955141272551,1
124,524,4,0.160426019912604,1
124,525,4,0.202725992402204,1
125,501,4,0.185890897038023,1
125,502,4,0.183172181551506,1
125,503,4,0.160391308444765,1
125,504,4,0.136939161058623,1
125,505,4,0.114322219328113,1
125,506,4,0.10761241005469,1
125,507,4,0.13469453819069,1
125,508,4,0.187946201864943,1
125,509,4,0.197592487546034,1
125,510,4,0.254444540220731,2
125,511,4,0.327756253395857,2
125,512,4,0.266998692118293,2
125,513,4,0.145201594657325,1
125,522,4,0.115237020431848,1
125,523,4,0.136950906295009,1
125,524,4,0.182546795118729,1
125,525,4,0.233953107037763,1
125,526,4,0.20916046344182,1
126,500,4,0.224518904855867,1
126,501,4,0.237982604289891,1
126,502,4,0.21877165841667,1
126,503,4,0.161753666633026,1
126,504,4,0.121689706068823,1
126,505,4,0.105380056664464,1
126,506,4,0.104305908507531,1
126,507,4,0.11552007728254,1
126,508,4,0.142273416878215,1
126,509,4,0.160989155477126,1
126,510,4,0.171914545363204,1
126,511,4,0.173761882542996,2
126,512,4,0.134908015948715,1
126,521,4,0.105840630549429,1
126,522,4,0.114552026645558,1
126,523,4,0.114220460741642,1
126,524,4,0.127320872094844,1
126,525,4,0.158659817442664,1
126,526,4,0.155441232280309,1
127,500,4,0.223667046172766,1
127,501,4,0.228285991442062,1
127,502,4,0.190635292139833,1
127,503,4,0.132634570962242,1
127,504,4,0.10307186674794,1
127,506,4,0.103444111547488,1
127,507,4,0.111553756686531,1
127,508,4,0.12691344735649,1
127,509,4,0.133686879448857,1
127,510,4,0.111168495086543,1
127,521,4,0.121807058046051,1
127,522,4,0.116059577371371,1
127,525,4,0.12605136039061,1
127,526,4,0.123025506414884,1
128,500,4,0.165822247748685,1
128,501,4,0.152233265793205,1
128,502,4,0.12821900901704,1
128,503,4,0.103306369929125,1
128,525,4,0.118158483460432,1
128,526,4,0.103991709491605,1
129,500,4,0.133039943351598,1
129,501,4,0.114064292598578,1
130,500,4,0.118661710511534,1
131,500,4,0.113596156253717,1
132,499,4,0.129320495801117,1
133,498,4,0.136431706614748,1
139,524,4,0.109816755573533,1
145,492,4,0.127186499005815,1
145,493,4,0.110566208734066,1
150,492,4,0.120186471968348,1
151,493,4,0.107701363768063,1
152,493,4,0.110679087928967,1
155,494,4,0.109869503173601,1
156,495,4,0.126396277717085,1
156,496,4,0.122149588401408,1
157,496,4,0.137878724199185,1
120,512,5,0.178250849427096,1
121,511,5,0.187669290907175,1
121,512,5,0.210719936366473,1
121,513,5,0.169796019263883,1
122,510,5,0.105066828052684,1
122,511,5,0.131327916202769,1
122,512,5,0.136966321220637,1
122,513,5,0.112594119163488,1
123,507,5,0.106571712955614,1
123,508,5,0.14692569051059,1
123,509,5,0.147762747741948,1
123,510,5,0.164505286627938,1
123,511,5,0.198808058164641,2
123,512,5,0.182092434051111,1
123,513,5,0.129619357969909,1
123,521,5,0.110035040736004,1
123,522,5,0.111298551550233,1
124,507,5,0.13272951441155,1
124,508,5,0.219533592982251,1
124,509,5,0.22888257806444,1
124,510,5,0.290407472477777,2
124,511,5,0.388155679773235,2
124,512,5,0.328428196919496,2
124,513,5,0.180380139204586,1
124,520,5,0.111090126586209,1
124,521,5,0.123659581868692,1
124,522,5,0.127780029412838,1
124,523,5,0.131900621959902,1
124,524,5,0.162292408245053,1
125,502,5,0.168363725052694,1
125,503,5,0.139999336109715,1
125,504,5,0.119277727524972,1
125,507,5,0.120921580994035,1
125,508,5,0.185425526902681,1
125,509,5,0.210020241515076,1
125,510,5,0.288063243759007,2
125,511,5,0.364884540645478,2
125,512,5,0.283397919863981,2
125,513,5,0.147807620568142,1
125,522,5,0.118668012561447,1
125,523,5,0.141198922945092,1
125,524,5,0.175205163513768,1
125,525,5,0.204255304719841,1
126,501,5,0.259053558367155,1
126,502,5,0.219755045900785,1
126,503,5,0.147356471872869,1
126,504,5,0.109041090346991,1
126,507,5,0.109106653974227,1
126,508,5,0.133771706156092,1
126,509,5,0.15168622555262,1
126,510,5,0.176133762202888,1
126,511,5,0.189371625168616,2
126,512,5,0.147437796201923,1
126,522,5,0.111464736048734,1
126,523,5,0.115868820455245,1
126,524,5,0.121197711166858,1
126,525,5,0.137773530158956,1
126,526,5,0.130616464960915,1
127,500,5,0.245561170663438,1
127,501,5,0.270706193659116,1
127,502,5,0.216897953013879,1
127,503,5,0.136752341529434,1
127,507,5,0.108249586340136,1
127,508,5,0.119477508084247,1
127,509,5,0.124094568315604,1
127,510,5,0.10795273190406,1
127,521,5,0.116696987892301,1
127,522,5,0.114841742476423,1
127,525,5,0.11881912791051,1
128,500,5,0.182212585700071,1
128,501,5,0.178373923442564,1
128,502,5,0.147770867905375,1
128,503,5,0.112775908206817,1
128,521,5,0.105626628550084,1
128,525,5,0.112249201837013,1
129,500,5,0.138721481160641,1
129,501,5,0.121679656251174,1
129,502,5,0.10891693438667,1
130,500,5,0.130264409029229,1
130,501,5,0.111461780220014,1
131,500,5,0.133418434430707,1
131,501,5,0.103716594339211,1
132,499,5,0.151353767323053,1
132,500,5,0.107922292445277,1
133,498,5,0.141078882836839,1
133,499,5,0.10505478165639,1
133,523,5,0.111121949149752,1
135,497,5,0.118277999327365,1
136,497,5,0.107256539430844,1
141,496,5,0.114852606541229,1
145,493,5,0.111909950778425,1
150,492,5,0.103356161700473,1
151,492,5,0.158203716340026,1
156,496,5,0.104610581947128,1
122,511,6,0.106131930258326,1
122,512,6,0.106981903903487,1
123,508,6,0.128569793384672,1
123,509,6,0.137365860031048,1
123,510,6,0.159312397499668,1
123,511,6,0.185928151633969,2
123,512,6,0.165347352037014,1
123,513,6,0.116337994128676,1
123,522,6,0.108135625200383,1
123,523,6,0.104957183538269,1
124,507,6,0.117291901404083,1
124,508,6,0.183328405464924,1
124,509,6,0.219354592456582,1
124,510,6,0.303076109756412,2
124,511,6,0.380992624839259,2
124,512,6,0.307561273102423,2
124,513,6,0.167654203465061,1
124,514,6,0.104363608514964,1
124,521,6,0.116782383457139,1
124,522,6,0.132131723149542,1
124,523,6,0.142667077493397,1
124,524,6,0.159206121514587,1
125,502,6,0.16340482601836,1
125,503,6,0.12581937802939,1
125,507,6,0.110280374519784,1
125,508,6,0.163897334007575,1
125,509,6,0.214597805182288,2
125,510,6,0.322424830710208,2
125,511,6,0.393585972141058,2
125,512,6,0.299975880437643,2
125,513,6,0.158120250429409,1
125,521,6,0.107978297033972,1
125,522,6,0.132676822581835,1
125,523,6,0.153785176257963,1
125,524,6,0.165025044011732,1
125,525,6,0.166713379914517,1
126,502,6,0.216880151117134,1
126,503,6,0.137566822921811,1
126,507,6,0.107848497113907,1
126,508,6,0.127718135474844,1
126,509,6,0.151341430920922,1
126,510,6,0.191004737267651,2
126,511,6,0.210006455083762,2
126,512,6,0.166506828834361,1
126,513,6,0.107847627096396,1
126,522,6,0.118717101626344,1
126,523,6,0.127719362422614,1
126,524,6,0.12318343690111,1
126,525,6,0.123226391227154,1
126,526,6,0.110368770529625,1
127,502,6,0.223489562600705,1
127,503,6,0.137173742318303,1
127,506,6,0.104740549178253,1
127,507,6,0.108316956926816,1
127,508,6,0.116211573892015,1
127,509,6,0.124249297583555,1
127,510,6,0.120081188695555,1
127,511,6,0.10963264648351,1
127,521,6,0.115745311431022,1
127,522,6,0.12112760783287,1
127,523,6,0.114249037470628,1
127,524,6,0.106208302180014,1
127,525,6,0.113071379538134,1
128,501,6,0.195113026874796,1
128,502,6,0.15691211957592,1
128,503,6,0.119240071382483,1
128,521,6,0.115450475881732,1
128,522,6,0.105904119519525,1
129,500,6,0.147412521077847,1
129,501,6,0.128862587739035,1
129,502,6,0.114571010873791,1
130,501,6,0.123240344969528,1
131,501,6,0.120599618744942,1
132,500,6,0.119333865962515,1
132,523,6,0.112734481988451,1
132,524,6,0.105547535035159,1
133,499,6,0.109138621540688,1
133,523,6,0.119475979976569,1
133,524,6,0.106307763027932,1
134,497,6,0.124332150020287,1
135,497,6,0.116283238795892,1
136,497,6,0.109617856185838,1
141,496,6,0.114272929489944,1
145,493,6,0.108902746408813,1
123,508,7,0.107608952292791,1
123,509,7,0.122428205931985,1
123,510,7,0.148713375720586,1
123,511,7,0.16334578752245,2
123,512,7,0.141269360901199,1
123,513,7,0.103999205027077,1
123,522,7,0.106506138174307,1
124,507,7,0.108520886800371,1
124,508,7,0.142603744680289,1
124,509,7,0.199052733858253,1
124,510,7,0.302615915109848,2
124,511,7,0.349215592212888,2
124,512,7,0.26319535480251,2
124,513,7,0.148127653163013,1
124,514,7,0.107536227752202,1
124,515,7,0.105039600966246,1
124,521,7,0.115253093447644,1
124,522,7,0.142379893636567,1
124,523,7,0.163423040615719,1
125,507,7,0.104721520333737,1
125,508,7,0.13847455234476,1
125,509,7,0.210311608148397,2
125,510,7,0.345068241050353,2
125,511,7,0.399996484236934,2
125,512,7,0.293429645610191,2
125,513,7,0.159602604109641,1
125,514,7,0.114886648764829,1
125,515,7,0.11626444418686,1
125,516,7,0.108772500325922,1
125,520,7,0.104703026884612,1
125,521,7,0.121382366806342,1
125,522,7,0.156081732478807,1
125,523,7,0.179310329981134,1
125,524,7,0.174840905028799,1
126,503,7,0.127981081536167,1
126,507,7,0.105227736675771,1
126,508,7,0.119250734674017,1
126,509,7,0.15059302624303,1
126,510,7,0.205749526331236,2
126,511,7,0.22466116387284,2
126,512,7,0.175767038668307,1
126,513,7,0.115751055777403,1
126,516,7,0.106114976070949,1
126,521,7,0.108997065230165,1
126,522,7,0.131667033412509,1
126,523,7,0.14588076601874,1
126,524,7,0.137384253093537,1
126,525,7,0.121834430135408,1
127,503,7,0.138163543393038,1
127,504,7,0.108069347712626,1
127,505,7,0.107165923760946,1
127,506,7,0.108377255832709,1
127,507,7,0.109465223883167,1
127,508,7,0.115637507338263,1
127,509,7,0.133865065727369,1
127,510,7,0.150406362870829,1
127,511,7,0.141810032167447,1
127,512,7,0.112776488218491,1
127,520,7,0.11221373189237,1
127,521,7,0.118945414298323,1
127,522,7,0.13129599325259,1
127,523,7,0.135222951133303,1
127,524,7,0.12152401234943,1
127,525,7,0.11484428560453,1
128,502,7,0.162483767480994,1
128,503,7,0.127886617711897,1
128,504,7,0.108041663309291,1
128,509,7,0.11314407061651,1
128,510,7,0.122728540438102,1
128,511,7,0.107848497113907,1
128,520,7,0.122426153582986,1
128,521,7,0.123269847486377,1
128,522,7,0.116229108091065,1
128,523,7,0.108823708664241,1
129,501,7,0.135450204168571,1
129,502,7,0.119801076519512,1
129,503,7,0.108447872253946,1
130,501,7,0.133382451398814,1
130,502,7,0.1080506646443,1
131,501,7,0.13805800357662,1
132,500,7,0.134305093814211,1
132,501,7,0.109168681761069,1
132,523,7,0.130071332066409,1
132,524,7,0.133690560292169,1
133,496,7,0.136896965209383,1
133,499,7,0.112977473417396,1
133,523,7,0.123778171947762,1
133,524,7,0.113726725804657,1
134,496,7,0.146138101582531,1
134,497,7,0.110120480917125,1
135,496,7,0.159366528204495,1
135,497,7,0.110035888445373,1
136,496,7,0.154473360108457,1
136,497,7,0.107490261827085,1
137,496,7,0.143898854976647,1
138,496,7,0.149351087401424,1
139,496,7,0.163797438150901,1
140,496,7,0.156671526272164,1
141,496,7,0.115444575378362,1
144,494,7,0.125297936380929,1
145,493,7,0.105887890346741,1
123,509,8,0.106072713297285,1
123,510,8,0.129576459414219,1
123,511,8,0.135681907678025,1
123,512,8,0.11783810508937,1
124,507,8,0.105250937142707,1
124,508,8,0.118585093200291,1
124,509,8,0.171953562302311,1
124,510,8,0.269904282904352,2
124,511,8,0.293961917861245,2
124,512,8,0.214170782741815,1
124,513,8,0.131175551597794,1
124,514,8,0.108433483502817,1
124,515,8,0.111517818270921,1
124,519,8,0.106928319748121,1
124,520,8,0.106362540668857,1
124,521,8,0.115936324890773,1
124,522,8,0.152035961437612,1
124,523,8,0.191419691003689,1
125,507,8,0.108147504285617,1
125,508,8,0.129479151301934,1
125,509,8,0.197362981388496,2
125,510,8,0.330178181370721,2
125,511,8,0.372926335572803,2
125,512,8,0.27109364145695,2
125,513,8,0.159303117312893,1
125,514,8,0.12861194461763,1
125,515,8,0.139726027916765,1
125,516,8,0.134278591742365,1
125,517,8,0.106691351517324,1
125,518,8,0.110784505050608,1
125,519,8,0.131310705471768,1
125,520,8,0.126440882845584,1
125,521,8,0.13181984418031,1
125,522,8,0.174162949461084,1
125,523,8,0.21556046840315,1
125,524,8,0.215730880294425,1
126,503,8,0.121673376509402,1
126,505,8,0.104353982552,1
126,506,8,0.102916111305489,1
126,507,8,0.10857260822594,1
126,508,8,0.119403389284829,1
126,509,8,0.148430374640248,1
126,510,8,0.207886244719774,2
126,511,8,0.230993932096338,2
126,512,8,0.183648471522007,1
126,513,8,0.130556534139353,1
126,514,8,0.115902528056726,1
126,515,8,0.133074085961835,1
126,516,8,0.143396375248278,1
126,517,8,0.12245712843716,1
126,518,8,0.117965339573188,1
126,519,8,0.130277526216305,1
126,520,8,0.123882060961725,1
126,521,8,0.119945588658755,1
126,522,8,0.144692768262761,1
126,523,8,0.175260197698317,1
126,524,8,0.184098705583487,1
126,525,8,0.155928843632511,1
127,503,8,0.141464278285675,1
127,504,8,0.120637910669458,1
127,505,8,0.120543089914927,1
127,506,8,0.115495058702089,1
127,507,8,0.112412921285902,1
127,508,8,0.117343901681418,1
127,509,8,0.139984991974869,1
127,510,8,0.175673210626064,1
127,511,8,0.177895179576522,1
127,512,8,0.142572948291245,1
127,513,8,0.117945351478597,1
127,514,8,0.109487353559322,1
127,515,8,0.110493729583031,1
127,516,8,0.119695927095567,1
127,517,8,0.122622476380363,1
127,518,8,0.127989335548443,1
127,519,8,0.133950762452114,1
127,520,8,0.131666553787472,1
127,521,8,0.123670144773591,1
127,522,8,0.138416640409984,1
127,523,8,0.154760042032107,1
127,524,8,0.151092527834537,1
127,525,8,0.138392402614478,1
128,502,8,0.164691659994302,1
128,503,8,0.141281451913775,1
128,504,8,0.122905421690349,1
128,505,8,0.116083893245371,1
128,506,8,0.108127281955542,1
128,507,8,0.104825018955228,1
128,508,8,0.112262084788605,1
128,509,8,0.135373207618926,1
128,510,8,0.16121356422438,1
128,511,8,0.148778459722785,1
128,512,8,0.117197247960612,1
128,513,8,0.1080058698966,1
128,517,8,0.118663762860532,1
128,518,8,0.1429645677115,1
128,519,8,0.151805730265482,1
128,520,8,0.147079047827852,1
128,521,8,0.126325081284174,1
128,522,8,0.121277908934776,1
128,523,8,0.122290620470611,1
128,524,8,0.112823502626248,1
128,525,8,0.103602276269197,1
129,501,8,0.142053369372582,1
129,502,8,0.127175255702608,1
129,503,8,0.119812241744225,1
129,504,8,0.10845835708035,1
129,518,8,0.109683263656085,1
129,519,8,0.11342152812374,1
129,520,8,0.108545392293572,1
130,501,8,0.141922699435006,1
130,502,8,0.117351374908749,1
131,501,8,0.154593244059721,1
131,502,8,0.11571628853921,1
131,524,8,0.117510242336908,1
132,501,8,0.132142732217266,1
132,523,8,0.131630091130542,1
132,524,8,0.150098532829241,1
133,496,8,0.120632891337668,1
133,500,8,0.10499452736678,1
133,523,8,0.119169421499034,1
133,524,8,0.114441155183372,1
134,496,8,0.123364110537375,1
135,496,8,0.130483586517352,1
136,495,8,0.15087726542521,1
136,496,8,0.127548325903384,1
137,495,8,0.13019514225054,1
137,496,8,0.119199582106051,1
138,495,8,0.137740447185431,1
138,496,8,0.120868086071234,1
139,494,8,0.177340599184182,1
139,495,8,0.171734362506047,1
139,496,8,0.138070696909011,1
140,495,8,0.189767817757834,1
140,496,8,0.141273599448043,1
141,495,8,0.146128051764882,1
141,496,8,0.106780260614414,1
142,495,8,0.106111217149143,1
144,494,8,0.113492345318248,1
147,498,8,0.110477243866622,1
123,510,9,0.110002270076457,1
123,511,9,0.113307756603188,1
123,512,9,0.104036638088153,1
124,508,9,0.110134010804814,1
124,509,9,0.148140402265758,1
124,510,9,0.217348242845712,1
124,511,9,0.229850349849657,1
124,512,9,0.172227160501098,1
124,513,9,0.120706474741696,1
124,514,9,0.109096381075165,1
124,515,9,0.113704484587796,1
124,516,9,0.10447049797393,1
124,519,9,0.117121221815114,1
124,520,9,0.111303626652375,1
124,521,9,0.114715054542067,1
124,522,9,0.15626010837652,1
124,523,9,0.218474112428214,1
124,524,9,0.233859078222248,1
125,507,9,0.122602532902055,1
125,508,9,0.136318727033211,1
125,509,9,0.182566370512706,1
125,510,9,0.286756901313512,2
125,511,9,0.323071342952782,2
125,512,9,0.24241824356225,1
125,513,9,0.161065192776695,1
125,514,9,0.141425038265155,1
125,515,9,0.15471371917673,1
125,516,9,0.147872816111047,1
125,517,9,0.111801153973379,1
125,518,9,0.124713407308914,1
125,519,9,0.166920031381309,1
125,520,9,0.151679823116071,1
125,521,9,0.13846292980315,1
125,522,9,0.185684178646808,1
125,523,9,0.257108489220394,1
125,524,9,0.273228463653479,1
125,525,9,0.192933476854991,1
126,503,9,0.118071481709421,1
126,504,9,0.110259103707069,1
126,505,9,0.119925845953718,1
126,506,9,0.123311954103052,1
126,507,9,0.132353321070994,1
126,508,9,0.135240028015456,1
126,509,9,0.151516036742758,1
126,510,9,0.210246847614247,1
126,511,9,0.243733040793292,1
126,512,9,0.20073711006596,1
126,513,9,0.154957000611511,1
126,514,9,0.14726949243,1
126,515,9,0.168151730786065,1
126,516,9,0.173406591930824,1
126,517,9,0.137041053493941,1
126,518,9,0.139635244935807,1
126,519,9,0.171328398950946,1
126,520,9,0.156115886243114,1
126,521,9,0.135343158552616,1
126,522,9,0.162960771312016,1
126,523,9,0.221600910743253,1
126,524,9,0.263952426193291,3
126,525,9,0.219882849242206,1
127,503,9,0.149561843566212,1
127,504,9,0.138925645269679,1
127,505,9,0.142483414566199,1
127,506,9,0.134023029675806,1
127,507,9,0.128997886615927,1
127,508,9,0.131858303415885,1
127,509,9,0.151868483066916,1
127,510,9,0.197541334978068,1
127,511,9,0.212032926638071,1
127,512,9,0.177953046895015,1
127,513,9,0.1620718364981,1
127,514,9,0.15614534414368,1
127,515,9,0.147740696144288,1
127,516,9,0.150426261732855,1
127,517,9,0.150191524316186,1
127,518,9,0.161359950247491,1
127,519,9,0.166125783473076,1
127,520,9,0.150058445099352,1
127,521,9,0.132859325485686,1
127,522,9,0.149619487803291,1
127,523,9,0.180503101679348,1
127,524,9,0.202449259909566,1
127,525,9,0.179637824649265,1
128,502,9,0.166952779732715,1
128,503,9,0.155959294245365,1
128,504,9,0.139946320811952,1
128,505,9,0.132236013710048,1
128,506,9,0.119928768320226,1
128,507,9,0.117255539133789,1
128,508,9,0.13297694516061,1
128,509,9,0.163501208342781,1
128,510,9,0.193736190702841,1
128,511,9,0.182207220592092,1
128,512,9,0.157710271408878,1
128,513,9,0.169413869649604,1
128,514,9,0.160414207751794,1
128,515,9,0.126716042614261,1
128,516,9,0.126629542796429,1
128,517,9,0.16519361548135,1
128,518,9,0.206309081439082,1
128,519,9,0.196777214214641,1
128,520,9,0.16127849206959,1
128,521,9,0.128203806018754,1
128,522,9,0.127691042237253,1
128,523,9,0.139228389055055,1
128,524,9,0.138597035194484,1
128,525,9,0.11757243743481,1
129,501,9,0.148117781810495,1
129,502,9,0.135469734946265,1
129,503,9,0.133016542111391,1
129,504,9,0.12532175032175,1
129,505,9,0.113762809223185,1
129,508,9,0.108972983591648,1
129,509,9,0.12463744808784,1
129,510,9,0.124946103530656,1
129,511,9,0.110598220916809,1
129,512,9,0.106769786942081,1
129,513,9,0.120361490490798,1
129,514,9,0.112181675093344,1
129,517,9,0.124762306754611,1
129,518,9,0.157020760223977,1
129,519,9,0.145392016951332,1
129,520,9,0.120544662638887,1
130,501,9,0.155371686649853,1
130,502,9,0.13056794475362,1
130,503,9,0.118380159460379,1
130,504,9,0.10608581933029,1
131,502,9,0.137790116262001,1
131,503,9,0.104289824337665,1
131,524,9,0.128697362490609,1
132,501,9,0.168936386193545,1
132,502,9,0.117418009326766,1
132,523,9,0.125784086549877,1
132,524,9,0.147286982012767,1
133,497,9,0.119500608164548,1
133,500,9,0.130696618112551,1
133,501,9,0.116427695164782,1
133,522,9,0.104237567516705,1
133,523,9,0.116085655588533,1
133,524,9,0.10809477899369,1
134,523,9,0.108840149764368,1
135,496,9,0.103549394820282,1
139,495,9,0.130126979724844,1
139,496,9,0.106431651290557,1
140,495,9,0.145616392236374,1
140,496,9,0.114707849012432,1
141,495,9,0.11386082004192,1
156,505,9,0.103286448758958,1
123,524,10,0.239192240942917,1
124,509,10,0.126519396348835,1
124,510,10,0.16241145564102,1
124,511,10,0.173292563866647,1
124,512,10,0.14071184698828,1
124,513,10,0.110261144901996,1
124,514,10,0.105624776974358,1
124,515,10,0.111392636136101,1
124,516,10,0.104977640103827,1
124,519,10,0.115955331427147,1
124,520,10,0.105685220883169,1
124,521,10,0.107174947404095,1
124,523,10,0.22789111503318,1
124,524,10,0.243808933089943,1
124,525,10,0.173960670389985,1
125,506,10,0.120383709399517,1
125,507,10,0.144383309726858,1
125,508,10,0.144590518897182,1
125,509,10,0.16255748473387,1
125,510,10,0.232804572383717,1
125,511,10,0.272586680736858,1
125,512,10,0.21777812072827,1
125,513,10,0.163966043082732,1
125,514,10,0.151624208919848,1
125,515,10,0.16018165653297,1
125,516,10,0.14783328608469,1
125,517,10,0.114608254315666,1
125,518,10,0.132953532766332,1
125,519,10,0.185265198291268,1
125,520,10,0.161621803209892,1
125,521,10,0.135686056992304,1
125,522,10,0.184550623909634,1
125,523,10,0.280550307937121,1
125,524,10,0.300395273493797,3
125,525,10,0.213749337336663,1
126,502,10,0.150997707080006,1
126,503,10,0.116870589847779,1
126,504,10,0.117869392257522,1
126,505,10,0.140530716035119,1
126,506,10,0.171631990445691,1
126,507,10,0.188352522350304,1
126,508,10,0.164464284264257,1
126,509,10,0.161755250511057,1
126,510,10,0.227356009648182,1
126,511,10,0.278109998053838,1
126,512,10,0.236564453440277,1
126,513,10,0.201408072031382,1
126,514,10,0.199636404066828,1
126,515,10,0.211073520405837,1
126,516,10,0.195742830319548,1
126,517,10,0.14770600698459,1
126,518,10,0.157313978433024,1
126,519,10,0.207559876612778,1
126,520,10,0.184963937997287,1
126,521,10,0.14792809568515,1
126,522,10,0.17530937599578,1
126,523,10,0.265067208629574,3
126,524,10,0.329670224993667,3
126,525,10,0.270873170096633,3
126,526,10,0.181707194759264,1
127,502,10,0.172561492614533,1
127,503,10,0.158493387554609,1
127,504,10,0.157994097890444,1
127,505,10,0.167968012088514,1
127,506,10,0.172851710378577,1
127,507,10,0.168509174133871,1
127,508,10,0.155381267996535,1
127,509,10,0.16812837416214,1
127,510,10,0.218982760357648,1
127,511,10,0.243385056097391,1
127,512,10,0.212754795781905,1
127,513,10,0.21187801890499,1
127,514,10,0.212738622379474,1
127,515,10,0.203394098925542,1
127,516,10,0.196147276921041,1
127,517,10,0.178699856540805,1
127,518,10,0.188277633920011,1
127,519,10,0.192200007477689,1
127,520,10,0.16325272911108,1
127,521,10,0.137224404107161,1
127,522,10,0.153780926557048,1
127,523,10,0.209810076516032,1
127,524,10,0.255832240457492,3
127,525,10,0.213491209833857,1
128,502,10,0.168791639818819,1
128,503,10,0.172092898952776,1
128,504,10,0.161689575343115,1
128,505,10,0.149844565794784,1
128,506,10,0.135967708430095,1
128,507,10,0.135563964535052,1
128,508,10,0.158997875015694,1
128,509,10,0.19641205224995,1
128,510,10,0.217093149250121,1
128,511,10,0.203841778704845,1
128,512,10,0.189963884011586,1
128,513,10,0.219266363757801,1
128,514,10,0.206862546424357,1
128,515,10,0.165658862921915,1
128,516,10,0.167886520448401,1
128,517,10,0.204955512658487,1
128,518,10,0.248021691722725,1
128,519,10,0.215729296416393,1
128,520,10,0.158218685102828,1
128,521,10,0.124736708162486,1
128,522,10,0.131166583724997,1
128,523,10,0.162687306962076,1
128,524,10,0.171847219392806,1
128,525,10,0.131430946353293,1
129,501,10,0.149764847651903,1
129,502,10,0.145338488566319,1
129,503,10,0.152752744325233,1
129,504,10,0.150508980320739,1
129,505,10,0.132698874179495,1
129,506,10,0.112522008096784,1
129,507,10,0.115944489670483,1
129,508,10,0.148093432474282,1
129,509,10,0.175577319080751,1
129,510,10,0.161889121666907,1
129,511,10,0.140167115640318,1
129,512,10,0.142011920846075,1
129,513,10,0.162374212199145,1
129,514,10,0.144884651740022,1
129,515,10,0.113693062819458,1
129,516,10,0.119598808602483,1
129,517,10,0.152727926518053,1
129,518,10,0.184961350252898,1
129,519,10,0.157503196087402,1
129,520,10,0.125413782558621,1
129,521,10,0.109902329603501,1
129,522,10,0.109938323789464,1
129,523,10,0.120219008392412,1
129,524,10,0.119589428029073,1
130,501,10,0.162320438424578,1
130,502,10,0.141115122412356,1
130,503,10,0.138431586864645,1
130,504,10,0.133049625084916,1
130,505,10,0.11021485550883,1
130,508,10,0.10525706072749,1
130,509,10,0.111298306160679,1
130,524,10,0.111853756570528,1
131,502,10,0.149917658419704,1
131,503,10,0.121046952748055,1
131,524,10,0.128537836972282,1
131,525,10,0.106529294024961,1
132,501,10,0.190473714272508,1
132,502,10,0.127270422233329,1
132,523,10,0.115099825362947,1
132,524,10,0.125192396564511,1
133,497,10,0.110227559995292,1
133,498,10,0.116420433864794,1
133,499,10,0.12879634371349,1
133,500,10,0.151559225304285,1
133,501,10,0.127736082374507,1
133,522,10,0.112581581988085,1
133,523,10,0.117477159363383,1
134,522,10,0.108108721581993,1
134,523,10,0.112057139894622,1
135,499,10,0.105781067812199,1
135,500,10,0.112499488028158,1
136,499,10,0.122015583396711,1
136,500,10,0.147326166262934,1
136,501,10,0.103284329485536,1
137,499,10,0.107901668568659,1
137,500,10,0.135986190725149,1
156,504,10,0.117379483166767,1
156,505,10,0.114753022998534,1
124,509,11,0.108433204651051,1
124,510,11,0.1231474984855,1
124,511,11,0.13432018527179,1
124,512,11,0.117624147706308,1
124,515,11,0.1053475202404,1
124,516,11,0.105383659429281,1
124,517,11,0.103417185620957,1
124,518,11,0.107984666008309,1
124,519,11,0.11035462716805,1
124,523,11,0.223649846595836,1
124,524,11,0.240843355711968,1
124,525,11,0.180560478218732,1
125,506,11,0.130428385021743,1
125,507,11,0.153651940884139,1
125,508,11,0.139228255206207,1
125,509,11,0.138274492933718,1
125,510,11,0.183722199928953,1
125,511,11,0.224445421838475,1
125,512,11,0.196163338782766,1
125,513,11,0.167149526384776,1
125,514,11,0.154702308562462,1
125,515,11,0.152024785058828,1
125,516,11,0.140078184235086,1
125,517,11,0.12459335604659,1
125,518,11,0.144510633443241,1
125,519,11,0.182737507418572,1
125,520,11,0.165291860535568,1
125,521,11,0.14037984607561,1
125,522,11,0.182350661940553,1
125,523,11,0.280143095126108,1
125,524,11,0.30014252225304,3
125,525,11,0.225685531412495,1
125,526,11,0.179513824845933,1
126,502,11,0.141483708676734,1
126,503,11,0.118806791508379,1
126,504,11,0.120903042928627,1
126,505,11,0.14845489128752,1
126,506,11,0.208946885297159,1
126,507,11,0.233794362304381,1
126,508,11,0.182829416960666,1
126,509,11,0.173338819797601,1
126,510,11,0.245114940913319,1
126,511,11,0.298286752595842,1
126,512,11,0.272291566335801,1
126,513,11,0.26547691995241,1
126,514,11,0.254641610340841,1
126,515,11,0.233561599158216,1
126,516,11,0.198008958235679,1
126,517,11,0.156040362030794,1
126,518,11,0.178044309501011,1
126,519,11,0.233508305008686,1
126,520,11,0.212702527806875,1
126,521,11,0.162904599412261,1
126,522,11,0.188347993797623,1
126,523,11,0.298264466762699,3
126,524,11,0.360640729080027,3
126,525,11,0.286405235774299,3
126,526,11,0.201612146907855,1
127,502,11,0.171486452131949,1
127,503,11,0.167464818499624,1
127,504,11,0.171567798769144,1
127,505,11,0.179871580507717,1
127,506,11,0.202586678059881,1
127,507,11,0.20299418087673,1
127,508,11,0.17917864502313,1
127,509,11,0.200139653426071,1
127,510,11,0.252742049802301,1
127,511,11,0.26568804420153,1
127,512,11,0.250091597228115,1
127,513,11,0.281281591116577,4
127,514,11,0.281710308975788,4
127,515,11,0.260520586354324,1
127,516,11,0.241764213476063,1
127,517,11,0.212285900960241,1
127,518,11,0.224500522947448,1
127,519,11,0.229905361726065,1
127,520,11,0.187369268715036,1
127,521,11,0.144314611805772,1
127,522,11,0.166486829585699,1
127,523,11,0.253655144333228,1
127,524,11,0.299382060024783,3
127,525,11,0.224666138588346,1
128,501,11,0.179849662758905,1
128,502,11,0.180445423980056,1
128,503,11,0.196252325958351,1
128,504,11,0.189630868078486,1
128,505,11,0.165374512199029,1
128,506,11,0.148782464034145,1
128,507,11,0.149599455092418,1
128,508,11,0.183838246879916,1
128,509,11,0.234411583957448,1
128,510,11,0.242238774565614,1
128,511,11,0.220479458172726,1
128,512,11,0.22239349669496,1
128,513,11,0.264029969292397,1
128,514,11,0.247542088993243,1
128,515,11,0.209052848968262,1
128,516,11,0.213717615159756,1
128,517,11,0.238429927138934,1
128,518,11,0.267302238996755,1
128,519,11,0.222955104151804,1
128,520,11,0.158104567806086,1
128,521,11,0.126567425777022,1
128,522,11,0.144234637119266,1
128,523,11,0.195083423971311,1
128,524,11,0.199732730620895,1
129,500,11,0.17232131201139,1
129,501,11,0.16128683531443,1
129,502,11,0.173201669344982,1
129,503,11,0.195031802932378,1
129,504,11,0.189803644632737,1
129,505,11,0.15807632569922,1
129,506,11,0.131837824542186,1
129,507,11,0.139509404710819,1
129,508,11,0.193003390569778,1
129,509,11,0.232865473609424,1
129,510,11,0.201909090576497,1
129,511,11,0.176422909176151,1
129,512,11,0.188360374816036,1
129,513,11,0.206163141578797,1
129,514,11,0.178705132416219,1
129,515,11,0.149503139692421,1
129,516,11,0.158856552940655,1
129,517,11,0.182046423509711,1
129,518,11,0.195614156960617,1
129,519,11,0.160526875019352,1
129,520,11,0.133834815887787,1
129,521,11,0.124365444921155,1
129,522,11,0.125334822892543,1
129,523,11,0.139081846874955,1
129,524,11,0.133846706127092,1
130,501,11,0.175866778367992,1
130,502,11,0.165576858194552,1
130,503,11,0.174894299564964,1
130,504,11,0.170785887263042,1
130,505,11,0.140197912029362,1
130,506,11,0.114034187761914,1
130,507,11,0.116036566523636,1
130,508,11,0.141920937091845,1
130,509,11,0.153190307362463,1
130,510,11,0.127235900384691,1
130,511,11,0.117175118284458,1
130,512,11,0.123108191540557,1
130,513,11,0.120015413140976,1
130,514,11,0.107174088540656,1
130,515,11,0.105396943927416,1
130,516,11,0.111954901683114,1
130,517,11,0.108000449018268,1
130,520,11,0.106024204244061,1
130,521,11,0.108602066126506,1
130,523,11,0.107759889176723,1
130,524,11,0.122430537132749,1
131,502,11,0.157540584532195,1
131,503,11,0.140298789444252,1
131,504,11,0.128235650890438,1
131,505,11,0.104287626985748,1
131,524,11,0.119532196492607,1
131,525,11,0.106463195002334,1
132,501,11,0.190770100237617,1
132,502,11,0.128924938993926,1
132,523,11,0.10641780908889,1
133,498,11,0.106683097505049,1
133,499,11,0.129704552761476,1
133,500,11,0.161216665056019,1
133,501,11,0.131614575818278,1
133,522,11,0.117591957058434,1
133,523,11,0.119265591896113,1
134,499,11,0.110064420558077,1
134,500,11,0.131872770245508,1
134,501,11,0.11099082189528,1
134,522,11,0.112242464778345,1
134,523,11,0.110640104452071,1
135,499,11,0.123360318153357,1
135,500,11,0.165655360543733,1
135,501,11,0.128861215788346,1
135,522,11,0.107115027736604,1
135,523,11,0.103270464975727,1
136,499,11,0.132400045472915,1
136,500,11,0.191662381272726,1
136,501,11,0.135974557029469,1
137,499,11,0.110603586024788,1
137,500,11,0.159456073083612,1
137,501,11,0.113094189612598,1
138,500,11,0.103695368142779,1
155,504,11,0.107594518925379,1
156,504,11,0.124736150458954,1
156,505,11,0.111849004936435,1
124,510,12,0.108264677797715,1
124,511,12,0.118088982446259,1
124,512,12,0.106946991662377,1
124,516,12,0.105706547466237,1
124,517,12,0.113236560170277,1
124,518,12,0.11141709701302,1
124,523,12,0.208451934566474,1
124,524,12,0.231979951941125,1
124,525,12,0.198282121425712,1
125,505,12,0.104041523571094,1
125,506,12,0.136200605425108,1
125,507,12,0.154981907651255,1
125,508,12,0.133276800041689,1
125,509,12,0.127728452990188,1
125,510,12,0.159114646981249,1
125,511,12,0.192232577363965,1
125,512,12,0.183894240314541,1
125,513,12,0.168066982157324,1
125,514,12,0.148936747139271,1
125,515,12,0.138833724573515,1
125,516,12,0.136299151639233,1
125,517,12,0.140902760061396,1
125,518,12,0.150107043385141,1
125,519,12,0.162643672237723,1
125,520,12,0.158523470083132,1
125,521,12,0.144226494647697,1
125,522,12,0.172909544234858,1
125,523,12,0.259885897426631,3
125,524,12,0.285252239491995,3
125,525,12,0.239640032262926,1
125,526,12,0.200484425749627,1
125,527,12,0.222549586759529,1
125,528,12,0.232620686375106,1
126,503,12,0.119879656947188,1
126,504,12,0.121015509422914,1
126,505,12,0.14767822219462,1
126,506,12,0.218831801165574,1
126,507,12,0.24679974097571,1
126,508,12,0.1898603073116,1
126,509,12,0.192135715414506,1
126,510,12,0.257654904833023,1
126,511,12,0.291616261421434,1
126,512,12,0.291359650872235,1
126,513,12,0.312038762447831,4
126,514,12,0.283107958643561,4
126,515,12,0.231604305150031,1
126,516,12,0.188831567376253,1
126,517,12,0.165247846572814,1
126,518,12,0.188994528348338,1
126,519,12,0.231758565947015,1
126,520,12,0.213621533995243,1
126,521,12,0.165146958003853,1
126,522,12,0.191927714305167,3
126,523,12,0.313872714742853,3
126,524,12,0.350270031126996,3
126,525,12,0.268912686024244,3
126,526,12,0.205223366510893,1
127,502,12,0.171122472498747,1
127,503,12,0.173137343819587,1
127,504,12,0.17921477305794,1
127,505,12,0.182073862523492,1
127,506,12,0.212988964340972,1
127,507,12,0.219137088079056,1
127,508,12,0.198099216975318,1
127,509,12,0.241305937329649,1
127,510,12,0.288422404833692,1
127,511,12,0.274221800568608,1
127,512,12,0.28018391902466,4
127,513,12,0.343016784377805,4
127,514,12,0.340220302710769,4
127,515,12,0.299104769828614,4
127,516,12,0.264237747320324,1
127,517,12,0.233641997699406,1
127,518,12,0.246753540815109,1
127,519,12,0.253153768857853,1
127,520,12,0.196282330408379,1
127,521,12,0.142890549298717,1
127,522,12,0.180079949701388,1
127,523,12,0.298767961511496,3
127,524,12,0.312598919875492,3
127,525,12,0.21265208909943,1
128,501,12,0.174702259930714,1
128,502,12,0.195560929735512,1
128,503,12,0.229793397164956,1
128,504,12,0.227246655139604,1
128,505,12,0.186680025227831,1
128,506,12,0.161730901174845,1
128,507,12,0.159907154854461,1
128,508,12,0.197030121612386,1
128,509,12,0.256946398265819,1
128,510,12,0.257920884801562,1
128,511,12,0.23294613984831,1
128,512,12,0.250027751327758,1
128,513,12,0.291045596859228,4
128,514,12,0.277022676939477,4
128,515,12,0.252197976544506,1
128,516,12,0.259258391720432,1
128,517,12,0.264836676297537,1
128,518,12,0.257449513776214,1
128,519,12,0.209794460817133,1
128,520,12,0.148308549880692,1
128,521,12,0.124239415076966,1
128,522,12,0.153650122770625,1
128,523,12,0.218501774523407,1
128,524,12,0.204288142303812,1
129,500,12,0.174996593546826,1
129,501,12,0.174463618589321,1
129,502,12,0.212498274465272,1
129,503,12,0.262397414896895,5
129,504,12,0.250552304961928,5
129,505,12,0.195917279984395,1
129,506,12,0.156546277212921,1
129,507,12,0.157905869191663,1
129,508,12,0.216708445353665,1
129,509,12,0.262173708856091,1
129,510,12,0.226212382785218,1
129,511,12,0.21096782443243,1
129,512,12,0.234641536277812,1
129,513,12,0.239672089061952,1
129,514,12,0.208601309880517,1
129,515,12,0.193715756445424,1
129,516,12,0.21325286965237,1
129,517,12,0.21677833676031,1
129,518,12,0.188956426043024,1
129,519,12,0.147278917619693,1
129,520,12,0.128903779721917,1
129,521,12,0.128303880340558,1
129,522,12,0.131508600993105,1
129,523,12,0.146788729677172,1
129,524,12,0.134123862474414,1
130,500,12,0.202206904262649,1
130,501,12,0.188199533117373,1
130,502,12,0.195519882755548,1
130,503,12,0.225257928960349,1
130,504,12,0.222034313312133,1
130,505,12,0.186694235513829,1
130,506,12,0.153511332669622,1
130,507,12,0.144608242715433,1
130,508,12,0.173256134671929,1
130,509,12,0.192937782326259,1
130,510,12,0.165023192436005,1
130,511,12,0.159839103869472,1
130,512,12,0.176302333672506,1
130,513,12,0.173794128961223,1
130,514,12,0.154529576624494,1
130,515,12,0.147708873580745,1
130,516,12,0.1501968001916,1
130,517,12,0.133463519184243,1
130,518,12,0.109421522234391,1
130,520,12,0.107733688264784,1
130,521,12,0.110360538825491,1
130,522,12,0.103949469026083,1
130,523,12,0.115603989355983,1
130,524,12,0.124274126544805,1
131,501,12,0.202895110421284,1
131,502,12,0.163243995473767,1
131,503,12,0.159316390656958,1
131,504,12,0.159861043926426,1
131,505,12,0.144823560895113,1
131,506,12,0.122265969974491,1
131,507,12,0.111598127579546,1
131,508,12,0.120211133618538,1
131,509,12,0.130798677858929,1
131,510,12,0.119238621353299,1
131,511,12,0.111452421954745,1
131,512,12,0.114164389228523,1
131,513,12,0.114019977475916,1
131,514,12,0.107768555889613,1
131,524,12,0.113017215371095,1
131,525,12,0.103902097688065,1
132,498,12,0.1439556738125,1
132,499,12,0.181032998113356,1
132,500,12,0.228612292624634,1
132,501,12,0.184275609143875,1
132,502,12,0.130188304805236,1
132,503,12,0.108079575995405,1
133,498,12,0.107419690022131,1
133,499,12,0.137558479676971,1
133,500,12,0.174665942276703,1
133,501,12,0.148886453434744,1
133,502,12,0.106786729975387,1
133,522,12,0.112318345920925,1
133,523,12,0.113869453292597,1
134,499,12,0.126387030992522,1
134,500,12,0.18055731046267,1
134,501,12,0.163990336648591,1
134,502,12,0.104052711103949,1
134,522,12,0.110289632398417,1
135,499,12,0.140207147599854,1
135,500,12,0.221173263674824,1
135,501,12,0.187927195328568,1
135,521,12,0.107167440714553,1
135,522,12,0.118736465092979,1
136,499,12,0.13293509508756,1
136,500,12,0.201034522205568,1
136,501,12,0.150708515490461,1
136,522,12,0.116367162023406,1
137,499,12,0.109491893266073,1
137,500,12,0.152670929217071,1
137,501,12,0.107882160099105,1
137,522,12,0.111199670713988,1
138,500,12,0.106766028020275,1
139,519,12,0.120620655322174,1
139,520,12,0.119079263146031,1
155,503,12,0.105424371787126,1
155,504,12,0.108206431240821,1
156,504,12,0.115644690559757,1
124,524,13,0.232728992401044,1
124,525,13,0.240600486977801,1
124,526,13,0.197030121612386,1
124,527,13,0.184403680182991,1
124,528,13,0.183489737942695,1
125,507,13,0.162442575498112,1
125,508,13,0.137719198680857,1
125,509,13,0.14079639484375,1
125,510,13,0.161496732615779,1
125,511,13,0.176119496146536,1
125,512,13,0.179245970993527,1
125,513,13,0.169639817658607,4
125,514,13,0.14354955410041,1
125,515,13,0.127966347008849,1
125,516,13,0.139649042521191,1
125,517,13,0.165753806371223,1
125,518,13,0.15748771423735,1
125,519,13,0.146797742166251,1
125,523,13,0.225169343331307,1
125,524,13,0.273354638500586,1
125,525,13,0.268675394325398,1
125,526,13,0.231263146745363,1
125,527,13,0.243886141566929,1
125,528,13,0.257946048384931,1
125,529,13,0.182900535315082,1
126,504,13,0.133146944351271,1
126,505,13,0.162667564257039,1
126,506,13,0.220433838023799,1
126,507,13,0.232961644006503,1
126,508,13,0.191309600326448,1
126,509,13,0.215874232410321,1
126,510,13,0.258815976662472,1
126,511,13,0.2615043307687,1
126,512,13,0.283485479318524,4
126,513,13,0.315619219124038,4
126,514,13,0.278258347193381,4
126,515,13,0.214549284974994,1
126,516,13,0.182482659212535,1
126,517,13,0.191465467309605,1
126,518,13,0.204143094769178,1
126,519,13,0.215628932088753,1
126,520,13,0.200985377370318,1
126,521,13,0.160234236821979,1
126,522,13,0.181921754462141,1
126,523,13,0.288053294327994,3
126,524,13,0.302031620273318,3
126,525,13,0.234259620899016,1
126,526,13,0.1974352820744,1
126,527,13,0.21730358194686,1
126,528,13,0.220516913541943,1
127,503,13,0.183241983725586,1
127,504,13,0.190543851068707,1
127,505,13,0.189904968210452,1
127,506,13,0.213684465261807,1
127,507,13,0.220194672441084,1
127,508,13,0.213723036038088,1
127,509,13,0.275145603007352,1
127,510,13,0.305199710957875,6
127,511,13,0.268065935905498,4
127,512,13,0.294180716110966,4
127,513,13,0.367420619379296,4
127,514,13,0.363607801103468,4
127,515,13,0.304197316937385,4
127,516,13,0.255916096760581,1
127,517,13,0.242590016250142,1
127,518,13,0.251465287952149,1
127,519,13,0.250746586564378,1
127,520,13,0.192354759053781,1
127,521,13,0.143535990750509,1
127,522,13,0.189054738021666,1
127,523,13,0.300664822764941,1
127,524,13,0.277919107288864,1
127,525,13,0.181304153570672,1
128,502,13,0.215242577389842,1
128,503,13,0.26475442618062,5
128,504,13,0.262780111060635,5
128,505,13,0.209768003361569,1
128,506,13,0.177819075352529,1
128,507,13,0.176434342098559,1
128,508,13,0.210146550211031,1
128,509,13,0.269267318546248,1
128,510,13,0.268137745812293,1
128,511,13,0.247080600474485,1
128,512,13,0.276230202528476,4
128,513,13,0.307866872329883,4
128,514,13,0.296857559216292,4
128,515,13,0.28406256862542,4
128,516,13,0.291135498668605,1
128,517,13,0.282294893818155,1
128,518,13,0.232926664840968,1
128,519,13,0.188403741842694,1
128,520,13,0.142148190127113,1
128,521,13,0.128776534084029,1
128,522,13,0.163001874062333,1
128,523,13,0.216136710000677,1
128,524,13,0.184827111012717,1
129,501,13,0.198776335987734,1
129,502,13,0.25624371412349,5
129,503,13,0.329384390779385,5
129,504,13,0.309015183902517,5
129,505,13,0.2305512047244,5
129,506,13,0.179529652472175,1
129,507,13,0.174581829429989,1
129,508,13,0.224969752391232,1
129,509,13,0.268381506872112,1
129,510,13,0.244477218078411,1
129,511,13,0.244798031458227,1
129,512,13,0.271916365707533,1
129,513,13,0.260901140936501,4
129,514,13,0.228418836423412,4
129,515,13,0.230890043082375,1
129,516,13,0.26869054155333,1
129,517,13,0.260788217125318,1
129,518,13,0.181092895472705,1
129,519,13,0.131031820243496,1
129,520,13,0.120202031896894,1
129,521,13,0.126073266985352,1
129,522,13,0.132456830846556,1
129,523,13,0.142343810218039,1
129,524,13,0.124702364778979,1
130,500,13,0.209097152936853,1
130,501,13,0.205261491124349,1
130,502,13,0.227360939747406,1
130,503,13,0.274447291260714,5
130,504,13,0.26786960195405,5
130,505,13,0.230514017052879,1
130,506,13,0.193330182531458,1
130,507,13,0.173045824669967,1
130,508,13,0.201587206405899,1
130,509,13,0.23390251217333,1
130,510,13,0.21468777391609,1
130,511,13,0.212217169576942,1
130,512,13,0.231371385846876,1
130,513,13,0.23536590393347,1
130,514,13,0.217741111521878,1
130,515,13,0.197155537982689,1
130,516,13,0.189490259863969,1
130,517,13,0.168063178619235,1
130,518,13,0.12390003016953,1
130,519,13,0.104767519721066,1
130,520,13,0.103790501211287,1
130,521,13,0.104764128883591,1
130,522,13,0.104221182186931,1
130,523,13,0.117812294569904,1
130,524,13,0.115331138479929,1
131,499,13,0.191270873393178,1
131,500,13,0.222718570929761,1
131,501,13,0.197821659081452,1
131,502,13,0.170709704960554,1
131,503,13,0.174351642874142,1
131,504,13,0.184174832115621,1
131,505,13,0.187242491548115,1
131,506,13,0.165022110491153,1
131,507,13,0.143053632965579,1
131,508,13,0.159573837761455,1
131,509,13,0.188706217930374,1
131,510,13,0.17520624545862,1
131,511,13,0.155205323686222,1
131,512,13,0.157966558490028,1
131,513,13,0.174923534384118,1
131,514,13,0.177484174381491,1
131,515,13,0.148755002712224,1
131,516,13,0.112719546687861,1
131,523,13,0.111451875405283,1
131,524,13,0.107094972717589,1
132,499,13,0.178281344656232,1
132,500,13,0.215924314187505,1
132,501,13,0.18833440813958,1
132,502,13,0.14123777257314,1
132,503,13,0.116482930122603,1
132,504,13,0.113199004414424,1
132,505,13,0.11577740169226,1
132,506,13,0.107232468946398,1
132,508,13,0.116247400766918,1
132,509,13,0.135696017577388,1
132,510,13,0.1254967688442,1
132,511,13,0.105003829861696,1
133,498,13,0.123494155846995,1
133,499,13,0.159864111295852,1
133,500,13,0.204944938599518,1
133,501,13,0.191413667805542,1
133,502,13,0.131951082975488,1
134,498,13,0.103557459213356,1
134,499,13,0.15063209895249,1
134,500,13,0.231383476859453,1
134,501,13,0.223306033522355,1
134,502,13,0.130956441034095,1
134,518,13,0.114949390412193,1
134,521,13,0.104892367233766,1
135,499,13,0.14902338080595,1
135,500,13,0.239715322239762,1
135,501,13,0.215521139150065,1
135,502,13,0.113888649448172,1
135,518,13,0.110451388730873,1
135,521,13,0.12432404101093,1
135,522,13,0.121001499910187,1
136,499,13,0.12558775259843,1
136,500,13,0.172159198748674,1
136,501,13,0.137164796753648,1
136,521,13,0.135989637332978,1
136,522,13,0.143049416726876,1
137,499,13,0.105646248560344,1
137,500,13,0.124626784796306,1
137,521,13,0.142724810963042,1
137,522,13,0.154210737515182,1
137,523,13,0.105360046261731,1
138,520,13,0.109545522037722,1
138,521,13,0.124085667367232,1
138,522,13,0.121926105442018,1
139,518,13,0.114823148640662,1
139,519,13,0.149228046848167,1
139,520,13,0.133274256913583,1
139,521,13,0.103680198606705,1
140,518,13,0.103134307235396,1
140,519,13,0.116878776935631,1
124,524,14,0.231009614719661,1
124,525,14,0.276431154265169,1
124,526,14,0.220961626338455,1
124,527,14,0.184439997837003,1
125,523,14,0.19311542205531,1
125,524,14,0.257858422005964,1
125,525,14,0.291162023048593,1
125,526,14,0.24920857407164,1
125,527,14,0.24327860164718,1
125,528,14,0.251188020064121,1
126,507,14,0.216263063312914,1
126,508,14,0.193382785128608,1
126,509,14,0.251511532729033,1
126,510,14,0.267450922758418,6
126,511,14,0.233571994752054,1
126,512,14,0.255558430331362,4
126,513,14,0.281323597346616,4
126,514,14,0.245844439441472,4
126,515,14,0.185274188472206,1
126,516,14,0.170835054406433,1
126,517,14,0.209462961837641,1
126,518,14,0.211630956240261,1
126,519,14,0.191112976369164,1
126,523,14,0.242214436383472,1
126,524,14,0.247068665618898,1
126,525,14,0.206825046438858,1
126,526,14,0.181196940643658,1
126,527,14,0.195157397767812,1
127,504,14,0.199970133860448,1
127,505,14,0.207858024921049,1
127,506,14,0.219837719872387,1
127,507,14,0.21678806310991,1
127,508,14,0.224225887420091,1
127,509,14,0.296146531829122,6
127,510,14,0.307050728980979,6
127,511,14,0.260762986617525,4
127,512,14,0.296688173499516,4
127,513,14,0.3521453650241,4
127,514,14,0.338201795162899,4
127,515,14,0.267855793214595,4
127,516,14,0.222380067193906,1
127,517,14,0.229566902606492,1
127,518,14,0.232409874439965,1
127,519,14,0.214476025039015,1
127,520,14,0.169689375194471,1
127,521,14,0.144519757473027,1
127,523,14,0.26321514212383,1
127,524,14,0.22469295297417,1
128,503,14,0.294660430381154,5
128,504,14,0.291628062428173,5
128,505,14,0.228740162890478,1
128,506,14,0.198160586671992,1
128,507,14,0.204311788933574,1
128,508,14,0.225994075314605,1
128,509,14,0.271090005229921,1
128,510,14,0.273422589098939,6
128,511,14,0.265762821091116,4
128,512,14,0.304218041200638,4
128,513,14,0.316981465771593,4
128,514,14,0.298240061656133,4
128,515,14,0.28086978282846,4
128,516,14,0.28828692749167,1
128,517,14,0.277154451130046,1
128,518,14,0.204907572462866,1
128,519,14,0.160148707408293,1
128,520,14,0.131185880267209,1
128,522,14,0.163406242585332,1
129,502,14,0.294515739776781,5
129,503,14,0.392065761545065,5
129,504,14,0.371180589668422,5
129,505,14,0.264720718579139,5
129,506,14,0.201907172076346,1
129,507,14,0.192534428823689,1
129,508,14,0.218938411772774,1
129,509,14,0.250146765261513,1
129,510,14,0.2514394328164,1
129,511,14,0.270505353463129,4
129,512,14,0.294206392781585,4
129,513,14,0.270598445336711,4
129,514,14,0.241213202386329,4
129,515,14,0.242916116659443,1
129,516,14,0.289878858761893,1
129,517,14,0.290581788293776,1
129,518,14,0.176594514552984,1
129,523,14,0.135569909654705,1
130,501,14,0.225186498291955,1
130,502,14,0.265869364773892,5
130,503,14,0.325225617848512,5
130,504,14,0.313692710350826,5
130,505,14,0.263691264783271,5
130,506,14,0.219127294805032,1
130,507,14,0.190476614330875,1
130,508,14,0.214199761017344,1
130,509,14,0.26011924058447,1
130,510,14,0.26378605207559,4
130,511,14,0.25787571081546,4
130,512,14,0.264560546124714,1
130,513,14,0.281544202555781,4
130,514,14,0.285754507293022,4
130,515,14,0.237842866092883,1
130,516,14,0.204049623657195,1
130,517,14,0.187694119868425,1
130,518,14,0.131435720295528,1
131,500,14,0.203208472881911,1
131,501,14,0.20747985730999,1
131,502,14,0.194986249707875,1
131,503,14,0.193917823589182,5
131,504,14,0.201547609455118,5
131,505,14,0.215524619220106,1
131,506,14,0.196108973842455,1
131,507,14,0.171744825024309,1
131,508,14,0.2034739397632,1
131,509,14,0.263973596619371,4
131,510,14,0.257495580087967,4
131,511,14,0.207103452042092,1
131,512,14,0.189991345333507,1
131,513,14,0.230581030709298,1
131,514,14,0.264315892739244,1
131,515,14,0.204596753130345,1
132,500,14,0.215991260919501,1
132,501,14,0.210857109127233,1
132,502,14,0.165514562710014,1
132,507,14,0.126710052878326,1
132,508,14,0.15372783318079,1
132,509,14,0.190818798910042,1
132,510,14,0.179946625094999,1
132,511,14,0.136179211917616,1
132,514,14,0.130559378427367,1
133,499,14,0.205711557874769,1
133,500,14,0.258241118169704,1
133,501,14,0.24937162427629,1
134,499,14,0.197520833796227,1
134,500,14,0.27656156765912,1
134,501,14,0.261930237802109,1
134,502,14,0.151917438282966,1
135,499,14,0.158264628719804,1
135,500,14,0.225459103778455,1
135,501,14,0.20475761713715,1
136,500,14,0.141156437090015,1
136,501,14,0.11732865406685,1
124,525,15,0.273653076814694,1
124,526,15,0.221850360379099,1
125,524,15,0.231548423256112,1
125,525,15,0.277473636015548,1
125,526,15,0.241823173893478,1
125,527,15,0.220417419231813,1
126,513,15,0.2434633576733,4
126,524,15,0.195517585016996,1
126,525,15,0.1820161848242,1
126,526,15,0.164800021790592,1
127,503,15,0.198462772753836,5
127,504,15,0.209791136904081,5
127,508,15,0.234503404266976,1
127,509,15,0.30013297436857,1
127,510,15,0.29428061196764,6
127,511,15,0.251126471902316,1
127,512,15,0.285207980139686,4
127,513,15,0.319280185882141,4
127,514,15,0.285488795022179,4
128,502,15,0.239138344473573,5
128,503,15,0.310739870921525,5
128,504,15,0.312340881605251,5
128,505,15,0.252676820797184,5
128,507,15,0.237938701867843,1
128,508,15,0.23809387729862,1
128,509,15,0.25979784719298,1
128,510,15,0.268206298730462,1
128,511,15,0.280688462256097,4
128,512,15,0.321287227045391,4
128,513,15,0.317883785470279,4
128,514,15,0.277660265925537,4
128,515,15,0.248579016016442,1
128,516,15,0.253603121747752,1
128,517,15,0.249189969081809,1
129,501,15,0.223092076139292,5
129,502,15,0.306456105475034,5
129,503,15,0.41854597141292,5
129,504,15,0.417403571497727,5
129,505,15,0.304570665989927,5
129,506,15,0.231212618805353,5
129,507,15,0.217927384501606,1
129,508,15,0.213795403648416,1
129,509,15,0.229033180326254,1
129,510,15,0.25625935213053,4
129,511,15,0.294188300879003,4
129,512,15,0.311919190810545,4
129,513,15,0.281888863338631,4
129,514,15,0.250527007529712,4
129,515,15,0.236917011305141,1
129,516,15,0.27070452054852,1
129,517,15,0.284526198725741,1
129,518,15,0.174734372500094,1
130,502,15,0.293119138591648,5
130,503,15,0.35717781400025,5
130,504,15,0.351720216467495,5
130,505,15,0.291510364674755,5
130,506,15,0.236614267519766,1
130,507,15,0.206700567010489,1
130,508,15,0.21677122046324,1
130,509,15,0.265861378459312,4
130,510,15,0.301331100020693,4
130,511,15,0.29670454767522,4
130,512,15,0.282450448487334,4
130,513,15,0.302668785404693,4
130,514,15,0.330187996952886,4
130,515,15,0.261369522670916,4
130,516,15,0.200071680519576,1
130,517,15,0.19561957783895,1
130,518,15,0.144368151344855,1
130,519,15,0.111390159932419,1
130,522,15,0.125693749731745,1
130,523,15,0.13158317710942,1
131,503,15,0.216418617982093,5
131,504,15,0.215549738187192,5
131,505,15,0.22813576841865,1
131,506,15,0.215553552879352,1
131,507,15,0.202986127637726,1
131,508,15,0.2409262081487,4
131,509,15,0.318129598879096,4
131,510,15,0.338746381507943,4
131,511,15,0.268098505791773,4
131,512,15,0.216706259155819,1
131,513,15,0.262555780391875,4
131,514,15,0.329760149111186,4
131,515,15,0.24976351139424,1
131,516,15,0.135805338623754,1
131,517,15,0.106443095367036,1
131,518,15,0.109234524240071,1
131,519,15,0.116268693887775,1
131,522,15,0.124625780929948,1
131,523,15,0.129132114702038,1
132,499,15,0.173983948935415,1
132,500,15,0.222081517339092,1
132,501,15,0.239610250894311,1
132,503,15,0.141272138264789,1
132,504,15,0.132848717964505,1
132,505,15,0.150438006969242,1
132,506,15,0.152726465334799,1
132,507,15,0.162620594465564,1
132,508,15,0.199864750201019,1
132,509,15,0.244025121287133,4
132,510,15,0.244015038007273,4
132,511,15,0.181067698427124,1
132,512,15,0.133698368141619,1
132,513,15,0.137288205391235,1
132,514,15,0.161521706579947,1
132,515,15,0.132374179183095,1
133,498,15,0.175789212960745,1
133,499,15,0.242934900114405,1
133,500,15,0.300934505884932,7
133,501,15,0.290102654035262,1
133,502,15,0.197209412143892,1
133,507,15,0.110853794137438,1
133,508,15,0.1251696422604,1
133,509,15,0.132680748814702,1
133,510,15,0.125885276278745,1
134,498,15,0.175746013245147,1
134,499,15,0.248374249587589,1
134,500,15,0.29691674271512,1
134,501,15,0.260732937551214,1
134,502,15,0.158841227247592,1
134,517,15,0.118303464070641,1
134,518,15,0.124359377106725,1
135,499,15,0.169261795050466,1
135,500,15,0.197472514362204,1
135,501,15,0.169628741666459,1
135,516,15,0.103131909110208,1
135,517,15,0.120075790125364,1
135,518,15,0.116689101964357,1
135,521,15,0.110907969458548,1
136,516,15,0.118430252391634,1
136,517,15,0.110124630231404,1
136,521,15,0.14018486176671,1
136,522,15,0.135992437004709,1
137,521,15,0.15665183933748,1
137,522,15,0.16122709411207,1
138,521,15,0.116446478619744,1
138,522,15,0.113587935703654,1
139,518,15,0.130121926930843,1
139,519,15,0.126018801658405,1
139,520,15,0.10534283553073,1
140,518,15,0.105874181993921,1
140,528,15,0.108774284977225,1
141,527,15,0.108852586553134,1
144,525,15,0.105947865784585,1
147,524,15,0.106743675262707,1
148,524,15,0.140496484192317,1
125,525,16,0.227620472663113,1
125,526,16,0.207312055471246,1
126,508,16,0.232650579284428,1
126,509,16,0.320432379071358,1
126,510,16,0.287090162636166,1
126,511,16,0.200697401574473,1
126,512,16,0.199181072595064,1
126,513,16,0.215376627010822,1
127,504,16,0.209890876603766,5
127,507,16,0.23157789231075,1
127,508,16,0.242326757874841,1
127,509,16,0.292842896878118,1
127,510,16,0.277908890160156,1
127,511,16,0.249119586896055,4
127,512,16,0.281267425446861,4
127,513,16,0.289527929391342,4
127,514,16,0.229777803774198,1
127,515,16,0.170399153325729,1
127,516,16,0.16102064341855,1
127,517,16,0.180059705063172,1
128,503,16,0.294576596386206,5
128,504,16,0.309838599705479,5
128,505,16,0.274876142968773,5
128,506,16,0.257339556947822,1
128,507,16,0.264623856629681,1
128,508,16,0.24070620525935,1
128,509,16,0.238855901096766,1
128,510,16,0.260616310588577,4
128,511,16,0.301535130280884,4
128,512,16,0.340000969065657,4
128,513,16,0.30956878273664,4
128,514,16,0.240239675100661,4
128,515,16,0.196674395991459,1
128,516,16,0.199501216730642,1
128,517,16,0.203192634101599,1
128,518,16,0.148072473975545,1
129,502,16,0.282150560144043,5
129,503,16,0.397231256275838,5
129,504,16,0.429235408088629,5
129,505,16,0.339124459886437,5
129,506,16,0.261986967405396,5
129,507,16,0.243229233730516,1
129,508,16,0.211581789096869,1
129,509,16,0.21307228524867,1
129,510,16,0.267699747766308,4
129,511,16,0.320909951759983,4
129,512,16,0.33111699718855,4
129,513,16,0.290432747601853,4
129,514,16,0.252300237064156,4
129,515,16,0.214643469947498,1
129,516,16,0.219687853779236,1
129,517,16,0.23397474593481,1
129,518,16,0.160629827091382,1
129,521,16,0.110139208601734,1
129,522,16,0.13852248138631,1
129,523,16,0.143155625787533,1
130,502,16,0.295210571453378,5
130,503,16,0.364490511945965,5
130,504,16,0.372978179693149,5
130,505,16,0.304646469054013,5
130,506,16,0.241814049863693,5
130,507,16,0.218961188385025,1
130,508,16,0.215322105913522,1
130,509,16,0.256366029662154,4
130,510,16,0.326772620522187,4
130,511,16,0.324906633736281,4
130,512,16,0.291500861406568,4
130,513,16,0.299665975738915,4
130,514,16,0.337501319526557,4
130,515,16,0.257355886507242,4
130,516,16,0.181030153825342,1
130,517,16,0.179237259664355,1
130,518,16,0.149410125897334,1
130,519,16,0.112972777553655,1
130,521,16,0.107810294421956,1
130,522,16,0.142987935489496,1
130,523,16,0.140450239415434,1
130,524,16,0.107409450585281,1
131,503,16,0.240715842376385,5
131,504,16,0.226928072573916,5
131,505,16,0.221319538157228,5
131,506,16,0.216710118464261,1
131,507,16,0.228575729581068,1
131,508,16,0.269352334872684,4
131,509,16,0.33607321924593,4
131,510,16,0.392954116347308,4
131,511,16,0.316552167900708,4
131,512,16,0.232495961557183,4
131,513,16,0.258563493119411,4
131,514,16,0.340044157627185,4
131,515,16,0.257020015132058,1
131,516,16,0.138165606896107,1
131,517,16,0.111008724178661,1
131,518,16,0.116577315868379,1
131,519,16,0.120239554190535,1
131,520,16,0.109880222235488,1
131,521,16,0.117448259166348,1
131,522,16,0.13953459060233,1
131,523,16,0.126215057531358,1
132,499,16,0.166724924377632,1
132,500,16,0.226791100586427,7
132,501,16,0.25683686529211,1
132,502,16,0.214661026454689,1
132,503,16,0.158110155995478,1
132,504,16,0.142544449640754,1
132,505,16,0.158179735088145,1
132,506,16,0.169738174253532,1
132,507,16,0.200182395824773,1
132,508,16,0.255092413259923,1
132,509,16,0.289621155113771,4
132,510,16,0.29857095831581,4
132,511,16,0.218134180971316,4
132,512,16,0.147382538935961,1
132,513,16,0.140758526773919,1
132,514,16,0.172623096546691,1
132,515,16,0.142943720753469,1
133,498,16,0.183722278007448,1
133,499,16,0.266886281394359,7
133,500,16,0.324845442504737,7
133,501,16,0.299019954275449,7
133,502,16,0.203163544285364,1
133,503,16,0.129491498858135,1
133,504,16,0.11067358897214,1
133,505,16,0.119946168670429,1
133,506,16,0.121395383606782,1
133,507,16,0.133121624610913,1
133,508,16,0.159796149543428,1
133,509,16,0.163482134881982,1
133,510,16,0.150489282231985,1
133,511,16,0.115120906556461,1
134,498,16,0.21248627268526,1
134,499,16,0.305498216196407,1
134,500,16,0.313572380236736,7
134,501,16,0.239957276340137,1
134,502,16,0.15148619960379,1
134,517,16,0.119824198907954,1
134,518,16,0.11164229769929,1
135,499,16,0.197139966900072,1
135,500,16,0.188130846350357,1
135,501,16,0.141418211973922,1
135,516,16,0.114960042549656,1
135,517,16,0.125196590495072,1
135,518,16,0.108948132322257,1
136,516,16,0.120302675076301,1
136,517,16,0.108631010939823,1
136,521,16,0.117405483305435,1
136,522,16,0.115298557439582,1
137,521,16,0.128431850993038,1
137,522,16,0.130891680499945,1
138,513,16,0.104978978592305,1
138,521,16,0.103655603880938,1
139,518,16,0.104074026532946,1
139,527,16,0.107439956968488,1
139,528,16,0.129697826856878,1
140,526,16,0.105731354119346,1
140,527,16,0.122787467393305,1
140,528,16,0.116537094289642,1
141,526,16,0.115618891194361,1
141,527,16,0.12673808305785,1
141,528,16,0.10400081121325,1
142,525,16,0.103435913305566,1
142,526,16,0.112955555668583,1
142,527,16,0.114736336508853,1
143,525,16,0.109557914210206,1
144,525,16,0.105890567323695,1
145,504,16,0.11305777157195,1
145,505,16,0.11513322065045,1
147,524,16,0.104798818043289,1
147,525,16,0.10360145086797,1
148,524,16,0.138303950834284,1
148,525,16,0.145695374210593,1
149,523,16,0.117191269378748,1
149,524,16,0.185851746250068,1
127,505,17,0.240034284043852,5
127,508,17,0.238655016284497,1
127,509,17,0.270173051390551,1
127,510,17,0.2549083041699,1
127,511,17,0.248361333173786,4
127,512,17,0.272115443560358,4
127,513,17,0.254674671006225,1
128,503,17,0.257228863950766,5
128,504,17,0.28480451509641,5
128,505,17,0.29106317567456,5
128,506,17,0.286465088517366,5
128,507,17,0.275307292415384,1
128,508,17,0.227601332277891,1
128,509,17,0.212435767053392,1
128,510,17,0.248730822917885,4
128,511,17,0.315216735638978,4
128,512,17,0.344526577071817,4
128,513,17,0.29045302570228,4
128,514,17,0.205592298551461,1
128,515,17,0.152858585301558,1
128,516,17,0.15024697120135,1
128,517,17,0.155797192136719,1
129,502,17,0.245699124209143,5
129,503,17,0.346098230241612,5
129,504,17,0.400961177498652,5
129,505,17,0.359650336839549,5
129,506,17,0.295389772752319,5
129,507,17,0.26484140562349,5
129,508,17,0.208296000658893,1
129,509,17,0.199736143766512,1
129,510,17,0.271647597221334,4
129,511,17,0.333435750009972,4
129,512,17,0.334658303076801,4
129,513,17,0.289325014538216,4
129,514,17,0.247364650037464,4
129,515,17,0.189773037862894,1
129,516,17,0.164204338647936,1
129,517,17,0.168331244398983,1
129,518,17,0.139696123853373,1
129,521,17,0.121237910437453,1
130,502,17,0.276640806176964,5
130,503,17,0.356694418886751,5
130,504,17,0.374819203668958,5
130,505,17,0.305619394019865,5
130,506,17,0.243722466734323,5
130,507,17,0.231518195724671,1
130,508,17,0.212299442002,1
130,509,17,0.236497261318727,4
130,510,17,0.32455882750551,4
130,511,17,0.335817724103795,4
130,512,17,0.291560580300787,4
130,513,17,0.282081114900223,4
130,514,17,0.309531996611661,4
130,515,17,0.232949463761361,1
130,516,17,0.153749951702874,1
130,517,17,0.146477508798108,1
130,518,17,0.140503087402138,1
130,519,17,0.109294600064551,1
130,521,17,0.121109683241348,1
130,522,17,0.146958896178892,1
130,523,17,0.144679416840202,1
131,501,17,0.236123153789381,1
131,503,17,0.268479082682092,5
131,504,17,0.241302234178196,5
131,505,17,0.209275439602001,5
131,506,17,0.208756440695011,1
131,507,17,0.244185583747395,1
131,508,17,0.276665835911485,4
131,509,17,0.315689177455107,4
131,510,17,0.388904385611035,4
131,511,17,0.339515410062453,4
131,512,17,0.24206595339508,4
131,513,17,0.232698051009082,1
131,514,17,0.292531742923478,1
131,515,17,0.229097517005719,1
131,516,17,0.133176502638473,1
131,517,17,0.109824273417146,1
131,518,17,0.114968530797415,1
131,519,17,0.112119178835535,1
131,520,17,0.120370067971122,1
131,521,17,0.132962288711786,1
131,522,17,0.136978401079143,1
131,523,17,0.11807232941879,1
132,499,17,0.168440297747654,1
132,500,17,0.236496324376793,7
132,501,17,0.269370739089244,1
132,502,17,0.229405882442699,1
132,503,17,0.178537642891453,1
132,504,17,0.153466783311476,1
132,505,17,0.160383890987788,1
132,506,17,0.179404849575757,1
132,507,17,0.226879306977067,1
132,508,17,0.291870284226243,4
132,509,17,0.312775288040489,4
132,510,17,0.316409708110464,4
132,511,17,0.24139032902813,4
132,512,17,0.159252589372883,1
132,513,17,0.138475656597753,1
132,514,17,0.16414434090195,1
132,515,17,0.142045572677203,1
133,498,17,0.175731156023051,1
133,499,17,0.263690461690184,7
133,500,17,0.32167650411081,7
133,501,17,0.293430961790526,7
133,502,17,0.198654421995613,1
133,504,17,0.124625401691546,1
133,505,17,0.136236343067446,1
133,506,17,0.136791023846421,1
133,507,17,0.150193264351207,1
133,508,17,0.188899874904867,1
133,509,17,0.192645902605689,4
133,510,17,0.168530389176233,4
133,511,17,0.12780681033645,1
134,498,17,0.221744887487105,1
134,499,17,0.321989777338873,1
134,500,17,0.306691724063283,7
134,501,17,0.221660005009516,1
134,505,17,0.10309304832809,1
134,508,17,0.107407744012473,1
134,509,17,0.107087834112378,1
134,517,17,0.108336097312039,1
135,499,17,0.22069830103873,1
135,500,17,0.18606274780441,1
135,511,17,0.107371470974744,1
135,516,17,0.109718878603646,1
135,517,17,0.114002242503595,1
136,516,17,0.103770122724224,1
137,513,17,0.107159242472631,1
137,514,17,0.103522848132153,1
138,513,17,0.112888597782517,1
138,514,17,0.106191414917061,1
139,526,17,0.119506151737657,1
139,527,17,0.141951019620367,1
139,528,17,0.144967359173835,1
140,526,17,0.145845597234005,1
140,527,17,0.161009790507814,1
140,528,17,0.122376986439595,1
141,525,17,0.111075023974559,1
141,526,17,0.145098876820779,1
141,527,17,0.147603969546353,1
141,528,17,0.106869058170798,1
142,525,17,0.119277136359227,1
142,526,17,0.132191631662962,1
142,527,17,0.123122178745142,1
143,525,17,0.118759219397089,1
143,526,17,0.1150526547982,1
144,504,17,0.112093167542797,1
144,505,17,0.129137903664701,1
144,525,17,0.106845043456705,1
145,504,17,0.134180647848054,1
145,505,17,0.138869127593734,1
148,524,17,0.132331113316345,1
148,525,17,0.141870420305905,1
149,523,17,0.113754767138252,1
149,524,17,0.161008820103669,1
150,523,17,0.149089714064061,1
151,507,17,0.105202260778424,1
153,505,17,0.119452969128834,1
127,511,18,0.242315871501894,4
127,512,18,0.256834143698874,4
128,503,18,0.206243227806009,1
128,504,18,0.24263893800398,5
128,505,18,0.282674042987431,5
128,506,18,0.299299252204334,5
128,508,18,0.199126373032634,1
128,509,18,0.179162940091665,1
128,510,18,0.235120782077033,4
128,511,18,0.328351389989052,4
128,512,18,0.346936280185258,4
128,513,18,0.264924347292787,4
129,502,18,0.20515454589503,1
129,503,18,0.285402261742136,5
129,504,18,0.351003790510135,5
129,505,18,0.348497560069355,5
129,506,18,0.312457240870192,5
129,507,18,0.267980941887203,5
129,508,18,0.188618011539734,1
129,509,18,0.174390302882988,1
129,510,18,0.256113791508647,4
129,511,18,0.33216592599176,4
129,512,18,0.331013130482728,4
129,513,18,0.281019202758785,4
129,514,18,0.237915367552059,1
129,515,18,0.167796183630268,1
129,516,18,0.123116824791234,1
129,517,18,0.117446441052834,1
130,502,18,0.241756784865015,5
130,503,18,0.328984561963138,5
130,504,18,0.355410005344138,5
130,505,18,0.28554592617201,5
130,506,18,0.232592131954262,5
130,507,18,0.224165856211894,1
130,508,18,0.194168210166962,1
130,509,18,0.206618473050561,4
130,510,18,0.29668145874899,4
130,511,18,0.334552696335959,4
130,512,18,0.295492814056913,4
130,513,18,0.26828058484094,4
130,514,18,0.269447211397568,1
130,515,18,0.19644747757831,1
130,516,18,0.125686477277686,1
130,517,18,0.11275859708918,1
130,518,18,0.118581323124414,1
130,521,18,0.124786689553035,1
131,500,18,0.167884858491875,1
131,501,18,0.224990833584746,1
131,502,18,0.267764842922577,1
131,503,18,0.282123812682642,5
131,504,18,0.252883238028492,5
131,505,18,0.198967070595719,1
131,506,18,0.195020626553595,1
131,507,18,0.234696191223959,1
131,508,18,0.25607582305218,1
131,509,18,0.275868542941967,4
131,510,18,0.342208961965601,4
131,511,18,0.334765114457273,4
131,512,18,0.249606908242421,4
131,513,18,0.206432824698789,1
131,514,18,0.222605780967426,1
131,515,18,0.178144238819896,1
131,516,18,0.117754984954943,1
131,518,18,0.105606216600809,1
131,519,18,0.103823963423215,1
131,520,18,0.124717790858677,1
131,521,18,0.135800977382132,1
131,522,18,0.120933705468823,1
132,499,18,0.173031000910083,1
132,500,18,0.240519798430774,1
132,501,18,0.290840071953571,1
132,502,18,0.250221185220839,1
132,503,18,0.197652875684492,1
132,504,18,0.163695133014969,1
132,505,18,0.159937940089434,1
132,506,18,0.179643178603173,1
132,507,18,0.22645672385671,1
132,508,18,0.286260857483904,1
132,509,18,0.303526243431256,4
132,510,18,0.295673621542026,4
132,511,18,0.241076431172112,4
132,512,18,0.16412524513301,1
132,513,18,0.128339907988733,1
132,514,18,0.134365336949751,1
132,515,18,0.120764464754966,1
132,520,18,0.118801961795791,1
132,521,18,0.115546958592788,1
133,498,18,0.175698017279172,1
133,499,18,0.248276562236903,1
133,500,18,0.296133102328069,7
133,501,18,0.295130864464568,1
133,502,18,0.205223254970187,1
133,505,18,0.143407027385742,1
133,506,18,0.141200763366748,1
133,507,18,0.152278629398507,1
133,508,18,0.193184889607271,1
133,509,18,0.202626185778096,1
133,510,18,0.172947802697161,1
133,511,18,0.133595192988176,1
134,498,18,0.214989759224662,1
134,499,18,0.294032389279564,1
134,500,18,0.267488266586928,1
134,501,18,0.206761155922218,1
134,505,18,0.120324090891934,1
134,508,18,0.11100367138466,1
134,509,18,0.110258724468667,1
135,499,18,0.220618482509213,1
135,500,18,0.174230119274493,1
135,511,18,0.10980715191871,1
135,512,18,0.108956274793826,1
136,511,18,0.105247501688949,1
136,512,18,0.106952591005839,1
137,513,18,0.11251411101477,1
137,514,18,0.114127424638414,1
138,513,18,0.114707704009514,1
138,514,18,0.109444142689653,1
138,523,18,0.107722076877246,1
138,524,18,0.116052137606253,1
138,525,18,0.10687637524114,1
138,526,18,0.113402465817012,1
138,527,18,0.125522724366585,1
139,523,18,0.121287612976235,1
139,524,18,0.124407060758721,1
139,525,18,0.121716933155261,1
139,526,18,0.161516598015593,1
139,527,18,0.173996318799758,1
140,524,18,0.108167949697105,1
140,525,18,0.125412466378285,1
140,526,18,0.192347107361321,1
140,527,18,0.195659509411849,1
141,525,18,0.131896952270661,1
141,526,18,0.190529038462894,1
141,527,18,0.178281400426585,1
141,528,18,0.110989449944591,1
142,524,18,0.10777042977348,1
142,525,18,0.139058992184209,1
142,526,18,0.159888404861711,1
142,527,18,0.137596593136356,1
143,524,18,0.116676297091259,1
143,525,18,0.133242333963404,1
143,526,18,0.125862633515341,1
143,527,18,0.104737838739087,1
144,504,18,0.110300842239413,1
144,505,18,0.130894982104855,1
144,524,18,0.108511338915901,1
144,525,18,0.116204100664684,1
144,526,18,0.107666027672268,1
145,504,18,0.123751156788666,1
145,505,18,0.133177885743233,1
145,508,18,0.109165614391642,1
148,524,18,0.121085077361511,1
149,523,18,0.109733668901318,1
150,506,18,0.107610000775431,1
150,507,18,0.127757364341293,1
151,506,18,0.108626170073164,1
151,507,18,0.130516736415301,1
152,504,18,0.104279651825239,1
153,504,18,0.104667612710322,1
153,505,18,0.116829386710826,1
127,511,19,0.241760978795576,4
127,512,19,0.242565945765696,4
128,504,19,0.213721876014742,1
128,505,19,0.260078015139375,5
128,510,19,0.227883976427969,4
128,511,19,0.339636833275466,4
128,512,19,0.342565892226157,4
128,513,19,0.244696640956088,4
129,503,19,0.239625933517634,1
129,504,19,0.302186795704094,5
129,505,19,0.31124923271148,5
129,506,19,0.297544003031766,5
129,508,19,0.172071126206882,1
129,509,19,0.157114855963916,1
129,510,19,0.233758356964347,4
129,511,19,0.328134911786025,4
129,512,19,0.331370261516556,4
129,513,19,0.282841220198219,4
130,501,19,0.159528005685185,1
130,502,19,0.222158101188123,1
130,503,19,0.293414766079954,5
130,504,19,0.322139554199458,5
130,505,19,0.261584305455206,5
130,507,19,0.209847844199227,1
130,508,19,0.182410704302821,1
130,509,19,0.188916382929418,1
130,510,19,0.261138901106314,4
130,511,19,0.328549218585965,4
130,512,19,0.315790567957246,4
130,513,19,0.281558725155758,4
130,514,19,0.246133419103675,1
130,515,19,0.175482163704101,1
131,500,19,0.166437026660281,1
131,501,19,0.231309213057116,1
131,502,19,0.272713145589801,1
131,503,19,0.282801154776472,1
131,504,19,0.260436975440789,5
131,506,19,0.191793820841176,1
131,507,19,0.217685385784949,1
131,508,19,0.231807599241559,1
131,509,19,0.244602991378974,1
131,510,19,0.285226741286507,4
131,511,19,0.3146979598134,4
131,512,19,0.268506923242415,4
131,513,19,0.207806091568138,1
131,514,19,0.176365220322788,1
131,515,19,0.14150429909114,1
132,499,19,0.169331474529769,1
132,500,19,0.228652648052218,1
132,501,19,0.310022284940818,1
132,502,19,0.283913394084648,1
132,503,19,0.220906770619036,1
132,506,19,0.181492255817986,1
132,507,19,0.215012915075315,1
132,508,19,0.255132590222377,1
132,509,19,0.272404646303974,1
132,510,19,0.257444806758403,1
132,511,19,0.230378048931748,4
132,512,19,0.175139008720788,1
133,498,19,0.188436400961534,1
133,499,19,0.222670987664401,1
133,500,19,0.248138430226068,1
133,501,19,0.287587277256555,1
133,502,19,0.228147145570705,1
133,507,19,0.151804146387451,1
133,508,19,0.182109856709455,1
133,509,19,0.195491417567269,1
133,510,19,0.17132897896262,1
134,498,19,0.211616567489132,1
134,499,19,0.244317067932127,1
134,500,19,0.21288440608277,1
134,501,19,0.190635916767789,1
135,499,19,0.200743757892063,1
135,500,19,0.158268264946834,1
138,526,19,0.147003177839342,1
139,524,19,0.185976560300557,1
139,525,19,0.152529216749559,1
139,526,19,0.186219819427197,1
140,524,19,0.137820232252736,1
140,525,19,0.14034928392205,1
140,526,19,0.202454256933214,1
141,525,19,0.143602491319679,1
141,526,19,0.209009481941604,1
141,527,19,0.188266368308662,1
142,525,19,0.153004937862457,1
142,526,19,0.171173658528924,1
142,527,19,0.142307514872169,1
143,524,19,0.131306433462712,1
143,525,19,0.146237105113552,1
143,526,19,0.129294071807765,1
144,525,19,0.129596023654125,1
144,526,19,0.110593591977493,1
128,504,20,0.18760149646581,1
128,511,20,0.31476446038257,4
128,512,20,0.311117904683737,4
129,502,20,0.162314660615985,1
129,503,20,0.201745616517162,1
129,504,20,0.250107547549134,1
129,505,20,0.254665123121755,5
129,511,20,0.295855633666769,4
129,512,20,0.316825955718696,4
129,513,20,0.280165804813936,4
130,501,20,0.174355636031432,1
130,502,20,0.219886240079681,1
130,503,20,0.254055865475126,1
130,504,20,0.27107142254823,5
130,505,20,0.228710582295135,1
130,511,20,0.296001885841032,4
130,512,20,0.326980086236136,4
130,513,20,0.299463484740473,4
131,500,20,0.16919379983583,1
131,501,20,0.248159176797463,1
131,502,20,0.280048285525648,1
131,503,20,0.268868716677772,1
131,504,20,0.246114903346409,1
131,511,20,0.271526486322299,4
131,512,20,0.27255928633936,4
132,499,20,0.161150833731087,1
132,500,20,0.21138108274973,1
132,501,20,0.305796609894232,1
132,502,20,0.294780983576657,1
132,503,20,0.234452564012988,1
133,499,20,0.200645579762268,1
133,500,20,0.203929003537268,1
133,501,20,0.255937467959932,1
133,502,20,0.232322828072672,1
133,503,20,0.191373111604686,1
134,497,20,0.176974701050829,1
134,498,20,0.215449596940965,1
134,499,20,0.206253601091707,1
134,500,20,0.169626522006401,1
134,501,20,0.165889227942892,1
134,502,20,0.153697215256877,1
129,501,21,0.137690198097187,1
129,502,21,0.164160570074735,1
129,503,21,0.176681705923195,1
129,504,21,0.198342978035136,1
129,512,21,0.291493276638531,4
130,500,21,0.148140346495404,1
130,501,21,0.219599825853726,1
130,502,21,0.249462574568308,1
130,503,21,0.232266566940352,1
130,504,21,0.219734968573629,1
130,511,21,0.251496630890654,4
130,512,21,0.322362613304165,4
130,513,21,0.300654895642069,4
131,500,21,0.196401165877003,1
131,501,21,0.282312182627651,1
131,502,21,0.294583690375135,1
131,503,21,0.255272618425222,1
131,504,21,0.219463969273302,1
131,512,21,0.262747853488337,4
132,499,21,0.172764842476414,1
132,500,21,0.219275443171304,1
132,501,21,0.290554059274159,1
132,502,21,0.283449563211055,1
132,503,21,0.241603304852976,1
132,504,21,0.195970105662957,1
133,497,21,0.180689318888723,1
133,498,21,0.199789370991617,1
133,499,21,0.194943328844043,1
133,500,21,0.193918938996246,1
133,501,21,0.225596031149661,1
133,502,21,0.222588737547484,1
133,503,21,0.214074969274997,1
134,496,21,0.161687567610399,1
134,497,21,0.228185805579552,1
134,498,21,0.227646149333732,1
134,499,21,0.194374292776151,1
134,500,21,0.160316855023227,1
134,501,21,0.154422497546328,1
134,502,21,0.154840719425064,1
135,497,21,0.197800354806525,1
135,498,21,0.20275630916621,1
129,501,22,0.146523106638894,1
129,502,22,0.168257783689733,1
129,503,22,0.161045160065822,1
130,500,22,0.176010922422903,1
130,501,22,0.257459106276967,1
130,502,22,0.275042383237627,1
130,503,22,0.232152639262811,1
130,504,22,0.189552254188599,1
130,512,22,0.287188541539231,4
131,499,22,0.166731059116485,1
131,500,22,0.23847465496221,1
131,501,22,0.300092083545595,1
131,502,22,0.294493230862225,1
131,503,22,0.25648890290435,1
131,504,22,0.204657342042075,1
132,499,22,0.201197037014828,1
132,500,22,0.24407299455833,1
132,501,22,0.26753344057303,1
132,502,22,0.259102903975677,1
132,503,22,0.250365474278669,1
132,504,22,0.202584335705046,1
133,497,22,0.189650320777687,1
133,498,22,0.193769229060084,1
133,499,22,0.203825114523305,1
133,500,22,0.209556901420591,1
133,501,22,0.208210939716174,1
133,502,22,0.206580861524355,1
133,503,22,0.226409252132056,1
134,496,22,0.188279864734139,1
134,497,22,0.280094619535097,1
134,498,22,0.247311735126337,1
134,499,22,0.199000956662331,1
134,500,22,0.171394219121807,1
134,501,22,0.154895329754929,1
135,496,22,0.172259540768173,1
135,497,22,0.254166023076791,1
135,498,22,0.233187737018424,1
135,499,22,0.187023224827426,1
136,497,22,0.161234110022504,1
136,498,22,0.166511892782433,1
129,500,23,0.114670527492063,1
129,501,23,0.149285456849764,1
129,502,23,0.163954141689356,1
129,503,23,0.150153076234682,1
130,499,23,0.139011520459555,1
130,500,23,0.204452910235341,1
130,501,23,0.256996792356981,1
130,502,23,0.269779825784124,1
130,503,23,0.236666468570372,1
130,504,23,0.180591430764765,1
131,498,23,0.130106233153449,1
131,499,23,0.210379670287456,1
131,500,23,0.272967703790002,1
131,501,23,0.282534550179978,1
131,502,23,0.28262141808214,1
131,503,23,0.276384485633602,1
131,504,23,0.215168425128212,1
132,498,23,0.156588863454633,1
132,499,23,0.23934630096663,1
132,500,23,0.271335751714314,1
132,501,23,0.243155773021266,1
132,502,23,0.247649993472638,1
132,503,23,0.276106213879215,1
132,504,23,0.226780303446046,1
133,496,23,0.143937548447706,1
133,497,23,0.18988060772017,1
133,498,23,0.197790583840643,1
133,499,23,0.234721845586437,1
133,500,23,0.250075379209401,1
133,501,23,0.209810924225401,1
133,502,23,0.201855305647859,1
133,503,23,0.234941759243222,1
134,495,23,0.15393982744742,1
134,496,23,0.213409048949505,1
134,497,23,0.327261057275617,1
134,498,23,0.272304884296148,1
134,499,23,0.218231065228916,1
134,500,23,0.204203594448342,1
135,496,23,0.214749433618601,1
135,497,23,0.327948192643471,8
135,498,23,0.268010277092992,1
135,499,23,0.187887196831245,1
136,497,23,0.194083037683537,1
136,498,23,0.179471260912362,1
129,500,24,0.122092992646969,1
129,501,24,0.1401489233511,1
129,502,24,0.145374683525554,1
130,499,24,0.164629063349857,1
130,500,24,0.209985195425118,1
130,501,24,0.220195497842312,1
130,502,24,0.228324629142767,1
130,503,24,0.217319063796912,1
131,498,24,0.148828586116252,1
131,499,24,0.239215530642418,1
131,500,24,0.271564075540363,1
131,501,24,0.240936559126256,1
131,502,24,0.255812475444313,1
131,503,24,0.285466709962307,1
131,504,24,0.221114102484136,1
132,498,24,0.166385751397538,1
132,499,24,0.26773780545534,1
132,500,24,0.283235583519852,1
132,501,24,0.219750026568996,1
132,502,24,0.238184136038258,1
132,503,24,0.301049169731136,1
132,504,24,0.250708417334639,1
133,496,24,0.137487774023169,1
133,497,24,0.176463844615408,1
133,498,24,0.20332878068786,1
133,499,24,0.279413150435129,1
133,500,24,0.298458904522137,1
133,501,24,0.215863301421091,1
133,502,24,0.196925585662326,1
133,503,24,0.234373950123101,1
134,495,24,0.160390828819727,1
134,496,24,0.217659619881765,1
134,497,24,0.328869318105261,8
134,498,24,0.26741485049396,1
134,499,24,0.234369666959974,1
134,500,24,0.233639387646876,1
135,495,24,0.131488400971172,1
135,496,24,0.232962045553046,8
135,497,24,0.353544487029199,8
135,498,24,0.263265491598709,8
135,499,24,0.174083632864746,1
136,496,24,0.150680585697572,1
136,497,24,0.208166769596431,8
136,498,24,0.175940796780775,1
130,499,25,0.176948678604021,1
130,500,25,0.185415387852468,1
130,501,25,0.175004602169547,1
130,502,25,0.185659148912286,1
130,503,25,0.18448909805597,1
131,498,25,0.159302637687856,1
131,499,25,0.229909667197333,1
131,500,25,0.230239916920913,1
131,501,25,0.202214868269087,1
131,502,25,0.232063473622095,1
131,503,25,0.268210983440131,1
131,504,25,0.210428569733153,1
132,498,25,0.167606921359608,1
132,499,25,0.259014697585037,1
132,500,25,0.262817611046135,1
132,501,25,0.207991851460617,1
132,502,25,0.241000784265015,1
132,503,25,0.309491775032925,1
132,504,25,0.257987563835862,1
133,497,25,0.159753540993574,1
133,498,25,0.198551269150312,1
133,499,25,0.292817978684303,1
133,500,25,0.311003798541065,1
133,501,25,0.222225650239933,1
133,502,25,0.20582338858703,1
133,503,25,0.2338794232471,1
134,496,25,0.205948916498039,1
134,497,25,0.28994393161002,1
134,498,25,0.239499290199561,1
134,499,25,0.236225012762488,1
134,500,25,0.244675314373019,1
134,501,25,0.195953820719819,1
135,495,25,0.126568775419569,1
135,496,25,0.22787913556131,1
135,497,25,0.327188823514137,8
135,498,25,0.236892829279989,1
135,499,25,0.164533015647555,1
135,500,25,0.154280807386957,1
136,496,25,0.154354848107881,1
136,497,25,0.212655078390362,1
136,498,25,0.175070500418902,1
130,503,26,0.149558720426432,1
131,499,26,0.187003125192129,1
131,500,26,0.17707107222118,1
131,501,26,0.173114667593971,1
131,502,26,0.206361059408276,1
131,503,26,0.22640202429428,1
131,504,26,0.179591602180523,1
132,498,26,0.15643740232938,1
132,499,26,0.219247223372579,1
132,500,26,0.222778691370524,1
132,501,26,0.201870207486237,1
132,502,26,0.240866556178905,1
132,503,26,0.288332034553348,1
132,504,26,0.235188911140516,1
133,497,26,0.139166171649012,1
133,498,26,0.180925115942103,1
133,499,26,0.260784803979701,1
133,500,26,0.276750227609966,1
133,501,26,0.218936404040058,1
133,502,26,0.214089893421517,1
133,503,26,0.228826941560076,1
134,496,26,0.176932583280084,1
134,497,26,0.224926229207585,1
134,498,26,0.202902070561365,1
134,499,26,0.217153671237426,1
134,500,26,0.231930606332603,1
134,501,26,0.200213181059746,1
135,496,26,0.201100308914217,1
135,497,26,0.265779529888938,1
135,498,26,0.208252633632236,1
135,499,26,0.161928997469454,1
135,500,26,0.166881784073076,1
136,497,26,0.20278738440702,1
131,501,27,0.164262049809439,1
131,502,27,0.189333946717986,1
131,503,27,0.189148833761605,1
132,499,27,0.184342042788621,1
132,500,27,0.194332911174068,1
132,501,27,0.209607250895471,1
132,502,27,0.245702626587325,1
132,503,27,0.254220254168254,1
132,504,27,0.200821970235407,1
133,498,27,0.164409372774484,1
133,499,27,0.209994007140925,1
133,500,27,0.224655564529377,1
133,501,27,0.220374855298242,1
133,502,27,0.232840020020218,1
133,503,27,0.224105490381577,1
134,497,27,0.16886701902822,1
134,498,27,0.177091874562928,1
134,499,27,0.190356440373774,1
134,500,27,0.210535202648494,1
134,501,27,0.206834014311654,1
134,502,27,0.184817986982932,1
135,497,27,0.206894201676841,1
135,500,27,0.192261555639494,1
131,502,28,0.166527698100533,1
132,501,28,0.206754686561246,1
132,502,28,0.233827958365156,1
132,503,28,0.213163681703514,1
133,499,28,0.161771780843749,1
133,500,28,0.180288430435765,1
133,501,28,0.217435913840961,1
133,502,28,0.238710652788861,1
133,503,28,0.208389694852289,1
134,500,28,0.184688030905877,1
134,501,28,0.205229880488149,1
134,502,28,0.187213669429575,1
132,502,29,0.206830868863733,1
133,501,29,0.204371820141771,1
133,502,29,0.224898589420534,1
