x,y,z,signal,mito.p
763,428,50,0.157206888200787,1
764,428,50,0.159335921434653,1
741,448,51,0.134189805340051,1
742,441,51,0.162933343452306,1
742,442,51,0.133674453814161,1
742,443,51,0.122413995645986,1
742,444,51,0.112481451895929,1
742,449,51,0.115476442558187,1
742,450,51,0.125328152758299,1
742,451,51,0.125475721112898,1
743,439,51,0.128305218829035,1
743,440,51,0.128765023083126,1
743,441,51,0.112467877391957,1
743,451,51,0.103841151846075,1
744,438,51,0.108004944108737,1
752,428,51,0.113944888272351,1
753,427,51,0.125492831457263,1
753,428,51,0.124180934284588,1
754,427,51,0.146663268690586,1
754,428,51,0.134453565648532,1
755,428,51,0.103534191821996,1
761,427,51,0.114788883335649,1
762,427,51,0.187669090133903,1
762,428,51,0.139901046439215,1
763,427,51,0.259795281756732,1
763,428,51,0.187040535945063,1
764,427,51,0.233187157006751,1
764,428,51,0.163259165009841,1
765,427,51,0.213836383703956,1
765,428,51,0.146582669376124,1
766,427,51,0.183714871704541,1
766,428,51,0.1311853894881,1
767,427,51,0.146717064773294,1
767,428,51,0.116090094908649,1
768,427,51,0.122775699848778,1
769,427,51,0.115743995250686,1
770,427,51,0.117937342855876,1
771,427,51,0.121934928311896,1
772,427,51,0.132917895510629,1
772,428,51,0.110327455851965,1
773,427,51,0.137107899839301,1
773,428,51,0.111609080876917,1
781,459,51,0.104361935404368,1
782,458,51,0.107100984761666,1
783,457,51,0.113977469312698,1
783,458,51,0.13051585524372,1
784,457,51,0.125395244493213,1
740,448,52,0.16670198045432,1
741,441,52,0.164418764501965,1
741,442,52,0.147167466145834,1
741,443,52,0.141795944576226,1
741,444,52,0.126626140804883,1
741,447,52,0.119965130590521,1
741,448,52,0.131751815503462,1
741,449,52,0.144015649250344,1
741,450,52,0.169264059326806,1
741,451,52,0.175633914835191,1
742,439,52,0.171191092341338,1
742,440,52,0.177010449847238,1
742,441,52,0.15875472742976,1
742,442,52,0.143325268047933,1
742,443,52,0.132699409574886,1
742,444,52,0.112383842623737,1
742,449,52,0.115517790698058,1
742,450,52,0.123047056079366,1
742,451,52,0.13217110817298,1
742,452,52,0.140518301554494,1
743,438,52,0.170754466246042,1
743,439,52,0.143405555048417,1
743,440,52,0.129944777980901,1
743,441,52,0.124241824356225,1
743,442,52,0.115331562334613,1
743,450,52,0.104812158311777,1
743,451,52,0.112272268455101,1
743,452,52,0.116448263271046,1
743,453,52,0.111292059881119,1
744,437,52,0.120783616294259,1
744,438,52,0.127273534219038,1
744,439,52,0.109761766005266,1
744,440,52,0.106435421366434,1
744,441,52,0.10714221020676,1
745,437,52,0.118937963379134,1
745,438,52,0.108265202039036,1
745,441,52,0.105961429134486,1
746,433,52,0.117874467359665,1
746,436,52,0.105219047654741,1
746,437,52,0.112958768040928,1
747,432,52,0.132937258977265,1
747,433,52,0.109113346416612,1
747,454,52,0.109236476202433,1
748,454,52,0.106867853531169,1
751,428,52,0.142174725661171,1
752,427,52,0.157994053274161,1
752,428,52,0.12440911310772,1
752,429,52,0.104575446624604,1
753,426,52,0.123688526682009,1
753,427,52,0.136342039040853,1
753,428,52,0.149050607892388,1
753,429,52,0.133293096138898,1
754,426,52,0.14106761722549,1
754,427,52,0.175808041031989,1
754,428,52,0.174085986373652,1
754,429,52,0.129517532459015,1
755,427,52,0.159716375630194,1
755,428,52,0.122101224351103,1
759,462,52,0.105114634399457,1
761,426,52,0.144186741539927,1
761,427,52,0.109758430938144,1
762,426,52,0.178075117044125,1
762,427,52,0.185389108862034,1
762,428,52,0.153803100849485,1
763,426,52,0.199346889009234,1
763,427,52,0.258424513399207,1
763,428,52,0.203604063151314,1
764,426,52,0.191247873699513,1
764,427,52,0.224376378141198,1
764,428,52,0.1615641255106,1
765,426,52,0.205258323368287,1
765,427,52,0.206612606009403,1
765,428,52,0.136740562830835,1
766,426,52,0.183622460229269,1
766,427,52,0.186108914502799,1
766,428,52,0.131149808002751,1
767,426,52,0.148547536998275,1
767,427,52,0.156400593896261,1
767,428,52,0.121659010066415,1
768,426,52,0.133736849685335,1
768,427,52,0.132849866833781,1
768,428,52,0.105062500273275,1
769,426,52,0.137489157127929,1
769,427,52,0.125480227357437,1
770,426,52,0.145843366419876,1
770,427,52,0.12879929954221,1
771,426,52,0.144763406992139,1
771,427,52,0.137236684738938,1
771,428,52,0.110621477154099,1
772,426,52,0.152633730391478,1
772,427,52,0.159219762942983,1
772,428,52,0.129926574537612,1
773,426,52,0.173302078288905,1
773,427,52,0.169314676499381,1
773,428,52,0.129647410457575,1
774,427,52,0.139118956467982,1
775,427,52,0.106515786445413,1
778,427,52,0.10633654053019,1
779,427,52,0.11907593923298,1
779,428,52,0.10328508796234,1
780,428,52,0.107601400986966,1
780,459,52,0.112626254041008,1
780,460,52,0.107686461929685,1
781,459,52,0.12640887066284,1
781,460,52,0.111336687317759,1
782,457,52,0.104019170813527,1
782,458,52,0.125503338591808,1
782,459,52,0.13045802138744,1
783,456,52,0.111399785895383,1
783,457,52,0.146644976014733,1
783,458,52,0.152384001903866,1
783,459,52,0.12373003097887,1
784,455,52,0.103252060759167,1
784,456,52,0.132988467315584,1
784,457,52,0.155238886284785,1
784,458,52,0.138488182619085,1
785,455,52,0.107054929603983,1
785,456,52,0.118155873407901,1
785,457,52,0.118636256922328,1
786,454,52,0.107540053598433,1
786,455,52,0.103413225925879,1
787,453,52,0.104434146857706,1
787,454,52,0.10944877162897,1
787,456,52,0.108903170263498,1
788,455,52,0.104885719407664,1
788,456,52,0.1284107028751,1
789,455,52,0.126359101199634,1
741,442,53,0.155545678997804,1
741,444,53,0.115559908468804,1
741,448,53,0.12354234143217,1
741,449,53,0.135670106671285,1
742,439,53,0.188377105922,1
742,440,53,0.17820786163884,1
742,441,53,0.15523010803119,1
742,442,53,0.143291393135392,1
742,443,53,0.128871555611832,1
742,444,53,0.103196234635602,1
742,449,53,0.113726045406348,1
742,450,53,0.127776828194564,1
742,451,53,0.155549861774295,1
742,452,53,0.171520561279973,1
743,438,53,0.169688717104303,1
743,439,53,0.168015539583521,1
743,440,53,0.142741519760864,1
743,441,53,0.133865277654711,1
743,442,53,0.125560815517829,1
743,443,53,0.104988381473856,1
743,449,53,0.103875751773207,1
743,450,53,0.116987406429617,1
743,451,53,0.131918769632837,1
743,452,53,0.140192134220769,1
743,453,53,0.136581572707899,1
743,454,53,0.121097871080538,1
744,437,53,0.129899313988962,1
744,438,53,0.155748303845094,1
744,439,53,0.145294106519233,1
744,440,53,0.128023455850538,1
744,441,53,0.128072221447386,1
744,442,53,0.108453583138115,1
744,450,53,0.112512962145494,1
744,451,53,0.114667805898826,1
744,452,53,0.109365484183483,1
744,453,53,0.116263964561822,1
744,454,53,0.117685048932016,1
744,455,53,0.106201922051607,1
745,436,53,0.117899709021528,1
745,437,53,0.157395994314458,1
745,438,53,0.159886341358643,1
745,439,53,0.136612971416757,1
745,440,53,0.128696972098137,1
745,441,53,0.135996028615456,1
745,442,53,0.104477703503565,1
745,453,53,0.108355884633358,1
745,454,53,0.115812748942126,1
746,433,53,0.161900019193925,1
746,434,53,0.123408414505967,1
746,435,53,0.105975661728626,1
746,436,53,0.138936063171659,1
746,437,53,0.16298810993916,1
746,438,53,0.138731798675985,1
746,439,53,0.116775401008917,1
746,440,53,0.116656208610032,1
746,441,53,0.121500064559761,1
746,454,53,0.113045245550619,1
746,458,53,0.114381815527555,1
747,432,53,0.186237476321023,1
747,433,53,0.157567454688373,1
747,434,53,0.116805003912402,1
747,436,53,0.114873866199873,1
747,437,53,0.119940970873509,1
747,438,53,0.11086546129533,1
747,439,53,0.111043290643582,1
747,440,53,0.111734028776253,1
747,441,53,0.105544121889542,1
747,453,53,0.11749464894615,1
747,454,53,0.140644063700987,1
747,455,53,0.112947257040026,1
747,459,53,0.103332805076548,1
748,431,53,0.161088471322126,1
748,432,53,0.13339037078897,1
748,433,53,0.112164341667566,1
748,438,53,0.104087534112494,1
748,439,53,0.114641069591496,1
748,440,53,0.114555406328962,1
748,441,53,0.105171944014418,1
748,453,53,0.116811484427445,1
748,454,53,0.143068668652805,1
748,455,53,0.116145608718236,1
749,430,53,0.16176311413086,1
749,431,53,0.111168260851059,1
749,439,53,0.103515542215882,1
749,440,53,0.112062226150835,1
749,441,53,0.104406652073573,1
750,429,53,0.155770723527085,1
750,430,53,0.108922957584817,1
750,439,53,0.10913866615697,1
750,440,53,0.118991123679815,1
751,428,53,0.163797984700363,1
751,429,53,0.118204728237315,1
751,438,53,0.105923505294302,1
751,439,53,0.125813432909737,1
751,440,53,0.119550176854482,1
752,427,53,0.170874383659519,1
752,428,53,0.139508612771804,1
752,429,53,0.122724491510458,1
752,437,53,0.110805307392356,1
752,438,53,0.112538159191075,1
752,439,53,0.104053915743578,1
753,427,53,0.143311180456712,1
753,428,53,0.165842280459558,1
753,429,53,0.162442330108558,1
753,430,53,0.105406291038614,1
754,426,53,0.141003659784427,1
754,427,53,0.185365239150859,1
754,428,53,0.197858065968029,1
754,429,53,0.159975295072016,1
755,427,53,0.167002248036014,1
755,428,53,0.13362980406938,1
760,426,53,0.120155184800196,1
761,425,53,0.173867533900121,1
761,426,53,0.148170886340823,1
761,427,53,0.117416124288828,1
761,428,53,0.104658522142749,1
762,425,53,0.199855693095657,1
762,426,53,0.190410939162933,1
762,427,53,0.186671447747507,1
762,428,53,0.175867191068605,1
762,429,53,0.114688039382971,1
763,425,53,0.185701121680114,1
763,426,53,0.206330497254716,1
763,427,53,0.236511471604725,1
763,428,53,0.206161825398461,1
763,429,53,0.109622496279225,1
764,425,53,0.171496814263576,1
764,426,53,0.196330337528424,1
764,427,53,0.210041679638851,1
764,428,53,0.158218852413888,1
765,425,53,0.17927397886491,1
765,426,53,0.201126186358108,1
765,427,53,0.192550780691251,1
765,428,53,0.130124860451422,1
766,425,53,0.163490132350633,1
766,426,53,0.180113434221456,1
766,427,53,0.180487987913628,1
766,428,53,0.133218531176654,1
767,425,53,0.13388175221705,1
767,426,53,0.150594219728588,1
767,427,53,0.162382098127089,1
767,428,53,0.131837367225289,1
768,425,53,0.131849324389018,1
768,426,53,0.146034814888382,1
768,427,53,0.146769042742488,1
768,428,53,0.11826732488176,1
769,425,53,0.141134853963322,1
769,426,53,0.153046174461622,1
769,427,53,0.140529422162924,1
769,428,53,0.109067335875212,1
770,425,53,0.145081309159518,1
770,426,53,0.157630118257242,1
770,427,53,0.143116765005415,1
770,428,53,0.112773465465346,1
771,425,53,0.143325959600313,1
771,426,53,0.158401221468891,1
771,427,53,0.154160633429856,1
771,428,53,0.130592550633458,1
772,425,53,0.152154384205622,1
772,426,53,0.175563989966333,1
772,427,53,0.181418683568028,1
772,428,53,0.150735441416992,1
773,425,53,0.185461710707845,1
773,426,53,0.203565648532022,1
773,427,53,0.191666932133548,1
773,428,53,0.145577308372843,1
774,426,53,0.193836443489775,1
774,427,53,0.159371781771768,1
774,428,53,0.121002894169018,1
775,426,53,0.155798430238561,1
775,427,53,0.128983430940375,1
775,428,53,0.107981933261001,1
776,426,53,0.13279392916951,1
776,427,53,0.120781932029592,1
776,428,53,0.105944608795957,1
777,426,53,0.130772744644685,1
777,427,53,0.124218434270088,1
777,428,53,0.111087494225538,1
777,458,53,0.121150830607948,1
777,459,53,0.106817916756903,1
778,426,53,0.130787468017933,1
778,427,53,0.126401140891885,1
778,428,53,0.114407402965609,1
778,458,53,0.116544879830951,1
778,459,53,0.103885823898997,1
779,427,53,0.134461273111346,1
779,428,53,0.11876825419431,1
780,427,53,0.142963429996294,1
780,428,53,0.12795665412146,1
780,459,53,0.123448769933551,1
780,460,53,0.109326076851904,1
781,428,53,0.12626908784955,1
781,429,53,0.106989600212231,1
781,458,53,0.117220069189146,1
781,459,53,0.141169989285846,1
782,428,53,0.121013590922764,1
782,429,53,0.105097256357396,1
782,457,53,0.118001768767906,1
782,458,53,0.136326612961155,1
782,459,53,0.131684143756875,1
783,428,53,0.129327969028447,1
783,429,53,0.109225177128873,1
783,451,53,0.106756903990489,1
783,455,53,0.109390000830755,1
783,456,53,0.147420596624992,1
783,457,53,0.174490812213547,1
783,458,53,0.161735518960091,1
783,459,53,0.119421447725199,1
784,428,53,0.15203298330075,1
784,429,53,0.129455069663417,1
784,455,53,0.13470477762754,1
784,456,53,0.175879449392241,1
784,457,53,0.17924984145604,1
784,458,53,0.141343145078498,1
785,429,53,0.135713562930508,1
785,454,53,0.107471534142476,1
785,455,53,0.126528341913491,1
785,456,53,0.137689283463394,1
785,457,53,0.127498389129118,1
786,429,53,0.122459336943148,1
786,452,53,0.10883688162167,1
786,453,53,0.128953816882819,1
786,454,53,0.124010154308983,1
786,455,53,0.11254901210181,1
786,456,53,0.1098571556174,1
786,457,53,0.106180885474375,1
787,429,53,0.106617333104541,1
787,452,53,0.12673321988305,1
787,453,53,0.134581580917295,1
787,454,53,0.118146972459529,1
787,455,53,0.107883175119534,1
787,456,53,0.117588465834323,1
788,450,53,0.108219883050015,1
788,451,53,0.103209262590113,1
788,452,53,0.104554331968878,1
788,455,53,0.109676983914313,1
789,450,53,0.117892916192507,1
742,442,54,0.136939127596411,1
742,443,54,0.119312974388201,1
742,449,54,0.108697790360759,1
743,439,54,0.180461675460982,1
743,440,54,0.155535216479542,1
743,441,54,0.136426743053312,1
743,442,54,0.128029635205673,1
743,443,54,0.105833425019794,1
743,449,54,0.103407057724814,1
743,450,54,0.125301282602122,1
743,451,54,0.147840603155032,1
743,452,54,0.160376060830197,1
743,453,54,0.169012256182054,1
744,437,54,0.131095119594392,1
744,438,54,0.178164661923242,1
744,439,54,0.175263621998005,1
744,440,54,0.142361612114784,1
744,441,54,0.139056426747961,1
744,442,54,0.125508882164918,1
744,450,54,0.13705040060514,1
744,451,54,0.142669464464514,1
744,452,54,0.125867150913951,1
744,453,54,0.142637173430004,1
744,454,54,0.163684246642022,1
744,455,54,0.144970482313615,1
745,436,54,0.123983931088902,1
745,437,54,0.184951925063206,1
745,438,54,0.213131223357945,1
745,439,54,0.174917399645265,1
745,440,54,0.143785719238122,1
745,441,54,0.152061660416372,1
745,442,54,0.124472122452778,1
745,450,54,0.119603225614458,1
745,451,54,0.120068707290506,1
745,452,54,0.108232364455064,1
745,453,54,0.129040796325689,1
745,454,54,0.148924901516249,1
745,455,54,0.133862344134132,1
745,456,54,0.108445708364241,1
746,434,54,0.15944022314923,1
746,435,54,0.120195250221944,1
746,436,54,0.159130876154034,1
746,437,54,0.196262833092896,1
746,438,54,0.173492723664325,1
746,439,54,0.140751477401273,1
746,440,54,0.132435783115253,1
746,441,54,0.1355592352091,1
746,442,54,0.105184414265396,1
746,453,54,0.11833886709086,1
746,454,54,0.133168828637871,1
746,455,54,0.115173776851306,1
746,457,54,0.112435530587094,1
747,433,54,0.22233342087048,1
747,434,54,0.152878707244997,1
747,435,54,0.114562299544619,1
747,436,54,0.136473690536646,1
747,437,54,0.143450193639128,1
747,438,54,0.134526937125218,1
747,439,54,0.140082467398213,1
747,440,54,0.13582037431098,1
747,441,54,0.120904124873479,1
747,452,54,0.107452717225303,1
747,453,54,0.136568198977198,1
747,454,54,0.172764619395001,1
747,455,54,0.136062149946224,1
747,458,54,0.108782416294723,1
748,432,54,0.164871999008448,1
748,433,54,0.142214289149739,1
748,434,54,0.114931008503774,1
748,435,54,0.108949537735158,1
748,436,54,0.112756522432041,1
748,437,54,0.115033124020505,1
748,438,54,0.134023754690398,1
748,439,54,0.152236902020234,1
748,440,54,0.144960945583216,1
748,441,54,0.129991837004941,1
748,442,54,0.116228494617179,1
748,452,54,0.10492610829746,1
748,453,54,0.13454659059769,1
748,454,54,0.174565522178709,1
748,455,54,0.136630672926867,1
749,431,54,0.142716768878108,1
749,432,54,0.105367441410567,1
749,434,54,0.10738461046996,1
749,435,54,0.124785719148889,1
749,436,54,0.118430274699775,1
749,437,54,0.109167153653391,1
749,438,54,0.113846308596014,1
749,439,54,0.129399823551526,1
749,440,54,0.144042485944309,1
749,441,54,0.134232469660259,1
749,442,54,0.116034681485697,1
750,430,54,0.135810101411918,1
750,434,54,0.112483705018199,1
750,435,54,0.126222586529042,1
750,436,54,0.112459679150035,1
750,438,54,0.108612985961665,1
750,439,54,0.136694384978376,1
750,440,54,0.1576651643472,1
750,441,54,0.124215088048895,1
751,429,54,0.148622068498308,1
751,430,54,0.103629681820766,1
751,436,54,0.10499347888414,1
751,437,54,0.126511967737788,1
751,438,54,0.142119423778926,1
751,439,54,0.157923503777348,1
751,440,54,0.148934772868767,1
752,428,54,0.169446629155081,1
752,429,54,0.145949564326462,1
752,430,54,0.108664941622717,1
752,436,54,0.121135973385852,1
752,437,54,0.162377580728479,1
752,438,54,0.152087024773012,1
752,439,54,0.121280028208198,1
753,428,54,0.180459110024734,1
753,429,54,0.175845529863418,1
753,430,54,0.1245759891586,1
753,437,54,0.108920492535205,1
754,427,54,0.184227802797102,1
754,428,54,0.204856308354194,1
754,429,54,0.172981376449795,1
754,430,54,0.1089400233129,1
755,427,54,0.160671197539394,1
755,428,54,0.137264279909707,1
756,456,54,0.103188839486766,1
761,426,54,0.153999590957921,1
761,427,54,0.129220979182846,1
761,428,54,0.118607680193342,1
762,425,54,0.19373010058027,1
762,426,54,0.206277604651729,1
762,427,54,0.190801844722666,1
762,428,54,0.186501303553928,1
762,429,54,0.134813864438422,1
762,459,54,0.106942240028283,1
763,425,54,0.194874307454908,1
763,426,54,0.211553167751601,1
763,427,54,0.208758314578879,1
763,428,54,0.18961373542598,1
763,429,54,0.116284856136135,1
764,425,54,0.179634244192588,1
764,426,54,0.194283164019003,1
764,427,54,0.188208545606452,1
764,428,54,0.146398415283183,1
765,425,54,0.188190699093424,1
765,426,54,0.188678645067746,1
765,427,54,0.171869560996303,1
765,428,54,0.125278004056691,1
766,425,54,0.191701286671127,1
766,426,54,0.177444622046993,1
766,427,54,0.168525157917101,1
766,428,54,0.137378006813977,1
766,429,54,0.105866485685178,1
767,425,54,0.158372399350351,1
767,426,54,0.15719080403092,1
767,427,54,0.168556378160829,1
767,428,54,0.152151896847869,1
767,429,54,0.111473581226753,1
768,425,54,0.151206399741725,1
768,426,54,0.162154744705185,1
768,427,54,0.166004706036253,1
768,428,54,0.144729454001103,1
769,425,54,0.162879547369598,1
769,426,54,0.173851115108135,1
769,427,54,0.160577815659976,1
769,428,54,0.127849731200282,1
770,425,54,0.165744414643742,1
770,426,54,0.170262147876028,1
770,427,54,0.157644953171196,1
770,428,54,0.130298830491232,1
771,425,54,0.166786327536518,1
771,426,54,0.170720446330583,1
771,427,54,0.170295308928048,1
771,428,54,0.152274100845827,1
772,425,54,0.182818229427811,1
772,426,54,0.196087401869833,1
772,427,54,0.201420564590502,1
772,428,54,0.170734924314277,1
772,429,54,0.103488404362009,1
773,425,54,0.219718906711904,1
773,426,54,0.223688528912823,1
773,427,54,0.20700688009847,1
773,428,54,0.159437345399004,1
774,425,54,0.237666230230191,1
774,426,54,0.210163348241418,1
774,427,54,0.177790855553804,1
774,428,54,0.139689643338329,1
775,425,54,0.200247245591487,1
775,426,54,0.17076415913343,1
775,427,54,0.156168689613535,1
775,428,54,0.132024532530669,1
776,426,54,0.159334616408387,1
776,427,54,0.157844611035695,1
776,428,54,0.127671823773536,1
776,458,54,0.1033496923395,1
777,426,54,0.168340825745665,1
777,427,54,0.16630504054237,1
777,428,54,0.130186453229509,1
777,457,54,0.11989027562244,1
777,458,54,0.145831052325887,1
777,459,54,0.120330582561048,1
778,426,54,0.159654649003259,1
778,427,54,0.158699927480694,1
778,428,54,0.132305057407325,1
778,457,54,0.114470523851374,1
778,458,54,0.136502947663941,1
778,459,54,0.111905790310075,1
779,426,54,0.150362460448781,1
779,427,54,0.153334161411538,1
779,428,54,0.137400649577381,1
779,429,54,0.106213522285075,1
780,426,54,0.15176887721608,1
780,427,54,0.157252854125904,1
780,428,54,0.1517039382168,1
780,429,54,0.120440483619087,1
780,458,54,0.108114354387668,1
780,459,54,0.124165909751433,1
781,427,54,0.151987017375633,1
781,428,54,0.152311600831326,1
781,429,54,0.130811270804684,1
781,454,54,0.103221074750923,1
781,458,54,0.123412898442365,1
781,459,54,0.141807578271906,1
782,427,54,0.150860824325083,1
782,428,54,0.141189999688578,1
782,429,54,0.123650926309874,1
782,430,54,0.10306284310479,1
782,455,54,0.105905368775437,1
782,456,54,0.116038975802895,1
782,457,54,0.123726483984405,1
782,458,54,0.138327184763432,1
783,428,54,0.150527172609957,1
783,429,54,0.132204068451728,1
783,430,54,0.109960743471456,1
783,450,54,0.11725086557819,1
783,451,54,0.125120687044351,1
783,452,54,0.115096289522553,1
783,455,54,0.134228710738452,1
783,456,54,0.179285077165199,1
783,457,54,0.179568100553679,1
783,458,54,0.154844946817837,1
784,428,54,0.187542959903079,1
784,429,54,0.172911540813503,1
784,430,54,0.132911928082836,1
784,431,54,0.109988338642225,1
784,450,54,0.105318385807882,1
784,451,54,0.114753513777642,1
784,452,54,0.106281428267146,1
784,455,54,0.157523273414558,1
784,456,54,0.205782653921044,1
784,457,54,0.181243631583367,1
785,429,54,0.195659665568838,1
785,430,54,0.144950639221942,1
785,431,54,0.109313104667747,1
785,453,54,0.106784287233916,1
785,454,54,0.11373008317992,1
785,455,54,0.1347523608929,1
785,456,54,0.147001460112463,1
785,457,54,0.127926549284797,1
786,429,54,0.175541380665141,1
786,430,54,0.125584317144672,1
786,452,54,0.129361464702587,1
786,453,54,0.147344191241092,1
786,454,54,0.129771689112672,1
786,455,54,0.115311763859223,1
786,456,54,0.112650681455715,1
787,430,54,0.106816957506828,1
787,451,54,0.1122173681194,1
787,452,54,0.152383667281747,1
787,453,54,0.149294223949289,1
787,454,54,0.117909926150237,1
787,455,54,0.108020325572153,1
788,449,54,0.113526599469191,1
788,450,54,0.122421959652425,1
788,451,54,0.107363796974142,1
788,452,54,0.114023535624451,1
788,453,54,0.1060394630127,1
789,449,54,0.126622850354044,1
789,450,54,0.12565842479002,1
743,442,55,0.129810404891872,1
743,443,55,0.107444206669403,1
743,453,55,0.195671198877883,1
743,454,55,0.208152336229019,1
744,439,55,0.180780034945257,1
744,440,55,0.145466693454283,1
744,441,55,0.138775478016621,1
744,442,55,0.1408370291231,1
744,443,55,0.110510282223865,1
744,450,55,0.141131608128765,1
744,451,55,0.159844067430908,1
744,452,55,0.14302464353598,1
744,453,55,0.170425175772538,1
744,454,55,0.214211472791519,1
744,455,55,0.188117483773727,1
745,437,55,0.188017007905381,1
745,438,55,0.231406498861259,1
745,439,55,0.188678734300311,1
745,440,55,0.145761328230301,1
745,441,55,0.151394368140191,1
745,442,55,0.142531455148456,1
745,450,55,0.127631501808164,1
745,451,55,0.146160855886641,1
745,452,55,0.13301549362875,1
745,453,55,0.150823770502409,1
745,454,55,0.182124490850137,1
745,455,55,0.165919611631322,1
746,436,55,0.164920898454144,1
746,437,55,0.20298637302728,1
746,438,55,0.186637070901787,1
746,439,55,0.154174096393122,1
746,440,55,0.143813392487385,1
746,441,55,0.141227421595584,1
746,442,55,0.115199609678914,1
746,451,55,0.118564491631815,1
746,452,55,0.126696444912142,1
746,453,55,0.141221130699741,1
746,454,55,0.160105507692695,1
746,455,55,0.144495408136814,1
746,456,55,0.125421835797624,1
747,434,55,0.182962172709451,1
747,435,55,0.125207220324394,1
747,436,55,0.152035537582927,1
747,437,55,0.162091534586855,1
747,438,55,0.151549220102919,1
747,439,55,0.162267657362298,1
747,440,55,0.158596083083014,1
747,441,55,0.137703939912218,1
747,442,55,0.117477348982584,1
747,451,55,0.116991767671238,1
747,452,55,0.131734649388744,1
747,453,55,0.155091674860447,1
747,454,55,0.195469131734125,1
747,455,55,0.163290072939591,1
747,456,55,0.130331779615909,1
747,457,55,0.111123287638229,1
748,433,55,0.175984163807432,1
748,434,55,0.128367871243833,1
748,435,55,0.123234734471994,1
748,436,55,0.144014411148503,1
748,437,55,0.145337205848195,1
748,438,55,0.159022882442074,1
748,439,55,0.180163225992804,1
748,440,55,0.172021869830925,1
748,441,55,0.158495908374574,1
748,442,55,0.154635863763646,1
748,443,55,0.118506088917931,1
748,451,55,0.113782797317776,1
748,452,55,0.124849843901012,1
748,453,55,0.145636380330965,1
748,454,55,0.187547533072043,1
748,455,55,0.151649450581712,1
748,456,55,0.113682064905805,1
749,432,55,0.13230671936385,1
749,433,55,0.109913282900872,1
749,434,55,0.130404481848356,1
749,435,55,0.17046531927278,1
749,436,55,0.172259206146054,1
749,437,55,0.14187606426565,1
749,438,55,0.135135469757254,1
749,439,55,0.155436313335155,1
749,440,55,0.178156764841227,1
749,441,55,0.172780491637526,1
749,442,55,0.158733858163588,1
749,443,55,0.112135396854249,1
749,454,55,0.110522808245196,1
750,433,55,0.115480379945124,1
750,434,55,0.166975188260635,1
750,435,55,0.186068269069378,1
750,436,55,0.15527248234556,1
750,437,55,0.12597825661162,1
750,438,55,0.133781075575432,1
750,439,55,0.166878939785062,1
750,440,55,0.195176783542588,1
750,441,55,0.157376385458269,1
750,442,55,0.119125831390963,1
751,430,55,0.125022129676155,1
751,433,55,0.118966874730239,1
751,434,55,0.144002230903361,1
751,435,55,0.129963561435863,1
751,436,55,0.123942605257172,1
751,437,55,0.154326449844026,1
751,438,55,0.176152434117143,1
751,439,55,0.179520004201069,1
751,440,55,0.168023715517302,1
751,441,55,0.119547477569387,1
752,429,55,0.175733197217978,1
752,430,55,0.126127040759919,1
752,436,55,0.138987706518733,1
752,437,55,0.193878762033792,1
752,438,55,0.17568824631329,1
752,439,55,0.128816733354624,1
753,429,55,0.174444009733131,1
753,430,55,0.132813002630308,1
753,436,55,0.114721077740214,1
753,437,55,0.125611164992708,1
754,428,55,0.188524986590576,1
754,429,55,0.160476101689788,1
754,430,55,0.114287195546296,1
755,428,55,0.126835402324205,1
755,429,55,0.102962467623079,1
756,455,55,0.104825253190711,1
756,456,55,0.106947716676969,1
761,427,55,0.135814774967517,1
761,428,55,0.126178416409298,1
761,429,55,0.105211451732633,1
762,426,55,0.2113142252503,1
762,427,55,0.197356824341502,1
762,428,55,0.184999653331484,1
762,429,55,0.142087746218302,1
762,458,55,0.105018586697156,1
762,459,55,0.11638807590586,1
763,426,55,0.217497305845777,1
763,427,55,0.19983733349538,1
763,428,55,0.172685492417864,1
763,429,55,0.120802834757976,1
764,426,55,0.199185021136072,1
764,427,55,0.179154507614259,1
764,428,55,0.142300833583854,1
765,426,55,0.181725755132813,1
765,427,55,0.161529559045679,1
765,428,55,0.133487388895418,1
766,425,55,0.206743264792908,1
766,426,55,0.177337197192636,1
766,427,55,0.162126223746552,1
766,428,55,0.149334512452449,1
766,429,55,0.112424488057158,1
767,425,55,0.181663080409874,1
767,426,55,0.165173303918711,1
767,427,55,0.168761903066486,1
767,428,55,0.16807819199832,1
767,429,55,0.118529133227878,1
767,450,55,0.115644378245779,1
768,425,55,0.174893842248068,1
768,426,55,0.175870715754928,1
768,427,55,0.174550508799625,1
768,428,55,0.161295100480776,1
768,429,55,0.108286428235468,1
769,425,55,0.184100267153377,1
769,426,55,0.190927149552262,1
769,427,55,0.175850103032381,1
769,428,55,0.144395634974918,1
770,425,55,0.190569237733489,1
770,426,55,0.182406844994379,1
770,427,55,0.172526769992623,1
770,428,55,0.149857504516729,1
771,425,55,0.201516266516613,1
771,426,55,0.183113098439314,1
771,427,55,0.187009906867079,1
771,428,55,0.17155401233783,1
771,429,55,0.110725756560534,1
772,425,55,0.220850308713444,1
772,426,55,0.214902333618967,1
772,427,55,0.2249789210373,1
772,428,55,0.189350722440232,1
772,429,55,0.109808456944975,1
773,425,55,0.250145002918351,1
773,426,55,0.241936900797748,1
773,427,55,0.229932287652595,1
773,428,55,0.17740046308132,1
773,455,55,0.103238486255196,1
773,456,55,0.10559895530082,1
774,425,55,0.252086190448528,1
774,426,55,0.223878281962592,1
774,427,55,0.200950085890806,1
774,428,55,0.163040032138001,1
774,429,55,0.106180048919077,1
774,456,55,0.103364895337786,1
775,426,55,0.182330941543657,1
775,427,55,0.181346706350173,1
775,428,55,0.156724965424612,1
775,429,55,0.11109743250248,1
775,459,55,0.106825111132467,1
775,460,55,0.106182569739042,1
776,426,55,0.178417000463385,1
776,427,55,0.184178390264156,1
776,428,55,0.144488827235135,1
776,429,55,0.103056027967628,1
776,456,55,0.113344464649672,1
776,457,55,0.106913306369037,1
776,458,55,0.111585311552378,1
776,459,55,0.111607898545429,1
776,460,55,0.111099127921218,1
777,426,55,0.195114900758664,1
777,427,55,0.195734732464262,1
777,428,55,0.142897275203314,1
777,456,55,0.120407590264763,1
777,457,55,0.13481712142705,1
777,458,55,0.158313840479479,1
777,459,55,0.130426120745402,1
777,460,55,0.105807949122447,1
778,426,55,0.182589994834327,1
778,427,55,0.187017346632198,1
778,428,55,0.149886661257389,1
778,429,55,0.11222605714043,1
778,456,55,0.114386299463953,1
778,457,55,0.131316784440268,1
778,458,55,0.150563066409284,1
778,459,55,0.119997722784938,1
779,426,55,0.165718905284183,1
779,427,55,0.169210519787723,1
779,428,55,0.157991175523936,1
779,429,55,0.12743782252553,1
779,456,55,0.110689751220501,1
779,457,55,0.10986567732737,1
779,458,55,0.111941594876837,1
780,427,55,0.163646512421039,1
780,428,55,0.172644423129759,1
780,429,55,0.145849222306963,1
780,430,55,0.105515132459943,1
780,454,55,0.110206579188414,1
780,455,55,0.116783019239166,1
780,456,55,0.114723743563097,1
780,457,55,0.105164716176642,1
780,458,55,0.111238129949563,1
781,427,55,0.162423167415194,1
781,428,55,0.176388733103702,1
781,429,55,0.151372271926248,1
781,430,55,0.121440256432976,1
781,452,55,0.108517462500684,1
781,453,55,0.132949004213651,1
781,454,55,0.128167488364743,1
781,455,55,0.12289538302677,1
781,456,55,0.114631187084907,1
781,457,55,0.109374942835388,1
781,458,55,0.126074984712231,1
782,428,55,0.167973912591884,1
782,429,55,0.14508153224093,1
782,430,55,0.132485686427307,1
782,431,55,0.132207459289204,1
782,449,55,0.10402825022703,1
782,450,55,0.111798778156332,1
782,451,55,0.112700361686356,1
782,452,55,0.122404804691777,1
782,453,55,0.12875119203553,1
782,454,55,0.114696159546399,1
782,455,55,0.118833182039519,1
782,456,55,0.127685052501318,1
782,457,55,0.126639336070453,1
783,428,55,0.177875927650593,1
783,429,55,0.158142536262553,1
783,430,55,0.140440858842024,1
783,431,55,0.14609624035541,1
783,432,55,0.122174696214424,1
783,448,55,0.104017609243637,1
783,449,55,0.117208011638782,1
783,450,55,0.136477873313136,1
783,451,55,0.140608515677849,1
783,452,55,0.128662439095428,1
783,453,55,0.111609337420542,1
783,454,55,0.105313411092375,1
783,455,55,0.151364854469271,1
783,456,55,0.193232517488914,1
783,457,55,0.164684677546079,1
784,429,55,0.205773596815682,1
784,430,55,0.168897960420182,1
784,431,55,0.153340017298625,1
784,432,55,0.115403316471055,1
784,450,55,0.121803366048669,1
784,451,55,0.130974700247736,1
784,452,55,0.117895961253792,1
784,454,55,0.104520769370315,1
784,455,55,0.164501572322414,1
784,456,55,0.211535722785116,1
785,430,55,0.196726976280467,1
785,431,55,0.163390738427139,1
785,432,55,0.108187815096919,1
785,452,55,0.109136781119032,1
785,453,55,0.113192479283098,1
785,454,55,0.112178786189048,1
785,455,55,0.131604090991874,1
785,456,55,0.145230349851441,1
786,430,55,0.168837784209066,1
786,431,55,0.128572325358708,1
786,451,55,0.109921246907311,1
786,452,55,0.14139456534416,1
786,453,55,0.151141750748282,1
786,454,55,0.125428662088858,1
787,449,55,0.104201116013846,1
787,450,55,0.110563063286144,1
787,451,55,0.127493994425285,1
787,452,55,0.158699102079467,1
787,453,55,0.1484423987284,1
788,448,55,0.117190410515308,1
788,449,55,0.142180536931976,1
788,450,55,0.12748974472437,1
788,451,55,0.110848217102117,1
788,452,55,0.114916497057868,1
789,448,55,0.119996127752836,1
789,449,55,0.146328233870701,1
789,450,55,0.123546011121412,1
790,449,55,0.105025290293612,1
742,453,56,0.179296911634151,1
742,454,56,0.166306144795363,1
743,452,56,0.167756742836477,1
743,453,56,0.205174667838469,1
743,454,56,0.235333735593737,1
743,455,56,0.191172539106395,1
744,442,56,0.145181550792381,1
744,443,56,0.116663759915857,1
744,452,56,0.154428431511909,1
744,453,56,0.184405687915707,1
744,454,56,0.235530783405705,1
744,455,56,0.20496858522928,1
744,456,56,0.141846171356329,1
745,439,56,0.183841938877299,1
745,440,56,0.143955049184544,1
745,441,56,0.142644635503264,1
745,442,56,0.149998458507437,1
745,443,56,0.112498361467023,1
745,450,56,0.122225469543989,1
745,451,56,0.160210434035228,1
745,452,56,0.155694340451326,1
745,453,56,0.164060506907002,1
745,454,56,0.198893766043458,1
745,455,56,0.181256380686111,1
746,437,56,0.188706173314091,1
746,438,56,0.189130117231067,1
746,439,56,0.167963617384681,1
746,440,56,0.154035127826988,1
746,441,56,0.139869569651862,1
746,442,56,0.120103753380464,1
746,451,56,0.137148545272722,1
746,452,56,0.150249915875999,1
746,453,56,0.162959488593892,1
746,454,56,0.190239969568126,1
746,455,56,0.177932199936984,1
746,456,56,0.147915960056291,1
747,436,56,0.153719523398162,1
747,437,56,0.173058540310499,1
747,438,56,0.165241622601395,1
747,439,56,0.17524080076947,1
747,440,56,0.171988028380596,1
747,441,56,0.147685371953901,1
747,442,56,0.127987472818645,1
747,443,56,0.105193739068453,1
747,451,56,0.132935775485869,1
747,452,56,0.149093974919046,1
747,453,56,0.166460561749337,1
747,454,56,0.199641936485866,1
747,455,56,0.181321888542994,1
747,456,56,0.15182531681353,1
748,435,56,0.129974715506505,1
748,436,56,0.170768263831427,1
748,437,56,0.172669820948612,1
748,438,56,0.169111460486348,1
748,439,56,0.187399139316216,1
748,440,56,0.185955289487842,1
748,441,56,0.177774938694997,1
748,442,56,0.176539279595163,1
748,443,56,0.1392147699348,1
748,451,56,0.124755603158155,1
748,452,56,0.13465806437969,1
748,453,56,0.14667445622344,1
748,454,56,0.173818087904963,1
748,455,56,0.153953089637413,1
748,456,56,0.125437618807583,1
749,433,56,0.121936367187009,1
749,434,56,0.138668465862878,1
749,435,56,0.193410201834247,1
749,436,56,0.212913049736179,1
749,437,56,0.165394221441854,1
749,438,56,0.147704043868157,1
749,439,56,0.176018596423505,1
749,440,56,0.204105840173233,1
749,441,56,0.206108642789638,1
749,442,56,0.188286668717231,1
749,443,56,0.13148803288684,1
749,452,56,0.103232976144298,1
749,453,56,0.106459201845044,1
749,454,56,0.112101343476577,1
750,433,56,0.129246845472665,1
750,434,56,0.194396288603458,1
750,435,56,0.215669198283772,1
750,436,56,0.18068181219918,1
750,437,56,0.1391225592328,1
750,438,56,0.150762099645827,1
750,439,56,0.188538862254455,1
750,440,56,0.216085825130407,1
750,441,56,0.187678013390417,1
750,442,56,0.140736385943694,1
750,449,56,0.111183564235981,1
750,450,56,0.111618729148023,1
751,432,56,0.103193658045284,1
751,433,56,0.153787429380233,1
751,434,56,0.181655317176707,1
751,435,56,0.147678947209211,1
751,436,56,0.130968989363567,1
751,437,56,0.164053134066307,1
751,438,56,0.188407489610429,1
751,439,56,0.180744721157603,1
751,440,56,0.16821294432575,1
751,441,56,0.139168603236412,1
751,442,56,0.114563838806368,1
752,434,56,0.103823773804014,1
752,436,56,0.138590275827674,1
752,437,56,0.19132091055408,1
752,438,56,0.172571118577497,1
752,439,56,0.124320059007711,1
752,440,56,0.105672683707767,1
752,441,56,0.106285131418599,1
752,442,56,0.111206106612749,1
752,443,56,0.110667219997803,1
753,430,56,0.127560182680477,1
753,436,56,0.125176881252247,1
753,437,56,0.130966557776167,1
754,429,56,0.133885321519656,1
754,430,56,0.106220025108259,1
761,428,56,0.123229570137287,1
761,429,56,0.103419773365346,1
762,427,56,0.196116558610492,1
762,428,56,0.166852973108606,1
762,429,56,0.131119435468392,1
762,459,56,0.111028701119182,1
763,427,56,0.200215233408744,1
763,428,56,0.155398378340901,1
763,429,56,0.11974355497721,1
764,427,56,0.17210912812556,1
764,428,56,0.139755619666179,1
764,429,56,0.110295276358162,1
765,427,56,0.154804457541405,1
765,428,56,0.150294409463792,1
765,429,56,0.119473169150767,1
766,426,56,0.169999369125764,1
766,427,56,0.158691751546913,1
766,428,56,0.167203857862875,1
766,429,56,0.129292164461685,1
766,450,56,0.128056628056628,1
766,451,56,0.105667720146331,1
767,426,56,0.176966402422272,1
767,427,56,0.169678098429052,1
767,428,56,0.176594548015196,1
767,429,56,0.129747942096275,1
767,449,56,0.115615366508038,1
767,450,56,0.137246165698984,1
767,451,56,0.106223616719006,1
768,426,56,0.189511073359787,1
768,427,56,0.179056619490302,1
768,428,56,0.166040755992569,1
768,429,56,0.117324158976381,1
768,448,56,0.106211548014571,1
768,449,56,0.107493574586066,1
769,426,56,0.199253841751935,1
769,427,56,0.19103371554318,1
769,428,56,0.160540750683231,1
769,429,56,0.108850857672185,1
770,426,56,0.189586965656438,1
770,427,56,0.190989478499012,1
770,428,56,0.169749049472408,1
770,429,56,0.112071484029468,1
770,451,56,0.114421055548075,1
771,426,56,0.196678902235999,1
771,427,56,0.203980133797093,1
771,428,56,0.183344656945849,1
771,429,56,0.114182481131105,1
771,451,56,0.106054476391785,1
772,426,56,0.234427155040065,1
772,427,56,0.244137242005231,1
772,428,56,0.196446942182919,1
772,429,56,0.111040836748041,1
773,426,56,0.262297608272787,1
773,427,56,0.250946155196311,1
773,428,56,0.187357780022274,1
773,429,56,0.108788986042331,1
773,454,56,0.117151906663451,1
773,455,56,0.135792968759411,1
773,456,56,0.117069333078485,1
774,426,56,0.244292305895301,1
774,427,56,0.223722504212,1
774,428,56,0.180895568808971,1
774,429,56,0.118101385772813,1
774,454,56,0.104204640700169,1
774,455,56,0.122304708061832,1
774,456,56,0.113426658996235,1
775,426,56,0.197148153987924,1
775,427,56,0.198778722958852,1
775,428,56,0.177832895246055,1
775,429,56,0.123488199573272,1
775,455,56,0.105007231853242,1
775,456,56,0.110152236556244,1
775,458,56,0.104774781021054,1
775,459,56,0.120383006693067,1
775,460,56,0.122366378918414,1
776,427,56,0.194363473327628,1
776,428,56,0.164331918907943,1
776,429,56,0.114187645465812,1
776,455,56,0.113888905991797,1
776,456,56,0.129600529898665,1
776,457,56,0.118346998408359,1
776,458,56,0.119464915138492,1
776,459,56,0.124291794592703,1
777,427,56,0.205369707917721,1
777,428,56,0.159646484223549,1
777,429,56,0.107769481677476,1
777,455,56,0.114620189171253,1
777,456,56,0.140450574037553,1
777,457,56,0.146212119995313,1
777,458,56,0.155353583593201,1
777,459,56,0.134170754187394,1
778,427,56,0.20194908907382,1
778,428,56,0.165083034025002,1
778,429,56,0.119069614874926,1
778,455,56,0.109515116041151,1
778,456,56,0.136275103462928,1
778,457,56,0.151972606316363,1
778,458,56,0.157791763048991,1
779,427,56,0.180370680552682,1
779,428,56,0.172362548610555,1
779,429,56,0.142913270140615,1
779,430,56,0.110706839256725,1
779,455,56,0.120190978212888,1
779,456,56,0.133771628077598,1
779,457,56,0.135992927783817,1
779,458,56,0.130417130564465,1
780,428,56,0.181627632773372,1
780,429,56,0.160924517637753,1
780,430,56,0.132289296705507,1
780,431,56,0.105799237793275,1
780,453,56,0.1141294435252,1
780,454,56,0.126333145677249,1
780,455,56,0.142535292148757,1
780,456,56,0.14086220386054,1
780,457,56,0.127763164458027,1
781,428,56,0.185174761086499,1
781,429,56,0.159455459609727,1
781,430,56,0.143329194280799,1
781,431,56,0.135701661537133,1
781,451,56,0.104886310573408,1
781,452,56,0.126706438959438,1
781,453,56,0.150543636018225,1
781,454,56,0.140832801730327,1
781,455,56,0.138960412507871,1
781,456,56,0.13549967247187,1
782,429,56,0.159645368816484,1
782,430,56,0.158764342238654,1
782,431,56,0.178612999792713,1
782,432,56,0.148502876099423,1
782,448,56,0.103486485861859,1
782,449,56,0.122608634178696,1
782,450,56,0.129116086302525,1
782,451,56,0.127864331878753,1
782,452,56,0.137473530274959,1
782,453,56,0.144466229088014,1
782,454,56,0.126550661208846,1
782,455,56,0.127188819052509,1
782,456,56,0.13795939043807,1
783,429,56,0.173578966938532,1
783,430,56,0.165963179431251,1
783,431,56,0.186000798096063,1
783,432,56,0.162166278014229,1
783,447,56,0.109001694169482,1
783,448,56,0.131701700264066,1
783,449,56,0.139993647533688,1
783,450,56,0.14810605888225,1
783,451,56,0.148068893518869,1
783,452,56,0.133235329207041,1
783,453,56,0.11725191406083,1
783,454,56,0.115295211218389,1
783,455,56,0.154302078199672,1
784,430,56,0.193290563272537,1
784,431,56,0.18754697536851,1
784,432,56,0.138671209764256,1
784,448,56,0.112573528749082,1
784,449,56,0.122082173198446,1
784,450,56,0.141801253913852,1
784,451,56,0.151994222905268,1
784,452,56,0.131619204757595,1
784,453,56,0.106159034649987,1
784,454,56,0.10912946404869,1
785,431,56,0.221602963092251,1
785,432,56,0.137342246863498,1
785,450,56,0.117595660209887,1
785,451,56,0.130878150612256,1
785,452,56,0.130612516419907,1
785,453,56,0.119844410083958,1
786,449,56,0.106116158402437,1
786,450,56,0.119252508171249,1
786,451,56,0.135008692590333,1
786,452,56,0.151924086109068,1
787,448,56,0.118736453938908,1
787,449,56,0.130236791550319,1
787,450,56,0.132796628454605,1
787,451,56,0.141134318567932,1
788,447,56,0.113216772848958,1
788,448,56,0.152973795697224,1
788,449,56,0.155000858417277,1
788,450,56,0.126443381357408,1
789,447,56,0.10889539587626,1
789,448,56,0.141682239980098,1
789,449,56,0.142602495424377,1
742,453,57,0.165869518700067,1
742,454,57,0.164052609824987,1
742,455,57,0.149478500350372,1
743,452,57,0.154945668075738,1
743,453,57,0.195409011293363,1
743,454,57,0.232192927765971,1
743,455,57,0.203450962377677,1
743,456,57,0.155467689735872,1
744,452,57,0.157084449967345,1
744,453,57,0.184123333771465,1
744,454,57,0.223081457464041,1
744,455,57,0.199339772712164,1
744,456,57,0.151941988392449,1
745,443,57,0.124621943929647,1
745,453,57,0.168590487308854,1
745,454,57,0.200777666266816,1
745,455,57,0.184956085531555,1
745,456,57,0.139250686042269,1
746,440,57,0.154307822546053,1
746,441,57,0.135420389337744,1
746,442,57,0.128919049644627,1
746,443,57,0.1076412433273,1
746,451,57,0.145430554265401,1
746,452,57,0.16408443238853,1
746,453,57,0.177173566976313,1
746,454,57,0.218738419286156,1
746,455,57,0.211397033070749,1
746,456,57,0.160794974261313,1
747,438,57,0.165661439512233,1
747,439,57,0.170612932243661,1
747,440,57,0.164999936198716,1
747,441,57,0.149192063816275,1
747,442,57,0.136107547013739,1
747,443,57,0.116097211205718,1
747,451,57,0.140898733441894,1
747,452,57,0.15962481186429,1
747,453,57,0.168312014781196,1
747,454,57,0.189622904072048,1
747,455,57,0.188982035789219,1
747,456,57,0.158193387670612,1
748,436,57,0.182882610723559,1
748,437,57,0.180922059726747,1
748,438,57,0.155986766721357,1
748,439,57,0.166098656773274,1
748,440,57,0.175129884691002,1
748,441,57,0.179772788904038,1
748,442,57,0.177714416707691,1
748,443,57,0.147597399798745,1
748,451,57,0.126469671501912,1
748,452,57,0.137944812067741,1
748,453,57,0.142291263391243,1
748,454,57,0.146477174175989,1
748,455,57,0.146471206748195,1
749,435,57,0.194768187626816,1
749,436,57,0.221858101304125,1
749,437,57,0.167773975875619,1
749,438,57,0.143675505866104,1
749,439,57,0.175589532788105,1
749,440,57,0.203391087326468,1
749,441,57,0.215546347349717,1
749,442,57,0.19378288164255,1
749,443,57,0.141933518883529,1
749,452,57,0.104417527292449,1
749,453,57,0.109708204158041,1
749,454,57,0.106881383418858,1
750,434,57,0.194969540910053,1
750,435,57,0.21293163241787,1
750,436,57,0.18286873505968,1
750,437,57,0.140006430098644,1
750,438,57,0.15358596455629,1
750,439,57,0.189498647725092,1
750,440,57,0.206031412004511,1
750,441,57,0.199809961406023,1
750,442,57,0.153444765176028,1
750,443,57,0.105560707992588,1
750,449,57,0.118736755098816,1
750,450,57,0.115636704245177,1
751,434,57,0.191194445701136,1
751,435,57,0.152162928223734,1
751,436,57,0.132042222886707,1
751,437,57,0.152326112277232,1
751,438,57,0.172896025501239,1
751,439,57,0.16202148702322,1
751,440,57,0.149002399999072,1
751,441,57,0.146685978378414,1
751,442,57,0.126534208954649,1
751,449,57,0.110838992685696,1
751,450,57,0.112013728251682,1
752,434,57,0.111322878578304,1
752,435,57,0.10365893894806,1
752,436,57,0.130556344520152,1
752,437,57,0.162972048077435,1
752,438,57,0.148116744481925,1
752,439,57,0.111948711173907,1
752,441,57,0.120889211881031,1
752,442,57,0.129909363806611,1
752,443,57,0.119069358331301,1
753,436,57,0.127527032782527,1
753,437,57,0.127110762866154,1
757,444,57,0.106014723284015,1
757,445,57,0.106076550297586,1
762,428,57,0.14538989767791,1
762,429,57,0.11722309194229,1
763,428,57,0.146298965589335,1
763,429,57,0.123233039053257,1
763,450,57,0.109752251583008,1
764,428,57,0.14785082028374,1
764,429,57,0.136486216557977,1
764,430,57,0.106059228025879,1
765,427,57,0.158608765261334,1
765,428,57,0.173777844018085,1
765,429,57,0.153645203825471,1
765,430,57,0.107265540765853,1
765,450,57,0.110571283836208,1
766,427,57,0.164112819498315,1
766,428,57,0.184236168350084,1
766,429,57,0.151667921722695,1
766,430,57,0.1073854693334,1
766,449,57,0.112334653172204,1
766,450,57,0.152991307588132,1
766,451,57,0.121952429048734,1
767,427,57,0.176009784707698,1
767,428,57,0.174065418267387,1
767,429,57,0.138623236106423,1
767,430,57,0.107618042860364,1
767,448,57,0.113033333003173,1
767,449,57,0.126788599843789,1
767,450,57,0.142400762902739,1
767,451,57,0.10640826120442,1
768,427,57,0.183087365998342,1
768,428,57,0.161432496322949,1
768,429,57,0.124758190902544,1
768,430,57,0.107368481683811,1
768,447,57,0.128735765955831,1
768,448,57,0.139323522123564,1
768,449,57,0.117878683598367,1
769,427,57,0.199506057597301,1
769,428,57,0.17425246087799,1
769,429,57,0.122932693393069,1
769,447,57,0.109919484564149,1
769,448,57,0.109183193206975,1
770,427,57,0.204139213152595,1
770,428,57,0.185086800085413,1
770,429,57,0.123301469276648,1
770,451,57,0.116595642006444,1
771,426,57,0.203557059897627,1
771,427,57,0.21638575808998,1
771,428,57,0.186537163891043,1
771,429,57,0.116348055100395,1
771,451,57,0.113492601861873,1
772,426,57,0.244202247928934,1
772,427,57,0.249325624888961,1
772,428,57,0.192394043690584,1
772,429,57,0.111605455803958,1
772,454,57,0.106800951415456,1
772,455,57,0.11072898008695,1
773,427,57,0.256739356406555,1
773,428,57,0.190716449157828,1
773,429,57,0.11652940913497,1
773,454,57,0.156626798448888,1
773,455,57,0.167512569076044,1
773,456,57,0.119542536316092,1
774,427,57,0.236995558270605,1
774,428,57,0.192769355859559,1
774,429,57,0.128576552751482,1
774,454,57,0.130679831236234,1
774,455,57,0.145065994620526,1
774,456,57,0.117194626754011,1
775,427,57,0.206035672859496,1
775,428,57,0.190327707487799,1
775,429,57,0.130865691515348,1
775,455,57,0.116651936600976,1
775,456,57,0.115850973942217,1
775,457,57,0.109118432672825,1
775,458,57,0.114507064586798,1
776,427,57,0.195879467684917,1
776,428,57,0.192798044129251,1
776,429,57,0.129581802214056,1
776,454,57,0.104438218093491,1
776,455,57,0.128840134594832,1
776,456,57,0.135989715411472,1
776,457,57,0.126071158866,1
776,458,57,0.124794318937354,1
777,427,57,0.205447875644783,1
777,428,57,0.197688501786124,1
777,429,57,0.127832397774504,1
777,454,57,0.10755736471607,1
777,455,57,0.131801741123658,1
777,456,57,0.14702084588724,1
777,457,57,0.1442199583623,1
777,458,57,0.138779426557628,1
778,427,57,0.203113618665168,1
778,428,57,0.186186591450753,1
778,429,57,0.130801734074285,1
778,454,57,0.108483933364333,1
778,455,57,0.126170050856316,1
778,456,57,0.146532966837342,1
778,457,57,0.156962301739741,1
779,428,57,0.181097446333528,1
779,429,57,0.152904116217921,1
779,430,57,0.132890032642165,1
779,431,57,0.108406479497792,1
779,452,57,0.104838046909738,1
779,453,57,0.107062068209194,1
779,454,57,0.119422362358991,1
779,455,57,0.13607596983975,1
779,456,57,0.14447328961473,1
779,457,57,0.151566397371708,1
780,428,57,0.177671172375811,1
780,429,57,0.162888727169737,1
780,430,57,0.158689676889774,1
780,431,57,0.140236962430681,1
780,451,57,0.104622215642808,1
780,452,57,0.115733588502777,1
780,453,57,0.127759528230997,1
780,454,57,0.142449483883305,1
780,455,57,0.161234511569047,1
780,456,57,0.154757565828425,1
781,429,57,0.155694608149021,1
781,430,57,0.159040048556793,1
781,431,57,0.164518593434214,1
781,432,57,0.131724744574013,1
781,450,57,0.117294634151391,1
781,451,57,0.124355551260495,1
781,452,57,0.141658559888124,1
781,453,57,0.155977765386349,1
781,454,57,0.145720805491658,1
781,455,57,0.146373050926542,1
782,429,57,0.165188161140806,1
782,430,57,0.177763059609763,1
782,431,57,0.211149858865313,1
782,432,57,0.189329552014153,1
782,433,57,0.11321246737769,1
782,448,57,0.105519259466081,1
782,449,57,0.128139212795664,1
782,450,57,0.137032107929286,1
782,451,57,0.137374972906762,1
782,452,57,0.145244515521157,1
782,453,57,0.15019279588024,1
782,454,57,0.133680019695412,1
782,455,57,0.129460735931304,1
783,430,57,0.19041905932636,1
783,431,57,0.214469734143172,1
783,432,57,0.191577119556735,1
783,433,57,0.118548050531688,1
783,447,57,0.112507552421232,1
783,448,57,0.138058773207494,1
783,449,57,0.146010209008545,1
783,450,57,0.146835019070338,1
783,451,57,0.142662983949471,1
783,452,57,0.129133955123694,1
783,453,57,0.120293394889526,1
783,454,57,0.124715682739326,1
784,431,57,0.206575485262305,1
784,432,57,0.157567956621552,1
784,433,57,0.105248851331497,1
784,447,57,0.11000683209135,1
784,448,57,0.120573339754509,1
784,449,57,0.132047911462735,1
784,450,57,0.153972218868565,1
784,451,57,0.163642586188173,1
784,452,57,0.13999282213246,1
784,453,57,0.113659834843014,1
785,432,57,0.160267721342047,1
785,433,57,0.104431168720845,1
785,449,57,0.111949748502477,1
785,450,57,0.141018048535555,1
785,451,57,0.163179156861123,1
785,452,57,0.153710533217224,1
786,433,57,0.127628200203254,1
786,448,57,0.10984587885198,1
786,449,57,0.126403962871757,1
786,450,57,0.143330532769276,1
786,451,57,0.161049744388856,1
787,447,57,0.127142674662261,1
787,448,57,0.15188920733017,1
787,449,57,0.15530790767392,1
788,446,57,0.113587734930382,1
788,447,57,0.157873388537952,1
788,448,57,0.179174294935579,1
788,449,57,0.156457457348395,1
789,446,57,0.107700393363917,1
789,447,57,0.141316631852581,1
742,454,58,0.152794460549435,1
742,455,58,0.147427746384274,1
743,453,58,0.172228298216303,1
743,454,58,0.201340009892322,1
743,455,58,0.191831343134817,1
743,456,58,0.160757217732188,1
744,453,58,0.169618669540669,1
744,454,58,0.188566613582214,1
744,455,58,0.179326191069587,1
744,456,58,0.155915603750659,1
745,453,58,0.164540756572581,1
745,454,58,0.188110992104613,1
745,455,58,0.180880376964756,1
745,456,58,0.142945795410609,1
746,442,58,0.132165676140577,1
746,443,58,0.121002860706806,1
746,451,58,0.143553402254782,1
746,452,58,0.167174020723906,1
746,453,58,0.1767965593886,1
746,454,58,0.227256716111323,1
746,455,58,0.228530466362401,1
746,456,58,0.16239739035794,1
747,440,58,0.14640982589745,1
747,441,58,0.142467620402169,1
747,442,58,0.140218413211203,1
747,443,58,0.122157697410765,1
747,451,58,0.136591711758113,1
747,452,58,0.159401284288617,1
747,453,58,0.160232240243334,1
747,454,58,0.177270841626385,1
747,455,58,0.186542863621141,1
747,456,58,0.154240306956455,1
748,438,58,0.141803406649486,1
748,439,58,0.143635685833911,1
748,440,58,0.158053080616001,1
748,441,58,0.172764842476414,1
748,442,58,0.16875711797018,1
748,443,58,0.142211534094291,1
748,451,58,0.117990949319383,1
748,452,58,0.132005604072788,1
748,453,58,0.131511512205543,1
748,454,58,0.124473572481962,1
748,455,58,0.133534247146186,1
749,437,58,0.155701624059455,1
749,438,58,0.133601996971268,1
749,439,58,0.163698535006515,1
749,440,58,0.190649926280516,1
749,441,58,0.208264211557562,1
749,442,58,0.185141890040316,1
749,443,58,0.139957407958171,1
749,453,58,0.106508904383826,1
750,436,58,0.166694116834518,1
750,437,58,0.133649636006982,1
750,438,58,0.144382462017489,1
750,439,58,0.174806896267411,1
750,440,58,0.188197101529973,1
750,441,58,0.20250123787876,1
750,442,58,0.166245243569656,1
750,443,58,0.112854176320515,1
750,449,58,0.113926785215699,1
750,450,58,0.112724119856825,1
751,435,58,0.147695722931458,1
751,436,58,0.130092658649478,1
751,437,58,0.133491158971295,1
751,438,58,0.144703096932175,1
751,439,58,0.139315480038631,1
751,440,58,0.135115459354522,1
751,441,58,0.152840125314645,1
751,442,58,0.13908435654085,1
751,449,58,0.11543985720648,1
751,450,58,0.121686225998782,1
752,435,58,0.108397690090126,1
752,436,58,0.120725514740283,1
752,437,58,0.132637125244419,1
752,438,58,0.122113917683494,1
752,441,58,0.126510606941169,1
752,442,58,0.136391674655212,1
752,443,58,0.114658548020193,1
753,436,58,0.121233604966185,1
753,437,58,0.117928832299976,1
753,442,58,0.10869676418626,1
754,436,58,0.103897658367949,1
754,446,58,0.11781152493903,1
754,447,58,0.120803035531247,1
755,445,58,0.104706261565098,1
755,446,58,0.118389818885555,1
755,447,58,0.11395719121227,1
756,444,58,0.116800598054498,1
756,445,58,0.116979096646988,1
756,446,58,0.103617735811108,1
757,432,58,0.106916117194839,1
757,444,58,0.129109773098541,1
757,445,58,0.127227757913122,1
758,432,58,0.121104976223537,1
758,433,58,0.106403286488914,1
758,444,58,0.110704206896053,1
758,445,58,0.11389816387043,1
759,432,58,0.115552223314131,1
760,458,58,0.105230804045198,1
762,429,58,0.107055342304597,1
762,450,58,0.103797004034472,1
763,429,58,0.127287789121319,1
763,430,58,0.117028208020027,1
763,449,58,0.108285123209203,1
763,450,58,0.117200237251544,1
764,428,58,0.152741422943531,1
764,429,58,0.160958392550294,1
764,430,58,0.130705474444641,1
765,427,58,0.158622217070529,1
765,428,58,0.18194151947532,1
765,429,58,0.181374591526779,1
765,430,58,0.124792801983747,1
765,450,58,0.120214557918226,1
765,451,58,0.111583705366206,1
766,427,58,0.160345063667881,1
766,428,58,0.179930083608237,1
766,429,58,0.161292021957279,1
766,430,58,0.11282562189967,1
766,432,58,0.103480150349734,1
766,449,58,0.120314710318524,1
766,450,58,0.155377263685175,1
766,451,58,0.129187851593038,1
767,427,58,0.171202134871274,1
767,428,58,0.154892440850633,1
767,429,58,0.135125810332078,1
767,430,58,0.116685153423349,1
767,431,58,0.109218384299851,1
767,447,58,0.120371651849153,1
767,448,58,0.131555024235119,1
767,449,58,0.128608754553426,1
767,450,58,0.132244390417101,1
767,451,58,0.10300850047262,1
768,427,58,0.178819517410657,1
768,428,58,0.149773637059569,1
768,429,58,0.127159974625828,1
768,430,58,0.122654332406118,1
768,431,58,0.110545082924269,1
768,444,58,0.103662541712878,1
768,446,58,0.106199735853761,1
768,447,58,0.162200732938444,1
768,448,58,0.161056146825404,1
768,449,58,0.120386754460803,1
768,454,58,0.10748791947225,1
769,427,58,0.196940889047247,1
769,428,58,0.18179479883009,1
769,429,58,0.135413607662793,1
769,430,58,0.115916258717687,1
769,443,58,0.108913710860255,1
769,444,58,0.112446662349595,1
769,447,58,0.124851695476739,1
769,448,58,0.114273431423123,1
770,427,58,0.209323045175503,1
770,428,58,0.196247953562659,1
770,429,58,0.135909484181342,1
770,430,58,0.104996367788436,1
770,451,58,0.107737592189509,1
771,427,58,0.22836964697188,1
771,428,58,0.188279931658563,1
771,429,58,0.120050816161195,1
771,451,58,0.110228630786074,1
772,427,58,0.252520663808191,1
772,428,58,0.185010193928242,1
772,429,58,0.11215313182657,1
772,454,58,0.114556343270896,1
772,455,58,0.111994465171682,1
773,427,58,0.250641939073611,1
773,428,58,0.185556498000164,1
773,429,58,0.121255511560927,1
773,453,58,0.113093397673582,1
773,454,58,0.181953275865777,1
773,455,58,0.178200232254521,1
773,456,58,0.113689259281369,1
774,427,58,0.243759498248856,1
774,428,58,0.194060595693404,1
774,429,58,0.13250986845246,1
774,453,58,0.103830087007997,1
774,454,58,0.155013217127548,1
774,455,58,0.158574209950484,1
774,456,58,0.115746951079406,1
775,427,58,0.218963196117741,1
775,428,58,0.192931089883874,1
775,429,58,0.131319416800939,1
775,454,58,0.116185227977158,1
775,455,58,0.127674389209784,1
775,456,58,0.119739539511778,1
775,457,58,0.115681063984122,1
775,458,58,0.12137381163416,1
776,427,58,0.198082708950767,1
776,428,58,0.2052998834355,1
776,429,58,0.135794050704264,1
776,453,58,0.103152945687439,1
776,454,58,0.122203038707927,1
776,455,58,0.140254184315753,1
776,456,58,0.140046506674462,1
776,457,58,0.135709357845876,1
776,458,58,0.133027729644245,1
777,427,58,0.194821927939171,1
777,428,58,0.214501478628221,1
777,429,58,0.139580511911164,1
777,453,58,0.120361613185575,1
777,454,58,0.137988569486871,1
777,455,58,0.152805726160784,1
777,456,58,0.15405182547074,1
777,457,58,0.145352498079046,1
778,428,58,0.186653567772267,1
778,429,58,0.135213715562811,1
778,451,58,0.107925973288589,1
778,452,58,0.120533229716479,1
778,453,58,0.13504857954695,1
778,454,58,0.14285744401705,1
778,455,58,0.15143012809067,1
778,456,58,0.159196763249318,1
778,457,58,0.160037902870531,1
779,428,58,0.171956295049618,1
779,429,58,0.149770859695979,1
779,430,58,0.143935618793485,1
779,431,58,0.128062829719905,1
779,450,58,0.103001127631926,1
779,451,58,0.12453483063793,1
779,452,58,0.132645223099706,1
779,453,58,0.135927643008347,1
779,454,58,0.144624427271935,1
779,455,58,0.156483736338829,1
779,456,58,0.158700317873167,1
780,429,58,0.155915849140213,1
780,430,58,0.174329702817188,1
780,431,58,0.165147917253928,1
780,432,58,0.125955658464499,1
780,450,58,0.116452390277184,1
780,451,58,0.136174471437593,1
780,452,58,0.139149094766858,1
780,453,58,0.140965568633183,1
780,454,58,0.157527054644506,1
780,455,58,0.176484925808922,1
781,429,58,0.148629485955285,1
781,430,58,0.170516996082066,1
781,431,58,0.183974739242367,1
781,432,58,0.158420618397738,1
781,433,58,0.106155231111898,1
781,450,58,0.128360208397302,1
781,451,58,0.142873472416563,1
781,452,58,0.149065119338294,1
781,453,58,0.151272420685858,1
781,454,58,0.147600255240829,1
781,455,58,0.151614794884226,1
782,430,58,0.195554393450116,1
782,431,58,0.230232376769158,1
782,432,58,0.211289373980908,1
782,433,58,0.134858514183204,1
782,436,58,0.114063244115938,1
782,437,58,0.106714105821434,1
782,449,58,0.125782993450954,1
782,450,58,0.138205449236441,1
782,451,58,0.141828257918877,1
782,452,58,0.143752602802384,1
782,453,58,0.143643348680442,1
782,454,58,0.1335407388153,1
783,430,58,0.215634286042662,1
783,431,58,0.233461703301542,1
783,432,58,0.2064073264933,1
783,433,58,0.135982275646354,1
783,447,58,0.103532719484671,1
783,448,58,0.128802701533756,1
783,449,58,0.142655120329668,1
783,450,58,0.142746672941501,1
783,451,58,0.135899110895644,1
783,452,58,0.124524122730113,1
783,453,58,0.121536136824218,1
784,431,58,0.217353797572892,1
784,432,58,0.178902648699154,1
784,433,58,0.127304754462766,1
784,447,58,0.107079970492575,1
784,448,58,0.118496786423015,1
784,449,58,0.134035366077937,1
784,450,58,0.157834616988399,1
784,451,58,0.16797436990878,1
784,452,58,0.14251937528995,1
785,432,58,0.182223773232925,1
785,433,58,0.128203538321059,1
785,449,58,0.120835739266371,1
785,450,58,0.167191064143848,1
785,451,58,0.204548478312605,1
786,447,58,0.104073156515436,1
786,448,58,0.121837932513589,1
786,449,58,0.138082096369207,1
786,450,58,0.164148423291805,1
787,446,58,0.124186433241415,1
787,447,58,0.156734959471907,1
787,448,58,0.17433911685281,1
787,449,58,0.169203537339501,1
788,445,58,0.106492396359276,1
788,446,58,0.153952587704234,1
788,447,58,0.187604820378862,1
743,454,59,0.162056533113179,1
743,455,59,0.167753452385637,1
744,454,59,0.154700066594263,1
744,455,59,0.163572114769855,1
745,453,59,0.152464445061339,1
745,454,59,0.167013747882846,1
745,455,59,0.177280556821914,1
745,456,59,0.1528113812746,1
746,443,59,0.130238988902235,1
746,453,59,0.16386078211808,1
746,454,59,0.204227330310669,1
746,455,59,0.217313665226721,1
746,456,59,0.156345827409406,1
747,440,59,0.130690327216709,1
747,441,59,0.134148178348414,1
747,442,59,0.142218137304111,1
747,443,59,0.124827457681233,1
747,451,59,0.129700604220468,1
747,452,59,0.150796097253145,1
747,454,59,0.161752216603842,1
747,455,59,0.172656670299324,1
748,439,59,0.130547376647356,1
748,440,59,0.141455210026242,1
748,441,59,0.157311334918282,1
748,442,59,0.153650167386907,1
748,443,59,0.124985265472681,1
748,451,59,0.110493227649852,1
748,452,59,0.12366319578758,1
748,453,59,0.120806470985005,1
749,438,59,0.121064565025599,1
749,439,59,0.145404208350544,1
749,440,59,0.169078265972116,1
749,441,59,0.183155539678108,1
749,442,59,0.162670966248585,1
749,443,59,0.122122807477796,1
750,437,59,0.11800582884962,1
750,438,59,0.127032126668125,1
750,439,59,0.151257942702164,1
750,440,59,0.164347545760913,1
750,441,59,0.182668764881203,1
750,442,59,0.160426510691712,1
750,443,59,0.111004731021371,1
751,436,59,0.11957895435674,1
751,437,59,0.112718877443623,1
751,438,59,0.119109602218179,1
751,439,59,0.122460976591532,1
751,440,59,0.125400085359872,1
751,441,59,0.146452512525798,1
751,442,59,0.139500102215903,1
751,449,59,0.107965692934146,1
751,450,59,0.11767122903849,1
751,451,59,0.113557016619833,1
752,435,59,0.106288243404308,1
752,436,59,0.107779051870087,1
752,437,59,0.108338986216335,1
752,438,59,0.105667117826516,1
752,441,59,0.119274013219448,1
752,442,59,0.126153431291059,1
752,443,59,0.104563679080077,1
753,436,59,0.105072360471723,1
753,437,59,0.104880008523495,1
753,442,59,0.106401780689377,1
753,445,59,0.103053785999428,1
753,446,59,0.113063203604353,1
753,447,59,0.108000393247915,1
754,445,59,0.117761900478742,1
754,446,59,0.147638658706051,1
754,447,59,0.146123601290696,1
754,448,59,0.109482958855489,1
755,444,59,0.104957797012155,1
755,445,59,0.123448836857975,1
755,446,59,0.14416803616346,1
755,447,59,0.136184677412231,1
755,448,59,0.103820884899717,1
755,453,59,0.106400196811346,1
756,443,59,0.107947946807754,1
756,444,59,0.12763994543964,1
756,445,59,0.127568269381692,1
756,446,59,0.119031523723682,1
756,447,59,0.105920962166195,1
756,449,59,0.104105614861006,1
756,453,59,0.106484555047614,1
757,432,59,0.1178235044109,1
757,433,59,0.10816491578989,1
757,443,59,0.103046781243065,1
757,444,59,0.135315474149281,1
757,445,59,0.133330350734844,1
757,446,59,0.107961175535536,1
757,449,59,0.115160592739806,1
757,450,59,0.103613318799133,1
758,432,59,0.127596031863521,1
758,433,59,0.108450482306476,1
758,444,59,0.126146181145141,1
758,445,59,0.128957876964533,1
759,431,59,0.109812940881373,1
759,432,59,0.119528827963273,1
759,445,59,0.106544530485458,1
760,430,59,0.10325835165501,1
760,431,59,0.109839297950301,1
760,432,59,0.107610948871436,1
762,429,59,0.11018046750904,1
762,430,59,0.112373926654936,1
762,449,59,0.106964871637617,1
762,450,59,0.113126859885509,1
763,429,59,0.136867975779783,1
763,430,59,0.136509840879598,1
763,449,59,0.113898788498386,1
763,450,59,0.121559225750448,1
763,451,59,0.10782199504206,1
764,428,59,0.163256354184039,1
764,429,59,0.178417580475058,1
764,430,59,0.15291487989609,1
764,431,59,0.105586875442315,1
764,449,59,0.106781844492446,1
764,450,59,0.114334633808738,1
764,451,59,0.113949316438396,1
764,452,59,0.103670371870469,1
765,428,59,0.185386967280471,1
765,429,59,0.193311019838095,1
765,430,59,0.140041018871706,1
765,431,59,0.104974338498917,1
765,447,59,0.104597531684476,1
765,448,59,0.112144387035186,1
765,449,59,0.117554758232842,1
765,450,59,0.129203879992551,1
765,451,59,0.128459524242302,1
765,452,59,0.10805830518269,1
766,427,59,0.159981005956185,1
766,428,59,0.170991981026301,1
766,429,59,0.159309107048828,1
766,430,59,0.116802405013942,1
766,431,59,0.108247868613257,1
766,432,59,0.113670275053136,1
766,445,59,0.114427324135776,1
766,446,59,0.10989171092825,1
766,447,59,0.111492777382329,1
766,448,59,0.124959142639237,1
766,449,59,0.133796211649294,1
766,450,59,0.144659819138083,1
766,451,59,0.129527950360995,1
767,427,59,0.170101138866306,1
767,428,59,0.1465582865777,1
767,429,59,0.133038705249757,1
767,430,59,0.124342289070501,1
767,431,59,0.128794146361573,1
767,432,59,0.120563345707213,1
767,444,59,0.104795237586612,1
767,445,59,0.106936596068538,1
767,447,59,0.136777750502357,1
767,448,59,0.147494403110433,1
767,449,59,0.132007701038069,1
767,450,59,0.120112029700881,1
767,454,59,0.103421948409122,1
768,427,59,0.178242004249076,1
768,428,59,0.148365145635131,1
768,429,59,0.132438727789903,1
768,430,59,0.13367061681386,1
768,431,59,0.127231249137233,1
768,432,59,0.103899666100665,1
768,444,59,0.112937218376447,1
768,446,59,0.113733239781912,1
768,447,59,0.178565059597092,1
768,448,59,0.16675405881015,1
768,449,59,0.117783070904821,1
768,453,59,0.106170099488064,1
768,454,59,0.123371840308331,1
768,455,59,0.10515600484747,1
769,427,59,0.188433255513613,1
769,428,59,0.184605513091265,1
769,429,59,0.149214851582598,1
769,430,59,0.131209069580074,1
769,431,59,0.112752663123598,1
769,443,59,0.121635820753549,1
769,444,59,0.119890253314298,1
769,447,59,0.129500723274557,1
769,448,59,0.112904035016286,1
769,454,59,0.1100158557345,1
770,427,59,0.205276036032467,1
770,428,59,0.202461730160545,1
770,429,59,0.154167883575774,1
770,430,59,0.128996291583825,1
770,431,59,0.108977735225742,1
770,444,59,0.112009456242625,1
770,445,59,0.114858384349822,1
771,427,59,0.232120961702186,1
771,428,59,0.190457161631675,1
771,429,59,0.13224124496918,1
771,430,59,0.108629427061792,1
771,444,59,0.107468801395169,1
771,445,59,0.120560612959906,1
772,427,59,0.246081374210058,1
772,428,59,0.17868014729798,1
772,429,59,0.119147771447917,1
772,453,59,0.103827845039798,1
772,454,59,0.120829169518763,1
772,455,59,0.114024617569303,1
773,427,59,0.232525162914125,1
773,428,59,0.17729125357566,1
773,429,59,0.12739077465556,1
773,453,59,0.136078390273079,1
773,454,59,0.187321573908969,1
773,455,59,0.173185942105376,1
773,456,59,0.110912375316452,1
774,427,59,0.244263751474457,1
774,428,59,0.191000967191774,1
774,429,59,0.135645076936764,1
774,453,59,0.133481075691434,1
774,454,59,0.183310324716412,1
774,455,59,0.18034530504197,1
774,456,59,0.127081650741777,1
775,427,59,0.248066419546001,1
775,428,59,0.197742063633348,1
775,429,59,0.132705957014353,1
775,453,59,0.118594931090598,1
775,454,59,0.147750890964855,1
775,455,59,0.157239870787676,1
775,456,59,0.13719330655821,1
775,457,59,0.12817889897901,1
776,428,59,0.201098256565219,1
776,429,59,0.135689704373404,1
776,453,59,0.123703673909942,1
776,454,59,0.138729947100258,1
776,455,59,0.15176489521286,1
776,456,59,0.149866405465102,1
776,457,59,0.152930339438001,1
777,428,59,0.196535103957277,1
777,429,59,0.139015346305785,1
777,452,59,0.124102554630184,1
777,453,59,0.158511412532767,1
777,454,59,0.161797044813754,1
777,455,59,0.166294265710129,1
777,456,59,0.165005457463684,1
778,429,59,0.134097906952029,1
778,430,59,0.105102231072903,1
778,451,59,0.11016414910369,1
778,452,59,0.141780317723256,1
778,453,59,0.176760185964235,1
778,454,59,0.176433449772908,1
778,455,59,0.175854620430992,1
778,456,59,0.174206539569155,1
779,429,59,0.145342035560783,1
779,430,59,0.147850809129669,1
779,431,59,0.144086812221042,1
779,432,59,0.128497247309214,1
779,450,59,0.11649016911445,1
779,451,59,0.142873695497976,1
779,452,59,0.149883147725136,1
779,453,59,0.159135527401491,1
779,454,59,0.167062814639602,1
779,455,59,0.173236938516353,1
780,429,59,0.153523300987421,1
780,430,59,0.179099016112814,1
780,431,59,0.180523915175167,1
780,432,59,0.153297754524961,1
780,433,59,0.10833837274245,1
780,450,59,0.136129732460246,1
780,451,59,0.166061156787774,1
780,452,59,0.157534605950331,1
780,453,59,0.15321751214076,1
780,454,59,0.169459735188086,1
781,430,59,0.181607856606123,1
781,431,59,0.195943915905089,1
781,432,59,0.177908129452538,1
781,433,59,0.128355713306833,1
781,436,59,0.125326870040175,1
781,437,59,0.121075127930498,1
781,450,59,0.127174932234559,1
781,451,59,0.14819096366798,1
781,452,59,0.147855493839339,1
781,453,59,0.144739570743176,1
781,454,59,0.148673377223263,1
782,431,59,0.231563860489881,1
782,432,59,0.20934521946794,1
782,433,59,0.148651180622684,1
782,434,59,0.112634039582317,1
782,435,59,0.114315828045635,1
782,436,59,0.142230864098714,1
782,437,59,0.130180340798797,1
782,449,59,0.113035898439421,1
782,450,59,0.128024850109368,1
782,451,59,0.136732955754657,1
782,452,59,0.136160383846371,1
782,453,59,0.132513192365512,1
783,431,59,0.236118312922723,1
783,432,59,0.207866167392618,1
783,433,59,0.152396773314752,1
783,434,59,0.121526332396124,1
783,435,59,0.117619630307698,1
783,436,59,0.122469264066019,1
783,437,59,0.107807706677567,1
783,448,59,0.105750193344661,1
783,449,59,0.125116905814403,1
783,450,59,0.130603782782594,1
783,451,59,0.126976189003853,1
783,452,59,0.119716339044842,1
784,432,59,0.201788760462407,1
784,433,59,0.154545415404807,1
784,434,59,0.12093782132089,1
784,435,59,0.11084948866617,1
784,448,59,0.10542080248452,1
784,449,59,0.123327268642044,1
784,450,59,0.146076954967269,1
784,451,59,0.160670550603297,1
785,433,59,0.154107082736702,1
785,434,59,0.11653826546706,1
785,449,59,0.125092813021815,1
785,450,59,0.183721664533562,1
786,435,59,0.104941311295745,1
786,446,59,0.107873805700194,1
786,447,59,0.117556141337602,1
786,448,59,0.129535044349923,1
786,449,59,0.142059258721881,1
787,441,59,0.103049770533997,1
787,445,59,0.114482815637222,1
787,446,59,0.153788288243672,1
787,447,59,0.168325600439238,1
744,455,60,0.151570624764482,1
745,454,60,0.144622977242751,1
745,455,60,0.174925954817448,1
745,456,60,0.171473167633814,1
746,454,60,0.164548865581938,1
746,455,60,0.191592891412624,1
746,456,60,0.158286658009323,1
747,442,60,0.136341670956522,1
747,443,60,0.121695149255296,1
747,455,60,0.152691040006439,1
748,440,60,0.120806872531548,1
748,441,60,0.134892556406804,1
748,442,60,0.134384310023913,1
748,443,60,0.107640663315627,1
748,452,60,0.106739871724618,1
749,439,60,0.1214415391511,1
749,440,60,0.140526789802253,1
749,441,60,0.151652004863889,1
749,442,60,0.13605912719308,1
749,443,60,0.103462404223342,1
750,438,60,0.104789515548373,1
750,439,60,0.123699836909641,1
750,440,60,0.138760832721867,1
750,441,60,0.152735946294845,1
750,442,60,0.140440022286725,1
750,443,60,0.105820040135023,1
751,439,60,0.10837085339616,1
751,440,60,0.118287558365905,1
751,441,60,0.132836459640869,1
751,442,60,0.129335297252859,1
751,443,60,0.103117821518986,1
751,450,60,0.105388611836646,1
751,451,60,0.112563735475058,1
752,441,60,0.108211963659859,1
752,442,60,0.11077760068088,1
752,446,60,0.106818474460435,1
752,451,60,0.103499692281499,1
753,445,60,0.117507163813411,1
753,446,60,0.130515989092568,1
753,447,60,0.11620106675747,1
754,445,60,0.134806603138434,1
754,446,60,0.166186751623207,1
754,447,60,0.152606771002736,1
754,448,60,0.108941707577567,1
755,444,60,0.110148934951334,1
755,445,60,0.137418719171822,1
755,446,60,0.160635236815643,1
755,447,60,0.143087753267674,1
755,448,60,0.10472157610409,1
755,453,60,0.106072378675166,1
756,443,60,0.10989136515206,1
756,444,60,0.126362480883038,1
756,445,60,0.130740732461942,1
756,446,60,0.128230352706883,1
756,447,60,0.110125187934936,1
756,448,60,0.104393467962074,1
756,449,60,0.123365159020016,1
756,450,60,0.116578765897562,1
756,453,60,0.104024346302305,1
757,432,60,0.118633669177939,1
757,433,60,0.117209640133096,1
757,443,60,0.103264754091558,1
757,444,60,0.128694395507819,1
757,445,60,0.128148437212086,1
757,446,60,0.110544469450384,1
757,448,60,0.110777678759375,1
757,449,60,0.142598914967701,1
757,450,60,0.122144178677147,1
758,431,60,0.105692850267488,1
758,432,60,0.120712408707278,1
758,433,60,0.105650710188601,1
758,444,60,0.127608011335391,1
758,445,60,0.131924012046039,1
758,446,60,0.108531538937834,1
758,449,60,0.112553540654491,1
759,431,60,0.116237027481221,1
759,432,60,0.111877258197372,1
759,445,60,0.114918482482443,1
759,446,60,0.10509106584819,1
760,430,60,0.108147593518182,1
760,431,60,0.113945267510753,1
760,432,60,0.103288155331766,1
761,430,60,0.107179799424825,1
761,431,60,0.10601185668786,1
761,435,60,0.109397150590037,1
761,450,60,0.106966868216262,1
762,430,60,0.123290426746712,1
762,431,60,0.113104016348834,1
762,435,60,0.110754701373851,1
762,450,60,0.108353118423839,1
762,451,60,0.103806295375317,1
763,429,60,0.141288713213763,1
763,430,60,0.148204482401598,1
763,431,60,0.118391882388624,1
763,450,60,0.107589733829074,1
763,451,60,0.106653739991118,1
764,429,60,0.179734418901028,1
764,430,60,0.157432791593507,1
764,431,60,0.113266854626142,1
764,449,60,0.10419615245241,1
764,450,60,0.111163609603601,1
764,451,60,0.118399043301976,1
764,452,60,0.110269265065424,1
765,428,60,0.181727350164915,1
765,429,60,0.181516694386763,1
765,430,60,0.140754277073004,1
765,431,60,0.106273285795577,1
765,435,60,0.105163254993387,1
765,447,60,0.106347069972876,1
765,448,60,0.123735128389153,1
765,449,60,0.127504668870889,1
765,450,60,0.124635061116722,1
765,451,60,0.12762691748513,1
765,452,60,0.114256008764779,1
766,428,60,0.154058372910207,1
766,429,60,0.142199097305525,1
766,430,60,0.114920010590121,1
766,431,60,0.111400934764659,1
766,432,60,0.112036761407558,1
766,435,60,0.110550693421802,1
766,445,60,0.111728050194389,1
766,446,60,0.111638081460587,1
766,447,60,0.119237115553763,1
766,448,60,0.143885124315687,1
766,449,60,0.144634220545959,1
766,450,60,0.127263696328731,1
766,451,60,0.11668915773471,1
767,428,60,0.136893897839956,1
767,429,60,0.1248109050404,1
767,430,60,0.124733607330848,1
767,431,60,0.145796943177863,1
767,432,60,0.132346439009408,1
767,444,60,0.104178930567338,1
767,445,60,0.107045192100312,1
767,446,60,0.105146088878669,1
767,447,60,0.139720116259324,1
767,448,60,0.156340473455498,1
767,449,60,0.135704516979217,1
767,450,60,0.108538320612785,1
768,428,60,0.145729338355699,1
768,429,60,0.13859836252889,1
768,430,60,0.135678840308598,1
768,431,60,0.136386398779798,1
768,432,60,0.111426165272452,1
768,443,60,0.108401192468307,1
768,444,60,0.110547469895386,1
768,446,60,0.110082590539153,1
768,447,60,0.165400601570261,1
768,448,60,0.155396214451196,1
768,449,60,0.111129277374164,1
768,453,60,0.10314480321587,1
768,454,60,0.128906267079671,1
768,455,60,0.1138398169269,1
769,428,60,0.179091241725576,1
769,429,60,0.16877169634051,1
769,430,60,0.14228948989401,1
769,431,60,0.117017645115128,1
769,443,60,0.120380140096912,1
769,444,60,0.11394868065637,1
769,447,60,0.119171630005021,1
769,448,60,0.1056855889675,1
769,454,60,0.116612016182147,1
770,428,60,0.193919340542789,1
770,429,60,0.170406057695457,1
770,430,60,0.146019344192401,1
770,431,60,0.120966453820229,1
770,444,60,0.120677228768472,1
770,445,60,0.127273444986473,1
771,428,60,0.181324743985078,1
771,429,60,0.141341248886489,1
771,430,60,0.133387325727685,1
771,431,60,0.123635187916197,1
771,444,60,0.127320113618041,1
771,445,60,0.144012024177385,1
772,428,60,0.167249065311188,1
772,429,60,0.124861622599611,1
772,430,60,0.118637885416642,1
772,431,60,0.115354729339337,1
772,452,60,0.109786427655456,1
772,453,60,0.116299992209997,1
772,454,60,0.120722358138291,1
772,455,60,0.112966007032775,1
773,428,60,0.163335603855953,1
773,429,60,0.127507211998996,1
773,452,60,0.127458267937017,1
773,453,60,0.155856866414656,1
773,454,60,0.173218210831745,1
773,455,60,0.155805122680946,1
773,456,60,0.108250857904189,1
774,428,60,0.179740419791033,1
774,429,60,0.133913050539273,1
774,452,60,0.121039802988773,1
774,453,60,0.163522311844436,1
774,454,60,0.199613917460413,1
774,455,60,0.195536970791772,1
774,456,60,0.139777035481813,1
775,428,60,0.197650689486646,1
775,429,60,0.132461972873122,1
775,452,60,0.107417659981274,1
775,453,60,0.140198068186351,1
775,454,60,0.178323250499635,1
775,455,60,0.19110925090957,1
775,456,60,0.15529261544307,1
776,429,60,0.131365706194105,1
776,452,60,0.114234358713663,1
776,453,60,0.139849012699668,1
776,454,60,0.148084799223605,1
776,455,60,0.157153504818692,1
776,456,60,0.151489813522678,1
777,429,60,0.129135025914475,1
777,452,60,0.149922934295118,1
777,453,60,0.198617970492754,1
777,454,60,0.177559051657714,1
777,455,60,0.170387620016685,1
778,430,60,0.107727943918404,1
778,432,60,0.107197690554135,1
778,440,60,0.106364593017855,1
778,451,60,0.113166021827535,1
778,452,60,0.158042015777924,1
778,453,60,0.214113651591985,1
778,454,60,0.202517924368441,1
778,455,60,0.198083199729875,1
779,430,60,0.141597402118792,1
779,431,60,0.150800982736086,1
779,432,60,0.150529336499662,1
779,433,60,0.111027028008585,1
779,436,60,0.106137819607625,1
779,437,60,0.115038689901756,1
779,438,60,0.112211501078242,1
779,439,60,0.104865128993258,1
779,440,60,0.103199703551572,1
779,450,60,0.127909606251491,1
779,451,60,0.160624406213049,1
779,452,60,0.158190442995962,1
779,453,60,0.173440232607881,1
779,454,60,0.180991794976403,1
780,430,60,0.169717985385669,1
780,431,60,0.188384690690036,1
780,432,60,0.181886529907053,1
780,433,60,0.124796705908472,1
780,436,60,0.127138469577629,1
780,437,60,0.136005230723736,1
780,438,60,0.121927667011907,1
780,439,60,0.105605748129842,1
780,450,60,0.149584430559262,1
780,451,60,0.188611988341587,1
780,452,60,0.165574203525739,1
780,453,60,0.156463759398308,1
781,431,60,0.203466890390554,1
781,432,60,0.19673848728137,1
781,433,60,0.143592229574688,1
781,434,60,0.106619061985491,1
781,435,60,0.109400106418757,1
781,436,60,0.144328855553982,1
781,437,60,0.145570805549659,1
781,438,60,0.112856574445703,1
781,450,60,0.120483203709648,1
781,451,60,0.144506986062141,1
781,452,60,0.139628440952715,1
781,453,60,0.134965548645088,1
782,432,60,0.201547453298129,1
782,433,60,0.159627098448772,1
782,434,60,0.123691594051436,1
782,435,60,0.124770560766886,1
782,436,60,0.155741377167225,1
782,437,60,0.146701616385455,1
782,438,60,0.103921260381428,1
782,450,60,0.111514293584598,1
782,451,60,0.121752994265648,1
783,432,60,0.21220619397143,1
783,433,60,0.181040995582006,1
783,434,60,0.137994034981486,1
783,435,60,0.127436149414933,1
783,436,60,0.13317818690314,1
783,437,60,0.118215335758496,1
783,449,60,0.10400028697193,1
784,433,60,0.186144562912572,1
784,434,60,0.135231227453719,1
784,435,60,0.11867641157664,1
784,436,60,0.1080701173435,1
784,450,60,0.129060494414443,1
786,436,60,0.103544832805389,1
745,455,61,0.163576520627758,1
746,455,61,0.161248476465491,1
748,442,61,0.121431545103805,1
749,440,61,0.121476295235222,1
749,441,61,0.133026134612143,1
749,442,61,0.119777139883914,1
750,439,61,0.108755824990312,1
750,440,61,0.124583529310355,1
750,441,61,0.132134868597463,1
750,442,61,0.120053448521867,1
750,444,61,0.10419355355395,1
751,439,61,0.104905785580749,1
751,440,61,0.118187461735961,1
751,441,61,0.122919799287407,1
751,442,61,0.117457583969405,1
751,443,61,0.10614676517228,1
751,444,61,0.105917080549612,1
751,451,61,0.104893683414102,1
752,439,61,0.103012571708405,1
752,440,61,0.104366910119874,1
752,441,61,0.103492564830359,1
752,446,61,0.109774381259163,1
753,439,61,0.106004851931497,1
753,445,61,0.120496019736816,1
753,446,61,0.14273589810926,1
753,447,61,0.128910472164303,1
753,448,61,0.106484789283098,1
754,445,61,0.136661547394405,1
754,446,61,0.164003721533362,1
754,447,61,0.14122301573768,1
755,444,61,0.108742317410764,1
755,445,61,0.137369317792947,1
755,446,61,0.155562555106686,1
755,447,61,0.130215353426544,1
756,444,61,0.11440013051155,1
756,445,61,0.124097490682112,1
756,446,61,0.125804777350919,1
756,447,61,0.107126505275295,1
756,448,61,0.106709621885036,1
756,449,61,0.143277907863986,1
756,450,61,0.134947590591354,1
757,432,61,0.111260538477484,1
757,433,61,0.119697042502631,1
757,444,61,0.113022680865709,1
757,445,61,0.116329572805341,1
757,446,61,0.106561886219378,1
757,448,61,0.113848260558376,1
757,449,61,0.16455046061404,1
757,450,61,0.139959415690886,1
758,432,61,0.104503190554983,1
758,444,61,0.112877287554886,1
758,445,61,0.122510021040147,1
758,446,61,0.110327266232764,1
758,449,61,0.119357356435288,1
759,445,61,0.114759191199599,1
759,446,61,0.115625025933214,1
760,431,61,0.104464106691452,1
761,435,61,0.112141698904162,1
761,450,61,0.1137125378268,1
761,451,61,0.111353440731864,1
762,431,61,0.120314409158616,1
762,435,61,0.111119952571107,1
762,451,61,0.10592018138125,1
763,430,61,0.152720062898251,1
763,431,61,0.132539304044885,1
764,430,61,0.150825488229288,1
764,431,61,0.116560729765334,1
764,451,61,0.114217248369297,1
764,452,61,0.109116636867452,1
765,429,61,0.160744557862009,1
765,430,61,0.131837054911311,1
765,435,61,0.11525372922967,1
765,436,61,0.118031327055109,1
765,447,61,0.104079938190387,1
765,448,61,0.125301304910263,1
765,449,61,0.129056021632115,1
765,450,61,0.11765387330457,1
765,451,61,0.118327791098713,1
765,452,61,0.112834779391668,1
766,429,61,0.125189831128263,1
766,430,61,0.110807415511707,1
766,431,61,0.110765364665385,1
766,432,61,0.104132328860194,1
766,435,61,0.123734927615882,1
766,436,61,0.107946463316359,1
766,446,61,0.108317336165218,1
766,447,61,0.124609964457777,1
766,448,61,0.156152270821549,1
766,449,61,0.15420532779092,1
766,450,61,0.120218082604549,1
766,451,61,0.104816263009773,1
767,429,61,0.120931653119825,1
767,430,61,0.121786523401999,1
767,431,61,0.151344643293267,1
767,432,61,0.133417095942229,1
767,434,61,0.106498006856809,1
767,435,61,0.118731713458885,1
767,445,61,0.1035169030125,1
767,446,61,0.107900753934866,1
767,447,61,0.137237119747693,1
767,448,61,0.157745785969803,1
767,449,61,0.138101694071326,1
767,450,61,0.104337240291965,1
768,429,61,0.152726074942327,1
768,430,61,0.134936826913184,1
768,431,61,0.138499849776977,1
768,432,61,0.115605484001449,1
768,443,61,0.110572421551413,1
768,444,61,0.103608611781322,1
768,446,61,0.103059407651032,1
768,447,61,0.136763997533255,1
768,448,61,0.134115084220818,1
768,449,61,0.103029525895781,1
768,454,61,0.122147067581443,1
768,455,61,0.112231857257164,1
769,429,61,0.198448450927131,1
769,430,61,0.153414571106799,1
769,431,61,0.119434386447144,1
769,442,61,0.104990389206572,1
769,443,61,0.112722045199685,1
769,454,61,0.113939021231193,1
770,429,61,0.185256754659791,1
770,430,61,0.155526873234701,1
770,431,61,0.128980765117491,1
770,444,61,0.119570834193312,1
770,445,61,0.128209383054076,1
771,429,61,0.148633902967259,1
771,430,61,0.150628696960944,1
771,431,61,0.145692351457449,1
771,435,61,0.105224189681307,1
771,444,61,0.136319496664085,1
771,445,61,0.154534952886544,1
772,429,61,0.132786400171826,1
772,430,61,0.142215293016097,1
772,431,61,0.139480158737595,1
772,452,61,0.122786084288546,1
772,453,61,0.126796508079875,1
772,454,61,0.11934228728585,1
772,455,61,0.108780542410855,1
773,431,61,0.103454250597702,1
773,451,61,0.10689808106261,1
773,452,61,0.153976502031692,1
773,453,61,0.169773209189419,1
773,454,61,0.154157209130169,1
773,455,61,0.133709254514565,1
774,441,61,0.10633481164924,1
774,452,61,0.147201062206609,1
774,453,61,0.185948195498913,1
774,454,61,0.197421272561673,1
774,455,61,0.191315021204781,1
774,456,61,0.142189884043174,1
775,434,61,0.106929847855799,1
775,435,61,0.115557989968653,1
775,452,61,0.123956514383263,1
775,453,61,0.160180318044493,1
775,454,61,0.194318790120634,1
775,455,61,0.209210679067852,1
776,435,61,0.118628962160128,1
776,436,61,0.113254083215256,1
776,451,61,0.103949290560952,1
776,452,61,0.128660330976077,1
776,453,61,0.15510057580882,1
776,454,61,0.154321441666308,1
776,455,61,0.159868394458979,1
777,440,61,0.105219103425094,1
777,451,61,0.114578361406344,1
777,452,61,0.169437616666002,1
777,453,61,0.22137548697557,1
777,454,61,0.182768359577969,1
778,432,61,0.115462901516427,1
778,433,61,0.105670530972133,1
778,437,61,0.108975192097635,1
778,438,61,0.10584863917215,1
778,439,61,0.113995170822807,1
778,440,61,0.125837648397102,1
778,441,61,0.105451342329939,1
778,451,61,0.122465572068637,1
778,452,61,0.167919045718394,1
778,453,61,0.233297247683991,1
778,454,61,0.219802673782428,1
778,455,61,0.219116787670487,1
779,432,61,0.16192163578283,1
779,433,61,0.120994718235237,1
779,436,61,0.132507046472588,1
779,437,61,0.14032776771978,1
779,438,61,0.124810001560678,1
779,439,61,0.122141825168241,1
779,440,61,0.128178252042913,1
779,441,61,0.113336701416505,1
779,450,61,0.138931054993941,1
779,451,61,0.175252925244259,1
779,452,61,0.162259035265691,1
779,453,61,0.183541849760736,1
779,454,61,0.195090094105556,1
779,455,61,0.201303781470876,1
780,431,61,0.187107393444494,1
780,432,61,0.199299818831123,1
780,433,61,0.134174925809815,1
780,435,61,0.107419422324435,1
780,436,61,0.147286056224904,1
780,437,61,0.162587968808935,1
780,438,61,0.140026050108904,1
780,439,61,0.119603984091261,1
780,440,61,0.110800544604192,1
780,441,61,0.108348389097886,1
780,450,61,0.156972965031275,1
780,451,61,0.200630811772738,1
780,452,61,0.168934490001536,1
781,432,61,0.20675267882853,1
781,433,61,0.151870959270599,1
781,434,61,0.114760362377016,1
781,435,61,0.11883094007132,1
781,436,61,0.149060122314646,1
781,437,61,0.159336691065527,1
781,438,61,0.126717693416716,1
781,450,61,0.114201610362257,1
781,451,61,0.138747090906836,1
782,433,61,0.171254402846305,1
782,435,61,0.133014857846724,1
782,436,61,0.157276233057971,1
782,437,61,0.155215172730599,1
782,438,61,0.111246038185649,1
783,436,61,0.139086263886929,1
783,437,61,0.125504610155862,1
749,442,62,0.106252539224182,1
750,440,62,0.111497674019341,1
750,441,62,0.116101037051949,1
750,442,62,0.105748732161406,1
750,444,62,0.106975501466939,1
751,440,62,0.115140749648134,1
751,441,62,0.114374386916507,1
751,442,62,0.107432461433016,1
751,443,62,0.107128535316152,1
751,444,62,0.113658462892325,1
752,439,62,0.105274316074774,1
752,440,62,0.111656820299266,1
752,446,62,0.106522066187184,1
752,447,62,0.109821016428518,1
753,445,62,0.113437188438922,1
753,446,62,0.145873348561763,1
753,447,62,0.145417124764348,1
753,448,62,0.11100748607682,1
754,445,62,0.127537573379285,1
754,446,62,0.149813401321409,1
754,447,62,0.128770276650399,1
755,444,62,0.10389681065858,1
755,445,62,0.128070749110061,1
755,446,62,0.137522619339856,1
755,447,62,0.111355861165193,1
756,445,62,0.114015225841822,1
756,446,62,0.115487217390428,1
756,448,62,0.103995568800048,1
756,449,62,0.143595163095267,1
756,450,62,0.137882237731437,1
757,448,62,0.10909751879037,1
757,449,62,0.160282444715295,1
757,450,62,0.141040278598346,1
758,445,62,0.107326564686337,1
758,446,62,0.103590475262458,1
758,449,62,0.111307407882323,1
759,445,62,0.105834908511189,1
759,446,62,0.113006764006903,1
765,448,62,0.115324524116038,1
765,449,62,0.118194299181264,1
765,450,62,0.105609797057485,1
765,451,62,0.10316720058972,1
766,447,62,0.127361182906146,1
766,448,62,0.154745720205403,1
766,449,62,0.149891357121129,1
766,450,62,0.112334686634416,1
767,430,62,0.113025893238054,1
767,431,62,0.134684086826498,1
767,432,62,0.120435698522782,1
767,446,62,0.112416267507095,1
767,447,62,0.137018310343901,1
767,448,62,0.150865330569622,1
767,449,62,0.130568323992022,1
768,430,62,0.128997775075221,1
768,431,62,0.126632309005948,1
768,447,62,0.117129553905883,1
768,448,62,0.117588521604676,1
768,454,62,0.10517996379121,1
769,430,62,0.153826178621644,1
770,430,62,0.153204952657216,1
770,444,62,0.114374398070578,1
770,445,62,0.119847979386564,1
771,430,62,0.156420704685629,1
771,444,62,0.129921198275563,1
771,445,62,0.143633577714559,1
772,452,62,0.127281765923172,1
772,453,62,0.131200570178245,1
772,454,62,0.114754606876565,1
773,452,62,0.16968379815915,1
773,453,62,0.171458388490213,1
773,454,62,0.139246079411094,1
773,455,62,0.11540408610193,1
774,452,62,0.167238379711513,1
774,453,62,0.191209191382526,1
774,454,62,0.181431533057408,1
774,455,62,0.170222573233389,1
775,452,62,0.140521447002415,1
775,453,62,0.173269229550863,1
775,454,62,0.191331752310744,1
776,452,62,0.14235564468699,1
776,453,62,0.171794917955564,1
776,454,62,0.164564559359332,1
777,452,62,0.174341615364634,1
777,453,62,0.223709855495892,1
777,454,62,0.193718009567694,1
777,455,62,0.173776438605184,1
778,451,62,0.134241281376066,1
778,452,62,0.174626323017781,1
778,453,62,0.235338197221994,1
778,454,62,0.243445979631239,1
778,455,62,0.245566613849911,1
778,456,62,0.186402779647944,1
779,450,62,0.142243668971812,1
779,451,62,0.182683109016049,1
779,452,62,0.175930557343925,1
779,453,62,0.196670090520191,1
779,454,62,0.216038375713894,1
779,455,62,0.22210041233476,1
779,456,62,0.175727118249478,1
780,437,62,0.182824018390475,1
780,450,62,0.151399275931273,1
780,453,62,0.16731576665363,1
780,454,62,0.164595221899528,1
780,455,62,0.156682658034665,1
781,436,62,0.153180424855874,1
781,437,62,0.171826060120798,1
782,436,62,0.153042482464239,1
782,437,62,0.157700009663887,1
776,453,63,0.180824428146414,1
776,454,63,0.176004029207246,1
777,452,63,0.161359604471301,1
777,453,63,0.200540062253991,1
777,454,63,0.201478231135723,1
777,455,63,0.17609750031923,1
778,452,63,0.172216117971162,1
778,453,63,0.212298973531033,1
778,454,63,0.251330859092767,1
778,455,63,0.249069817432849,1
778,456,63,0.173493147519009,1
779,451,63,0.174247564240978,1
779,452,63,0.188109185145169,1
779,453,63,0.199597320203297,1
779,454,63,0.228243628281762,1
779,455,63,0.231950059031803,1
779,456,63,0.177543224031472,1
780,452,63,0.176278742813098,1
780,453,63,0.167733252363704,1
780,454,63,0.163456101281103,1
780,455,63,0.155754683973501,1
776,454,64,0.188349823065208,1
777,453,64,0.181070107706383,1
777,454,64,0.209867966142666,1
777,455,64,0.189637092049905,1
778,452,64,0.173987774781646,1
778,453,64,0.197344911794056,1
778,454,64,0.245704299697921,1
778,455,64,0.235574351205635,1
778,456,64,0.159824068182246,1
779,451,64,0.163104402279678,1
779,452,64,0.207896283383353,1
779,453,64,0.212674709554693,1
779,454,64,0.235453574928719,1
779,455,64,0.226273752481892,1
779,456,64,0.174445258989043,1
780,452,64,0.180726383865467,1
780,453,64,0.172100104482411,1
780,454,64,0.164323508738679,1
780,455,64,0.153556830123772,1
777,454,65,0.189854462578584,1
778,453,65,0.175589923180577,1
778,454,65,0.203143444650066,1
778,455,65,0.19034144930283,1
779,452,65,0.202157201723866,1
779,453,65,0.210620263591213,1
779,454,65,0.215680017732295,1
779,455,65,0.19246795056266,1
780,453,65,0.171675982100304,1
780,454,65,0.161954395288306,1
778,454,66,0.147272715956416,1
779,453,66,0.179146030520571,1
779,454,66,0.167119410394041,1
