x,y,z,signal,mito.p
635,824,2,0.189930778729919,1
636,824,2,0.165915774631021,1
635,824,3,0.215140071480639,1
636,824,3,0.157096830985758,1
635,824,4,0.224955229791256,1
636,824,4,0.149935516086802,1
637,825,4,0.136449854287683,1
635,824,5,0.206232631438899,1
674,864,18,0.155768459250744,1
675,864,18,0.185619228493457,1
673,864,19,0.127231003747679,1
674,863,19,0.147567607276059,1
674,864,19,0.193743396232476,1
674,865,19,0.176643324766115,1
675,863,19,0.158448514728415,1
675,864,19,0.239852495000522,1
675,865,19,0.204154137299114,1
676,864,19,0.158417997191137,1
673,863,20,0.153114805458285,1
673,864,20,0.142732016492677,1
674,862,20,0.122699941400974,1
674,863,20,0.179891802837792,1
674,864,20,0.219147729062449,1
674,865,20,0.180042561256594,1
675,862,20,0.118939826108931,1
675,863,20,0.199967501499776,1
675,864,20,0.270524159226232,1
675,865,20,0.204281650634698,1
676,863,20,0.17328080747619,1
676,864,20,0.179571892937698,1
673,863,21,0.171077198126009,1
673,864,21,0.156455483077892,1
674,862,21,0.123041490198115,1
674,863,21,0.202107008405975,1
674,864,21,0.232171489642196,1
674,865,21,0.166613127127583,1
675,862,21,0.129825083648837,1
675,863,21,0.233791060699471,1
675,864,21,0.272122805246982,1
675,865,21,0.173538990749349,1
676,863,21,0.202396902701971,1
676,864,21,0.18417117358045,1
673,863,22,0.176904854260467,1
673,864,22,0.166564774231348,1
674,862,22,0.121108233212164,1
674,863,22,0.216250927684055,1
674,864,22,0.238694747084125,1
674,865,22,0.15154334190769,1
675,862,22,0.131485891305277,1
675,863,22,0.247787322390387,1
675,864,22,0.255980745754025,1
675,865,22,0.140535969602391,1
676,863,22,0.202439979722792,1
676,864,22,0.170014259810072,1
708,888,22,0.214340056917884,1
673,863,23,0.171602142152652,1
673,864,23,0.161371003931498,1
674,862,23,0.119554448863539,1
674,863,23,0.221187250879409,1
674,864,23,0.230629350143321,1
674,865,23,0.133366344920807,1
675,862,23,0.124427138085878,1
675,863,23,0.23393985600184,1
675,864,23,0.22141628856598,1
675,865,23,0.112509359380676,1
676,863,23,0.174628765759252,1
676,864,23,0.142302250150825,1
707,888,23,0.169327336369561,1
708,887,23,0.17524461546163,1
708,888,23,0.244497964649805,1
708,889,23,0.176807267296417,1
709,888,23,0.168300191466315,1
673,863,24,0.157176950675183,1
673,864,24,0.140204080230427,1
673,880,24,0.124096709897168,1
674,862,24,0.113875086098271,1
674,863,24,0.200996821446797,1
674,864,24,0.1977078875609,1
674,865,24,0.107776408355345,1
674,881,24,0.117600021451509,1
675,862,24,0.107950266854448,1
675,863,24,0.190852171889404,1
675,864,24,0.173777554012249,1
676,863,24,0.130302511334544,1
676,864,24,0.108089748507831,1
679,885,24,0.110908393313233,1
680,884,24,0.117409019145828,1
681,884,24,0.131304392267784,1
707,888,24,0.185406654215155,1
707,889,24,0.149879121105634,1
708,887,24,0.168610475403445,1
708,888,24,0.29441622315851,1
708,889,24,0.234574924167935,1
708,890,24,0.105111923960291,1
709,888,24,0.195580783981255,1
709,889,24,0.157376485844904,1
667,869,25,0.138934021976732,1
667,870,25,0.118035309058328,1
668,868,25,0.109522343878927,1
668,869,25,0.132412526877964,1
668,870,25,0.108042611405296,1
673,863,25,0.147090090357788,1
673,864,25,0.122433537577752,1
673,881,25,0.147076917400359,1
674,863,25,0.169476008977153,1
674,864,25,0.158814067085578,1
675,863,25,0.142807161466594,1
675,864,25,0.13002551114421,1
680,884,25,0.115131636772419,1
681,884,25,0.110862572391034,1
682,861,25,0.110626808799866,1
707,888,25,0.182007484649099,1
707,889,25,0.155893663693705,1
708,887,25,0.155293808928628,1
708,888,25,0.310406431133742,1
708,889,25,0.263775433400338,1
708,890,25,0.115955052575381,1
709,888,25,0.209723520927847,1
709,889,25,0.18089537918977,1
666,869,26,0.118146782840328,1
667,868,26,0.158874154064128,1
667,869,26,0.18945590532639,1
667,870,26,0.13144062808661,1
668,868,26,0.140561110877619,1
668,869,26,0.163775130009617,1
668,870,26,0.112685515618331,1
672,881,26,0.11519086488753,1
673,863,26,0.127364183351149,1
673,881,26,0.109615971147899,1
673,882,26,0.12965479445234,1
674,863,26,0.126906899917023,1
674,864,26,0.114507778447319,1
681,860,26,0.112069643607812,1
681,862,26,0.11890230381529,1
684,897,26,0.109181877026639,1
707,883,26,0.173062656162566,1
707,884,26,0.159056266575507,1
707,888,26,0.161975576868456,1
707,889,26,0.148173317928223,1
708,887,26,0.132635463287893,1
708,888,26,0.279962309949137,1
708,889,26,0.254413777293899,1
708,890,26,0.120428214141381,1
709,888,26,0.194239216980672,1
709,889,26,0.179948699752139,1
666,868,27,0.128295804793413,1
666,869,27,0.146819236060379,1
667,868,27,0.213382636110224,1
667,869,27,0.25108192254417,1
667,870,27,0.149822213037217,1
668,868,27,0.165472199549715,1
668,869,27,0.187562881073246,1
668,870,27,0.115261124378506,1
671,877,27,0.103670639568164,1
672,878,27,0.112649220272461,1
672,881,27,0.107381520792392,1
672,882,27,0.113570803051147,1
673,863,27,0.106859175664209,1
677,860,27,0.119227645747787,1
677,861,27,0.11092483441336,1
681,859,27,0.1097154766121,1
681,862,27,0.114976807117832,1
682,860,27,0.114659730351681,1
683,860,27,0.104914162287802,1
684,897,27,0.110597038585321,1
687,864,27,0.124719687050686,1
703,873,27,0.139266881752842,1
703,874,27,0.104955354270684,1
704,874,27,0.118494020213496,1
704,875,27,0.109474615610648,1
706,883,27,0.103633775364691,1
707,882,27,0.137260877918161,1
707,883,27,0.205941220189296,1
707,884,27,0.195929928700503,1
707,885,27,0.117299463863979,1
707,888,27,0.131803559237172,1
707,889,27,0.132776138426835,1
708,883,27,0.172551866651569,1
708,884,27,0.167161148926385,1
708,887,27,0.107614072011215,1
708,888,27,0.219536136110358,1
708,889,27,0.222932885243084,1
708,890,27,0.126635621764929,1
709,888,27,0.164434670206701,1
709,889,27,0.165868481371497,1
666,868,28,0.14859066978945,1
666,869,28,0.177373001759398,1
666,870,28,0.107533461542683,1
667,867,28,0.107009365225409,1
667,868,28,0.247663936060941,1
667,869,28,0.301815989779659,1
667,870,28,0.164959346535648,1
668,868,28,0.168539457435665,1
668,869,28,0.192237730544602,1
668,870,28,0.11015876168757,1
669,878,28,0.106436302538015,1
672,878,28,0.120940721379257,1
673,879,28,0.105177833363717,1
673,880,28,0.10432777048599,1
677,860,28,0.11053659467651,1
678,859,28,0.118104754302147,1
678,861,28,0.125999148185933,1
681,861,28,0.117430858816146,1
684,897,28,0.113823900068093,1
687,863,28,0.122258452130878,1
687,864,28,0.103924550832268,1
689,901,28,0.113144617165972,1
700,868,28,0.126491254628605,1
700,869,28,0.111087840001728,1
701,870,28,0.116078740064735,1
702,871,28,0.112606466719689,1
703,873,28,0.155451627874147,1
703,874,28,0.117462748304113,1
704,874,28,0.116216950154064,1
707,882,28,0.126716232233462,1
707,883,28,0.205606910384003,1
707,884,28,0.210641991720824,1
707,885,28,0.116330409360639,1
707,888,28,0.103806429224165,1
707,889,28,0.113617460528644,1
708,882,28,0.11470365508187,1
708,883,28,0.167539718083988,1
708,884,28,0.171380845391107,1
708,885,28,0.104818794983809,1
708,888,28,0.161479109184164,1
708,889,28,0.182778766325879,1
666,868,29,0.151228272874255,1
666,869,29,0.187347830591261,1
666,870,29,0.110271116641151,1
667,867,29,0.105367642183839,1
667,868,29,0.246979165356063,1
667,869,29,0.312738457299228,1
667,870,29,0.168317826052001,1
668,868,29,0.15586562236011,1
668,869,29,0.181092114687761,1
669,878,29,0.102979198729043,1
669,879,29,0.104787686280788,1
673,880,29,0.121925949285029,1
677,860,29,0.107640406772002,1
678,859,29,0.1304147993637,1
678,861,29,0.106514838349408,1
680,893,29,0.105160812251917,1
684,897,29,0.123469471888663,1
687,863,29,0.106584774372336,1
689,901,29,0.104327268552811,1
691,862,29,0.102973666310004,1
703,874,29,0.129763401638185,1
703,875,29,0.109682003246102,1
706,884,29,0.10309409681073,1
707,882,29,0.109447243521292,1
707,883,29,0.181114790913377,1
707,884,29,0.202459811660394,1
707,885,29,0.111820539748155,1
708,883,29,0.149360278355633,1
708,884,29,0.16062476314331,1
708,889,29,0.141831849529624,1
708,890,29,0.128138231237448,1
708,891,29,0.104679525257768,1
666,868,30,0.144527163775933,1
666,869,30,0.175724418964383,1
666,870,30,0.107460748156165,1
667,867,30,0.105592352091,1
667,868,30,0.21753190577291,1
667,869,30,0.272762335041334,1
667,870,30,0.151212634867214,1
668,868,30,0.13360602359077,1
668,869,30,0.153063084032716,1
670,880,30,0.108680166929144,1
671,878,30,0.115671794951418,1
671,880,30,0.114833332307159,1
671,881,30,0.105295062646169,1
673,880,30,0.119964505962565,1
678,859,30,0.134119322767662,1
678,860,30,0.134822252299546,1
689,902,30,0.10681681250391,1
703,874,30,0.135642823814494,1
703,875,30,0.124594694535068,1
704,875,30,0.120422425178717,1
707,883,30,0.147671529752234,1
707,884,30,0.173542749671156,1
707,885,30,0.104462835127399,1
708,884,30,0.138998548275398,1
708,888,30,0.108499827914998,1
708,889,30,0.105515355541356,1
708,890,30,0.113078808149182,1
708,891,30,0.112108961706826,1
709,890,30,0.111896420890736,1
709,891,30,0.116375382573469,1
666,868,31,0.135371824514167,1
666,869,31,0.150728269349569,1
666,870,31,0.105767325997167,1
667,867,31,0.11151572130564,1
667,868,31,0.178669785166353,1
667,869,31,0.204085785154218,1
667,870,31,0.127008680811634,1
668,868,31,0.112737259352041,1
668,869,31,0.118804493769827,1
670,881,31,0.12367151672428,1
670,882,31,0.12211661696859,1
671,879,31,0.131074718799187,1
672,878,31,0.117233978315237,1
672,880,31,0.114201766519246,1
673,879,31,0.126174679795632,1
673,880,31,0.104655108997132,1
678,860,31,0.116063570528661,1
689,903,31,0.118777255529318,1
698,867,31,0.109428047365716,1
699,868,31,0.116743868451211,1
700,869,31,0.151847613800744,1
702,874,31,0.10743722422118,1
702,875,31,0.104170353087014,1
703,874,31,0.138119194808164,1
703,875,31,0.132773539528376,1
703,876,31,0.116980992838997,1
703,877,31,0.130848201932581,1
703,878,31,0.103335437437219,1
704,877,31,0.106451416303736,1
707,884,31,0.130267643709715,1
708,885,31,0.103020535714843,1
708,887,31,0.150722023070009,1
708,891,31,0.105018687083791,1
709,891,31,0.135724382379031,1
663,873,32,0.122733492845467,1
663,874,32,0.106414440559556,1
666,868,32,0.119049347928569,1
666,869,32,0.122617535127069,1
667,867,32,0.11111966256527,1
667,868,32,0.132506142992866,1
667,869,32,0.131508110213997,1
671,879,32,0.106203673240697,1
672,879,32,0.132357436923061,1
673,879,32,0.108605278498851,1
681,894,32,0.107716745231479,1
698,867,32,0.122887920953511,1
699,868,32,0.13708375127636,1
700,869,32,0.134525029779138,1
702,874,32,0.125037388444793,1
702,875,32,0.13431287935552,1
702,876,32,0.112531924065586,1
702,877,32,0.108159160289438,1
703,874,32,0.135715771436495,1
703,875,32,0.134526702889734,1
703,876,32,0.123553339345824,1
703,877,32,0.158389197380739,1
703,878,32,0.145159164572601,1
704,877,32,0.115548297081265,1
704,878,32,0.11997224688759,1
708,886,32,0.159800499630979,1
708,887,32,0.164874330209212,1
709,887,32,0.159315353328388,1
709,890,32,0.11815741266965,1
709,891,32,0.137709561563822,1
710,891,32,0.1251053948135,1
663,868,33,0.116879390409516,1
663,872,33,0.11060447835044,1
665,868,33,0.106212351107657,1
665,869,33,0.115823501466225,1
665,870,33,0.118748734570686,1
666,868,33,0.113684351490286,1
666,869,33,0.114857057015415,1
666,870,33,0.113725900403429,1
666,874,33,0.11129555110523,1
666,875,33,0.108420489010519,1
667,867,33,0.117851501128212,1
668,866,33,0.107017284615565,1
678,893,33,0.109418967952213,1
679,893,33,0.10614746787873,1
680,894,33,0.108284799741154,1
682,894,33,0.122341761884506,1
701,875,33,0.118580620417964,1
701,876,33,0.104088761060265,1
702,873,33,0.103678993967076,1
702,874,33,0.140880898082936,1
702,875,33,0.162635250914388,1
702,876,33,0.139108683568921,1
702,877,33,0.130674365741619,1
702,878,33,0.108768786020398,1
703,875,33,0.130736125830766,1
703,876,33,0.121473372868714,1
703,877,33,0.157123132284333,1
703,878,33,0.168198276722856,1
703,879,33,0.111882232912878,1
704,877,33,0.112321011743809,1
704,878,33,0.131200559024174,1
704,879,33,0.103182883213043,1
708,886,33,0.16658581080858,1
708,887,33,0.147368551731375,1
709,887,33,0.138255910252028,1
709,891,33,0.118327534555088,1
710,891,33,0.119101013583784,1
663,876,34,0.105559213347122,1
664,871,34,0.123110455816897,1
664,872,34,0.110687710025573,1
664,878,34,0.122954432676751,1
665,871,34,0.141152087002465,1
665,872,34,0.108930207730735,1
665,873,34,0.121899246439911,1
665,879,34,0.104130098046066,1
666,869,34,0.13247478890029,1
666,870,34,0.138944027178098,1
666,871,34,0.104573918516926,1
666,874,34,0.136305498305429,1
666,875,34,0.144004350176783,1
666,876,34,0.10767371282694,1
667,877,34,0.104318724534699,1
669,881,34,0.124500331097433,1
678,892,34,0.123480246720904,1
679,892,34,0.113634448178232,1
682,894,34,0.129948347283506,1
701,874,34,0.105122107626788,1
701,875,34,0.125909168298061,1
701,876,34,0.121222038194929,1
701,877,34,0.115617106543058,1
702,875,34,0.165283762680282,1
702,876,34,0.151471654695672,1
702,877,34,0.151675026865695,1
702,878,34,0.133129365535938,1
703,877,34,0.14155691284236,1
703,878,34,0.165142808689574,1
703,879,34,0.122728328510759,1
704,878,34,0.12203780230543,1
704,879,34,0.106351676604051,1
707,886,34,0.105357558903978,1
708,885,34,0.120218383764456,1
708,886,34,0.160800763223976,1
708,887,34,0.119171172688125,1
709,887,34,0.110364933529324,1
664,878,35,0.112502421548736,1
664,879,35,0.125696014008085,1
665,872,35,0.127212543760765,1
665,877,35,0.106161098153055,1
665,879,35,0.109459869929259,1
666,871,35,0.10886188904805,1
667,876,35,0.109057877223307,1
667,877,35,0.127202482789046,1
667,878,35,0.115167184795556,1
669,880,35,0.119599834776982,1
678,891,35,0.109144198576009,1
701,875,35,0.123313928373555,1
701,876,35,0.127650218338702,1
701,877,35,0.139383676026538,1
701,878,35,0.113793538687805,1
702,876,35,0.148051582401232,1
702,877,35,0.1628774950206,1
702,878,35,0.149556422687879,1
703,877,35,0.124871449335846,1
703,878,35,0.143210938823849,1
703,879,35,0.11539818559856,1
707,886,35,0.117158900265744,1
708,886,35,0.140799239131764,1
663,878,36,0.105311604132931,1
664,879,36,0.114396282357178,1
701,876,36,0.122020546958147,1
701,877,36,0.143729011942976,1
701,878,36,0.133566883956886,1
702,877,36,0.153192660871368,1
702,878,36,0.149546740954562,1
702,879,36,0.104817188797637,1
703,878,36,0.114787522539031,1
707,886,36,0.118604635132057,1
708,886,36,0.118998619215287,1
658,825,37,0.268903985849143,1
659,825,37,0.319922838816273,1
663,878,37,0.103295918564933,1
673,887,37,0.110451266036096,1
673,888,37,0.105905803784192,1
674,887,37,0.106648687197117,1
674,888,37,0.115620106988061,1
677,890,37,0.112086687027753,1
697,876,37,0.106216321956806,1
697,877,37,0.116544333281489,1
698,874,37,0.103909749380525,1
698,875,37,0.114460462879654,1
698,876,37,0.112586779785005,1
698,877,37,0.113715058646765,1
700,877,37,0.106603702830216,1
700,878,37,0.110644978780942,1
700,879,37,0.112881224941823,1
701,876,37,0.112137081118916,1
701,877,37,0.131069119455724,1
701,878,37,0.140214107739935,1
701,879,37,0.12770730487225,1
702,877,37,0.130099183780803,1
702,878,37,0.136000534859995,1
702,879,37,0.112983597002178,1
704,881,37,0.130310497649123,1
704,882,37,0.117171035894602,1
705,882,37,0.121249744906404,1
657,825,38,0.239740775828968,1
658,824,38,0.267532280549683,1
658,825,38,0.304403823401258,1
659,824,38,0.257278968036092,1
660,825,38,0.222577918098961,1
672,888,38,0.103352179697254,1
673,886,38,0.1100182873219,1
674,887,38,0.13539879505698,1
676,890,38,0.115082703864511,1
690,908,38,0.167302682928766,1
690,909,38,0.141084404101807,1
696,877,38,0.107862919327247,1
697,875,38,0.109312323882802,1
697,876,38,0.129733954891689,1
697,877,38,0.150731169407936,1
697,878,38,0.103911467107404,1
698,874,38,0.13560333840442,1
698,875,38,0.134324401510493,1
698,876,38,0.127784078340481,1
698,877,38,0.129438751258068,1
699,874,38,0.125114853465405,1
699,875,38,0.120354519196646,1
699,876,38,0.107728490467865,1
699,879,38,0.105319333903886,1
700,874,38,0.105372605745274,1
700,876,38,0.105602836917404,1
700,877,38,0.106981558127298,1
700,878,38,0.129310490599751,1
700,879,38,0.162672895902806,1
700,880,38,0.113564590233799,1
701,877,38,0.117861238631883,1
701,878,38,0.142111515542841,1
701,879,38,0.163913942418761,1
701,880,38,0.115461228405831,1
702,878,38,0.120324838214667,1
702,879,38,0.117476545889497,1
703,881,38,0.117712677564997,1
703,882,38,0.114396550054874,1
704,880,38,0.122455544559129,1
708,887,38,0.103160273911851,1
708,888,38,0.108200486121168,1
709,888,38,0.122054354946264,1
709,889,38,0.106215117317177,1
657,824,39,0.248829447210505,1
657,825,39,0.256943074352767,1
658,823,39,0.235388457464309,1
658,824,39,0.318037510871873,1
659,824,39,0.290083825964017,1
660,825,39,0.188552046365955,1
670,867,39,0.108229430934485,1
688,904,39,0.109586368244414,1
688,908,39,0.106312771205651,1
689,905,39,0.10425606096583,1
689,908,39,0.131299573709267,1
689,909,39,0.116260127561521,1
690,872,39,0.118831620469629,1
690,907,39,0.13641751863689,1
690,908,39,0.186555568107603,1
690,909,39,0.158606021359956,1
690,910,39,0.117375478855407,1
691,872,39,0.110131869223251,1
691,907,39,0.11539071237123,1
691,908,39,0.173094791040087,1
691,909,39,0.158312167368882,1
696,876,39,0.112958768040928,1
696,877,39,0.122346546980812,1
697,874,39,0.121244948656028,1
697,875,39,0.135883339039756,1
697,876,39,0.158700340181308,1
697,877,39,0.170911816720594,1
697,878,39,0.115095296810266,1
698,873,39,0.134962949746629,1
698,874,39,0.172013760821568,1
698,875,39,0.160345353673718,1
698,876,39,0.149110996030846,1
698,877,39,0.139685705951393,1
699,873,39,0.133388017280065,1
699,874,39,0.165141235965614,1
699,875,39,0.145138574158196,1
699,876,39,0.121993766034534,1
699,877,39,0.106745816844271,1
699,878,39,0.110740948404749,1
699,879,39,0.134284771097501,1
699,908,39,0.110276202897364,1
700,873,39,0.116363916188849,1
700,874,39,0.14164079145359,1
700,875,39,0.12809172991694,1
700,877,39,0.106358681360415,1
700,878,39,0.14963318500204,1
700,879,39,0.225420042223065,1
700,880,39,0.164069519396081,1
701,873,39,0.112514434482818,1
701,874,39,0.127759026297819,1
701,875,39,0.116882078540541,1
701,878,39,0.146120935467812,1
701,879,39,0.210748446171035,1
701,880,39,0.162955261201119,1
702,879,39,0.125660410214595,1
702,880,39,0.115281893258042,1
702,881,39,0.113032920302559,1
702,882,39,0.114890385378495,1
708,887,39,0.127958639546035,1
708,888,39,0.141571915067374,1
708,889,39,0.112967457061959,1
709,888,39,0.153601468714483,1
709,889,39,0.131599305895569,1
656,825,40,0.284345525089476,1
657,824,40,0.255433259350614,1
658,823,40,0.27142667969819,1
658,824,40,0.337751951493891,1
659,824,40,0.304565312036019,1
667,873,40,0.103601238940627,1
670,889,40,0.11058330792436,1
685,887,40,0.140630076496401,1
685,888,40,0.119973986922611,1
686,887,40,0.124170527536679,1
686,888,40,0.10905670604589,1
686,903,40,0.105619411866379,1
687,903,40,0.104677606757618,1
687,904,40,0.134188187999808,1
687,907,40,0.108318953505461,1
687,908,40,0.110408690948454,1
688,876,40,0.103749710774948,1
688,877,40,0.109234323466799,1
688,904,40,0.13832628128371,1
688,905,40,0.135526810325743,1
688,907,40,0.117521809108164,1
688,908,40,0.124624353208906,1
689,903,40,0.103336307454729,1
689,904,40,0.1359966197812,1
689,905,40,0.14352297395007,1
689,906,40,0.126470764600835,1
689,907,40,0.131198640524024,1
689,908,40,0.145887045760512,1
689,909,40,0.125080063919071,1
690,871,40,0.107761138432635,1
690,872,40,0.136159201514883,1
690,873,40,0.107259863343896,1
690,904,40,0.123028473397675,1
690,905,40,0.130493346329164,1
690,906,40,0.120871521524992,1
690,907,40,0.139330326106656,1
690,908,40,0.18686337584105,1
690,909,40,0.167106270898824,1
690,910,40,0.126406941008619,1
691,872,40,0.138951556175781,1
691,873,40,0.129599079869481,1
691,907,40,0.118525809314827,1
691,908,40,0.17898436342068,1
691,909,40,0.184441559406893,1
691,910,40,0.144705238513739,1
691,911,40,0.108800062034479,1
692,872,40,0.13721882707184,1
692,873,40,0.140345402305466,1
692,908,40,0.117403018255823,1
692,909,40,0.137056613422487,1
692,910,40,0.129635999843308,1
696,875,40,0.12202320162696,1
696,876,40,0.13554360835613,1
696,877,40,0.127793358527256,1
697,873,40,0.119717644071107,1
697,874,40,0.146360391056363,1
697,875,40,0.177067179450525,1
697,876,40,0.194141172699725,1
697,877,40,0.171566549513232,1
697,878,40,0.1185069366273,1
698,872,40,0.119198366312351,1
698,873,40,0.164922816954294,1
698,874,40,0.200322758649736,1
698,875,40,0.196372656072441,1
698,876,40,0.17942400111505,1
698,877,40,0.145507115806291,1
698,878,40,0.111908411516676,1
699,872,40,0.112051841711067,1
699,873,40,0.158219900896529,1
699,874,40,0.197344599480078,1
699,875,40,0.17712593909467,1
699,876,40,0.141214583260274,1
699,877,40,0.113557752788495,1
699,878,40,0.120143361485315,1
699,879,40,0.146719808674672,1
699,880,40,0.117722470839021,1
700,873,40,0.135647575448588,1
700,874,40,0.172743225887509,1
700,875,40,0.157122396115671,1
700,876,40,0.124432837815976,1
700,878,40,0.149954422236541,1
700,879,40,0.240715663911254,1
700,880,40,0.192737700607076,1
700,881,40,0.104784473908443,1
701,873,40,0.125543448629838,1
701,874,40,0.147729006678254,1
701,875,40,0.136691998007258,1
701,876,40,0.122834102562661,1
701,878,40,0.136150579418277,1
701,879,40,0.220347661674015,1
701,880,40,0.195430114795018,1
701,881,40,0.123423494809476,1
702,874,40,0.106814458995004,1
702,875,40,0.110205441473208,1
702,879,40,0.119397990714638,1
702,880,40,0.126895522764967,1
702,883,40,0.112403183782231,1
705,887,40,0.127799404033544,1
705,888,40,0.112097986101314,1
706,887,40,0.107414971850249,1
707,888,40,0.105431588470831,1
708,887,40,0.145665258219859,1
708,888,40,0.163382551339287,1
708,889,40,0.125055881893918,1
709,887,40,0.149562189342402,1
709,888,40,0.178930712340891,1
709,889,40,0.147628062338941,1
709,890,40,0.109616763086915,1
710,888,40,0.113718605641229,1
710,889,40,0.10711494965811,1
710,903,40,0.105925847649137,1
653,824,41,0.288426107985146,1
653,825,41,0.303031025002876,1
654,824,41,0.24559991990485,1
654,825,41,0.290487201774729,1
657,824,41,0.247946780984291,1
658,823,41,0.271854036760783,1
658,824,41,0.319654538801041,1
659,823,41,0.320542447440458,1
659,824,41,0.292667688736468,1
660,824,41,0.166257747282846,1
660,825,41,0.14677047046353,1
667,887,41,0.113956811973868,1
679,874,41,0.121466401574562,1
679,875,41,0.112331842346402,1
680,875,41,0.131492527977309,1
680,876,41,0.112562408140651,1
681,876,41,0.120115253227296,1
682,875,41,0.124178993476296,1
682,876,41,0.104183091035688,1
683,874,41,0.114478934020638,1
683,875,41,0.104792103292762,1
684,873,41,0.107257654837909,1
684,874,41,0.103797282886238,1
684,887,41,0.113621587534782,1
685,875,41,0.104621312163086,1
685,886,41,0.111875863938542,1
685,887,41,0.171809496325894,1
685,888,41,0.14138744904709,1
685,895,41,0.103084950472803,1
685,896,41,0.10818576274792,1
686,875,41,0.123421721312243,1
686,876,41,0.122209530377041,1
686,887,41,0.148635341842372,1
686,888,41,0.127777787444639,1
686,895,41,0.107387253984703,1
686,896,41,0.114444724485978,1
686,897,41,0.115927234323199,1
686,903,41,0.117557435209796,1
687,877,41,0.11568937376675,1
687,897,41,0.106469842828437,1
687,898,41,0.107054628444076,1
687,903,41,0.11118823779158,1
687,904,41,0.138991844678942,1
687,906,41,0.108412536158151,1
687,907,41,0.108799571255371,1
687,908,41,0.108703690864129,1
688,875,41,0.1049622251782,1
688,877,41,0.138939699398689,1
688,878,41,0.102941799130179,1
688,902,41,0.103545970520594,1
688,903,41,0.116928111390082,1
688,904,41,0.148710687589562,1
688,905,41,0.143436630289227,1
688,906,41,0.121459831826954,1
688,907,41,0.130851090836877,1
688,908,41,0.134967890999923,1
688,909,41,0.113643226431828,1
689,872,41,0.103808459265022,1
689,876,41,0.104872769531648,1
689,877,41,0.118133353339274,1
689,902,41,0.129767327871051,1
689,903,41,0.14345162136017,1
689,904,41,0.185005397677865,1
689,905,41,0.181280629635688,1
689,906,41,0.138090963855368,1
689,907,41,0.143876647221998,1
689,908,41,0.155645307156782,1
689,909,41,0.13146666168749,1
690,871,41,0.104741965745224,1
690,872,41,0.133907852742353,1
690,873,41,0.114257871494577,1
690,902,41,0.128371842092982,1
690,903,41,0.145917563297789,1
690,904,41,0.189853771026204,1
690,905,41,0.181827145634953,1
690,906,41,0.134236373584983,1
690,907,41,0.139921703778044,1
690,908,41,0.169487174201866,1
690,909,41,0.159646316912489,1
690,910,41,0.126048850724716,1
691,872,41,0.141405105940917,1
691,873,41,0.147311275578626,1
691,874,41,0.10781000441612,1
691,904,41,0.125498999658329,1
691,905,41,0.123020799397073,1
691,906,41,0.108572307066032,1
691,907,41,0.122729767385872,1
691,908,41,0.162331101716112,1
691,909,41,0.18222420824168,1
691,910,41,0.152421133805035,1
691,911,41,0.103864006536821,1
692,872,41,0.150343933537444,1
692,873,41,0.180241661417561,1
692,874,41,0.134230908090369,1
692,908,41,0.120995710947524,1
692,909,41,0.145954427501262,1
692,910,41,0.133172520635254,1
693,873,41,0.130519223773054,1
693,874,41,0.123545163412043,1
693,875,41,0.107452806457868,1
693,909,41,0.109284126392218,1
694,874,41,0.111798242760941,1
694,875,41,0.112535404135626,1
694,906,41,0.105418080891283,1
694,907,41,0.10334447223444,1
695,874,41,0.103153637239819,1
695,875,41,0.116512421485381,1
695,876,41,0.107861625455053,1
695,906,41,0.11075641910073,1
695,907,41,0.112600175823846,1
695,908,41,0.107530405327327,1
695,909,41,0.111183698084828,1
696,874,41,0.111929515018331,1
696,875,41,0.141076518173863,1
696,876,41,0.148525530016898,1
696,877,41,0.125143173650766,1
696,883,41,0.119571280356138,1
696,884,41,0.10820138960089,1
696,906,41,0.103476726050046,1
696,908,41,0.106298070140544,1
696,909,41,0.106461544199879,1
697,872,41,0.117182825747271,1
697,873,41,0.146265949540234,1
697,874,41,0.163353751528888,1
697,875,41,0.205278021457041,1
697,876,41,0.210341322592588,1
697,877,41,0.154904699174269,1
697,878,41,0.115463492682171,1
698,872,41,0.137773719778157,1
698,873,41,0.183329476255705,1
698,874,41,0.206964249240475,1
698,875,41,0.218575837552472,1
698,876,41,0.194464016120398,1
698,877,41,0.141786541694675,1
698,878,41,0.122532853422751,1
698,879,41,0.120255649514472,1
698,880,41,0.115835625941013,1
699,872,41,0.119557148148634,1
699,873,41,0.170259069352531,1
699,874,41,0.211217943312514,1
699,875,41,0.20267591062502,1
699,876,41,0.155849426649538,1
699,877,41,0.121389672722613,1
699,878,41,0.132267189337494,1
699,879,41,0.158771335840947,1
699,880,41,0.145777122394331,1
699,881,41,0.111522536442803,1
700,873,41,0.147446440606671,1
700,874,41,0.19955379701965,1
700,875,41,0.196404400557489,1
700,876,41,0.143254975094745,1
700,877,41,0.108151486288836,1
700,878,41,0.141609738520922,1
700,879,41,0.220433949564505,1
700,880,41,0.201474081821444,1
700,881,41,0.126045660660512,1
701,873,41,0.12850551247556,1
701,874,41,0.164996065736203,1
701,875,41,0.167640216260476,1
701,876,41,0.134581067830045,1
701,878,41,0.121719822059557,1
701,879,41,0.203860852165643,1
701,880,41,0.207341412985176,1
701,881,41,0.139252080301099,1
701,882,41,0.103260180922595,1
701,884,41,0.10653449182188,1
701,885,41,0.11359898938766,1
702,874,41,0.110112260367062,1
702,875,41,0.118239763173203,1
702,879,41,0.113781737681065,1
702,880,41,0.134801784579917,1
702,883,41,0.138610375462972,1
702,884,41,0.116061138941261,1
702,885,41,0.10403780926557,1
703,884,41,0.108237049164734,1
704,886,41,0.106917321834468,1
704,887,41,0.129483691008686,1
704,888,41,0.117918827098609,1
705,886,41,0.113078986614312,1
705,887,41,0.162617326322866,1
705,888,41,0.156541971741653,1
706,887,41,0.116398348804922,1
706,888,41,0.116842927752586,1
707,888,41,0.105116296355983,1
708,887,41,0.143175279260005,1
708,888,41,0.159337025687646,1
708,889,41,0.120775685750032,1
709,887,41,0.146342957243949,1
709,888,41,0.178555734794035,1
709,889,41,0.147295224870972,1
709,890,41,0.113701327985804,1
710,888,41,0.11050047779577,1
710,889,41,0.106039173006863,1
711,895,41,0.104191780056718,1
711,896,41,0.111139695276144,1
711,897,41,0.103685117551858,1
652,824,42,0.254618432182046,1
652,825,42,0.266967884575179,1
653,823,42,0.260884811377081,1
653,824,42,0.347807256945439,1
653,826,42,0.234501329609837,1
654,823,42,0.223758509552034,1
654,824,42,0.299622787177387,1
655,824,42,0.224411022684613,1
657,824,42,0.240388046548346,1
658,823,42,0.254703225427069,1
658,824,42,0.296472453773293,1
659,824,42,0.27029005759159,1
660,825,42,0.132928648034729,1
671,881,42,0.108619466476708,1
672,882,42,0.104169985002683,1
675,872,42,0.102922078733283,1
676,872,42,0.117506561493596,1
676,873,42,0.104884046297067,1
677,874,42,0.108847689916122,1
678,875,42,0.111261910428173,1
679,876,42,0.120637999902023,1
680,877,42,0.108899645577175,1
681,877,42,0.109125192039634,1
681,885,42,0.121569275568097,1
681,886,42,0.114302922785901,1
682,884,42,0.109944458528318,1
682,887,42,0.115896627553356,1
683,884,42,0.106500906915176,1
683,888,42,0.105060325229499,1
684,885,42,0.115488042791655,1
684,888,42,0.124154978762203,1
685,876,42,0.113257496360873,1
685,886,42,0.130179560013852,1
685,887,42,0.182774605857529,1
685,888,42,0.148745934452792,1
685,894,42,0.107203914525554,1
685,895,42,0.123059214016366,1
685,896,42,0.116970943021349,1
685,897,42,0.106610049496412,1
685,906,42,0.113439040014648,1
686,874,42,0.106188236006928,1
686,877,42,0.113446502087908,1
686,886,42,0.109041971518571,1
686,887,42,0.151906217287899,1
686,888,42,0.127176069949765,1
686,894,42,0.131163070192745,1
686,895,42,0.155314008950562,1
686,896,42,0.143512132193405,1
686,897,42,0.143380090305141,1
686,898,42,0.127230200654592,1
686,905,42,0.127706814093141,1
686,906,42,0.111390940717364,1
687,894,42,0.106654777319688,1
687,895,42,0.122154328881431,1
687,896,42,0.117714027207545,1
687,897,42,0.142185957810308,1
687,898,42,0.146825303874808,1
687,899,42,0.106302386765883,1
687,903,42,0.118736163933072,1
687,904,42,0.139531077070077,1
687,905,42,0.12489807410247,1
687,906,42,0.112048015864836,1
687,907,42,0.111273689126771,1
687,908,42,0.107929977599949,1
688,878,42,0.111694487595826,1
688,885,42,0.107558814745253,1
688,886,42,0.11168830824069,1
688,901,42,0.112530485190473,1
688,902,42,0.123549323880392,1
688,903,42,0.129878199333236,1
688,904,42,0.153735518335463,1
688,905,42,0.142630257906206,1
688,906,42,0.122728607362525,1
688,907,42,0.132659812624106,1
688,908,42,0.137310781230215,1
688,909,42,0.116508361403668,1
689,877,42,0.121944442734154,1
689,878,42,0.107588138796972,1
689,885,42,0.114544140717614,1
689,886,42,0.118031260130685,1
689,901,42,0.142693122248347,1
689,902,42,0.171093929231973,1
689,903,42,0.175964967651857,1
689,904,42,0.221899772912045,1
689,905,42,0.198331823964494,1
689,906,42,0.13884178896659,1
689,907,42,0.143599334717687,1
689,908,42,0.158506850517875,1
689,909,42,0.136965283892067,1
690,872,42,0.115649721045616,1
690,873,42,0.112311207315714,1
690,901,42,0.134254398563142,1
690,902,42,0.170582793944785,1
690,903,42,0.181984429185081,1
690,904,42,0.238958496238535,1
690,905,42,0.209773491164325,1
690,906,42,0.137079178107397,1
690,907,42,0.132482819831152,1
690,908,42,0.149447101641513,1
690,909,42,0.145659647722325,1
690,910,42,0.120735218781742,1
691,872,42,0.125814905247062,1
691,873,42,0.149090427924582,1
691,874,42,0.120915914726148,1
691,902,42,0.105754777667695,1
691,903,42,0.118436465208981,1
691,904,42,0.150607850002913,1
691,905,42,0.140015085657462,1
691,906,42,0.115824561102936,1
691,907,42,0.121523476954039,1
691,908,42,0.141036486214327,1
691,909,42,0.160951833956757,1
691,910,42,0.144636194816462,1
692,872,42,0.139806839158569,1
692,873,42,0.204789941633871,1
692,874,42,0.174405751270828,1
692,875,42,0.115528777457641,1
692,905,42,0.106033261349423,1
692,906,42,0.103491003260469,1
692,907,42,0.106992823738646,1
692,908,42,0.121335196241596,1
692,909,42,0.139637051895251,1
692,910,42,0.126098709420487,1
693,873,42,0.157973819790016,1
693,874,42,0.161412831696407,1
693,875,42,0.12099165086581,1
693,905,42,0.109374965143529,1
693,906,42,0.108841555177269,1
693,907,42,0.103308957673514,1
694,874,42,0.124257573903972,1
694,875,42,0.118070176683156,1
694,905,42,0.121031917060829,1
694,906,42,0.127703679799291,1
695,874,42,0.110693800148144,1
695,875,42,0.124798211708009,1
695,876,42,0.113401205407029,1
695,883,42,0.115342638326761,1
695,884,42,0.104181852933846,1
695,905,42,0.129961397546158,1
696,874,42,0.129886687580995,1
696,875,42,0.160447937661416,1
696,876,42,0.15818086164928,1
696,877,42,0.123221505744213,1
696,878,42,0.105037671312025,1
696,882,42,0.106398401005972,1
696,883,42,0.140907902087962,1
696,884,42,0.133595639151002,1
696,905,42,0.117727133240549,1
696,906,42,0.121236170402433,1
697,872,42,0.121811218514401,1
697,873,42,0.155510231361303,1
697,874,42,0.175820132044565,1
697,875,42,0.223757349528687,1
697,876,42,0.215741030498709,1
697,877,42,0.143660715568432,1
697,878,42,0.115950836336678,1
697,879,42,0.124078060291053,1
697,880,42,0.127530356695579,1
697,881,42,0.109787554216591,1
697,883,42,0.118463379981441,1
697,884,42,0.127710762634149,1
697,885,42,0.113862827774635,1
698,872,42,0.138933029264444,1
698,873,42,0.177029880238297,1
698,874,42,0.196869703768407,1
698,875,42,0.22648936066741,1
698,876,42,0.20418775566803,1
698,877,42,0.143358105631904,1
698,878,42,0.131922907793046,1
698,879,42,0.155001549969656,1
698,880,42,0.166249526732783,1
698,881,42,0.134697360170563,1
698,884,42,0.113466735572053,1
698,885,42,0.116249263496715,1
699,872,42,0.116316656391537,1
699,873,42,0.162425208610122,1
699,874,42,0.201984425169615,1
699,875,42,0.215338056234541,1
699,876,42,0.17400729440527,1
699,877,42,0.134970456436171,1
699,878,42,0.141075391612728,1
699,879,42,0.175622872305255,1
699,880,42,0.191116322590357,1
699,881,42,0.154659064230582,1
699,885,42,0.105614013296188,1
700,873,42,0.144299419961557,1
700,874,42,0.205976801674645,1
700,875,42,0.228450447059613,1
700,876,42,0.165378773054014,1
700,877,42,0.11630768851874,1
700,878,42,0.130759326297703,1
700,879,42,0.188885419229314,1
700,880,42,0.204945630151898,1
700,881,42,0.154388109546537,1
700,884,42,0.111095290920917,1
700,885,42,0.129793383780072,1
700,886,42,0.106205324043153,1
701,873,42,0.121676867733513,1
701,874,42,0.173093619862669,1
701,875,42,0.200025859597377,1
701,876,42,0.147362138140756,1
701,878,42,0.108958349450965,1
701,879,42,0.171820148463357,1
701,880,42,0.196725793948979,1
701,881,42,0.149075247234437,1
701,882,42,0.110693510142307,1
701,883,42,0.119521633587709,1
701,886,42,0.117217302979627,1
702,874,42,0.118141373116066,1
702,875,42,0.131335489816735,1
702,879,42,0.108984762290247,1
702,880,42,0.139349232256394,1
702,886,42,0.104283622674387,1
702,907,42,0.116382554640892,1
703,885,42,0.12378144009046,1
703,886,42,0.105882681395751,1
704,885,42,0.110092974978921,1
704,886,42,0.118760390574507,1
704,887,42,0.142795907009316,1
704,888,42,0.134587492574735,1
705,884,42,0.115288853398123,1
705,886,42,0.109900611876622,1
705,887,42,0.158947213226836,1
705,888,42,0.166204977374637,1
705,889,42,0.10545639512394,1
706,887,42,0.115562841989383,1
706,888,42,0.12344667296827,1
706,896,42,0.108031089250322,1
707,887,42,0.108928657314915,1
707,888,42,0.111174194816641,1
708,887,42,0.131844706603772,1
708,888,42,0.144567429970952,1
708,889,42,0.114224465053003,1
709,887,42,0.126680528053335,1
709,888,42,0.157372213835848,1
709,889,42,0.136153724866198,1
709,890,42,0.111196804117833,1
710,888,42,0.103881116881186,1
710,890,42,0.105583038442014,1
711,895,42,0.113433351438621,1
652,824,43,0.255306638340681,1
653,823,43,0.272479200112147,2
653,824,43,0.3610857988068,1
654,823,43,0.261217247298506,2
654,824,43,0.334364861786341,1
655,824,43,0.23295811932018,1
657,824,43,0.238567836068356,1
658,824,43,0.279702152405473,1
661,874,43,0.118519384570137,1
661,875,43,0.116259826401614,1
669,878,43,0.111196882196328,1
670,878,43,0.10569357528208,1
670,879,43,0.117356661938233,1
671,878,43,0.103283102537765,1
671,879,43,0.117318347705576,1
672,879,43,0.111971989719338,1
672,880,43,0.126896627017961,1
672,881,43,0.129117592102061,1
672,882,43,0.118331672715296,1
673,875,43,0.111289048282046,1
673,876,43,0.12070133271513,1
673,877,43,0.114328699843156,1
673,878,43,0.106374542448868,1
673,879,43,0.104971471902762,1
673,880,43,0.109248678755716,1
673,881,43,0.111318071173857,1
673,882,43,0.102985344621967,1
674,871,43,0.10332624648301,1
674,872,43,0.114788626792024,1
674,873,43,0.127953040202572,1
674,874,43,0.135397768882481,1
674,875,43,0.148810237670045,1
674,876,43,0.152927852080248,1
674,877,43,0.132030711885804,1
674,878,43,0.110944499039902,1
674,881,43,0.108470771560975,1
674,882,43,0.10523170752492,1
675,876,43,0.14819704263648,1
675,877,43,0.1231377721359,1
675,878,43,0.103905243135986,1
675,881,43,0.10808973735376,1
675,882,43,0.107099311651069,1
676,875,43,0.129761193132198,1
676,876,43,0.119503273987431,1
676,877,43,0.106086890121072,1
677,875,43,0.120215572938654,1
677,876,43,0.11186212212351,1
677,877,43,0.109417941777714,1
678,877,43,0.128686576504298,1
678,878,43,0.104370992509729,1
679,878,43,0.105001331349872,1
681,884,43,0.120039874017895,1
681,887,43,0.112409954303111,1
682,888,43,0.113754454824274,1
684,889,43,0.107709640088479,1
684,897,43,0.109303646015842,1
685,877,43,0.108331211829097,1
685,878,43,0.104620843692119,1
685,879,43,0.104539965525891,1
685,885,43,0.125780394552495,1
685,888,43,0.150260054926213,1
685,894,43,0.122769342028511,1
685,895,43,0.130634590325709,1
685,896,43,0.115985001255056,1
685,897,43,0.109422604179243,1
685,905,43,0.125667013424415,1
685,906,43,0.107394760674245,1
686,878,43,0.109509115151145,1
686,879,43,0.106058670322346,1
686,885,43,0.112748580733743,1
686,886,43,0.133969724372207,1
686,887,43,0.146182862868019,1
686,888,43,0.117208915118504,1
686,893,43,0.111338873515605,1
686,894,43,0.18312987416156,1
686,896,43,0.157115558670367,1
686,897,43,0.151746725231784,1
686,898,43,0.136257379644678,1
686,899,43,0.10521035863371,1
686,904,43,0.146679018238333,1
686,905,43,0.123311485632085,1
686,906,43,0.106248746840163,1
687,879,43,0.106245802165514,1
687,885,43,0.116055082280902,1
687,886,43,0.128307538875729,1
687,887,43,0.116413808346832,1
687,894,43,0.156105892195818,1
687,895,43,0.164796207098433,1
687,896,43,0.136226482868998,1
687,897,43,0.158282151764784,1
687,898,43,0.164113455280341,1
687,899,43,0.120519978680556,1
687,901,43,0.106302208300752,1
687,902,43,0.123764050894329,1
687,904,43,0.138665353877168,1
687,905,43,0.117694808743828,1
687,906,43,0.104543980991322,1
687,907,43,0.103158455798337,1
688,879,43,0.112969810570864,1
688,885,43,0.131046632849309,1
688,886,43,0.136703620548868,1
688,887,43,0.104888809085231,1
688,898,43,0.109800504092607,1
688,899,43,0.10424738309887,1
688,900,43,0.114136626746694,1
688,901,43,0.131780581851649,1
688,902,43,0.1421068196791,1
688,903,43,0.156254988658095,1
688,904,43,0.165661305663386,1
688,905,43,0.136956371789624,1
688,906,43,0.114087548835867,1
688,907,43,0.119272540882123,1
688,908,43,0.12461539649018,1
689,874,43,0.108221076535574,1
689,878,43,0.116916109610071,1
689,879,43,0.114428361464346,1
689,880,43,0.107349776307344,1
689,885,43,0.131297309432926,1
689,886,43,0.136309870701121,1
689,900,43,0.120706831671957,1
689,901,43,0.180238672126629,1
689,902,43,0.198720967181066,1
689,903,43,0.211337336484671,1
689,904,43,0.24592358872675,1
689,905,43,0.192024799336038,1
689,906,43,0.129615543277749,1
689,908,43,0.145069909699321,1
690,886,43,0.109820882579671,1
690,901,43,0.168912404941664,1
690,902,43,0.195614803896715,1
690,903,43,0.204614354253819,1
690,904,43,0.25257812958014,1
690,905,43,0.202045036389486,1
690,906,43,0.128392254042258,1
690,908,43,0.126431290344831,1
690,909,43,0.126216396019835,1
691,873,43,0.119740309142653,1
691,874,43,0.115267593739479,1
691,887,43,0.105901966783891,1
691,902,43,0.124542727719945,1
691,903,43,0.134660819435138,1
691,904,43,0.161772517012412,1
691,905,43,0.144523404854127,1
691,908,43,0.115088805141152,1
691,909,43,0.128582174403085,1
692,872,43,0.104482031282974,1
692,873,43,0.172510708130898,1
692,874,43,0.175660461523319,1
692,875,43,0.118488766646223,1
692,887,43,0.104551153058745,1
692,904,43,0.121898432192754,1
692,905,43,0.123712162157701,1
692,906,43,0.107112908463182,1
693,873,43,0.143430941713199,1
693,874,43,0.162968423004477,1
693,875,43,0.119463074716836,1
693,904,43,0.116565213701732,1
693,905,43,0.126879527827666,1
693,906,43,0.111629894372736,1
694,874,43,0.115360417915365,1
694,875,43,0.11012282327196,1
694,883,43,0.105277271903494,1
694,884,43,0.10689704373404,1
694,904,43,0.117341481248089,1
694,905,43,0.144951241541757,1
695,874,43,0.111467591490818,1
695,875,43,0.127116585291029,1
695,876,43,0.116281152984682,1
695,880,43,0.106499122263873,1
695,881,43,0.105887410721703,1
695,882,43,0.112055924100922,1
695,883,43,0.13184970362742,1
695,884,43,0.126538068263091,1
695,885,43,0.106515819907625,1
695,904,43,0.125820805750432,1
696,873,43,0.105594549442917,1
696,874,43,0.151106448114699,1
696,875,43,0.182292103069681,1
696,876,43,0.163217683021122,1
696,877,43,0.123480782116295,1
696,878,43,0.112881325328458,1
696,879,43,0.122032693741076,1
696,880,43,0.12719978350395,1
696,881,43,0.116634915489176,1
696,882,43,0.120555727476964,1
696,883,43,0.150911274186598,1
696,884,43,0.148030289280376,1
696,885,43,0.126240644969412,1
696,904,43,0.11833556548595,1
696,905,43,0.142687389056036,1
697,872,43,0.112087032803943,1
697,873,43,0.150156533996581,1
697,874,43,0.185997775342919,1
697,875,43,0.229624926081974,1
697,876,43,0.204917053422912,1
697,877,43,0.137293180106742,1
697,878,43,0.123380462404937,1
697,879,43,0.153051784959155,1
697,880,43,0.16703379174779,1
697,881,43,0.133700677034241,1
697,882,43,0.113070922221238,1
697,883,43,0.133141858095058,1
697,901,43,0.104978365118419,1
697,902,43,0.103288512262027,1
698,872,43,0.128158319718675,1
698,873,43,0.160681124662266,1
698,874,43,0.180567973754204,1
698,875,43,0.215063108393206,1
698,876,43,0.20050740313515,1
698,877,43,0.146793548235689,1
698,878,43,0.138830188733122,1
698,879,43,0.186983594414434,1
698,880,43,0.218016973997006,1
698,881,43,0.162470951453826,1
698,882,43,0.110061130107237,1
698,883,43,0.113750863213527,1
698,886,43,0.11853610452203,1
699,872,43,0.108336086157968,1
699,873,43,0.148365446795038,1
699,874,43,0.183208499205518,1
699,875,43,0.21741592574637,1
699,876,43,0.197454846314307,1
699,877,43,0.153817578833179,1
699,878,43,0.143000539589321,1
699,879,43,0.193973214703992,1
699,880,43,0.246875923278197,1
699,881,43,0.195316387890748,1
699,882,43,0.117967860393153,1
699,884,43,0.116263418012361,1
699,885,43,0.128132877283539,1
699,886,43,0.108468942293389,1
700,873,43,0.132110731188593,1
700,874,43,0.19708557965162,1
700,875,43,0.248507295342212,1
700,876,43,0.193572694335365,1
700,877,43,0.130761869425809,1
700,878,43,0.119387405501598,1
700,879,43,0.165224021477922,1
700,880,43,0.214718402994074,1
700,881,43,0.179729555726228,1
700,882,43,0.117338603497863,1
700,883,43,0.103709020725245,1
700,886,43,0.121536560678903,1
701,873,43,0.110382423112091,1
701,874,43,0.171788058202119,1
701,875,43,0.217756102592822,1
701,876,43,0.156083628670816,1
701,879,43,0.135947318788961,1
701,880,43,0.170475201779369,1
701,881,43,0.14661663352123,1
701,882,43,0.115027959685798,1
702,874,43,0.128786918523797,1
702,875,43,0.140138159672931,1
702,880,43,0.134993645749036,1
703,886,43,0.129069105356979,1
703,887,43,0.109851511657655,1
704,885,43,0.120454325820754,1
704,886,43,0.126061399054188,1
704,887,43,0.140909831742183,1
704,888,43,0.132127283829426,1
705,887,43,0.138462862878726,1
705,888,43,0.152478655347337,1
705,889,43,0.10632613378228,1
705,895,43,0.105203376185488,1
705,896,43,0.135005736761613,1
705,897,43,0.13361139985282,1
705,898,43,0.116656409383304,1
705,899,43,0.108061238703269,1
705,900,43,0.106098434584187,1
705,901,43,0.104883176279557,1
706,887,43,0.1207763438402,1
706,888,43,0.140671112322294,1
706,889,43,0.108576077141909,1
706,895,43,0.11843644290084,1
706,896,43,0.150231980130406,1
706,897,43,0.147737751469638,1
706,898,43,0.131122971308786,1
706,899,43,0.119455255713316,1
706,900,43,0.114856978936921,1
707,888,43,0.138351266401949,1
707,889,43,0.109955378363477,1
707,895,43,0.104190541954877,1
707,896,43,0.118959468427332,1
707,897,43,0.117388952972743,1
707,898,43,0.111761211246409,1
707,899,43,0.105690730994066,1
707,900,43,0.10438142156578,1
707,901,43,0.108870934999341,1
708,888,43,0.131979771245181,1
708,889,43,0.111666892425056,1
709,888,43,0.122916754226121,1
709,890,43,0.103385307287061,1
711,895,43,0.114987983496616,1
652,823,44,0.232992897712443,2
652,824,44,0.257722810815094,1
652,825,44,0.275933548865671,1
653,822,44,0.275280388796994,2
653,823,44,0.285215141053039,2
653,824,44,0.35412304867342,2
654,822,44,0.272248690088252,2
654,823,44,0.303739643110786,2
654,824,44,0.358855497765572,2
655,823,44,0.240665604442211,2
655,824,44,0.252763599466782,1
657,824,44,0.23458681440724,1
658,824,44,0.266741300784149,1
659,825,44,0.234316618199999,1
662,874,44,0.11428657091834,1
668,874,44,0.103507712058291,1
668,875,44,0.114952022772864,1
669,877,44,0.105343594007534,1
670,877,44,0.111140174901182,1
670,878,44,0.122266159593692,1
671,870,44,0.116248270784428,1
671,871,44,0.111453537361809,1
671,876,44,0.104580142488345,1
671,877,44,0.117642563076939,1
671,878,44,0.123789872567866,1
672,870,44,0.124360737903343,1
672,871,44,0.125538418143979,1
672,872,44,0.114418635114745,1
672,873,44,0.104494891926425,1
672,875,44,0.105903204885733,1
672,876,44,0.117303323172421,1
672,877,44,0.122490902963065,1
672,878,44,0.123875323903057,1
672,879,44,0.139538650684043,1
673,870,44,0.113496639635446,1
673,871,44,0.117687134743226,1
673,872,44,0.118509390522841,1
673,873,44,0.125830978262858,1
673,875,44,0.14167237978165,1
673,876,44,0.15556454053126,1
673,878,44,0.14084571814413,1
673,879,44,0.129353868780479,1
673,880,44,0.127641228157764,1
673,881,44,0.126279014972421,1
673,882,44,0.112762367165057,1
673,883,44,0.103324372599142,1
674,879,44,0.12756284850336,1
674,880,44,0.127504546176112,1
674,882,44,0.14054168048656,1
674,883,44,0.107093667691324,1
674,885,44,0.103456325254842,1
675,879,44,0.127233569183926,1
675,883,44,0.1141888277973,1
676,878,44,0.125210655778152,1
676,879,44,0.112286222197475,1
676,880,44,0.112830585461106,1
676,881,44,0.124944675809614,1
676,882,44,0.124631067959432,1
677,878,44,0.125189474198002,1
677,879,44,0.109237301603661,1
678,879,44,0.119364428116075,1
679,879,44,0.109831333943863,1
681,883,44,0.104627357669374,1
682,878,44,0.105255008378492,1
683,878,44,0.105599624545059,1
683,879,44,0.108440744802805,1
683,896,44,0.106524118536183,1
683,897,44,0.131808712417809,1
684,878,44,0.118654393441192,1
684,879,44,0.119077467340658,1
684,897,44,0.116559357814645,1
684,898,44,0.110022704333874,1
685,893,44,0.10492819410867,1
685,894,44,0.130142896583651,1
685,896,44,0.115452305149317,1
685,897,44,0.113880540438815,1
685,898,44,0.110043261286068,1
685,899,44,0.112275926990272,1
686,888,44,0.12484112141777,1
686,893,44,0.133136526449291,1
686,897,44,0.143391634768255,1
686,898,44,0.129702756956102,1
686,899,44,0.111896733204714,1
686,900,44,0.112117394184232,1
686,905,44,0.112584370505746,1
687,879,44,0.120057999382689,1
687,894,44,0.180950647609803,1
687,896,44,0.144043077110053,1
687,897,44,0.156717782203118,1
687,898,44,0.157777987771748,1
687,899,44,0.132452268831663,1
687,900,44,0.122835887213964,1
687,901,44,0.122695624775636,1
687,904,44,0.134670311549255,1
688,879,44,0.125597010477063,1
688,898,44,0.116847824389598,1
688,899,44,0.124123602361486,1
688,900,44,0.144767344379076,1
688,901,44,0.14760529688076,1
688,902,44,0.148989706666681,1
688,903,44,0.176689335307515,1
688,904,44,0.172855179294547,1
688,905,44,0.125510031034194,1
689,900,44,0.147036138118091,1
689,901,44,0.195905925140481,1
689,902,44,0.194774188516822,1
689,903,44,0.228638906237187,1
689,904,44,0.249420456797563,1
689,905,44,0.169997149465707,1
689,906,44,0.115070925165912,1
690,877,44,0.107634004335453,1
690,901,44,0.181234775251277,1
690,902,44,0.190964917235457,1
690,903,44,0.205983583349596,1
690,904,44,0.232190250789017,1
690,905,44,0.170804347249955,1
690,906,44,0.1144142069487,1
691,874,44,0.103541910438881,1
691,879,44,0.103676160833132,1
691,880,44,0.107764395421263,1
691,902,44,0.136506093111862,1
691,903,44,0.149063100451508,1
691,904,44,0.163379417045437,1
691,905,44,0.140554217661962,1
692,873,44,0.128317276379399,1
692,874,44,0.151740088559752,1
692,875,44,0.113423178926195,1
692,881,44,0.105304409757367,1
692,903,44,0.115727598766842,1
692,904,44,0.137188398767127,1
693,873,44,0.115304725640647,1
693,874,44,0.141996662077436,1
693,875,44,0.110934415760041,1
693,881,44,0.108062064104496,1
694,880,44,0.106553397971619,1
694,881,44,0.111522212974754,1
694,882,44,0.108351255694042,1
694,883,44,0.12249706001006,1
694,904,44,0.145911361634512,1
695,875,44,0.118159531943072,1
695,876,44,0.109640041632346,1
695,879,44,0.104968259530417,1
695,880,44,0.110784382355831,1
695,881,44,0.110576057778443,1
695,882,44,0.115380551012874,1
695,883,44,0.137207583768632,1
696,874,44,0.15012108636008,1
696,875,44,0.182544419301682,1
696,876,44,0.152749498490676,1
696,877,44,0.113027990203335,1
696,879,44,0.119770090511268,1
696,880,44,0.129692941373937,1
696,881,44,0.119078950832054,1
696,882,44,0.122019375780729,1
696,883,44,0.147018168910286,1
696,904,44,0.143612106128573,1
697,873,44,0.127608992893608,1
697,874,44,0.172505923034593,1
697,875,44,0.21053078563652,1
697,876,44,0.176855006718766,1
697,877,44,0.122045543230456,1
697,878,44,0.116308502765897,1
697,879,44,0.152122115479253,1
697,880,44,0.177506359827999,1
697,881,44,0.141588088469805,1
697,882,44,0.12110190885411,1
697,904,44,0.106206963691537,1
698,873,44,0.134742299921181,1
698,874,44,0.152757975584364,1
698,875,44,0.178642602696198,1
698,876,44,0.170037638742139,1
698,877,44,0.132305425491656,1
698,878,44,0.127279724728244,1
698,879,44,0.181126201527644,1
698,880,44,0.232055598848222,1
698,881,44,0.171728183150911,1
698,882,44,0.125564585593706,1
699,873,44,0.128343008820371,1
699,874,44,0.155058357651438,1
699,875,44,0.190184667685881,1
699,876,44,0.186646295318208,1
699,877,44,0.147580702154993,1
699,878,44,0.129499105934314,1
699,879,44,0.191658388115436,1
699,880,44,0.279376208153162,1
699,881,44,0.214811294094384,1
699,882,44,0.136749976866457,1
699,883,44,0.123344501681186,1
699,886,44,0.12084215285699,1
700,873,44,0.114268222472133,1
700,874,44,0.171667549622899,1
700,875,44,0.226625797259507,1
700,876,44,0.186796574111973,1
700,877,44,0.125411897520682,1
700,878,44,0.104836239950294,1
700,879,44,0.152413381725938,1
700,880,44,0.231774248570338,1
700,881,44,0.192592697688725,1
700,882,44,0.127976976838171,1
700,883,44,0.121618018856804,1
701,874,44,0.160907853456214,1
701,875,44,0.202430811076724,1
701,876,44,0.144307774360468,1
701,879,44,0.112163081257583,1
701,880,44,0.151418750938615,1
701,881,44,0.13702088693422,1
702,875,44,0.136011912012051,1
702,880,44,0.132549889257925,1
703,887,44,0.12000695835543,1
704,886,44,0.132973208546945,1
704,887,44,0.132458883195554,1
704,888,44,0.118213696110112,1
705,886,44,0.105787213705123,1
705,887,44,0.131809125118423,1
705,888,44,0.140589988766512,1
705,889,44,0.108023972953253,1
705,895,44,0.119877180743505,1
705,896,44,0.155251033067715,1
705,897,44,0.153714046749476,1
705,898,44,0.139420305994528,1
705,899,44,0.139520279929695,1
706,887,44,0.140095216500957,1
706,888,44,0.169810575326071,1
706,889,44,0.128234412788597,1
706,894,44,0.112813910125496,1
707,887,44,0.140515468420551,1
707,888,44,0.171715790978427,1
707,889,44,0.133116281811075,1
707,897,44,0.141846918679062,1
707,898,44,0.138913375791972,1
707,899,44,0.134982759376089,1
708,888,44,0.124655216522373,1
708,897,44,0.105850981526985,1
708,900,44,0.104788656684933,1
708,901,44,0.107174021616232,1
651,824,45,0.245826659852868,2
652,822,45,0.281707364301138,2
652,823,45,0.254999566775896,2
652,824,45,0.267952476698923,2
652,825,45,0.273632954871255,1
653,822,45,0.288998289500959,2
653,823,45,0.311620127868481,2
653,824,45,0.338499541924627,2
654,822,45,0.280899051109826,2
654,823,45,0.341286341858345,2
654,824,45,0.366145017552492,2
655,823,45,0.276009865017006,2
655,824,45,0.285985820410004,2
656,824,45,0.232277587162147,1
656,825,45,0.258338314741282,1
668,874,45,0.112809002334413,1
671,876,45,0.126046976840848,1
671,877,45,0.135493705044076,1
672,876,45,0.13907846719155,1
673,870,45,0.133867419236275,1
673,883,45,0.112611463743336,1
674,883,45,0.123137972909172,1
674,884,45,0.114562634166739,1
675,887,45,0.102927968082582,1
676,879,45,0.138479616292831,1
676,883,45,0.124045914259462,1
677,879,45,0.137535736526931,1
682,879,45,0.112889456645957,1
683,879,45,0.118789179230835,1
686,905,45,0.109105795110787,1
688,902,45,0.14241744939242,1
688,903,45,0.177287695427125,1
688,904,45,0.163260180030269,1
689,901,45,0.178993755148161,1
689,902,45,0.16634099011205,1
689,903,45,0.21223952233451,1
689,904,45,0.219062868893001,1
689,905,45,0.140934337235384,1
690,902,45,0.166943823013989,1
690,903,45,0.187180385682778,1
690,904,45,0.190996750953071,1
690,905,45,0.136315871591126,1
691,903,45,0.163929268111824,1
691,904,45,0.160220115768545,1
692,874,45,0.112775015881166,1
693,874,45,0.10711443657086,1
695,875,45,0.106943199278358,1
696,874,45,0.134788210075945,1
696,875,45,0.160732678776775,1
696,876,45,0.131614575818278,1
696,880,45,0.126985547269122,1
697,874,45,0.144856922720405,1
697,875,45,0.171769798988477,1
697,876,45,0.141086947229913,1
697,879,45,0.141281663841117,1
697,880,45,0.16897883858641,1
697,881,45,0.141594992839533,1
698,874,45,0.128315458265885,1
698,875,45,0.141286627402553,1
698,876,45,0.133882254150229,1
698,878,45,0.11669263780475,1
698,879,45,0.160483206832787,1
698,880,45,0.21385902646736,1
698,881,45,0.173506119703166,1
698,882,45,0.148470819300397,1
699,874,45,0.134094293033141,1
699,875,45,0.158551634111504,1
699,876,45,0.158356002866507,1
699,878,45,0.118304434474787,1
699,879,45,0.17492062317168,1
699,880,45,0.268789745857624,1
699,881,45,0.212489239668051,1
699,882,45,0.159093576941805,1
700,874,45,0.150147264963877,1
700,875,45,0.190562389134115,1
700,876,45,0.163427524552117,1
700,879,45,0.148944911918981,1
700,880,45,0.237203603996227,1
700,881,45,0.189574584638025,1
700,882,45,0.134532848782658,1
701,875,45,0.174489406800646,1
701,879,45,0.106663979427968,1
701,880,45,0.146082130456047,1
701,881,45,0.130058460268888,1
702,880,45,0.135089347675148,1
705,887,45,0.14748131938557,1
705,888,45,0.139813921993427,1
706,886,45,0.114821308219006,1
706,887,45,0.176646269440764,1
706,888,45,0.197216907679363,1
706,889,45,0.142329454929122,1
707,887,45,0.152693906602594,1
707,888,45,0.191702937473582,1
707,889,45,0.150078399731731,1
708,888,45,0.122639642495082,1
650,824,46,0.229575982019995,2
651,821,46,0.288179959954209,2
651,822,46,0.286891285556612,2
651,823,46,0.283032177887617,2
651,824,46,0.308791210164018,2
651,825,46,0.28699646844277,2
652,821,46,0.289908952444486,2
652,822,46,0.289125111284163,2
652,823,46,0.289929944405435,2
652,824,46,0.289472694433521,2
652,825,46,0.283176333096599,2
653,821,46,0.24252590265209,2
653,822,46,0.287328391276946,2
653,823,46,0.342341249243419,2
653,824,46,0.323098848890986,2
654,822,46,0.277757284031984,2
654,823,46,0.369258096360641,2
654,824,46,0.359419046030708,2
655,822,46,0.245267372442717,2
655,823,46,0.300996344052574,2
655,824,46,0.317546017903086,2
656,823,46,0.278962369824188,2
656,824,46,0.281256851387892,2
656,825,46,0.308266723454271,1
657,825,46,0.266527432633652,1
688,903,46,0.159724495793621,1
689,902,46,0.141383723587495,1
689,903,46,0.175963060305777,1
689,904,46,0.169384712908945,1
690,903,46,0.160023625660109,1
690,904,46,0.148954314800533,1
696,875,46,0.122658782880304,1
697,875,46,0.12709211326004,1
697,880,46,0.133861842200953,1
697,881,46,0.121118662268215,1
698,879,46,0.126909599202118,1
698,880,46,0.165181557930986,1
698,881,46,0.151642088895088,1
698,882,46,0.147909434924966,1
699,875,46,0.124394300501906,1
699,879,46,0.140383080756096,1
699,880,46,0.208822829723475,1
699,881,46,0.177393112548767,1
699,882,46,0.15480922032957,1
700,875,46,0.144134038556142,1
700,879,46,0.130078303360561,1
700,880,46,0.19882452157291,1
700,881,46,0.158197615063385,1
700,882,46,0.122563672119936,1
701,880,46,0.126295021063793,1
701,881,46,0.111790814149893,1
704,887,46,0.123020654394155,1
705,886,46,0.145099356445817,1
705,887,46,0.165645266109802,1
705,888,46,0.137578043916878,1
706,886,46,0.139977552209751,1
706,887,46,0.206112100551538,1
706,888,46,0.197770171891367,1
706,889,46,0.135642701119717,1
707,887,46,0.155903903130555,1
707,888,46,0.180791802489785,1
707,889,46,0.143690597323683,1
708,888,46,0.11517471379324,1
650,821,47,0.235904534004791,2
650,822,47,0.22958162597974,2
650,823,47,0.23586511551914,2
650,824,47,0.25452023174411,2
650,825,47,0.244768428554742,1
651,820,47,0.269898237398064,2
651,821,47,0.322474332475719,2
651,822,47,0.314792501716165,2
651,823,47,0.336242738811553,2
651,824,47,0.364314054548402,2
651,825,47,0.334111017446662,2
652,821,47,0.281588171902254,2
652,822,47,0.292794912066215,2
652,823,47,0.332321993748188,2
652,824,47,0.325179640769324,2
653,822,47,0.276554005199225,2
653,823,47,0.354718519888734,2
653,824,47,0.307262857096456,2
654,821,47,0.222700189021343,2
654,822,47,0.282451363121127,2
654,823,47,0.380524823116517,2
654,824,47,0.336267166226259,2
655,822,47,0.261228267520301,2
655,823,47,0.320354702123405,2
655,824,47,0.330524158333907,2
656,822,47,0.276298130818688,2
656,823,47,0.287143791407814,2
656,824,47,0.314931882982913,2
656,825,47,0.323026035117833,2
657,823,47,0.252508885109592,2
657,824,47,0.250730680859642,2
657,825,47,0.228659206645756,1
698,880,47,0.11857656033625,1
698,881,47,0.123961221401074,1
699,880,47,0.143194352720804,1
699,881,47,0.138448005656631,1
699,882,47,0.141189921610084,1
700,880,47,0.142441821036774,1
700,881,47,0.123350413338627,1
705,887,47,0.171692512432996,1
705,888,47,0.12825339701683,1
706,886,47,0.16357724564235,1
706,887,47,0.217355470683488,1
706,888,47,0.174357610301935,1
706,889,47,0.116648947310044,1
707,887,47,0.159984530642507,1
707,888,47,0.154311191075387,1
707,889,47,0.122657712089522,1
708,888,47,0.10798278097037,1
650,821,48,0.279639734226159,2
650,822,48,0.268066002829922,2
650,823,48,0.264195384160024,2
650,824,48,0.26849086138069,2
650,825,48,0.264929076618739,1
651,820,48,0.286154403033693,2
651,821,48,0.33236040836748,2
651,822,48,0.332461865794044,2
651,823,48,0.37635520842898,2
651,824,48,0.407464893008816,2
652,821,48,0.258983577727944,2
652,822,48,0.292893424818128,2
652,823,48,0.36953572117893,2
652,824,48,0.379676399887174,2
653,822,48,0.266131485433988,2
653,823,48,0.339739986120767,2
653,824,48,0.297848821474281,2
654,821,48,0.242355334603827,2
654,822,48,0.300684543161836,2
654,823,48,0.370979704856152,2
654,824,48,0.312142272223393,2
655,822,48,0.283141666245043,2
655,823,48,0.33260695794496,2
655,824,48,0.334032961260306,2
655,825,48,0.324032556144461,2
656,823,48,0.281108502248348,2
656,824,48,0.322193339128096,2
656,825,48,0.298904777341996,2
657,824,48,0.23407928188487,2
705,887,48,0.157226831679095,1
706,886,48,0.174769920523231,1
706,887,48,0.206843651428689,1
706,888,48,0.145196876485443,1
707,887,48,0.168016889226069,1
707,888,48,0.132036813162446,1
649,821,49,0.257626216563331,2
649,822,49,0.265254842405921,2
649,823,49,0.244027039787284,2
649,824,49,0.226441420471789,1
649,825,49,0.233218723026669,1
650,820,49,0.255787088779531,2
650,821,49,0.311615353926246,2
650,822,49,0.314296881741241,2
650,823,49,0.290346838949765,2
650,824,49,0.281242841875165,2
651,821,49,0.314235110498024,2
651,822,49,0.335506525532872,2
651,823,49,0.378696403240534,2
651,824,49,0.414531442923594,2
652,821,49,0.248010894582343,2
652,822,49,0.293028277532195,2
652,823,49,0.374471375130045,2
652,824,49,0.415026014415878,2
653,822,49,0.274753916662674,2
653,823,49,0.312289193641894,2
653,824,49,0.296958548171888,2
653,825,49,0.254042012119389,2
654,821,49,0.259071047949922,2
654,822,49,0.325259191601145,2
654,823,49,0.340787041040109,2
654,824,49,0.296108764145927,2
654,825,49,0.266971966965034,2
655,821,49,0.250845924717519,2
655,822,49,0.300571373961099,2
655,823,49,0.325071490900375,2
655,824,49,0.322710865697762,2
655,825,49,0.288780539733878,2
656,822,49,0.229940140118328,2
656,823,49,0.259549713737469,2
656,824,49,0.284977693197204,2
705,887,49,0.136944046541564,1
706,886,49,0.178901053667052,1
706,887,49,0.186492045675295,1
706,888,49,0.119562078247858,1
707,887,49,0.182641314713352,1
648,821,50,0.256876640708021,2
648,822,50,0.267013906270649,2
649,820,50,0.259291430077674,2
649,821,50,0.309230301308926,2
649,822,50,0.313914252501925,2
649,823,50,0.268625044850518,2
649,824,50,0.236528291943254,1
649,825,50,0.232656714023281,1
650,820,50,0.274439996498514,2
650,821,50,0.340605185072356,2
650,822,50,0.370874209656016,2
650,823,50,0.326170568405194,2
650,824,50,0.301631836073353,2
651,821,50,0.288171728250075,2
651,822,50,0.330635632115907,2
651,823,50,0.357378074184564,2
651,824,50,0.396503386241998,2
652,821,50,0.244706166532416,2
652,822,50,0.293185706085242,2
652,823,50,0.348544474090477,2
652,824,50,0.405251880777084,2
653,821,50,0.235502652839545,2
653,822,50,0.303764115141776,2
653,823,50,0.289349196563368,2
653,824,50,0.286989642151536,2
653,825,50,0.253136056193673,2
654,821,50,0.25797868519563,2
654,822,50,0.339480787827179,2
654,823,50,0.299904784391368,2
654,824,50,0.272642741095906,2
655,822,50,0.295423034190974,2
655,823,50,0.2893327331551,2
655,824,50,0.286471937116741,2
706,887,50,0.156274229429953,1
647,822,51,0.274592606493043,2
648,821,51,0.27346965927705,2
648,822,51,0.289218448547298,2
648,823,51,0.268092125663366,2
649,820,51,0.298722118281156,2
649,821,51,0.349954527084805,2
649,822,51,0.356312815821933,2
649,823,51,0.290124895252123,2
649,824,51,0.235486814059233,2
650,819,51,0.297302316629086,2
650,820,51,0.297121821457951,2
650,821,51,0.346981900334185,2
650,822,51,0.389942338808733,2
650,823,51,0.339121314438516,2
650,824,51,0.301502805784162,2
650,825,51,0.275149172309957,2
651,820,51,0.24818186417715,2
651,821,51,0.256993892298614,2
651,822,51,0.301408219265115,2
651,823,51,0.313912847089024,2
651,824,51,0.34379127842693,2
652,822,51,0.282499749479573,2
652,823,51,0.301322288304886,2
652,824,51,0.342648499273335,2
653,821,51,0.24458608180788,2
653,822,51,0.317645936067901,2
653,823,51,0.272769072100002,2
653,824,51,0.263009929532151,2
653,825,51,0.2528871865695,1
654,822,51,0.311693008566059,2
654,823,51,0.257260251505554,2
647,822,52,0.246550559037559,2
648,820,52,0.230781491666883,2
648,821,52,0.277103454719069,2
648,822,52,0.316465924626501,2
648,823,52,0.290537439708902,2
649,819,52,0.254130508515865,2
649,820,52,0.304478667215268,2
649,821,52,0.362529380937479,2
649,822,52,0.398563543089647,2
649,823,52,0.325492668607832,2
649,824,52,0.225199481630183,2
650,818,52,0.263803920896759,2
650,819,52,0.317925345537493,2
650,820,52,0.310286881804597,2
650,821,52,0.329399203385198,2
650,822,52,0.365928070878497,2
650,823,52,0.320290700066059,2
650,824,52,0.265965468246547,2
651,819,52,0.272322507727763,2
651,820,52,0.234379727931694,2
651,821,52,0.22740997304195,2
651,822,52,0.252075326383723,2
651,823,52,0.256051618718886,2
651,824,52,0.268782361862858,1
651,825,52,0.268701316385571,1
652,823,52,0.238937035806619,2
652,824,52,0.25460564961709,1
652,825,52,0.267482265696923,1
653,822,52,0.290465585185824,2
647,822,53,0.213404029617716,2
647,823,53,0.227541501842965,2
648,821,53,0.273550013201958,2
648,822,53,0.335050368659881,2
648,823,53,0.317841065379719,2
648,824,53,0.211386927482747,2
649,820,53,0.27848682717642,2
649,821,53,0.339876199631452,2
649,822,53,0.413153825966694,2
649,823,53,0.359917610680281,2
649,824,53,0.212159079177037,2
650,819,53,0.299223939919357,2
650,820,53,0.296044873629287,2
650,821,53,0.29038598973772,2
650,822,53,0.310965049299654,2
650,823,53,0.281172392764988,2
651,821,53,0.205439420859236,2
651,822,53,0.205678675674516,2
647,822,54,0.186228006515048,2
648,821,54,0.254554474740982,2
648,822,54,0.31850314870491,2
648,823,54,0.314633511593229,2
649,821,54,0.291339395079948,2
649,822,54,0.375307528881681,2
649,823,54,0.352925726114383,2
649,824,54,0.197656645760369,2
650,821,54,0.243777835540992,2
650,822,54,0.255441602595454,2
650,823,54,0.236582723807989,2
648,822,55,0.269540972515388,2
649,822,55,0.299807654744214,2
649,823,55,0.300274965687848,2
707,914,56,0.127477542171087,1
709,916,56,0.137941354305842,1
710,916,56,0.146720054064227,1
710,918,56,0.130538486853054,1
710,919,56,0.139579798050643,1
712,921,56,0.135983491440054,1
713,921,56,0.137011026735772,1
713,922,56,0.140827470084559,1
713,923,56,0.159832522967793,1
714,911,56,0.11040290198579,1
714,917,56,0.139405850318975,1
716,917,56,0.13386074910203,1
716,919,56,0.155756959403912,1
716,924,56,0.16904101137617,1
717,918,56,0.142234321860613,1
717,919,56,0.149589449891051,1
717,924,56,0.153435038826428,1
718,920,56,0.147707724711469,1
718,924,56,0.1619846785901,1
719,921,56,0.125232105055997,1
719,922,56,0.136688071774392,1
719,923,56,0.140932920668413,1
707,912,57,0.148965413100822,1
708,912,57,0.165333331370217,1
708,913,57,0.17227788921438,1
708,914,57,0.151453451252384,1
709,912,57,0.176321273284457,1
709,913,57,0.210523959345286,1
709,914,57,0.203228237895089,1
709,915,57,0.173703859067514,1
710,910,57,0.159757589921217,1
710,911,57,0.164414592879545,1
710,912,57,0.165392012935867,1
710,913,57,0.19208300127665,1
710,914,57,0.204452218682961,1
710,915,57,0.186558936636937,1
711,907,57,0.129268618218559,1
711,909,57,0.166251099456743,1
711,910,57,0.222951646389905,1
711,911,57,0.233062409880686,1
711,912,57,0.185478140653902,1
711,913,57,0.17020383439471,1
711,914,57,0.176794607426237,1
711,918,57,0.160688452886678,1
711,919,57,0.166854523524426,1
712,909,57,0.164416745615179,1
712,910,57,0.244422964678806,1
712,911,57,0.268875252963168,1
712,912,57,0.20266080801337,1
712,913,57,0.16351283088439,1
712,917,57,0.173384272635469,1
712,918,57,0.203315730425208,1
712,919,57,0.19520616336466,1
712,920,57,0.150098488212958,1
713,910,57,0.153727621253448,1
713,911,57,0.170928268974792,1
713,912,57,0.152231893842516,1
713,917,57,0.164767184206621,1
713,918,57,0.182277212385373,1
713,919,57,0.170775134738943,1
714,918,57,0.131672989686232,1
714,920,57,0.151707128281003,1
714,921,57,0.17623033414651,1
714,922,57,0.178787516381984,1
714,923,57,0.170594996498068,1
715,919,57,0.131815137162499,1
715,920,57,0.181984998042684,1
715,921,57,0.260628468525577,1
715,922,57,0.264313014989019,1
715,923,57,0.212291321838573,1
715,924,57,0.180452462198632,1
716,919,57,0.153573862389643,1
716,920,57,0.194830873503826,1
716,921,57,0.272656572143503,1
716,922,57,0.272576798230268,1
716,923,57,0.211705688513565,1
716,924,57,0.177691149316331,1
717,917,57,0.135025914475405,1
717,919,57,0.1666408561472,1
717,920,57,0.189316457135219,1
717,921,57,0.238681875286604,1
717,922,57,0.241867901716754,1
717,923,57,0.194684130550455,1
717,924,57,0.163852639646511,1
718,920,57,0.168515253102371,1
718,921,57,0.20030493444485,1
718,922,57,0.206728117564975,1
718,923,57,0.174622251781997,1
719,921,57,0.138202404175156,1
719,922,57,0.138566640351983,1
709,913,58,0.149070406367779,1
709,914,58,0.150572413520483,1
710,911,58,0.158127600961963,1
710,914,58,0.163739871992316,1
711,910,58,0.21037868872924,1
711,911,58,0.214784212010864,1
711,912,58,0.168803630444759,1
712,910,58,0.215795506979727,1
712,911,58,0.227257920750953,1
712,912,58,0.176479103384047,1
712,918,58,0.151119386836644,1
712,919,58,0.144201096828844,1
713,911,58,0.145667422109563,1
713,918,58,0.148145600062677,1
714,921,58,0.16190600892986,1
714,922,58,0.156713454423709,1
715,920,58,0.170004511152331,1
715,921,58,0.235923763622578,1
715,922,58,0.236350183743237,1
715,923,58,0.191388058059347,1
716,920,58,0.176634501896237,1
716,921,58,0.235014773789647,1
716,922,58,0.241419954239756,1
716,923,58,0.206864353383801,1
716,924,58,0.180299651430831,1
717,919,58,0.179043301529955,1
717,920,58,0.186219997892327,1
717,921,58,0.209635002223229,1
717,922,58,0.203553222897326,1
717,923,58,0.181892865419178,1
718,920,58,0.184305323588066,1
718,921,58,0.199809782940893,1
718,922,58,0.181929796547075,1
719,921,58,0.150621826053428,1
711,911,59,0.182281406315935,1
712,911,59,0.17163232506781,1
715,921,59,0.186508866013823,1
715,922,59,0.185870485088748,1
716,921,59,0.18810572738327,1
716,922,59,0.193512953133004,1
716,923,59,0.18402444178115,1
717,920,59,0.172314508028299,1
717,921,59,0.178539003688071,1
717,922,59,0.164917964933565,1
718,921,59,0.181413061916425,1
