x,y,z,signal,mito.p
748,536,20,0.108404996006397,1
748,537,20,0.109122202748702,1
748,538,20,0.130866427684011,1
749,530,20,0.108544868052252,1
750,528,20,0.12426847143099,1
750,536,20,0.104241661060631,1
751,527,20,0.115104900465089,1
751,528,20,0.115333670453964,1
751,529,20,0.112264795227771,1
752,530,20,0.111749878710636,1
753,531,20,0.105750382963861,1
753,532,20,0.106966533594142,1
759,531,20,0.1057607785577,1
759,532,20,0.11291555717126,1
760,529,20,0.110849566744665,1
760,531,20,0.126073947383661,1
760,533,20,0.128462234681468,1
760,537,20,0.104258269471817,1
748,536,21,0.112836653275536,1
748,537,21,0.112137728055013,1
748,538,21,0.109775351663308,1
749,536,21,0.116663369523385,1
749,537,21,0.110298745274132,1
749,538,21,0.116840317700056,1
750,528,21,0.113310868588897,1
750,529,21,0.103802915691912,1
760,526,21,0.115923743099088,1
760,527,21,0.113337716436933,1
760,532,21,0.112264337910875,1
761,528,21,0.124646627887979,1
761,532,21,0.113419866167214,1
761,533,21,0.118862874175569,1
762,531,21,0.11234621994346,1
762,532,21,0.110150340364235,1
762,533,21,0.122338906442422,1
762,534,21,0.120899328623103,1
762,535,21,0.114681123859173,1
763,535,21,0.118070968622172,1
763,541,21,0.103984894354443,1
763,542,21,0.103676305836051,1
764,535,21,0.13016025231757,1
764,536,21,0.106791827385671,1
765,537,21,0.108362710924591,1
765,538,21,0.104636916707914,1
756,515,22,0.112440594535166,1
759,517,22,0.111324083217933,1
759,518,22,0.109387602705567,1
759,519,22,0.103870297432663,1
760,520,22,0.114594545962847,1
760,521,22,0.103650573395079,1
760,522,22,0.104681845304462,1
761,515,22,0.126385502884844,1
761,520,22,0.121606374007053,1
762,514,22,0.122981827074249,1
762,515,22,0.128030527531325,1
762,521,22,0.126804974019493,1
762,525,22,0.107234287059913,1
762,526,22,0.111362152061036,1
762,527,22,0.103240014362874,1
763,514,22,0.118170451778231,1
763,515,22,0.126979635611682,1
763,522,22,0.122770055889033,1
763,527,22,0.111592662084931,1
764,514,22,0.130984415443266,1
764,524,22,0.114755978827254,1
764,533,22,0.111903894118066,1
765,525,22,0.122097242347884,1
765,526,22,0.113669817736239,1
765,534,22,0.117036919349198,1
766,526,22,0.113802562330954,1
766,527,22,0.123178372953038,1
766,540,22,0.104827930167665,1
767,519,22,0.146311279683324,1
767,520,22,0.13630447213093,1
767,526,22,0.10889105694278,1
767,527,22,0.120818249683604,1
768,526,22,0.118219351223927,1
742,539,23,0.109778039794333,1
757,515,23,0.125882866999486,1
757,516,23,0.10452832067614,1
758,516,23,0.108511796232797,1
759,515,23,0.109046187757274,1
760,518,23,0.107989696494169,1
760,519,23,0.104750342452277,1
761,514,23,0.115745077195538,1
761,515,23,0.106227353332671,1
761,516,23,0.104003733579758,1
761,517,23,0.110231608922935,1
761,519,23,0.117843782511327,1
762,514,23,0.107360952686128,1
762,515,23,0.106139671183351,1
762,516,23,0.111686858211506,1
762,517,23,0.124958127618808,1
762,520,23,0.105906127252241,1
763,513,23,0.117920678674336,1
763,515,23,0.1036271610008,1
763,516,23,0.120897622050295,1
763,521,23,0.120419781663975,1
763,529,23,0.12214804913966,1
763,530,23,0.123618668737576,1
764,513,23,0.119563004035721,1
764,514,23,0.106141623145714,1
764,515,23,0.106045118126516,1
764,516,23,0.126533740483682,1
764,528,23,0.111175901389449,1
764,532,23,0.11825151956366,1
765,512,23,0.120659638799069,1
765,513,23,0.111668275529816,1
765,514,23,0.107088291429275,1
765,515,23,0.114667649741837,1
765,516,23,0.144635692883284,1
765,521,23,0.137250593865029,1
765,524,23,0.119111308790987,1
765,528,23,0.115713645024468,1
765,533,23,0.116475178043506,1
766,513,23,0.103136783439078,1
766,514,23,0.106463897708784,1
766,515,23,0.125822300395898,1
766,519,23,0.145934997110203,1
766,520,23,0.13313616951903,1
766,525,23,0.1032866606863,1
766,528,23,0.116104606354554,1
767,515,23,0.127865279974758,1
767,519,23,0.142059180643386,1
767,520,23,0.130637713465489,1
767,525,23,0.103804454953661,1
767,540,23,0.104991437689212,1
767,541,23,0.110488821791949,1
767,542,23,0.115194144184299,1
768,518,23,0.139463416477561,1
768,519,23,0.11637072017194,1
768,520,23,0.123153432451082,1
768,521,23,0.151645647043622,1
768,527,23,0.105440835195394,1
769,520,23,0.118272979995576,1
769,521,23,0.132869007219004,1
769,527,23,0.11944248430243,1
753,513,24,0.130695123467085,1
757,514,24,0.113717255998682,1
757,515,24,0.105609072042893,1
758,514,24,0.12099528709284,1
758,515,24,0.108756985013658,1
759,514,24,0.10594847925847,1
762,513,24,0.114101892970714,1
763,512,24,0.133297156220612,1
763,513,24,0.106624293244622,1
763,517,24,0.119415335294487,1
763,518,24,0.13184727204002,1
763,519,24,0.1247539523557,1
764,512,24,0.118847347709235,1
764,513,24,0.103828904676509,1
764,517,24,0.12553357727732,1
764,518,24,0.141809463309845,1
764,520,24,0.138819268897963,1
764,529,24,0.108090875068966,1
764,530,24,0.123596940607965,1
764,531,24,0.116026907098459,1
765,511,24,0.122768828941262,1
765,516,24,0.111640066885162,1
765,517,24,0.131347670061877,1
765,518,24,0.129137647121076,1
765,519,24,0.135297951104302,1
765,520,24,0.130799358257238,1
765,521,24,0.103135110328482,1
765,529,24,0.11189301889919,1
765,530,24,0.140454232572724,1
765,531,24,0.146348634665906,1
765,532,24,0.122406232412819,1
766,510,24,0.129542060260357,1
766,511,24,0.111098893685734,1
766,515,24,0.110657393261567,1
766,516,24,0.150477949696212,1
766,518,24,0.154471943541485,1
766,519,24,0.120704132386861,1
766,520,24,0.109839543339855,1
766,521,24,0.11345226874243,1
766,524,24,0.110268484280479,1
766,529,24,0.11082309813503,1
766,530,24,0.138635449813776,1
766,531,24,0.141266683924245,1
766,532,24,0.126257231072457,1
766,533,24,0.114698033430267,1
766,534,24,0.113370007471443,1
767,515,24,0.118132505629906,1
767,516,24,0.160997509876037,1
767,518,24,0.168143197922023,1
767,519,24,0.123725792432026,1
767,520,24,0.116669314643037,1
767,521,24,0.140439252655851,1
767,524,24,0.126184149601608,1
767,532,24,0.126282338885473,1
767,533,24,0.13464209175053,1
768,516,24,0.1189504001679,1
768,517,24,0.132702410019889,1
768,518,24,0.119664082223883,1
768,519,24,0.106865042705367,1
768,520,24,0.118144440485493,1
768,521,24,0.136492228602053,1
768,522,24,0.163368452593995,1
768,524,24,0.132896937011892,1
769,517,24,0.10793849930992,1
769,518,24,0.1033278080529,1
769,520,24,0.107948281429873,1
769,521,24,0.115553037561288,1
769,522,24,0.125017266501354,1
769,526,24,0.130282735167295,1
770,519,24,0.131649354210541,1
770,520,24,0.138700901900306,1
770,527,24,0.115731937700322,1
771,527,24,0.123715173756774,1
748,520,25,0.108617804520183,1
752,514,25,0.113748331239491,1
753,513,25,0.145027368073891,1
753,514,25,0.11336163076439,1
757,513,25,0.116964864052849,1
758,512,25,0.135048200308548,1
758,513,25,0.123821182044159,1
758,514,25,0.103155087269003,1
759,512,25,0.135848359874221,1
759,513,25,0.117138142540278,1
760,513,25,0.112954228334177,1
761,513,25,0.117921738311047,1
762,512,25,0.143150929923793,1
762,513,25,0.10906712394787,1
763,511,25,0.133656339603438,1
763,512,25,0.116935930393602,1
764,510,25,0.131839352649864,1
764,511,25,0.11549872839133,1
764,518,25,0.103587842901786,1
764,519,25,0.105651535589829,1
765,509,25,0.127583104295647,1
765,510,25,0.11768200387073,1
765,511,25,0.103693527721123,1
765,517,25,0.103863683068772,1
765,530,25,0.111621707284884,1
765,531,25,0.119445529363716,1
766,509,25,0.122444925883878,1
766,510,25,0.109662137846288,1
766,516,25,0.129445767168502,1
766,517,25,0.142097349873125,1
766,518,25,0.122041226605118,1
766,530,25,0.119291324337085,1
766,531,25,0.119221934863618,1
766,532,25,0.107111938059036,1
767,509,25,0.12017452595869,1
767,510,25,0.106741500218932,1
767,515,25,0.106304907585848,1
767,516,25,0.144102673309496,1
767,517,25,0.157625165849876,1
767,518,25,0.135378226950715,1
767,519,25,0.107995931619658,1
767,520,25,0.106659729727053,1
767,521,25,0.11797457514368,1
767,522,25,0.140363271126635,1
767,523,25,0.131387523556282,1
767,529,25,0.108798645467508,1
767,530,25,0.139849782330542,1
767,531,25,0.122279254472626,1
767,532,25,0.11636706163677,1
767,533,25,0.139008709633753,1
768,510,25,0.111057523237722,1
768,516,25,0.106046188917298,1
768,517,25,0.112457983731297,1
768,518,25,0.106455822161639,1
768,519,25,0.104491289161607,1
768,520,25,0.1161686084119,1
768,521,25,0.122508057923713,1
768,522,25,0.134610603809106,1
768,523,25,0.127464770760202,1
768,532,25,0.123784128221485,1
769,512,25,0.111027964950519,1
769,521,25,0.106176501924613,1
769,522,25,0.109773020462544,1
769,523,25,0.119241276022112,1
769,524,25,0.136672422613281,1
769,525,25,0.138437197362178,1
769,528,25,0.105897705928906,1
769,532,25,0.125253342406501,1
769,538,25,0.113611125016519,1
769,539,25,0.113066850985453,1
770,516,25,0.116910075257853,1
770,519,25,0.129129526957649,1
770,520,25,0.146444280821664,1
770,523,25,0.151977614494081,1
770,526,25,0.148488989281473,1
770,533,25,0.121800689071715,1
771,526,25,0.153629855824268,1
771,527,25,0.110479786994728,1
772,524,25,0.148252757219338,1
772,525,25,0.147975678950511,1
772,526,25,0.129624354993557,1
772,527,25,0.129519149799258,1
736,559,26,0.105510860450887,1
737,560,26,0.110472034915632,1
738,560,26,0.109849291997597,1
752,512,26,0.109998098454037,1
752,513,26,0.14076636808558,1
752,514,26,0.116453293756906,1
753,512,26,0.120324180124499,1
753,513,26,0.140048915953721,1
753,514,26,0.11068400687412,1
754,513,26,0.120999001398364,1
755,513,26,0.114069178081519,1
757,512,26,0.120679158422693,1
758,511,26,0.126538681736976,1
758,512,26,0.114411061500779,1
759,511,26,0.130014379381709,1
759,512,26,0.113770672842988,1
760,511,26,0.131822286921781,1
760,512,26,0.120077474390031,1
761,511,26,0.138503608698783,1
761,512,26,0.1356986722462,1
762,510,26,0.115065560057933,1
762,511,26,0.126662603461813,1
762,512,26,0.122697487505433,1
763,509,26,0.118830672373625,1
763,510,26,0.112469204726363,1
763,511,26,0.105725944395084,1
764,509,26,0.115902204588678,1
764,510,26,0.105207335880566,1
765,509,26,0.108788930271978,1
766,509,26,0.105304309370731,1
767,509,26,0.105735302660353,1
767,516,26,0.111133995546046,1
767,517,26,0.113227224213149,1
767,530,26,0.10375355892932,1
767,532,26,0.104405804364204,1
767,533,26,0.145635287232042,1
767,535,26,0.119505638650407,1
768,509,26,0.114854435808814,1
768,530,26,0.111984984211636,1
768,532,26,0.110944409807337,1
769,509,26,0.13825856492084,1
769,510,26,0.108484502221935,1
769,532,26,0.107866198624016,1
769,533,26,0.126326843627336,1
769,536,26,0.11339079865912,1
770,516,26,0.107873471078075,1
770,517,26,0.135584253789551,1
770,518,26,0.136813097752223,1
770,519,26,0.113433909142153,1
770,520,26,0.130823004887,1
770,521,26,0.146995102292197,1
770,522,26,0.118944577743025,1
770,523,26,0.111606749676153,1
770,524,26,0.129225518889597,1
770,525,26,0.135969415002903,1
770,533,26,0.106529070943548,1
770,534,26,0.116958227380816,1
770,535,26,0.124327297999558,1
770,538,26,0.116571192283596,1
770,539,26,0.106489641303827,1
771,519,26,0.16709994654077,1
771,520,26,0.20815737786895,1
771,523,26,0.142228856365998,1
771,524,26,0.152572371848875,1
771,525,26,0.157705173998594,1
771,526,26,0.11636914744798,1
771,533,26,0.111142439177522,1
771,534,26,0.112885619645656,1
771,535,26,0.120777894256019,1
772,519,26,0.14251121051024,1
772,520,26,0.173891046681035,1
772,523,26,0.138155713235447,1
772,524,26,0.127314681585638,1
772,525,26,0.130196670358218,1
772,526,26,0.114691809458848,1
772,527,26,0.110457133077254,1
772,528,26,0.130233389558773,1
773,522,26,0.189981730524613,1
773,523,26,0.144667125054354,1
773,524,26,0.116766812374522,1
773,525,26,0.112477849131111,1
737,559,27,0.11322375529718,1
738,559,27,0.10545900517647,1
739,556,27,0.108108777352347,1
740,556,27,0.105650643264177,1
752,511,27,0.107388391699908,1
752,512,27,0.105029551148597,1
752,513,27,0.120172016292796,1
752,514,27,0.104859663498643,1
753,511,27,0.117082773733609,1
753,512,27,0.113108199125325,1
753,513,27,0.120502132167528,1
754,512,27,0.117766707883189,1
754,513,27,0.104561816350279,1
755,512,27,0.119006248599606,1
756,511,27,0.129577463280576,1
756,512,27,0.113286764642239,1
757,511,27,0.115565597044832,1
757,512,27,0.104172795828485,1
758,511,27,0.109650849926798,1
759,511,27,0.110261412599692,1
760,511,27,0.107632610076623,1
761,510,27,0.103863114211169,1
761,511,27,0.1126656948348,1
761,512,27,0.110895744597124,1
762,509,27,0.103957990736054,1
762,511,27,0.105344542103538,1
762,512,27,0.103249952639816,1
763,508,27,0.117209662441237,1
764,508,27,0.120360218926745,1
765,508,27,0.118488755492153,1
766,508,27,0.115429896621396,1
767,533,27,0.141623614184801,1
767,534,27,0.13675574352098,1
768,509,27,0.107883018962545,1
768,533,27,0.160454987034062,1
768,535,27,0.123345014768436,1
769,530,27,0.12076713057785,1
769,533,27,0.110838847682778,1
769,534,27,0.123544449551522,1
769,535,27,0.111531794321436,1
770,510,27,0.109732709651243,1
770,511,27,0.112334630864063,1
770,517,27,0.113735470596041,1
770,518,27,0.11279522705717,1
770,520,27,0.112770799642463,1
770,521,27,0.121840085249223,1
770,535,27,0.103771695448184,1
770,536,27,0.107079212015772,1
770,537,27,0.109635680390724,1
771,516,27,0.157329995678467,1
771,517,27,0.171189218457471,1
771,518,27,0.167732014261862,1
771,519,27,0.150307649345644,1
771,520,27,0.183991961127439,1
771,521,27,0.195627028758139,1
771,522,27,0.136093526346941,1
771,523,27,0.106110190974644,1
771,524,27,0.106802970302242,1
771,525,27,0.105303338966585,1
771,528,27,0.10331911903187,1
771,532,27,0.107203881063342,1
771,535,27,0.112060441499532,1
771,536,27,0.125336306383939,1
771,537,27,0.132420937047228,1
771,538,27,0.119843963921132,1
771,539,27,0.103830176240562,1
772,518,27,0.155465202378119,1
772,519,27,0.143736306705176,1
772,520,27,0.166431148465053,1
772,521,27,0.175686573202693,1
772,522,27,0.137173575007243,1
772,523,27,0.107587369166098,1
772,524,27,0.10627785896454,1
772,525,27,0.112168111743443,1
772,528,27,0.110210750810834,1
772,529,27,0.133364783350917,1
772,531,27,0.12618541001159,1
772,532,27,0.117161744553757,1
773,518,27,0.136741087072156,1
773,519,27,0.134240009812013,1
773,520,27,0.149650094573134,1
773,521,27,0.169352734188413,1
773,522,27,0.173675940428696,1
773,523,27,0.130987806280741,1
773,524,27,0.106755721659001,1
773,525,27,0.110488687943101,1
773,529,27,0.132613567847222,1
737,555,28,0.108896812443231,1
738,555,28,0.105680480403146,1
739,555,28,0.110982110566108,1
740,554,28,0.106097386101546,1
750,512,28,0.105799137406639,1
751,511,28,0.108125408071674,1
752,511,28,0.108183554241933,1
753,511,28,0.114762838580699,1
755,511,28,0.115942247702284,1
756,511,28,0.106761454851311,1
763,507,28,0.113242996069038,1
764,507,28,0.124118661108192,1
765,508,28,0.10412704183071,1
767,508,28,0.105044508757329,1
767,533,28,0.11777211760745,1
768,533,28,0.131013605646137,1
768,534,28,0.123425368693343,1
770,511,28,0.104152417341421,1
770,512,28,0.117357743883085,1
770,529,28,0.104514199622707,1
770,530,28,0.126931293869518,1
771,509,28,0.139366755301374,1
771,510,28,0.117866012574118,1
771,511,28,0.146966257865516,1
771,516,28,0.125543760943816,1
771,517,28,0.120496532824065,1
771,518,28,0.118870492405818,1
771,519,28,0.119915561900586,1
771,520,28,0.136709063735341,1
771,521,28,0.136563413880893,1
771,529,28,0.118827515771633,1
771,531,28,0.108005936821024,1
771,536,28,0.1175109673515,1
771,537,28,0.116788763585547,1
772,517,28,0.133260860874741,1
772,518,28,0.126884134458842,1
772,519,28,0.135225115023007,1
772,520,28,0.145522709197049,1
772,521,28,0.138093796989311,1
772,522,28,0.106752877370987,1
772,529,28,0.106691161898123,1
772,530,28,0.113152079239232,1
772,534,28,0.104292467852407,1
772,535,28,0.116902691263088,1
772,536,28,0.128300712584495,1
772,537,28,0.1291364982518,1
772,538,28,0.117051252329974,1
773,517,28,0.13989627249698,1
773,518,28,0.123187184668846,1
773,519,28,0.133478621795893,1
773,520,28,0.144070705743035,1
773,521,28,0.14832205746024,1
773,522,28,0.147362818539065,1
773,523,28,0.112229035277292,1
773,526,28,0.116522560535595,1
773,528,28,0.11485992361157,1
773,529,28,0.107876605371925,1
773,530,28,0.106309424984458,1
773,531,28,0.106141288523595,1
774,520,28,0.142685559788451,1
774,521,28,0.162225238431645,1
774,522,28,0.192116285023447,1
774,523,28,0.159167160345833,1
774,525,28,0.138196682136916,1
737,553,29,0.106440061459822,1
737,554,29,0.10997296833288,1
749,512,29,0.10401921542981,1
755,562,29,0.106939529589117,1
756,510,29,0.110651347755279,1
756,561,29,0.103170859124891,1
761,508,29,0.103115222620527,1
762,507,29,0.108600448786263,1
764,507,29,0.109493120213844,1
765,507,29,0.122991519961637,1
770,510,29,0.104132284243912,1
770,512,29,0.103577659235289,1
771,510,29,0.127002512610569,1
771,511,29,0.148990855535957,1
771,515,29,0.11698416059506,1
771,536,29,0.10891345431663,1
771,537,29,0.106064024276255,1
772,510,29,0.144075423914916,1
772,516,29,0.132144851490688,1
772,517,29,0.106862388036554,1
772,518,29,0.109170923729268,1
772,519,29,0.123733209889003,1
772,520,29,0.122646569172951,1
772,521,29,0.105118627556747,1
772,535,29,0.104918713148624,1
772,536,29,0.12072321700173,1
772,537,29,0.120424589068422,1
772,538,29,0.106818931777332,1
773,517,29,0.124649382943427,1
773,518,29,0.113501826278294,1
773,519,29,0.125184164860376,1
773,520,29,0.127280628207966,1
773,521,29,0.118486491215812,1
773,522,29,0.11094932875249,1
773,527,29,0.105466154935752,1
773,535,29,0.113760076475878,1
773,536,29,0.116866652460842,1
774,518,29,0.135776594583708,1
774,519,29,0.122574435798106,1
774,520,29,0.12264169484408,1
774,521,29,0.131135976955155,1
774,522,29,0.142240445445396,1
774,523,29,0.121564144695601,1
774,525,29,0.12025266022354,1
774,526,29,0.18135499382466,1
774,529,29,0.105177108349125,1
774,531,29,0.10303610679746,1
775,519,29,0.147028553350054,1
775,521,29,0.134053524904943,1
775,522,29,0.1461160388308,1
775,523,29,0.145481717987438,1
775,524,29,0.144916340454717,1
775,525,29,0.168338505698972,1
749,567,30,0.108422017118197,1
752,565,30,0.10335697594763,1
756,509,30,0.10697517799889,1
756,563,30,0.106266939129381,1
763,506,30,0.108899344417267,1
765,507,30,0.109601214312439,1
767,556,30,0.116914291496556,1
768,508,30,0.123612913237125,1
769,509,30,0.117420463222307,1
770,510,30,0.104322271529163,1
771,510,30,0.135360179664416,1
771,511,30,0.148124351558103,1
771,514,30,0.11968436032431,1
772,509,30,0.150609813119347,1
772,510,30,0.154300795481548,1
772,515,30,0.147182189519082,1
772,516,30,0.104132384630547,1
772,536,30,0.107528866065578,1
772,537,30,0.110427229013861,1
773,516,30,0.143387306988846,1
773,517,30,0.105548583517799,1
773,519,30,0.104608250746363,1
773,536,30,0.106990169069833,1
773,537,30,0.111636542198839,1
773,538,30,0.105911336203231,1
774,518,30,0.117450802294455,1
774,526,30,0.117256509537935,1
774,527,30,0.123212660566193,1
774,533,30,0.115848731974018,1
775,519,30,0.12582736434397,1
775,520,30,0.106180082381289,1
775,521,30,0.111259579227408,1
775,522,30,0.116459026949216,1
775,523,30,0.114517482488778,1
775,524,30,0.111295974959915,1
775,525,30,0.123417772771236,1
775,526,30,0.155251590771247,1
776,522,30,0.159552968495283,1
776,523,30,0.151978763363357,1
776,524,30,0.140520331595351,1
776,525,30,0.125757629094314,1
749,568,31,0.117774314959367,1
750,567,31,0.11139695276144,1
752,566,31,0.106142192003317,1
759,562,31,0.105459942118404,1
762,506,31,0.103606793667807,1
764,506,31,0.115666708695205,1
766,507,31,0.112576685351073,1
767,507,31,0.122912638374054,1
767,556,31,0.103792910490546,1
767,557,31,0.130968431660035,1
768,508,31,0.11404105866943,1
769,509,31,0.105463790272776,1
769,554,31,0.107288484689164,1
770,510,31,0.104068906814521,1
770,549,31,0.107748143940337,1
771,510,31,0.146943916262019,1
771,511,31,0.150115654327677,1
771,512,31,0.147117205903519,1
771,513,31,0.116713428992428,1
771,548,31,0.108304988609017,1
772,515,31,0.114057912470171,1
773,516,31,0.120821116279759,1
773,537,31,0.104438931954012,1
774,517,31,0.117551099697671,1
775,518,31,0.141533065439326,1
775,519,31,0.106180372387125,1
775,533,31,0.108079743306465,1
776,519,31,0.149911702145981,1
776,520,31,0.140120536241316,1
776,521,31,0.139678143491497,1
776,522,31,0.127936956032706,1
776,523,31,0.122425261257335,1
776,524,31,0.108299679271391,1
777,522,31,0.160738289274308,1
777,523,31,0.141166542678017,1
777,524,31,0.123136310952646,1
750,569,32,0.106120575414412,1
761,506,32,0.113570524199381,1
762,505,32,0.111038717474618,1
763,505,32,0.109655701947528,1
766,507,32,0.103306314158772,1
767,507,32,0.114362095130659,1
767,557,32,0.112761463685335,1
771,512,32,0.127014235538814,1
771,549,32,0.109589580616759,1
772,514,32,0.112549458264635,1
772,548,32,0.124473561327891,1
774,537,32,0.105187704716236,1
775,516,32,0.14305937731196,1
775,517,32,0.124201669701912,1
776,515,32,0.158970212920501,1
776,518,32,0.137785531938967,1
776,519,32,0.115719266676072,1
776,520,32,0.109133591054828,1
776,521,32,0.104602506399983,1
777,516,32,0.174110068012169,1
777,517,32,0.178891148852322,1
777,518,32,0.171922598602208,1
777,519,32,0.171188370748102,1
777,520,32,0.175958442520531,1
777,521,32,0.163711707963944,1
777,522,32,0.127273523064967,1
777,523,32,0.113010266385084,1
778,522,32,0.157983746912888,1
758,506,33,0.105652416761409,1
759,506,33,0.111008378402471,1
760,506,33,0.106928185899274,1
761,505,33,0.122532585725056,1
765,506,33,0.111158188725269,1
766,506,33,0.119454787242349,1
767,506,33,0.126505052213989,1
767,507,33,0.110085412519025,1
767,558,33,0.114062050630379,1
768,507,33,0.121042535736081,1
769,508,33,0.118866867332859,1
770,509,33,0.122469475993361,1
771,511,33,0.143837106041571,1
771,512,33,0.105788541039529,1
772,512,33,0.17092198923302,1
772,513,33,0.123768824836564,1
772,548,33,0.117739090404278,1
773,515,33,0.117076449375555,1
775,516,33,0.105201357298702,1
776,515,33,0.139813051975917,1
776,516,33,0.131451414072921,1
776,517,33,0.116708978518241,1
777,516,33,0.160550320875843,1
777,517,33,0.148442253725482,1
777,518,33,0.13307817950576,1
777,519,33,0.125286938467275,1
777,520,33,0.123176476761029,1
777,521,33,0.116923872843238,1
777,522,33,0.106203082074953,1
778,522,33,0.154545683102502,1
778,523,33,0.153885942132146,1
778,524,33,0.134550717603827,1
759,505,34,0.133673014939048,1
760,505,34,0.122583771755234,1
761,504,34,0.118901746111758,1
762,504,34,0.112723986007977,1
765,505,34,0.120815249238601,1
766,505,34,0.123128302329925,1
766,506,34,0.103040345344304,1
767,505,34,0.138559055583946,1
767,506,34,0.123792794934374,1
767,507,34,0.103923056186802,1
768,506,34,0.144308733610543,1
768,507,34,0.115949196688294,1
769,507,34,0.126524237215494,1
770,508,34,0.137079390034739,1
770,509,34,0.106791849693812,1
771,511,34,0.123286098967303,1
772,512,34,0.128613617728226,1
773,512,34,0.163413816199298,1
773,513,34,0.158543826262054,1
773,514,34,0.121917349496563,1
774,511,34,0.165925590213186,1
774,515,34,0.110400336549543,1
775,511,34,0.166521239893631,1
775,515,34,0.107686060383141,1
776,515,34,0.1166532193191,1
777,516,34,0.136788123788054,1
777,517,34,0.115982547359515,1
778,518,34,0.137204616785841,1
778,519,34,0.141046134485433,1
778,521,34,0.141082786761564,1
778,522,34,0.136771849998987,1
778,523,34,0.137984710178429,1
778,524,34,0.104433455305327,1
779,525,34,0.121287958752425,1
779,529,34,0.10788258395379,1
758,505,35,0.107006565553678,1
759,504,35,0.126294340665484,1
759,505,35,0.104775874119977,1
760,503,35,0.112956481456447,1
760,504,35,0.107162789467095,1
761,503,35,0.117452174245144,1
763,504,35,0.105880550968258,1
764,504,35,0.122402930807909,1
766,504,35,0.126920429804712,1
766,505,35,0.107919615468322,1
767,504,35,0.132002804401057,1
767,505,35,0.134991604554109,1
767,506,35,0.132401629350946,1
767,507,35,0.103172420694781,1
768,505,35,0.15070954166496,1
768,506,35,0.153858670429425,1
768,507,35,0.123026499127172,1
769,505,35,0.132904845247978,1
769,506,35,0.133397230542415,1
769,507,35,0.1136726062539,1
770,506,35,0.122539445478501,1
770,507,35,0.119636420128689,1
770,508,35,0.110034170718494,1
771,507,35,0.147868789491545,1
771,508,35,0.148892688560233,1
771,509,35,0.150155976293049,1
771,510,35,0.146550712963734,1
771,511,35,0.10441303220198,1
772,508,35,0.180886489395468,1
772,511,35,0.155923656989663,1
773,511,35,0.162748542809903,1
773,512,35,0.135709290921452,1
773,513,35,0.117734294153902,1
774,510,35,0.1741238098272,1
774,511,35,0.154680323889226,1
774,512,35,0.162121271339187,1
774,513,35,0.173112459087984,1
774,514,35,0.127603906637395,1
775,511,35,0.161046219702533,1
775,512,35,0.169582340732587,1
775,513,35,0.174901137010268,1
775,514,35,0.133467501187462,1
777,516,35,0.116040347753584,1
778,517,35,0.141759225375671,1
778,518,35,0.118470942441337,1
778,519,35,0.121563631608352,1
778,520,35,0.12461626650769,1
778,521,35,0.117264529314727,1
778,522,35,0.121066963150788,1
778,523,35,0.11528810607539,1
779,524,35,0.126970433503402,1
780,525,35,0.161035913341259,1
758,504,36,0.114486396093898,1
759,503,36,0.112608418682051,1
760,502,36,0.115050803222473,1
762,503,36,0.116477921944884,1
765,504,36,0.109751905806818,1
766,503,36,0.126524538375402,1
766,504,36,0.105896880527679,1
767,503,36,0.110582125592872,1
767,504,36,0.108817016221856,1
767,505,36,0.125693180874142,1
767,506,36,0.133956874882826,1
768,504,36,0.10697725265603,1
768,505,36,0.132215813688115,1
768,506,36,0.155114172620933,1
768,507,36,0.126229948215665,1
769,505,36,0.105271382554195,1
769,506,36,0.11718714237261,1
769,507,36,0.105231562522001,1
771,507,36,0.117847452200569,1
771,508,36,0.127884543054757,1
771,509,36,0.130061349173184,1
771,510,36,0.119826228948811,1
772,508,36,0.184562112602395,1
772,509,36,0.184649939754634,1
772,510,36,0.167562996629418,1
772,511,36,0.119721246835925,1
772,553,36,0.111281229278525,1
772,554,36,0.135084819122467,1
773,510,36,0.17310197426158,1
773,511,36,0.134401219595007,1
773,512,36,0.10648118651828,1
774,509,36,0.184387707553831,1
774,510,36,0.165396251482711,1
774,511,36,0.138206653876071,1
774,512,36,0.131081533936349,1
774,513,36,0.116000840035368,1
775,510,36,0.170691869601597,1
775,511,36,0.149354589779605,1
775,512,36,0.14484572403348,1
775,513,36,0.134053435672378,1
776,511,36,0.175587960064144,1
776,512,36,0.174391407135982,1
776,513,36,0.165134420828451,1
776,514,36,0.124830056579693,1
777,515,36,0.128138833557262,1
778,517,36,0.122645799542076,1
779,519,36,0.149933441429663,1
779,520,36,0.156382501993679,1
779,521,36,0.150911385727305,1
779,523,36,0.131667446113123,1
779,524,36,0.102920494855252,1
780,525,36,0.132293959107035,1
780,526,36,0.111882645613492,1
755,504,37,0.115905773891283,1
756,504,37,0.115754725466644,1
757,503,37,0.122359641859746,1
757,504,37,0.103345777260705,1
758,503,37,0.110919034296626,1
759,502,37,0.127993484862721,1
760,502,37,0.109979727699689,1
761,502,37,0.113718739490077,1
763,503,37,0.10396296545156,1
764,503,37,0.117219567255967,1
765,503,37,0.132912675405569,1
766,503,37,0.111867420307065,1
767,505,37,0.111599075675551,1
767,506,37,0.125743976511847,1
768,505,37,0.114748115207451,1
768,506,37,0.143613031916436,1
768,507,37,0.121661809738146,1
769,506,37,0.1043795142197,1
771,508,37,0.111791260312719,1
771,509,37,0.108915986290666,1
772,508,37,0.175650813252214,1
772,509,37,0.162632652015929,1
772,510,37,0.130628344046149,1
773,508,37,0.181848617220939,1
773,509,37,0.183313637475393,1
773,510,37,0.146961852007612,1
773,511,37,0.111285233589886,1
774,509,37,0.163431896947809,1
774,510,37,0.14923799627918,1
774,511,37,0.1227911928529,1
774,512,37,0.110082088605974,1
775,510,37,0.157390071502947,1
775,511,37,0.13613709414687,1
775,512,37,0.126382736675325,1
775,513,37,0.109789126940552,1
776,511,37,0.153556383960946,1
776,512,37,0.142861381403987,1
776,513,37,0.13396926705531,1
776,514,37,0.106545701662876,1
777,512,37,0.142327581045254,1
777,513,37,0.145090511267798,1
777,514,37,0.137060149262881,1
777,515,37,0.112098019563526,1
778,515,37,0.175960372174752,1
778,516,37,0.147300322281256,1
778,517,37,0.11453644440887,1
779,518,37,0.136277813902095,1
779,519,37,0.121344877974913,1
779,520,37,0.122225424927706,1
779,521,37,0.130157675727252,1
779,522,37,0.144963923720077,1
779,523,37,0.124325290266842,1
780,519,37,0.172704588186804,1
780,524,37,0.150316483369593,1
780,525,37,0.113678261367716,1
780,526,37,0.104300041466373,1
781,525,37,0.124510570534283,1
781,526,37,0.105106480773818,1
754,504,38,0.106299821329635,1
756,503,38,0.127672916872459,1
757,503,38,0.112321859453177,1
759,502,38,0.118118373422402,1
760,502,38,0.105546631555437,1
761,502,38,0.104649320034469,1
762,502,38,0.113509277197484,1
763,502,38,0.124575911080106,1
764,502,38,0.144514570830178,1
765,503,38,0.111085609187599,1
767,506,38,0.10531141451373,1
768,506,38,0.119046258251001,1
768,507,38,0.104465724031695,1
772,510,38,0.105082834144056,1
773,510,38,0.122652413905967,1
774,509,38,0.132735180679436,1
774,510,38,0.126766514783918,1
774,511,38,0.107111726131694,1
774,552,38,0.109962104268074,1
775,510,38,0.129723325062367,1
775,511,38,0.117383654789188,1
775,512,38,0.106638113138148,1
776,511,38,0.1241179360936,1
776,512,38,0.112791100051032,1
776,513,38,0.106893820207625,1
777,514,38,0.103566393623941,1
778,514,38,0.122356027940858,1
778,515,38,0.140864323133962,1
778,516,38,0.129925615287537,1
778,517,38,0.106928598599888,1
779,515,38,0.17182939518792,1
779,516,38,0.182908655478509,1
779,517,38,0.171122149030698,1
779,518,38,0.129875053885315,1
779,521,38,0.109762044857032,1
779,522,38,0.12762501013905,1
779,523,38,0.108275541862521,1
780,518,38,0.180261794515071,1
780,519,38,0.166882297160325,1
780,520,38,0.180298658718544,1
780,521,38,0.183146415648322,1
780,522,38,0.197735705813082,1
780,523,38,0.168179894814437,1
780,524,38,0.116839804612806,1
781,519,38,0.210469349015421,1
781,524,38,0.135803955518994,1
782,521,38,0.159647666555037,1
782,522,38,0.148617618024122,1
782,523,38,0.157491729702781,1
756,503,39,0.119624373732396,1
757,503,39,0.10314323049191,1
759,502,39,0.111904072583196,1
760,501,39,0.135328234406096,1
760,502,39,0.10758394486641,1
761,502,39,0.104643352606675,1
762,502,39,0.103928956690171,1
763,501,39,0.129906876448858,1
763,502,39,0.110560799009804,1
778,515,39,0.108245626645058,1
778,516,39,0.108132479752462,1
779,517,39,0.155667749146914,1
779,518,39,0.122560459747591,1
779,522,39,0.105428822261312,1
780,516,39,0.159079388963948,1
780,518,39,0.174462837804376,1
780,519,39,0.166972355126692,1
780,520,39,0.169169863200231,1
780,521,39,0.162823252775066,1
780,522,39,0.156678620261093,1
780,523,39,0.12141427860245,1
781,518,39,0.191257733897961,1
781,519,39,0.205123024491394,1
781,520,39,0.217013620726441,1
781,521,39,0.185219868148177,1
781,522,39,0.149817695638607,1
781,523,39,0.122757663716549,1
782,519,39,0.185706419863669,1
782,520,39,0.17389651217565,1
782,521,39,0.150837713090712,1
782,522,39,0.132488173785061,1
756,503,40,0.10935796633987,1
758,502,40,0.109930326320814,1
759,501,40,0.150703897705215,1
759,502,40,0.106259666675322,1
760,501,40,0.145225330519652,1
760,502,40,0.11072325804871,1
761,501,40,0.136151415973575,1
761,502,40,0.107330524381415,1
762,501,40,0.116367351642606,1
779,518,40,0.106652769586972,1
780,519,40,0.151331481489909,1
780,520,40,0.142416545912698,1
780,521,40,0.131736132880139,1
780,522,40,0.113612273885795,1
781,519,40,0.185386342652515,1
781,520,40,0.193202044567919,1
781,521,40,0.167899425708134,1
781,522,40,0.120828846050714,1
782,519,40,0.157041852571562,1
782,520,40,0.154010376944233,1
782,521,40,0.141292806757689,1
782,522,40,0.118489391274179,1
782,525,40,0.124324598714462,1
758,502,41,0.109212338793563,1
759,501,41,0.145922404164448,1
759,502,41,0.103421268010812,1
760,501,41,0.154930007760556,1
760,502,41,0.111607954315782,1
761,501,41,0.152564218223235,1
761,502,41,0.109230620315346,1
780,520,41,0.113941095888333,1
780,521,41,0.103411697818201,1
781,520,41,0.162058563154036,1
781,521,41,0.149978805034965,1
781,522,41,0.107167083784292,1
782,520,41,0.13563772640421,1
782,521,41,0.134640485564357,1
782,522,41,0.113122297870617,1
782,524,41,0.103587285198254,1
783,522,41,0.12294537557139,1
758,502,42,0.109110000195419,1
759,501,42,0.139989788225245,1
760,500,42,0.175058565563315,1
760,501,42,0.15881410054779,1
760,502,42,0.109553207192395,1
761,500,42,0.17536251398832,1
761,501,42,0.165387964008223,1
761,502,42,0.109163539734503,1
778,540,42,0.125470634856685,1
781,521,42,0.122072826087247,1
782,522,42,0.105754097269385,1
758,502,43,0.114011065373473,1
759,501,43,0.141609370436591,1
759,502,43,0.103096561860342,1
760,500,43,0.173768407674322,1
760,501,43,0.15842550388068,1
760,502,43,0.108946559598296,1
761,501,43,0.168951801119173,1
761,502,43,0.10943505212208,1
778,540,43,0.117993838223679,1
778,541,43,0.119075504224225,1
734,540,44,0.111590587427792,1
758,502,44,0.115283822912264,1
759,501,44,0.143912875643445,1
759,502,44,0.105479907904854,1
760,500,44,0.170056834897714,1
760,501,44,0.149767245777091,1
760,502,44,0.108094555912278,1
761,502,44,0.106861004931795,1
778,540,44,0.119353608667552,1
778,544,44,0.124777331287766,1
778,545,44,0.141887731423542,1
778,546,44,0.121011170489434,1
778,547,44,0.104035667684007,1
731,538,45,0.111091431612474,1
731,540,45,0.10953993384833,1
732,528,45,0.106056182964593,1
732,538,45,0.103552205646083,1
758,502,45,0.115552100619354,1
759,502,45,0.107956490825866,1
760,501,45,0.142549468972543,1
760,502,45,0.110321410345677,1
761,502,45,0.108085409574351,1
779,544,45,0.153850606036351,1
779,545,45,0.200213850303984,1
779,546,45,0.185618470016653,1
779,547,45,0.150721186514711,1
731,539,46,0.103434117500193,1
756,503,46,0.104964801768518,1
758,502,46,0.112548777866326,1
759,502,46,0.105862447911606,1
760,501,46,0.136559052639272,1
760,502,46,0.107171935805022,1
761,502,46,0.104381990423383,1
752,505,47,0.103920055741799,1
756,503,47,0.114800561647612,1
758,502,47,0.11381725224199,1
759,502,47,0.106235328493181,1
760,501,47,0.133395970132433,1
760,502,47,0.105368791053115,1
752,505,48,0.125375936796931,1
754,504,48,0.105226721655343,1
756,503,48,0.117916908598459,1
757,502,48,0.138421347427795,1
758,502,48,0.112392531644768,1
759,501,48,0.152905521630821,1
759,502,48,0.104780848835484,1
779,550,48,0.109641971286567,1
751,506,49,0.10976826882845,1
752,505,49,0.143219850926292,1
753,504,49,0.148201359261818,1
754,503,49,0.163934120132553,1
754,504,49,0.110638040949003,1
755,503,49,0.131859240357819,1
756,502,49,0.15224446448013,1
756,503,49,0.115677974306554,1
757,501,49,0.153860689316212,1
757,502,49,0.129944264893651,1
758,501,49,0.148721741273568,1
758,502,49,0.106092132534274,1
759,501,49,0.14107230193516,1
773,560,49,0.112310984234301,1
779,549,49,0.113682388373853,1
779,550,49,0.115556751866812,1
779,551,49,0.117742804709802,1
780,547,49,0.146462450802741,1
780,548,49,0.14390532433762,1
780,549,49,0.141518565147491,1
733,515,50,0.104598669399682,1
738,509,50,0.106923043872708,1
746,507,50,0.121174410313286,1
751,506,50,0.115374817820564,1
752,505,50,0.150236307909816,1
753,503,50,0.157898407118403,1
753,504,50,0.140656143559492,1
754,502,50,0.148412617359785,1
754,503,50,0.137257866319088,1
754,504,50,0.106975267231455,1
755,501,50,0.158194692696877,1
755,502,50,0.142447007679622,1
755,503,50,0.120689386705472,1
756,500,50,0.147135955896269,1
756,501,50,0.138131564672506,1
756,502,50,0.132962969110095,1
756,503,50,0.107424575505072,1
757,500,50,0.164136778442055,1
757,501,50,0.13259216318566,1
757,502,50,0.115312633876733,1
758,501,50,0.12961086972215,1
759,501,50,0.124868493507126,1
773,559,50,0.147688974718719,1
773,560,50,0.120250819801884,1
774,558,50,0.127980456908211,1
774,559,50,0.179692379208777,1
775,558,50,0.126660874580863,1
776,540,50,0.103623100919086,1
776,541,50,0.155436436029933,1
776,542,50,0.122477250380599,1
776,557,50,0.102915051668778,1
777,540,50,0.110138305122012,1
777,542,50,0.148623574297845,1
778,543,50,0.122981247062576,1
779,541,50,0.125777483340057,1
779,545,50,0.13658732820835,1
779,546,50,0.117635078695538,1
779,547,50,0.134354762890782,1
779,548,50,0.146979486593298,1
779,549,50,0.133456782125575,1
779,550,50,0.124021631847674,1
779,551,50,0.124605748219074,1
780,547,50,0.170657481601807,1
737,509,51,0.128001950802339,1
741,508,51,0.111565011143809,1
742,507,51,0.124843486080746,1
743,507,51,0.126083149491941,1
745,505,51,0.133616396876468,1
745,507,51,0.142270773363473,1
746,506,51,0.1348723452308,1
746,507,51,0.115363228741167,1
750,506,51,0.122277737519019,1
751,506,51,0.114235964899835,1
752,505,51,0.1456326437173,1
753,502,51,0.143332875124111,1
753,503,51,0.139852648926697,1
753,504,51,0.129173964775088,1
754,502,51,0.125726018458113,1
754,503,51,0.119969737221696,1
755,501,51,0.139094629439911,1
755,502,51,0.125169854187742,1
755,503,51,0.11224115975208,1
756,500,51,0.142014218584627,1
756,501,51,0.12508960064947,1
756,502,51,0.116622556778904,1
757,500,51,0.150154336644665,1
757,501,51,0.119722328780777,1
758,501,51,0.117996292119221,1
773,559,51,0.137249634614954,1
774,558,51,0.107727464293366,1
776,540,51,0.111996774064305,1
776,541,51,0.181938017097138,1
776,542,51,0.149601306668144,1
777,540,51,0.117502501411882,1
777,541,51,0.201067270556975,1
777,542,51,0.189047331718759,1
777,543,51,0.103096651092907,1
778,541,51,0.179987036292937,1
778,543,51,0.164910079005621,1
778,553,51,0.107124207536743,1
779,541,51,0.139017287114077,1
779,545,51,0.125771013979084,1
779,546,51,0.113971356881986,1
779,547,51,0.13814899848492,1
779,551,51,0.136488938151214,1
732,513,52,0.10364244207758,1
737,509,52,0.113161158652735,1
741,508,52,0.110258836009373,1
743,507,52,0.124867489640768,1
744,507,52,0.140249555376436,1
744,508,52,0.103628109096805,1
745,505,52,0.129754311070611,1
745,506,52,0.133404179528426,1
745,507,52,0.136193556052462,1
746,506,52,0.131835069486737,1
746,507,52,0.115570549452197,1
750,506,52,0.117954798976431,1
751,506,52,0.107690923557942,1
752,501,52,0.15774173704216,1
752,505,52,0.139149775165167,1
753,501,52,0.146473292559405,1
753,502,52,0.136450478915639,1
753,503,52,0.135313466416566,1
753,504,52,0.127228226384089,1
754,501,52,0.137710442735403,1
754,502,52,0.118218336203499,1
754,503,52,0.112312746577463,1
755,501,52,0.126371582604683,1
755,502,52,0.111736683445066,1
756,500,52,0.135633454395154,1
756,501,52,0.115589489064148,1
757,501,52,0.109863457667313,1
773,559,52,0.121023149961304,1
773,560,52,0.13562400689732,1
774,559,52,0.131596785075604,1
776,540,52,0.121376310145984,1
776,541,52,0.195611524599946,1
776,542,52,0.157433862384289,1
777,540,52,0.131076904997033,1
777,541,52,0.220681257618788,1
777,543,52,0.110269811614885,1
778,552,52,0.104658655991596,1
778,553,52,0.118314004667399,1
778,554,52,0.117075980904588,1
779,545,52,0.116530591466458,1
779,546,52,0.110481917422221,1
779,551,52,0.138801701236701,1
779,552,52,0.172219252265013,1
736,509,53,0.117004338308852,1
736,510,53,0.106001449939951,1
737,508,53,0.113939679321361,1
741,508,53,0.108519447925258,1
744,507,53,0.130467368498638,1
744,508,53,0.103479536875848,1
745,505,53,0.12779812131542,1
745,506,53,0.127170570992938,1
745,507,53,0.12869928099076,1
746,504,53,0.134071505266818,1
746,505,53,0.140487627860227,1
746,506,53,0.130110159386316,1
746,507,53,0.11821575961318,1
747,506,53,0.135278319939971,1
747,507,53,0.10551941562307,1
749,506,53,0.128441822732192,1
750,506,53,0.118924645418787,1
752,501,53,0.156698184500999,1
752,505,53,0.129689550536462,1
753,501,53,0.152854937920458,1
753,502,53,0.146151129537041,1
753,504,53,0.133354956614681,1
754,501,53,0.147232059368924,1
754,502,53,0.136218161932299,1
754,503,53,0.11918167982267,1
755,501,53,0.125790756684121,1
755,502,53,0.115476442558187,1
756,501,53,0.113973955780445,1
772,560,53,0.107991436529189,1
773,559,53,0.107484361323715,1
773,560,53,0.13398419120183,1
774,559,53,0.108333721494992,1
776,540,53,0.127061183022148,1
776,541,53,0.200935674831536,1
776,542,53,0.157007709961326,1
777,540,53,0.143461950029585,1
777,541,53,0.233097054424102,1
777,543,53,0.11126239005321,1
778,544,53,0.10473633293955,1
778,552,53,0.102935463618054,1
778,553,53,0.125257603261486,1
778,554,53,0.126676534896045,1
779,545,53,0.115150632154723,1
779,546,53,0.111399964360513,1
779,551,53,0.135661116490348,1
779,552,53,0.165396574950759,1
779,553,53,0.183297530997385,1
740,508,54,0.109011286670234,1
741,508,54,0.106313540836525,1
745,505,54,0.128273429727704,1
745,506,54,0.124172156030993,1
745,507,54,0.122905667079903,1
746,504,54,0.13584191282139,1
746,505,54,0.135882279403045,1
746,506,54,0.13039082926589,1
746,507,54,0.121840988728945,1
747,505,54,0.157335450019011,1
747,506,54,0.132916122013397,1
747,507,54,0.11175272299865,1
748,506,54,0.131337899095994,1
748,507,54,0.107302326890831,1
749,506,54,0.133888779281555,1
749,507,54,0.105581543796548,1
750,506,54,0.119700823732579,1
753,501,54,0.155780483338897,1
754,501,54,0.155207476421856,1
754,502,54,0.16206801065187,1
754,503,54,0.131341635709659,1
755,501,54,0.126418028154837,1
755,502,54,0.126094749725409,1
772,560,54,0.116766879298946,1
776,540,54,0.113119732434369,1
776,541,54,0.180481295471242,1
776,542,54,0.13686635843954,1
777,540,54,0.13688596729573,1
777,541,54,0.219955640707218,1
778,553,54,0.122687482304067,1
778,554,54,0.133228101369265,1
779,546,54,0.113969427227765,1
779,551,54,0.127503899240015,1
779,552,54,0.143621832478173,1
779,553,54,0.165313030961648,1
745,506,55,0.126559283305453,1
745,507,55,0.118423983803933,1
746,505,55,0.13122670416576,1
746,506,55,0.12977407608379,1
746,507,55,0.122599130910509,1
747,505,55,0.136436302091852,1
747,506,55,0.126365972107149,1
747,507,55,0.115170742944091,1
748,505,55,0.151902703755647,1
748,506,55,0.125160495922473,1
748,507,55,0.109387491164861,1
749,506,55,0.130395937830244,1
749,507,55,0.106720552874266,1
750,506,55,0.115571218696435,1
753,501,55,0.158484743149861,1
754,501,55,0.157259780803773,1
754,502,55,0.18276247022867,1
754,503,55,0.146513636832919,1
754,504,55,0.105920794855136,1
755,501,55,0.126574107065336,1
755,502,55,0.138703623493542,1
755,503,55,0.107760770348304,1
771,561,55,0.118319023999188,1
772,560,55,0.119906225943458,1
776,541,55,0.147433312265525,1
776,542,55,0.115450185875895,1
777,540,55,0.120599328739105,1
777,542,55,0.153883655547664,1
778,553,55,0.114582666877612,1
779,550,55,0.122784723491927,1
779,551,55,0.115450576268367,1
742,507,56,0.120050704620489,1
744,506,56,0.127683591318064,1
744,507,56,0.117866904899769,1
745,506,56,0.12902119862357,1
745,507,56,0.113572208464048,1
746,505,56,0.129335620720908,1
746,506,56,0.125534034594216,1
746,507,56,0.11812425161763,1
747,504,56,0.134040307331232,1
747,505,56,0.121247558708558,1
747,506,56,0.118467629682356,1
747,507,56,0.115193664559261,1
748,505,56,0.141683210384243,1
748,506,56,0.117405817927554,1
748,507,56,0.106200371635787,1
749,506,56,0.121129615565586,1
750,506,56,0.108274973004918,1
754,504,56,0.111780307015348,1
754,505,56,0.106071040186689,1
755,501,56,0.128150366866307,1
755,502,56,0.143065065887988,1
755,503,56,0.111679518833024,1
755,505,56,0.128250117720062,1
756,505,56,0.10944200110809,1
771,560,56,0.107563532917135,1
771,561,56,0.1350612505712,1
772,560,56,0.116536681589029,1
776,541,56,0.103099618075698,1
777,541,56,0.146506487073637,1
777,542,56,0.122464847054045,1
777,554,56,0.106849962401859,1
777,555,56,0.104390344822294,1
778,553,56,0.108214975258933,1
778,554,56,0.138481769028465,1
779,546,56,0.103176938093391,1
779,549,56,0.111757998874063,1
779,550,56,0.108111922800268,1
779,551,56,0.106628308710053,1
780,550,56,0.1392934172869,1
734,510,57,0.120865453710562,1
738,507,57,0.10884712105852,1
739,507,57,0.113491185294902,1
742,507,57,0.107302103809419,1
743,506,57,0.118725087940924,1
743,507,57,0.110838457290305,1
744,505,57,0.13768036020688,1
744,506,57,0.126808967176782,1
744,507,57,0.10956736170804,1
745,505,57,0.151014226258628,1
745,506,57,0.13128140372819,1
745,507,57,0.108478690951131,1
746,504,57,0.145065849617607,1
746,505,57,0.13641022387469,1
746,506,57,0.123325896691355,1
746,507,57,0.109715933928996,1
747,504,57,0.131077696936048,1
747,505,57,0.120777080008863,1
747,506,57,0.114274636062752,1
747,507,57,0.108460599048549,1
748,505,57,0.134242240626141,1
748,506,57,0.109611431441148,1
749,506,57,0.108863718315635,1
752,505,57,0.109985327043151,1
754,504,57,0.127031156263979,1
754,505,57,0.116324620397975,1
755,502,57,0.139789773430486,1
755,503,57,0.117073560471259,1
755,504,57,0.11597274293142,1
755,505,57,0.144983822582103,1
756,502,57,0.110979846289768,1
756,505,57,0.123900442870144,1
764,564,57,0.108323091665669,1
765,564,57,0.111845904104796,1
765,565,57,0.104082224774868,1
766,564,57,0.109376961722174,1
766,565,57,0.107654449746941,1
771,560,57,0.108388844912106,1
771,561,57,0.141645755015026,1
772,560,57,0.110405623579027,1
777,554,57,0.123116724404598,1
777,555,57,0.122556031581546,1
778,553,57,0.10457017074919,1
778,554,57,0.142169717483453,1
779,548,57,0.117810978389568,1
779,549,57,0.105577528331116,1
780,550,57,0.118438852180099,1
734,509,58,0.109978433827494,1
740,507,58,0.103610530281473,1
743,506,58,0.110402355436329,1
744,506,58,0.123061868685179,1
744,507,58,0.104577320508472,1
745,505,58,0.155204676750125,1
745,506,58,0.129632095918583,1
745,507,58,0.105795623874387,1
746,503,58,0.139109129731746,1
746,504,58,0.151894382818948,1
746,505,58,0.145474434379309,1
746,506,58,0.120527630373016,1
747,503,58,0.127214127638797,1
747,504,58,0.129498782466265,1
747,505,58,0.124809722708912,1
747,506,58,0.110156731646713,1
748,505,58,0.126880743621366,1
752,505,58,0.108730694869154,1
753,505,58,0.110190773870313,1
754,504,58,0.156462287060984,1
754,505,58,0.12995814055753,1
755,502,58,0.131933783011922,1
755,503,58,0.123748513273924,1
755,504,58,0.139624626260555,1
755,505,58,0.149863148476474,1
755,506,58,0.104346721252011,1
756,502,58,0.110957069677516,1
756,504,58,0.105451721568341,1
756,505,58,0.125411930982894,1
764,564,58,0.103381592981538,1
765,564,58,0.119285490758139,1
765,565,58,0.106530442894237,1
766,564,58,0.121498079135187,1
770,562,58,0.105464046816401,1
771,561,58,0.132945546451752,1
776,554,58,0.103480150349734,1
777,553,58,0.105248148625047,1
777,554,58,0.138353842992268,1
778,549,58,0.109012547080217,1
778,550,58,0.111745171692825,1
778,551,58,0.105251740235793,1
778,553,58,0.107119879757334,1
779,547,58,0.109997239590597,1
779,548,58,0.11883787790326,1
779,549,58,0.113485920573558,1
779,550,58,0.111883582555426,1
779,551,58,0.105309116775178,1
780,550,58,0.10776798703201,1
733,509,59,0.103000949166795,1
737,507,59,0.109235985423325,1
743,506,59,0.103620580099121,1
744,506,59,0.115431915508183,1
745,505,59,0.147028698352972,1
745,506,59,0.121479050290671,1
745,507,59,0.10384315957879,1
746,503,59,0.135702843868621,1
746,504,59,0.151373286946677,1
746,505,59,0.144628409275154,1
746,506,59,0.114079662907923,1
747,503,59,0.125172843478674,1
747,504,59,0.129102311025281,1
747,505,59,0.125266102663315,1
747,506,59,0.103704860256895,1
748,505,59,0.119034591093109,1
751,505,59,0.119060747388765,1
752,505,59,0.11676589774073,1
753,505,59,0.129033758107113,1
754,502,59,0.164102646985889,1
754,505,59,0.145637094191486,1
755,502,59,0.134695017815728,1
755,503,59,0.142138664550784,1
755,504,59,0.166889614230667,1
755,505,59,0.145050066607648,1
756,502,59,0.11418950819561,1
756,503,59,0.10662253090146,1
756,504,59,0.115567928245596,1
756,505,59,0.117526917672518,1
765,564,59,0.119363591560777,1
765,565,59,0.105591258992077,1
766,563,59,0.103332013137532,1
766,564,59,0.127840596016426,1
767,564,59,0.104062426299478,1
770,562,59,0.11145441853339,1
771,561,59,0.121588337874825,1
776,554,59,0.114265277797483,1
776,555,59,0.114778733131364,1
776,556,59,0.110853247587977,1
777,553,59,0.119231817370207,1
778,548,59,0.114561741841087,1
778,549,59,0.135185306144885,1
778,550,59,0.14244470994107,1
778,551,59,0.125162213649352,1
778,552,59,0.104972520385403,1
779,546,59,0.115604446672879,1
779,547,59,0.114831123801172,1
779,548,59,0.126844894438322,1
779,549,59,0.134901524279601,1
779,550,59,0.13085217278173,1
779,551,59,0.110451957588476,1
780,549,59,0.113332340174883,1
780,550,59,0.107137614729655,1
735,508,60,0.105470326558172,1
736,507,60,0.119177563970603,1
737,507,60,0.105197888382732,1
738,506,60,0.118543934679621,1
739,506,60,0.106120095789374,1
744,505,60,0.126824995576296,1
744,506,60,0.107288440072882,1
745,504,60,0.151343806737969,1
745,505,60,0.137555936548864,1
745,506,60,0.111535742862443,1
745,508,60,0.104227919245599,1
746,503,60,0.136119682642597,1
746,504,60,0.148537955651594,1
746,505,60,0.139071919752083,1
746,506,60,0.106598426954802,1
747,503,60,0.130040368366306,1
747,504,60,0.13397342752366,1
747,505,60,0.123475171618762,1
748,505,60,0.113463958208464,1
751,505,60,0.118529400925574,1
752,504,60,0.161476019506596,1
752,505,60,0.130057690638014,1
753,505,60,0.14805189471521,1
753,506,60,0.109836096732027,1
754,506,60,0.105745285553578,1
755,502,60,0.150481017065639,1
755,505,60,0.135134187039131,1
756,502,60,0.123210764374184,1
756,503,60,0.125257770572546,1
756,504,60,0.126157212521006,1
756,505,60,0.109707300678319,1
757,502,60,0.10672618567994,1
757,503,60,0.114611176682174,1
757,504,60,0.104539909755538,1
758,503,60,0.108536703272542,1
765,564,60,0.112021837261039,1
766,563,60,0.10615457302173,1
766,564,60,0.124329160729355,1
767,564,60,0.105028324200826,1
770,561,60,0.103499379967521,1
773,558,60,0.104395085302317,1
774,558,60,0.10329985595187,1
775,556,60,0.102990029331636,1
775,557,60,0.108281219284478,1
776,553,60,0.103852450919635,1
777,550,60,0.104546981436325,1
777,551,60,0.115017798327443,1
777,552,60,0.11762418116852,1
778,548,60,0.118560743864079,1
778,549,60,0.148822919848365,1
778,550,60,0.156987967256289,1
778,551,60,0.132516125886091,1
778,552,60,0.116401204247006,1
779,546,60,0.135337391898094,1
779,547,60,0.117025408348295,1
779,548,60,0.127721660161167,1
779,549,60,0.149904630465193,1
779,550,60,0.139660865836072,1
779,551,60,0.10848232717816,1
780,548,60,0.123086876111559,1
780,549,60,0.116785149666658,1
739,506,61,0.10374210369877,1
743,505,61,0.11917074883344,1
744,505,61,0.123297665738559,1
744,506,61,0.105375271568158,1
744,508,61,0.107613012374504,1
745,504,61,0.142512694001635,1
745,505,61,0.128711171230065,1
745,506,61,0.105695058773475,1
745,508,61,0.104059916633584,1
746,504,61,0.146696764364725,1
746,505,61,0.131088516384571,1
747,503,61,0.147901627075516,1
747,504,61,0.150313962549628,1
747,505,61,0.124215734984992,1
748,504,61,0.157044362237457,1
748,505,61,0.116954457304939,1
749,505,61,0.119601273652095,1
750,505,61,0.120588420058017,1
751,505,61,0.124879134490519,1
752,504,61,0.158963520478115,1
752,505,61,0.155968139423385,1
752,506,61,0.112008229294855,1
753,505,61,0.175726002842414,1
753,506,61,0.128441499264144,1
754,506,61,0.116324988482307,1
755,505,61,0.129106683420973,1
756,503,61,0.146738647899987,1
756,504,61,0.136305665616489,1
756,505,61,0.107851073704225,1
757,503,61,0.12969906495872,1
757,504,61,0.121591316011686,1
758,503,61,0.115167385568828,1
758,504,61,0.105443434093854,1
766,564,61,0.1125700263709,1
770,561,61,0.110170886162358,1
772,558,61,0.120292792569711,1
773,557,61,0.109060119191507,1
773,558,61,0.11726440661995,1
774,556,61,0.104839050776096,1
774,557,61,0.110340851890807,1
774,558,61,0.108047864972569,1
774,559,61,0.103462002676798,1
775,555,61,0.105067263061439,1
775,556,61,0.114833287690876,1
775,558,61,0.117965796890084,1
776,553,61,0.108316611150626,1
777,550,61,0.105682688909133,1
777,551,61,0.118147139770588,1
777,552,61,0.12725498499956,1
778,548,61,0.116106056383738,1
778,549,61,0.14693194794422,1
778,550,61,0.151184738536538,1
778,551,61,0.127798500553822,1
779,547,61,0.120047648405133,1
779,548,61,0.129408702191757,1
779,549,61,0.154061116811585,1
779,550,61,0.137634383127692,1
779,551,61,0.106100252697701,1
780,548,61,0.120562698771116,1
780,549,61,0.121084965820804,1
742,505,62,0.113940192408611,1
743,505,62,0.117358089659275,1
743,506,62,0.105764994796403,1
744,505,62,0.120333293000214,1
744,506,62,0.105567099275066,1
744,508,62,0.106526193193322,1
745,504,62,0.134503413190233,1
745,505,62,0.12049209350395,1
745,508,62,0.103113906440191,1
746,504,62,0.143485552043064,1
746,505,62,0.121799975211193,1
747,504,62,0.167283810241239,1
747,505,62,0.125526137512201,1
748,504,62,0.172964656497902,1
748,505,62,0.123906142600242,1
749,505,62,0.120552080095864,1
750,505,62,0.115801081784234,1
751,504,62,0.144011923790749,1
751,505,62,0.12632830481059,1
752,504,62,0.1530659394748,1
752,505,62,0.173225059431119,1
752,506,62,0.129699823435523,1
753,504,62,0.177845588578446,1
753,505,62,0.192639723250553,1
753,506,62,0.14611187836245,1
753,507,62,0.10942897315358,1
753,549,62,0.123917720525569,1
754,505,62,0.159588594596915,1
754,506,62,0.126698854191401,1
754,507,62,0.105538779089705,1
755,503,62,0.184276746859081,1
755,504,62,0.160779380870555,1
755,505,62,0.124220486619086,1
756,503,62,0.165872597223564,1
756,504,62,0.150979972107685,1
756,505,62,0.111103210311073,1
757,503,62,0.139582218483973,1
757,504,62,0.137710933514511,1
757,505,62,0.105454532394143,1
758,503,62,0.113765620048987,1
758,504,62,0.115387109606412,1
769,561,62,0.107199664824639,1
770,561,62,0.111426979519609,1
772,558,62,0.125959484310729,1
772,559,62,0.110702054160419,1
773,557,62,0.116300784149013,1
773,558,62,0.122650707333159,1
774,556,62,0.110825016635181,1
774,557,62,0.122351811702155,1
774,558,62,0.112100306148008,1
775,555,62,0.105395783904069,1
776,553,62,0.106605253246035,1
777,551,62,0.110933612666955,1
777,552,62,0.125882097368612,1
778,545,62,0.114092043926336,1
778,548,62,0.111190803227827,1
778,549,62,0.135728487077028,1
778,550,62,0.134449773264514,1
778,551,62,0.117039886331989,1
779,546,62,0.150439334303648,1
779,547,62,0.119407817450874,1
779,548,62,0.124075450238523,1
779,549,62,0.140529455625136,1
779,550,62,0.123943096036281,1
780,547,62,0.132768888280918,1
780,548,62,0.11527178767004,1
780,549,62,0.11829823281151,1
741,505,63,0.115704030215574,1
742,505,63,0.115352565449633,1
742,506,63,0.107549489942196,1
743,505,63,0.117958747517438,1
743,506,63,0.109721800970154,1
744,505,63,0.118538681112348,1
744,506,63,0.108165328490504,1
745,504,63,0.129683148099913,1
745,505,63,0.114640868818224,1
745,509,63,0.10311042637015,1
746,504,63,0.141103098324204,1
746,505,63,0.11654330710699,1
747,504,63,0.176370942361028,1
747,505,63,0.127822448343491,1
748,505,63,0.131246101094607,1
749,504,63,0.169539408714684,1
749,505,63,0.125492418756649,1
750,504,63,0.146794853261954,1
750,505,63,0.114750491024498,1
751,504,63,0.131522900511668,1
751,505,63,0.123675309108298,1
752,504,63,0.143265270301948,1
752,505,63,0.170436229456544,1
752,506,63,0.140488430953313,1
753,504,63,0.158594677670113,1
753,505,63,0.187573165126379,1
753,506,63,0.159137100125452,1
753,507,63,0.118399310999672,1
753,549,63,0.140404072717045,1
754,504,63,0.152555149963803,1
754,505,63,0.151478994074155,1
754,506,63,0.133652145672876,1
754,507,63,0.114936373611753,1
754,549,63,0.107896459617669,1
755,503,63,0.180472026438538,1
755,504,63,0.153723784253147,1
755,505,63,0.121466591193763,1
755,506,63,0.103973015269209,1
756,503,63,0.179900648015811,1
756,504,63,0.168558698207523,1
756,505,63,0.118768287656522,1
757,503,63,0.146523708958709,1
757,504,63,0.149047897453222,1
757,505,63,0.114518140578946,1
758,503,63,0.11161729027291,1
758,504,63,0.12114774093038,1
758,505,63,0.112626644433481,1
759,504,63,0.105924977631627,1
759,505,63,0.107432773746994,1
770,561,63,0.104169561147998,1
771,559,63,0.108861219803811,1
772,558,63,0.117181799572772,1
772,559,63,0.114359652389189,1
773,557,63,0.116362064613122,1
773,558,63,0.118661063575436,1
774,556,63,0.112281738261077,1
774,557,63,0.131666286089776,1
774,558,63,0.114622854994137,1
775,555,63,0.103423632673789,1
776,554,63,0.106116448408274,1
777,552,63,0.119851314453686,1
778,545,63,0.11052668986178,1
778,548,63,0.107946954095467,1
778,549,63,0.118569689428734,1
778,550,63,0.110769157049404,1
778,551,63,0.104477357727375,1
779,546,63,0.14228704715254,1
779,547,63,0.117275404533603,1
779,548,63,0.115134659525563,1
779,549,63,0.116477196930293,1
779,550,63,0.105314582269793,1
780,547,63,0.123675275646086,1
780,548,63,0.10912094233872,1
739,506,64,0.108864264865097,1
740,505,64,0.127982029632172,1
740,506,64,0.108841979031953,1
741,505,64,0.125204532193369,1
741,506,64,0.118582761999527,1
742,505,64,0.125116292340518,1
742,506,64,0.122926212878026,1
742,507,64,0.104860433129517,1
743,505,64,0.124520508811225,1
743,506,64,0.120017420873692,1
743,507,64,0.106385551516592,1
744,504,64,0.128966565985563,1
744,505,64,0.117842321328073,1
744,506,64,0.110882092014658,1
745,504,64,0.126510372705686,1
745,505,64,0.110127552597912,1
745,509,64,0.106470891311077,1
746,504,64,0.13927693157049,1
746,505,64,0.113790950943416,1
746,509,64,0.104104332142882,1
747,505,64,0.128281627969626,1
748,505,64,0.134766872338806,1
749,504,64,0.167910200540375,1
749,505,64,0.128956192699866,1
750,504,64,0.133815062028679,1
750,505,64,0.115708692617103,1
751,504,64,0.122326915816481,1
751,505,64,0.121353957388416,1
751,506,64,0.107509926453627,1
752,504,64,0.133522814223778,1
752,505,64,0.159962802512896,1
752,506,64,0.155700899044864,1
752,507,64,0.112378243280275,1
753,504,64,0.145982256907515,1
753,505,64,0.178483857962815,1
753,506,64,0.181192055160716,1
753,507,64,0.137292667019492,1
753,549,64,0.127995961066404,1
754,504,64,0.146926426679252,1
754,505,64,0.148304367104201,1
754,506,64,0.145980137634093,1
754,507,64,0.128986230612106,1
754,549,64,0.106308097650051,1
755,503,64,0.184764659371191,1
755,504,64,0.159160646368578,1
755,505,64,0.123379179686813,1
755,506,64,0.109696447767584,1
755,507,64,0.114396193124613,1
756,504,64,0.178663862354842,1
756,505,64,0.122854369509018,1
757,504,64,0.151613155235841,1
757,505,64,0.118244425574731,1
758,504,64,0.123249870545856,1
758,505,64,0.122342386512462,1
759,504,64,0.111396573523038,1
759,505,64,0.125927360587279,1
760,505,64,0.107315109455788,1
771,559,64,0.110628191904625,1
772,558,64,0.103350127348255,1
773,557,64,0.110488353320982,1
773,558,64,0.11176870678188,1
774,556,64,0.111932113916791,1
774,558,64,0.115709250320635,1
775,555,64,0.105458915943905,1
776,554,64,0.102955351326009,1
777,549,64,0.104456287687932,1
777,552,64,0.111658683029064,1
778,548,64,0.10361447882248,1
778,549,64,0.103658950102131,1
779,547,64,0.111271670239985,1
740,506,65,0.132185552694462,1
741,506,65,0.149967840583524,1
741,507,65,0.111044907983825,1
742,505,65,0.136286112530653,1
742,506,65,0.145617753032993,1
742,507,65,0.115394281673835,1
743,505,65,0.131457381500715,1
743,506,65,0.13260379688134,1
743,507,65,0.112338757870201,1
744,505,65,0.120189271640079,1
744,506,65,0.115309655739871,1
744,507,65,0.105050320028133,1
745,505,65,0.113477343093234,1
745,506,65,0.108474173552521,1
745,507,65,0.107535424659116,1
746,504,65,0.136559922656782,1
746,505,65,0.115587827107622,1
746,506,65,0.109723239845267,1
746,507,65,0.112933236373228,1
746,508,65,0.105833737333772,1
747,505,65,0.121443859197794,1
747,506,65,0.105174475988454,1
747,507,65,0.103903648103884,1
748,505,65,0.125980130495488,1
749,504,65,0.160082184530982,1
749,505,65,0.125776970252807,1
750,504,65,0.132506466460914,1
750,505,65,0.119699775249938,1
751,504,65,0.126624043839602,1
751,505,65,0.122515263453348,1
751,506,65,0.118228486407783,1
752,504,65,0.134436142990189,1
752,505,65,0.14583596011697,1
752,506,65,0.16135959331723,1
752,507,65,0.131453522192273,1
753,504,65,0.145644221642627,1
753,505,65,0.161864761176624,1
753,506,65,0.183794143684596,1
753,507,65,0.150739088798092,1
754,505,65,0.145109584728596,1
754,506,65,0.146969481391932,1
754,507,65,0.135598330226702,1
754,508,65,0.111546004607434,1
755,504,65,0.1673761882543,1
755,505,65,0.125412120602095,1
755,506,65,0.113689036199956,1
755,507,65,0.125600010922066,1
755,508,65,0.118501883833299,1
756,504,65,0.169986999261422,1
756,505,65,0.119899455422578,1
756,507,65,0.108944774946994,1
757,504,65,0.14368551106747,1
757,505,65,0.115455149437331,1
758,504,65,0.122027841720347,1
758,505,65,0.122377309907643,1
759,504,65,0.110533739234426,1
759,505,65,0.130174841841971,1
759,506,65,0.105682934298687,1
760,505,65,0.116320381851131,1
760,506,65,0.108831873443951,1
769,564,65,0.103421178778247,1
771,559,65,0.106175888450727,1
774,522,65,0.110685200359679,1
774,556,65,0.106969768274629,1
774,557,65,0.120726596685135,1
774,558,65,0.109882319200769,1
775,555,65,0.108018964775534,1
777,549,65,0.110435929188963,1
777,552,65,0.104217423265125,1
777,553,65,0.114179737229727,1
777,554,65,0.108399541665852,1
778,546,65,0.104213307413058,1
778,552,65,0.117291176389492,1
779,547,65,0.106528122847543,1
740,506,66,0.150823491650643,1
741,506,66,0.173655885409681,1
741,507,66,0.119479738898376,1
742,505,66,0.141171840861573,1
742,506,66,0.160952625895772,1
742,507,66,0.118533650626488,1
743,505,66,0.131736512118541,1
743,506,66,0.138675392540746,1
743,507,66,0.111396183130566,1
744,505,66,0.118066283912502,1
744,506,66,0.11576542222039,1
745,505,66,0.113190148082334,1
745,506,66,0.112054909080493,1
745,507,66,0.110524749053488,1
746,505,66,0.111199949565754,1
746,506,66,0.113782563082293,1
746,507,66,0.119737386776144,1
747,505,66,0.108657278776186,1
747,506,66,0.104319650322562,1
747,507,66,0.105103279555543,1
748,505,66,0.110476240000264,1
749,504,66,0.13885551962755,1
749,505,66,0.111995167878133,1
750,504,66,0.123587470801989,1
750,505,66,0.112891799000792,1
751,504,66,0.127258833153931,1
751,505,66,0.11702322215045,1
751,506,66,0.12062528426149,1
751,507,66,0.111184445407561,1
752,504,66,0.132562326046691,1
752,505,66,0.126163369568001,1
752,506,66,0.149686189145733,1
752,507,66,0.144006491758346,1
753,504,66,0.139098332591365,1
753,505,66,0.133912102443268,1
753,506,66,0.158480593835582,1
753,507,66,0.150933760793013,1
753,508,66,0.113555711593568,1
754,504,66,0.160649290944653,1
754,505,66,0.130066067345066,1
754,506,66,0.131545097112247,1
754,507,66,0.134918489621048,1
754,508,66,0.121396521321988,1
755,504,66,0.160579667235703,1
755,505,66,0.118725902188081,1
755,506,66,0.111884943352045,1
755,507,66,0.129649429344361,1
755,508,66,0.1263909906876,1
756,504,66,0.145487774647797,1
756,505,66,0.110555946989075,1
756,507,66,0.108199560333305,1
757,504,66,0.127667696767399,1
757,505,66,0.109279753996526,1
758,504,66,0.116485294785579,1
758,505,66,0.117066622639319,1
759,504,66,0.106717117420508,1
759,505,66,0.123496520509971,1
759,506,66,0.108552374741794,1
760,505,66,0.112134961845494,1
760,506,66,0.111551793570098,1
761,505,66,0.104439601198251,1
774,522,66,0.106139894264764,1
775,522,66,0.154093307459459,1
776,549,66,0.103580693142504,1
777,540,66,0.111366680613717,1
777,544,66,0.103723465246727,1
777,545,66,0.103862868821615,1
777,549,66,0.111005355649327,1
777,552,66,0.104786225097533,1
778,543,66,0.106008041995701,1
778,544,66,0.117613696342116,1
778,545,66,0.119888401738572,1
778,546,66,0.110438349622292,1
778,552,66,0.10744260048323,1
778,553,66,0.107771679029392,1
779,546,66,0.115940028042226,1
779,551,66,0.104528331830211,1
740,507,67,0.106747211103101,1
741,506,67,0.176729233418202,1
741,507,67,0.118809446177192,1
742,506,67,0.163727769825669,1
742,507,67,0.117537792891395,1
743,505,67,0.129727652841776,1
743,506,67,0.138329348653137,1
743,507,67,0.109822221068148,1
744,505,67,0.115638053887725,1
744,506,67,0.116626025694874,1
745,505,67,0.114226026622893,1
745,506,67,0.116512834185995,1
745,507,67,0.112601659315242,1
746,505,67,0.111297313448392,1
746,506,67,0.116771920938876,1
746,507,67,0.12001947322269,1
747,504,67,0.128327147731918,1
747,505,67,0.106220147803036,1
747,506,67,0.106472363648402,1
747,507,67,0.106350048109737,1
748,505,67,0.105862793687795,1
749,504,67,0.129047388381438,1
749,505,67,0.106090470577748,1
750,504,67,0.122814359857624,1
750,505,67,0.110747451227934,1
750,506,67,0.1063967948198,1
751,504,67,0.134960585083652,1
751,505,67,0.11889987222789,1
751,506,67,0.125354710600499,1
751,507,67,0.120681868861859,1
752,504,67,0.142091259750554,1
752,505,67,0.120476879351593,1
752,506,67,0.137062960088683,1
752,507,67,0.147135933588128,1
752,508,67,0.117788469475012,1
753,504,67,0.141583637995619,1
753,505,67,0.12075637805375,1
753,506,67,0.131402838095274,1
753,507,67,0.144355569553171,1
753,508,67,0.129581947216975,1
754,504,67,0.155819444507651,1
754,505,67,0.122887932107581,1
754,506,67,0.119363390787505,1
754,507,67,0.1335115597665,1
754,508,67,0.131150443784778,1
754,509,67,0.10986689312107,1
755,504,67,0.149380924540392,1
755,505,67,0.117332959538118,1
755,506,67,0.111611255920692,1
755,507,67,0.12717859076973,1
755,508,67,0.125170556894193,1
755,509,67,0.103044215806817,1
756,504,67,0.128935479590683,1
756,505,67,0.109777169776823,1
756,507,67,0.103511192128331,1
757,504,67,0.118420548350175,1
757,505,67,0.110568785324384,1
758,504,67,0.113680648338833,1
758,505,67,0.115888306616657,1
758,506,67,0.10456547488545,1
759,504,67,0.105050531955475,1
759,505,67,0.11488041363934,1
759,506,67,0.108823597123535,1
760,506,67,0.107142433288173,1
760,507,67,0.106077743783145,1
761,505,67,0.106360120235528,1
761,506,67,0.103153804550879,1
762,504,67,0.14637474634528,1
762,505,67,0.138993818949445,1
762,506,67,0.104221929509664,1
763,505,67,0.145063250719148,1
763,506,67,0.105324643241512,1
775,522,67,0.152863247703087,1
775,523,67,0.153982313302496,1
776,522,67,0.118652943412009,1
776,529,67,0.103573878005342,1
776,552,67,0.105466556482295,1
776,553,67,0.10322466636167,1
777,527,67,0.121638006951395,1
777,540,67,0.113150082660587,1
777,543,67,0.104377383792207,1
777,544,67,0.133286916783762,1
777,545,67,0.129643573457274,1
777,549,67,0.104524896376453,1
777,552,67,0.110822718896629,1
778,539,67,0.140979778919181,1
778,542,67,0.116258744456762,1
778,543,67,0.116495411527652,1
778,544,67,0.13260692002112,1
778,545,67,0.134691258893921,1
778,546,67,0.116208406135952,1
779,543,67,0.134576059652327,1
779,546,67,0.113403960462478,1
740,507,68,0.117729542519808,1
741,506,68,0.163888934992381,1
741,507,68,0.118020429528091,1
742,506,68,0.155428862415966,1
742,507,68,0.115835447475883,1
743,506,68,0.131866836279926,1
743,507,68,0.106690336496895,1
744,505,68,0.11617832360743,1
744,506,68,0.117228378971775,1
745,505,68,0.117300556962902,1
745,506,68,0.120128024638182,1
745,507,68,0.110554106567419,1
746,505,68,0.11335329867362,1
746,506,68,0.117926947262037,1
746,507,68,0.11349723080119,1
747,505,68,0.106326513020682,1
747,506,68,0.107588908427846,1
747,507,68,0.104027279822884,1
750,504,68,0.12175511353907,1
750,505,68,0.108659375741467,1
750,506,68,0.106532785249072,1
751,504,68,0.136998902260984,1
751,505,68,0.118064800421106,1
751,506,68,0.122282578385678,1
751,507,68,0.119719707574176,1
752,504,68,0.14659440345844,1
752,505,68,0.116489432945787,1
752,506,68,0.121661586656733,1
752,507,68,0.138403333603708,1
752,508,68,0.12776061017585,1
753,504,68,0.13980946036517,1
753,505,68,0.112125034722622,1
753,506,68,0.109688952232112,1
753,507,68,0.134786793508973,1
753,508,68,0.146017659927734,1
753,509,68,0.117166786193688,1
754,504,68,0.139854690121625,1
754,505,68,0.114742170087799,1
754,506,68,0.106778542887535,1
754,507,68,0.128832750600067,1
754,508,68,0.143209700722007,1
754,509,68,0.12033792193953,1
755,504,68,0.132152581261643,1
755,505,68,0.11441575736452,1
755,506,68,0.106994229151547,1
755,507,68,0.119779437622466,1
755,508,68,0.12514966531988,1
755,509,68,0.105979364880079,1
756,504,68,0.117415689280073,1
756,505,68,0.110213082011598,1
756,506,68,0.103370673146379,1
757,504,68,0.109581159293424,1
757,505,68,0.109226917163893,1
757,506,68,0.104038199658043,1
758,504,68,0.106327014953861,1
758,505,68,0.108978705629888,1
758,506,68,0.106778174803204,1
759,506,68,0.105121906853516,1
759,507,68,0.107420649272206,1
760,507,68,0.11447374737779,1
761,505,68,0.105714623013382,1
761,506,68,0.104430633325454,1
761,507,68,0.108380680132396,1
762,505,68,0.139355378149318,1
762,506,68,0.107047266757452,1
763,505,68,0.135075014694373,1
763,506,68,0.103826283469908,1
775,522,68,0.129706080869154,1
775,523,68,0.136597578799271,1
776,522,68,0.113375294500927,1
776,523,68,0.129931248093212,1
776,543,68,0.105610990543044,1
776,544,68,0.106212607651282,1
776,552,68,0.105360737814111,1
777,527,68,0.107806825505987,1
777,528,68,0.142582172707667,1
777,529,68,0.153822430853908,1
777,530,68,0.122689367342005,1
777,539,68,0.109089164391459,1
777,540,68,0.111955213997092,1
777,542,68,0.107143961395851,1
777,543,68,0.141338025360073,1
777,544,68,0.167453251728368,1
777,545,68,0.145913224364309,1
777,546,68,0.106042675385045,1
777,550,68,0.105268995583077,1
777,551,68,0.110052363007712,1
778,528,68,0.118256594665802,1
778,529,68,0.130303771744526,1
778,530,68,0.110491141838642,1
778,538,68,0.113823955838447,1
778,539,68,0.15157250980242,1
778,543,68,0.143998840065886,1
778,544,68,0.162017125781599,1
778,545,68,0.149629392618022,1
778,546,68,0.118435706732178,1
778,550,68,0.109898983382309,1
779,538,68,0.132304577782287,1
779,544,68,0.129192458224213,1
779,546,68,0.113245003801753,1
780,538,68,0.146553099934851,1
738,508,69,0.105996597919222,1
741,507,69,0.115702100561353,1
742,507,69,0.110793305612345,1
743,506,69,0.121950878632914,1
744,506,69,0.114479402491605,1
745,506,69,0.116602780611655,1
746,506,69,0.111475321261773,1
747,506,69,0.103673996943428,1
750,505,69,0.104846256305731,1
751,505,69,0.11120056303964,1
751,506,69,0.112275681600718,1
751,507,69,0.110869666379962,1
752,505,69,0.110288528145423,1
752,506,69,0.10825502952661,1
752,507,69,0.122319308740303,1
752,508,69,0.125173836190962,1
753,505,69,0.107776709515252,1
753,507,69,0.124531495570808,1
753,508,69,0.149260616734443,1
753,509,69,0.12409189133865,1
754,505,69,0.108913655089901,1
754,507,69,0.121685623678968,1
754,508,69,0.147430177971674,1
754,509,69,0.124807636897701,1
755,505,69,0.111165873879942,1
755,506,69,0.103129432906525,1
755,507,69,0.110958430474135,1
755,508,69,0.124891392814155,1
755,509,69,0.107024925153955,1
756,505,69,0.111778355052986,1
756,506,69,0.1051223307082,1
757,505,69,0.110071146462674,1
757,506,69,0.108744748998164,1
758,505,69,0.10379436051973,1
758,506,69,0.10793815353373,1
758,507,69,0.111197317205083,1
758,508,69,0.115098274947127,1
759,506,69,0.105443344861288,1
759,507,69,0.114654978717587,1
759,508,69,0.109520034986304,1
760,507,69,0.117817492366823,1
760,508,69,0.104834834537393,1
761,506,69,0.104450855655529,1
761,507,69,0.110835222609819,1
762,506,69,0.103902744624162,1
775,523,69,0.107056803487851,1
775,548,69,0.112832325496126,1
776,523,69,0.110549589168808,1
776,543,69,0.120118632910701,1
776,544,69,0.109399136014611,1
776,548,69,0.112222041674999,1
777,528,69,0.107854520312053,1
777,529,69,0.115284659467562,1
777,530,69,0.107062023592912,1
777,538,69,0.114755432277792,1
777,539,69,0.118099366886027,1
777,540,69,0.106387057316129,1
777,542,69,0.124207458664576,1
777,543,69,0.170301209431418,1
777,544,69,0.176073998692386,1
777,545,69,0.141972190046446,1
777,546,69,0.106974263365097,1
777,549,69,0.103595985373355,1
777,550,69,0.117137205598344,1
778,538,69,0.135760867344102,1
778,539,69,0.156359290372672,1
778,543,69,0.166501396801958,1
778,544,69,0.180410835206994,1
778,545,69,0.153742801943592,1
778,546,69,0.117426999507704,1
779,538,69,0.13666025352221,1
779,544,69,0.143417489904004,1
780,538,69,0.12973188023455,1
780,539,69,0.138734230263385,1
752,507,70,0.107305148870704,1
752,508,70,0.11515579648943,1
753,507,70,0.114339976608575,1
753,508,70,0.138287587812652,1
753,509,70,0.123155373259374,1
754,507,70,0.11479376881859,1
754,508,70,0.140204927939796,1
754,509,70,0.126458573201622,1
755,507,70,0.107878702337206,1
755,508,70,0.122927651753139,1
755,509,70,0.111492944693388,1
756,506,70,0.107504092874682,1
756,507,70,0.105075416687079,1
756,508,70,0.109534189501949,1
757,506,70,0.111481154840719,1
757,507,70,0.114097152490691,1
757,508,70,0.121222897058368,1
757,509,70,0.103482303085368,1
758,506,70,0.108616343336929,1
758,507,70,0.122950461827603,1
758,508,70,0.137060026568104,1
758,509,70,0.110481861651868,1
759,506,70,0.104880019677565,1
759,507,70,0.120657764915201,1
759,508,70,0.125965897901348,1
760,507,70,0.115869266618071,1
760,508,70,0.111644539667489,1
761,507,70,0.105856435867529,1
775,548,70,0.12784829232517,1
775,549,70,0.107101107456443,1
776,542,70,0.112577968069197,1
776,543,70,0.128948317925992,1
776,544,70,0.113943326702461,1
776,547,70,0.106719872475957,1
776,548,70,0.128560970514794,1
776,549,70,0.112579819644924,1
777,537,70,0.10314810482078,1
777,538,70,0.126870470722305,1
777,539,70,0.124926940837292,1
777,540,70,0.106936696455174,1
777,541,70,0.105913979717973,1
777,542,70,0.13879334683779,1
777,543,70,0.180095643478782,1
777,544,70,0.170228161422781,1
777,545,70,0.135153606276119,1
777,546,70,0.111038929401961,1
777,548,70,0.109510821723954,1
778,537,70,0.111328611770614,1
778,538,70,0.148076511749118,1
778,539,70,0.155500159235512,1
778,540,70,0.137472046783563,1
778,541,70,0.126431848048363,1
778,542,70,0.144921002856245,1
778,543,70,0.179661482433097,1
778,544,70,0.184893589273746,1
779,538,70,0.137808520478561,1
779,539,70,0.154623560823727,1
