x,y,z,signal,mito.p
887,334,7,0.114867865309868,1
887,335,7,0.119428709025187,1
887,336,7,0.104618044020388,1
888,333,7,0.128773087476201,1
888,334,7,0.12042680872848,1
888,335,7,0.125572884222264,1
888,336,7,0.107095396572274,1
890,357,7,0.105383045955396,1
891,356,7,0.104202242574981,1
891,357,7,0.114750267943085,1
892,356,7,0.114592627462696,1
892,357,7,0.131127600248102,1
893,355,7,0.116180275569792,1
893,356,7,0.142156109517269,1
894,355,7,0.1284591450039,1
895,354,7,0.10465124968869,1
895,355,7,0.130555496810784,1
896,355,7,0.126240488812423,1
897,348,7,0.116526430998108,1
897,349,7,0.117568455431591,1
898,348,7,0.10384193263102,1
898,349,7,0.111788594489836,1
898,350,7,0.103589315239111,1
899,341,7,0.111999618352319,1
899,342,7,0.148539494913342,1
899,343,7,0.127918284118451,1
900,341,7,0.128211625022275,1
900,342,7,0.169053693554491,1
900,343,7,0.141941728279522,1
900,353,7,0.111725451295929,1
900,354,7,0.112036661020922,1
901,342,7,0.119255754005806,1
901,343,7,0.104910157976441,1
901,353,7,0.105574048261076,1
901,354,7,0.105148598544563,1
901,355,7,0.113282213781416,1
886,335,8,0.112122190434608,1
887,333,8,0.124875687882691,1
887,335,8,0.111916955534788,1
887,336,8,0.104886645195527,1
887,355,8,0.105684473560436,1
887,356,8,0.106220002800118,1
887,357,8,0.105479394817605,1
888,332,8,0.144015180779377,1
888,333,8,0.114054097778011,1
888,335,8,0.109968127466221,1
888,355,8,0.103515040282703,1
888,356,8,0.106760194441329,1
888,357,8,0.110046518274695,1
889,354,8,0.105041151382065,1
889,355,8,0.112082838873382,1
889,356,8,0.115181540084473,1
889,357,8,0.118108580148378,1
889,358,8,0.120491190024228,1
890,354,8,0.102986627340091,1
890,355,8,0.112834935548657,1
890,356,8,0.120895235079177,1
890,357,8,0.125459480786043,1
890,358,8,0.127633643389727,1
891,355,8,0.113340025329556,1
891,356,8,0.123284225083435,1
891,357,8,0.13499839738313,1
891,358,8,0.149217941260165,1
892,334,8,0.107318890685735,1
892,355,8,0.116221623709664,1
892,356,8,0.129830961844066,1
892,357,8,0.155306703034291,1
893,334,8,0.10908708973432,1
893,355,8,0.127634881491569,1
893,356,8,0.152482380806932,1
894,354,8,0.109723964859859,1
894,355,8,0.140750663154116,1
895,354,8,0.108194641388152,1
895,355,8,0.138440030496121,1
897,348,8,0.116232108536067,1
897,349,8,0.121661419345674,1
898,348,8,0.108345410961025,1
898,349,8,0.124858399073195,1
898,350,8,0.109420228362196,1
899,341,8,0.107581591357505,1
899,342,8,0.147555795115249,1
899,343,8,0.129677983765206,1
899,354,8,0.107311473228758,1
900,341,8,0.129319358085911,1
900,342,8,0.176333341988892,1
900,343,8,0.154255409568105,1
900,344,8,0.106386622307374,1
900,353,8,0.109351374284121,1
900,354,8,0.109815595550186,1
900,355,8,0.120310259844337,1
901,342,8,0.117385974835881,1
901,343,8,0.110535981202625,1
901,355,8,0.106028152785069,1
901,356,8,0.123772483371735,1
902,355,8,0.110705511922318,1
903,354,8,0.105508863872242,1
875,348,9,0.114492988149648,1
878,338,9,0.104807283982906,1
879,337,9,0.120590617409934,1
879,338,9,0.111626905081804,1
880,336,9,0.114741723924973,1
880,337,9,0.124396085153209,1
881,336,9,0.103815285556255,1
881,337,9,0.105191619795031,1
886,332,9,0.103169687947473,1
887,332,9,0.133442036444186,1
887,357,9,0.115366284956523,1
887,358,9,0.11771117176546,1
888,332,9,0.112916672578324,1
888,354,9,0.103188147934387,1
888,355,9,0.121837508658905,1
888,356,9,0.127359810955457,1
888,357,9,0.124127997065319,1
888,358,9,0.125677163628699,1
889,354,9,0.131018892675622,1
889,355,9,0.14876310056751,1
889,356,9,0.147400318524565,1
889,357,9,0.139037040973185,1
889,358,9,0.134585919850775,1
889,359,9,0.142110310903211,1
890,335,9,0.108741592396172,1
890,353,9,0.106350650429552,1
890,354,9,0.15072413118936,1
890,355,9,0.159360906552892,1
890,356,9,0.153268798557573,1
890,357,9,0.147537167817276,1
890,358,9,0.144029179138033,1
890,359,9,0.144370951016586,1
891,334,9,0.117100876790262,1
891,335,9,0.131935868823132,1
891,353,9,0.10693488949573,1
891,354,9,0.149038673036801,1
891,355,9,0.154880215989209,1
891,356,9,0.153162622959129,1
892,336,9,0.110644566080328,1
892,354,9,0.115526635876078,1
892,355,9,0.137764194201829,1
892,356,9,0.155690302677753,1
893,334,9,0.129558300587213,1
893,335,9,0.132756105715961,1
893,354,9,0.107996757020885,1
893,355,9,0.145889198496146,1
894,354,9,0.125696895179666,1
895,354,9,0.116567834908333,1
897,348,9,0.108358494685888,1
897,349,9,0.113834663746263,1
898,348,9,0.108302880489665,1
898,349,9,0.127183989339921,1
898,350,9,0.105589942811741,1
899,342,9,0.123875792374024,1
899,343,9,0.116748051227702,1
900,341,9,0.116803598499501,1
900,342,9,0.161434548671947,1
900,343,9,0.153394315314512,1
900,344,9,0.109435676750036,1
900,354,9,0.103429399328311,1
900,355,9,0.115291943075691,1
901,342,9,0.108840272459145,1
901,343,9,0.11411294665472,1
901,356,9,0.118054371365056,1
901,357,9,0.135483064060683,1
902,337,9,0.12188065260415,1
902,356,9,0.12260106056473,1
903,338,9,0.115496352574284,1
904,341,9,0.108604620408683,1
904,342,9,0.108693239499937,1
905,341,9,0.142840913684358,1
905,342,9,0.14250877892284,1
873,349,10,0.154283863602313,1
874,346,10,0.109792361621038,1
874,347,10,0.129845908298727,1
874,348,10,0.154540072604969,1
874,349,10,0.168036631931106,1
875,346,10,0.107855903416813,1
875,347,10,0.124752546942799,1
875,348,10,0.144814503789752,1
875,349,10,0.154175970276989,1
876,347,10,0.112881258404035,1
876,348,10,0.126930022305464,1
876,349,10,0.131284593792394,1
876,350,10,0.122919085426885,1
876,351,10,0.113363928502943,1
877,337,10,0.117173567868638,1
877,338,10,0.135229732808253,1
877,339,10,0.114824922137894,1
877,348,10,0.112454280579844,1
877,349,10,0.116300025672209,1
877,350,10,0.112300175939849,1
877,351,10,0.108738937727359,1
877,352,10,0.107681286440906,1
878,336,10,0.105159239527956,1
878,337,10,0.162669806225239,1
878,338,10,0.178687497830533,1
878,339,10,0.134560845499971,1
878,349,10,0.107512436119522,1
878,350,10,0.107192660068275,1
878,351,10,0.109522098489373,1
878,352,10,0.110128946856743,1
878,353,10,0.109681880551325,1
879,336,10,0.130218041557569,1
879,337,10,0.180101108973396,1
879,338,10,0.167738650933895,1
879,339,10,0.115382101428694,1
879,351,10,0.105612094796037,1
879,352,10,0.110157713204929,1
879,353,10,0.107225084951633,1
879,354,10,0.109527965530531,1
880,336,10,0.13697227749436,1
880,337,10,0.161093133723654,1
880,338,10,0.12760381740483,1
881,336,10,0.117126821158576,1
881,337,10,0.125425762030491,1
881,355,10,0.103771918529597,1
882,356,10,0.110157668588647,1
887,331,10,0.108539380249496,1
887,332,10,0.112741096352342,1
887,357,10,0.124660704325129,1
888,354,10,0.106525044324046,1
888,355,10,0.139153277543349,1
888,356,10,0.148347455279092,1
888,357,10,0.134050669462858,1
889,335,10,0.118652363400335,1
889,336,10,0.103855429056497,1
889,354,10,0.15350001128792,1
889,355,10,0.186158561271229,1
889,356,10,0.179283850217429,1
889,357,10,0.157654891448138,1
889,358,10,0.144290463242831,1
890,332,10,0.106995154939411,1
890,333,10,0.110541123229191,1
890,334,10,0.124393820876869,1
890,335,10,0.145306710619059,1
890,336,10,0.11939248060374,1
890,353,10,0.123807239455856,1
891,331,10,0.106300390187238,1
891,332,10,0.122219658273184,1
891,333,10,0.133100844577306,1
891,336,10,0.142836329361324,1
891,353,10,0.121945691990066,1
891,354,10,0.193565934968556,1
892,354,10,0.12075516226005,1
892,355,10,0.150338802664948,1
893,336,10,0.139812115033983,1
893,354,10,0.104837333049217,1
893,355,10,0.154913611276712,1
894,335,10,0.135834885756885,1
894,336,10,0.108069046552718,1
894,354,10,0.133759291675467,1
895,333,10,0.103044773510349,1
895,334,10,0.110355363336713,1
895,335,10,0.112183894753402,1
895,354,10,0.122969624520966,1
897,349,10,0.104577565898026,1
898,348,10,0.108909873859954,1
898,349,10,0.12183238894048,1
898,354,10,0.108776616177989,1
899,345,10,0.102991167046842,1
899,354,10,0.112682637868106,1
900,342,10,0.121474900976392,1
900,343,10,0.125159592442751,1
900,351,10,0.111298473471738,1
900,354,10,0.111792554184914,1
900,355,10,0.132576826338526,1
901,336,10,0.105237942650409,1
901,337,10,0.103277480886161,1
901,354,10,0.104651294304972,1
901,355,10,0.124850936999935,1
901,356,10,0.133483574203258,1
902,334,10,0.105675472225427,1
902,338,10,0.110046741356108,1
902,355,10,0.109291923087597,1
904,339,10,0.118869566617955,1
904,341,10,0.104629599637573,1
905,340,10,0.117618526054704,1
905,341,10,0.15553207103162,1
905,342,10,0.15837046969613,1
906,342,10,0.17069087688931,1
906,343,10,0.106715611620971,1
907,342,10,0.123635377535398,1
872,349,11,0.152457284147987,1
873,346,11,0.121197186925537,1
873,347,11,0.151921810678657,1
873,348,11,0.180761374185072,1
873,349,11,0.191149271715035,1
873,350,11,0.17039656558134,1
874,345,11,0.1062478210523,1
874,346,11,0.129463714068165,1
874,347,11,0.162643382231887,1
874,348,11,0.195841967699418,1
874,349,11,0.208763467759516,1
874,350,11,0.18239731941805,1
875,345,11,0.110129984185312,1
875,346,11,0.12666550352018,1
875,347,11,0.151214631445859,1
875,348,11,0.177391651365513,1
875,349,11,0.186202151379299,1
875,350,11,0.165614313563769,1
875,351,11,0.139950202428536,1
876,344,11,0.104277655246594,1
876,345,11,0.109413915158212,1
876,346,11,0.115699167040774,1
876,347,11,0.128997953540351,1
876,348,11,0.146966246711445,1
876,349,11,0.151717245023076,1
876,350,11,0.140754700927689,1
876,351,11,0.127478936429918,1
876,352,11,0.126375765381173,1
877,337,11,0.144194337462035,1
877,338,11,0.169346532525136,1
877,339,11,0.138629627388901,1
877,340,11,0.109316138574961,1
877,344,11,0.104456466153062,1
877,345,11,0.106137875377978,1
877,346,11,0.107084878283658,1
877,347,11,0.114134719400614,1
877,348,11,0.127505605812823,1
877,349,11,0.133054410181222,1
877,350,11,0.129910456905534,1
877,351,11,0.130217048845282,1
877,352,11,0.135112793531638,1
877,353,11,0.139898581389603,1
878,336,11,0.12157332449574,1
878,337,11,0.207208121841,1
878,338,11,0.230252097166054,1
878,339,11,0.164739131718956,1
878,340,11,0.109310327304157,1
878,347,11,0.103645342135947,1
878,348,11,0.116503977853905,1
878,349,11,0.124497129879159,1
878,350,11,0.125424222768742,1
878,351,11,0.134282752210715,1
878,352,11,0.144830833349172,1
878,353,11,0.147782088900442,1
878,354,11,0.144303234653717,1
879,336,11,0.140685768771119,1
879,337,11,0.21059277996115,1
879,338,11,0.197663025888776,1
879,339,11,0.131298435994061,1
879,349,11,0.107620619450683,1
879,350,11,0.111106567686336,1
879,351,11,0.128330560877534,1
879,352,11,0.145258257336188,1
879,353,11,0.145938722569798,1
879,354,11,0.140589040670508,1
879,355,11,0.135191273572678,1
880,336,11,0.141886114083299,1
880,337,11,0.172896795132114,1
880,338,11,0.133288255272239,1
880,351,11,0.111028344188921,1
880,352,11,0.12588413856354,1
880,353,11,0.122299655267831,1
880,354,11,0.119860115015423,1
880,355,11,0.125500628152642,1
881,336,11,0.128096793865011,1
881,337,11,0.138588178862394,1
881,338,11,0.104655577468099,1
881,352,11,0.103674699649878,1
881,355,11,0.11421329982829,1
881,356,11,0.131231444645783,1
882,336,11,0.10508724000196,1
882,337,11,0.111132891293052,1
882,357,11,0.136194292221124,1
883,336,11,0.108561978396618,1
883,337,11,0.113142129808219,1
883,338,11,0.109773176619533,1
884,336,11,0.115884848854758,1
884,337,11,0.112947178961531,1
885,329,11,0.104053324577834,1
886,329,11,0.10321668004709,1
886,358,11,0.135290578263607,1
887,357,11,0.136604505477139,1
887,358,11,0.134075911124722,1
888,354,11,0.105364675201048,1
888,355,11,0.150332634463883,1
888,356,11,0.166797247371677,1
888,357,11,0.145740447810059,1
888,358,11,0.136898906017675,1
889,335,11,0.126496418963312,1
889,336,11,0.113190995791703,1
890,331,11,0.109293216959791,1
890,332,11,0.12210985760178,1
890,333,11,0.129215658691149,1
890,335,11,0.152804599599649,1
890,336,11,0.130214204557268,1
891,330,11,0.109436345994274,1
891,331,11,0.125032659118841,1
891,336,11,0.157811494599957,1
891,353,11,0.114014824295279,1
892,330,11,0.109733970061225,1
892,354,11,0.109450879748321,1
893,355,11,0.141173670129158,1
894,336,11,0.119000805413133,1
894,354,11,0.118105747014435,1
895,332,11,0.110463022426553,1
895,335,11,0.132939512099534,1
895,354,11,0.115190061794444,1
896,334,11,0.110615532034446,1
896,335,11,0.10786296394353,1
897,348,11,0.109820291413927,1
897,349,11,0.109998366151732,1
898,348,11,0.113148866866887,1
898,349,11,0.117315302644291,1
898,353,11,0.114896073954522,1
898,354,11,0.120528266155043,1
899,345,11,0.119468417516674,1
899,346,11,0.114361225113149,1
899,353,11,0.110020506981957,1
899,354,11,0.12918666926155,1
899,355,11,0.138306616657168,1
900,350,11,0.106696605084596,1
900,351,11,0.113707116948468,1
900,354,11,0.136080911093044,1
901,332,11,0.105482105256771,1
901,336,11,0.111646692403123,1
901,337,11,0.104439277730202,1
901,348,11,0.103685965261227,1
901,354,11,0.135803342045109,1
902,338,11,0.115659101619027,1
902,354,11,0.11392524595395,1
902,355,11,0.133522133825469,1
905,340,11,0.113892642605462,1
905,341,11,0.154665399742707,1
905,342,11,0.162661262207126,1
906,341,11,0.176058818002242,1
906,342,11,0.180065627874683,1
906,343,11,0.104437983858007,1
907,341,11,0.131804797339014,1
907,342,11,0.122121547067813,1
908,342,11,0.10633931789378,1
872,346,12,0.118914829836621,1
872,348,12,0.173021062633141,1
872,349,12,0.179409668134275,1
872,350,12,0.168449287928592,1
873,342,12,0.114761589324787,1
873,343,12,0.114646468161687,1
873,344,12,0.107038588890492,1
873,345,12,0.106747088408324,1
873,346,12,0.135004442889418,1
873,347,12,0.184416585442724,1
873,348,12,0.223703832297745,1
873,349,12,0.228836221746851,1
873,350,12,0.20104409239818,1
873,351,12,0.167990978319967,1
874,341,12,0.105604588106495,1
874,342,12,0.121880641450079,1
874,343,12,0.116411845230399,1
874,344,12,0.108401794788122,1
874,345,12,0.112922249613645,1
874,346,12,0.144929903804618,1
874,347,12,0.19761481799546,1
874,348,12,0.242448560326256,1
874,349,12,0.247540103568669,1
874,350,12,0.211584176067987,1
874,351,12,0.170619446220916,1
875,341,12,0.105301710472271,1
875,342,12,0.116222114488772,1
875,343,12,0.110290190101949,1
875,344,12,0.109250842645421,1
875,345,12,0.11825533425582,1
875,346,12,0.141177975600426,1
875,347,12,0.17748328205584,1
875,348,12,0.212891098525155,1
875,349,12,0.217002265882527,1
875,350,12,0.189251964298765,1
875,351,12,0.15569215425348,1
876,337,12,0.103078826888021,1
876,338,12,0.106965485111502,1
876,341,12,0.112109597488853,1
876,342,12,0.113653220479124,1
876,343,12,0.109314744316131,1
876,344,12,0.114236656452215,1
876,345,12,0.122057500394185,1
876,346,12,0.131641245201184,1
876,347,12,0.146174196155129,1
876,348,12,0.166423920627276,1
876,349,12,0.170709058024457,1
876,350,12,0.160228871714,1
876,351,12,0.149899968063665,1
876,352,12,0.14945606951431,1
877,336,12,0.106531379836171,1
877,337,12,0.159482798236872,1
877,338,12,0.179351354652956,1
877,339,12,0.150728748974606,1
877,340,12,0.122182492909803,1
877,341,12,0.112957507630946,1
877,342,12,0.107957740081778,1
877,343,12,0.109687301429657,1
877,344,12,0.118780021738838,1
877,345,12,0.125644437585435,1
877,346,12,0.128516086534529,1
877,347,12,0.131144420586631,1
877,348,12,0.143480488094993,1
877,349,12,0.152594133440698,1
877,350,12,0.153316593750276,1
877,351,12,0.160521086056689,1
877,352,12,0.169130433560511,1
877,353,12,0.169490141184657,1
878,336,12,0.134240957908017,1
878,337,12,0.224084966891595,1
878,338,12,0.240182120096146,1
878,339,12,0.175426516045666,1
878,340,12,0.121182452398219,1
878,343,12,0.106153401844312,1
878,344,12,0.112997885366671,1
878,345,12,0.11847984338971,1
878,346,12,0.120050079992533,1
878,347,12,0.120827373713389,1
878,348,12,0.135816983473504,1
878,349,12,0.150654552096693,1
878,350,12,0.15535061661041,1
878,351,12,0.170355083592621,1
878,352,12,0.184304141256578,1
878,353,12,0.179261430535437,1
878,354,12,0.161717471673791,1
879,336,12,0.137373266333954,1
879,337,12,0.203851928909129,1
879,338,12,0.189181225182751,1
879,339,12,0.131464955114681,1
879,343,12,0.103265869498623,1
879,347,12,0.105585079636941,1
879,348,12,0.122884976278861,1
879,349,12,0.134971538381023,1
879,350,12,0.142433834722194,1
879,351,12,0.166939796394487,1
879,352,12,0.187596544058445,1
879,353,12,0.1785922978376,1
879,354,12,0.155992120675266,1
879,355,12,0.146338049452866,1
880,336,12,0.129702924267162,1
880,337,12,0.154654479907548,1
880,338,12,0.121146737064022,1
880,349,12,0.105599412617717,1
880,350,12,0.115784718762601,1
880,351,12,0.143502796236277,1
880,352,12,0.16180894620713,1
880,353,12,0.149967662118394,1
880,354,12,0.132595085552168,1
880,355,12,0.132921821743495,1
881,336,12,0.127342064829065,1
881,337,12,0.13569292789982,1
881,351,12,0.117960297933258,1
881,352,12,0.126078520552624,1
881,353,12,0.116748731626011,1
881,354,12,0.113063962081157,1
881,355,12,0.122109790677356,1
881,356,12,0.139645785532564,1
882,336,12,0.117331732590347,1
882,337,12,0.119931835689653,1
883,335,12,0.106046478923134,1
883,336,12,0.136724422890616,1
883,337,12,0.133892036270182,1
883,338,12,0.112188534846789,1
884,333,12,0.108000594021186,1
884,334,12,0.108984327281492,1
884,335,12,0.122566772951575,1
884,336,12,0.155933439109616,1
884,337,12,0.143591816874074,1
885,328,12,0.119906884033626,1
885,329,12,0.105159574150075,1
885,332,12,0.108828605301253,1
885,333,12,0.119220696761777,1
885,334,12,0.113358429546116,1
885,335,12,0.110866398237264,1
885,336,12,0.12161100294637,1
885,337,12,0.107269857391191,1
886,328,12,0.112694282717856,1
886,330,12,0.103808715808646,1
886,332,12,0.106009893571427,1
886,333,12,0.112997238430574,1
886,334,12,0.10714377177665,1
886,358,12,0.146928947499217,1
887,357,12,0.161864303859728,1
887,358,12,0.150101533274244,1
888,354,12,0.1082178753173,1
888,357,12,0.163759536618859,1
888,358,12,0.145377962822323,1
889,331,12,0.107578155903747,1
889,332,12,0.110450552175575,1
889,333,12,0.103039598021571,1
889,335,12,0.113702209157385,1
889,336,12,0.104340597667229,1
890,330,12,0.102921788727446,1
890,331,12,0.116364172732473,1
890,335,12,0.132065869516469,1
890,336,12,0.11567774007107,1
891,330,12,0.120137684063358,1
891,336,12,0.139276608102442,1
893,329,12,0.105378472786432,1
893,330,12,0.117486595707146,1
893,355,12,0.1212112968249,1
894,336,12,0.108928110765454,1
896,335,12,0.112808065392479,1
897,348,12,0.104487206771752,1
897,349,12,0.108979185254925,1
898,346,12,0.103917322994491,1
898,353,12,0.117151460500625,1
898,354,12,0.118865227684475,1
899,345,12,0.120339539279774,1
899,346,12,0.122716906742422,1
899,353,12,0.112951640589788,1
899,354,12,0.133901282994745,1
900,350,12,0.106853308623051,1
900,351,12,0.104491467626738,1
901,333,12,0.11305238415583,1
901,334,12,0.110822518123357,1
901,337,12,0.108719429257805,1
901,347,12,0.10920638251984,1
901,348,12,0.110157980902625,1
902,354,12,0.13025347804,1
905,341,12,0.146964205516518,1
905,342,12,0.153558659391357,1
906,341,12,0.17220254346719,1
906,342,12,0.173691043040346,1
907,342,12,0.127491841689651,1
908,342,12,0.127044931541222,1
909,342,12,0.142869557337768,1
909,343,12,0.104708670844357,1
910,343,12,0.110433129517231,1
869,356,13,0.235496027321584,2
869,357,13,0.246879827202922,2
870,351,13,0.13872354466371,1
870,352,13,0.143809700490003,1
870,357,13,0.259770988190873,1
871,348,13,0.153324769684057,1
871,349,13,0.152814404027744,1
871,351,13,0.153013113796238,1
871,352,13,0.148666785167513,1
871,357,13,0.226992944648772,1
872,347,13,0.169277299208659,1
872,348,13,0.195501947009955,1
872,349,13,0.199310549047081,1
872,350,13,0.188560077296817,1
872,351,13,0.166258316140449,1
873,341,13,0.117848746072763,1
873,342,13,0.142629019804365,1
873,343,13,0.143402755376686,1
873,344,13,0.126085993779955,1
873,345,13,0.114685128170533,1
873,346,13,0.142197669584482,1
873,347,13,0.203030342373752,1
873,348,13,0.251583231095122,1
873,349,13,0.254570268905012,1
873,350,13,0.227078474062458,1
873,351,13,0.188801919856485,1
873,352,13,0.17379754210684,1
874,341,13,0.120654775624269,1
874,342,13,0.147489986098459,1
874,343,13,0.141108809208372,1
874,344,13,0.124132971780826,1
874,345,13,0.121027522356996,1
874,346,13,0.151706325187917,1
874,347,13,0.213844838489503,1
874,348,13,0.269161644880982,1
874,349,13,0.271137655419705,1
874,350,13,0.232964521756729,1
874,351,13,0.186620953269709,1
874,352,13,0.174692533581114,1
874,353,13,0.175290715235595,1
874,354,13,0.16998383150536,1
874,355,13,0.165978304351042,1
875,336,13,0.105245058947479,1
875,341,13,0.116046794806415,1
875,342,13,0.135774464156216,1
875,343,13,0.127896455602203,1
875,344,13,0.120025630269685,1
875,345,13,0.12542175771913,1
875,346,13,0.146823820383413,1
875,347,13,0.185516164880721,1
875,348,13,0.227168532028825,1
875,349,13,0.231886949300109,1
875,350,13,0.203390306541523,1
875,351,13,0.169188557422628,1
875,355,13,0.183020106952368,1
876,336,13,0.104782064629184,1
876,337,13,0.121359188647548,1
876,338,13,0.124512578266998,1
876,339,13,0.11604948293744,1
876,340,13,0.111299510800308,1
876,341,13,0.119377311067667,1
876,342,13,0.126229122814438,1
876,343,13,0.121089817841534,1
876,344,13,0.122655704356807,1
876,345,13,0.130799101713613,1
876,346,13,0.141992970080053,1
876,347,13,0.154443790667184,1
876,348,13,0.174133982339626,1
876,349,13,0.180527339474854,1
876,350,13,0.17398837710146,1
876,351,13,0.168758434150516,1
877,336,13,0.125424568544932,1
877,337,13,0.175421630562725,1
877,338,13,0.19089498121253,1
877,339,13,0.1683601892123,1
877,340,13,0.136325229856395,1
877,341,13,0.119704973046858,1
877,342,13,0.114652725595317,1
877,343,13,0.117031096924323,1
877,344,13,0.127367886502602,1
877,345,13,0.138386089410495,1
877,346,13,0.145998441464017,1
877,347,13,0.146740756019339,1
877,348,13,0.157502839157141,1
877,349,13,0.169951205848731,1
877,350,13,0.176782114867118,1
877,351,13,0.190650595524755,1
877,352,13,0.197511375144323,1
878,336,13,0.147638424470568,1
878,337,13,0.225464123110244,1
878,338,13,0.23416106353082,1
878,339,13,0.183592913096137,1
878,340,13,0.133372100421258,1
878,341,13,0.108174943299397,1
878,343,13,0.11043379876147,1
878,344,13,0.122226841494678,1
878,345,13,0.13192141314758,1
878,346,13,0.138071488848026,1
878,347,13,0.138860438572704,1
878,348,13,0.154984506549715,1
878,349,13,0.174359651496863,1
878,350,13,0.18705888439127,1
878,351,13,0.21147484386755,1
878,352,13,0.226912256101745,1
878,353,13,0.2055082414751,1
879,336,13,0.131094996899615,1
879,337,13,0.181336823843584,1
879,338,13,0.169893215835461,1
879,339,13,0.131533184564801,1
879,340,13,0.106511670593346,1
879,343,13,0.103514951050138,1
879,344,13,0.107120169763171,1
879,345,13,0.108558955643473,1
879,346,13,0.111906314551395,1
879,347,13,0.121526421628689,1
879,348,13,0.146784569208822,1
879,349,13,0.166103988419041,1
879,350,13,0.181266330117124,1
879,351,13,0.216396265224526,1
879,352,13,0.242587406197612,3
879,353,13,0.215642406206089,1
879,354,13,0.168536646609863,1
880,336,13,0.115876862540178,1
880,337,13,0.131879819618154,1
880,338,13,0.112420483745797,1
880,348,13,0.124658016194104,1
880,349,13,0.140578388533044,1
880,350,13,0.15508044271131,1
880,351,13,0.187910508838887,1
880,352,13,0.211352595253309,1
880,353,13,0.187316175338778,1
880,354,13,0.147664781539496,1
881,336,13,0.123501060216723,1
881,337,13,0.129866666024192,1
881,338,13,0.104381678109405,1
881,349,13,0.105920895241772,1
881,350,13,0.119263550701185,1
881,351,13,0.143197609709431,1
881,352,13,0.154096754067287,1
881,353,13,0.139710523758572,1
881,354,13,0.122925443247152,1
882,336,13,0.128075143813894,1
882,337,13,0.128518551584141,1
882,338,13,0.10422046832641,1
882,351,13,0.105343270539485,1
882,352,13,0.110898678117703,1
882,353,13,0.110308415853379,1
883,335,13,0.121609318681703,1
883,336,13,0.154978918360323,1
883,337,13,0.144030852248629,1
883,338,13,0.108184290410596,1
884,333,13,0.11414367611934,1
884,334,13,0.122984715978545,1
884,335,13,0.146086145921478,1
884,336,13,0.17566898323329,1
884,337,13,0.15074357273449,1
885,327,13,0.103422851888844,1
885,328,13,0.11823276957091,1
885,329,13,0.10332243179085,1
885,332,13,0.109609702560198,1
885,333,13,0.128727177321436,1
885,334,13,0.137989617969511,1
885,335,13,0.138835419992253,1
885,336,13,0.136085729651562,1
885,337,13,0.109369811962892,1
886,328,13,0.106283000991106,1
886,332,13,0.104064166334498,1
886,333,13,0.12676621362401,1
886,334,13,0.136069177010729,1
886,335,13,0.118618666952925,1
887,333,13,0.11829110536037,1
887,334,13,0.12424937566205,1
887,335,13,0.105439284779575,1
888,332,13,0.106072334058883,1
888,333,13,0.112860132594238,1
888,334,13,0.110909698339498,1
888,354,13,0.103566694783848,1
889,331,13,0.115677862765847,1
889,332,13,0.12380765215647,1
889,333,13,0.122963857866444,1
889,334,13,0.111266360902359,1
889,335,13,0.104976011609514,1
890,335,13,0.118680795126403,1
891,336,13,0.118241079353539,1
891,354,13,0.125628688037688,1
892,355,13,0.104984421778778,1
893,355,13,0.103057901851495,1
896,335,13,0.113711310879029,1
897,349,13,0.110484873250941,1
898,346,13,0.103654533090157,1
898,354,13,0.104920977424964,1
899,345,13,0.107200813693915,1
899,346,13,0.116371813270863,1
899,353,13,0.103318349400995,1
899,354,13,0.122922420494008,1
900,334,13,0.109978500751918,1
900,335,13,0.111428251083663,1
900,336,13,0.102992538997531,1
902,354,13,0.132692460588876,1
905,341,13,0.129456341227471,1
905,342,13,0.122280381033761,1
906,342,13,0.150074930815761,1
908,343,13,0.106121902748818,1
909,343,13,0.124433841682334,1
868,355,14,0.268653510038797,1
868,356,14,0.278181718728068,2
868,357,14,0.274211159585215,2
868,358,14,0.272052824607772,2
868,359,14,0.252407606148159,2
869,351,14,0.130072079389142,1
869,352,14,0.140521926627453,1
869,355,14,0.261402315638605,2
869,356,14,0.308049352925592,2
869,357,14,0.307444356133949,2
869,358,14,0.267938154872219,2
870,350,14,0.135913332335713,1
870,351,14,0.155676047775472,1
870,352,14,0.166819187428631,1
870,353,14,0.157049258874469,1
870,356,14,0.263149288490757,2
870,357,14,0.287322345770658,2
870,358,14,0.254388390629117,1
871,348,14,0.162695627898776,1
871,349,14,0.160325231730279,1
871,350,14,0.165833580284457,1
871,351,14,0.170364397241607,1
871,352,14,0.170069996701072,1
871,353,14,0.159649863906953,1
871,356,14,0.194676456549853,1
871,357,14,0.224746559437678,1
871,358,14,0.213862685002531,1
872,341,14,0.119918105028692,1
872,342,14,0.148109840112197,1
872,343,14,0.148467807701324,1
872,344,14,0.126591730496951,1
872,346,14,0.136205758605745,1
872,347,14,0.176139796555105,1
872,348,14,0.204298894827911,1
872,349,14,0.209563571554836,1
872,350,14,0.20225415290589,1
872,351,14,0.183455115707421,1
872,352,14,0.169586757744561,1
872,357,14,0.174480383157496,1
873,340,14,0.111666568957008,1
873,341,14,0.147797927680754,1
873,342,14,0.194825965712744,1
873,343,14,0.19073402797316,1
873,344,14,0.145676601909702,1
873,345,14,0.113652852394792,1
873,346,14,0.133401022926434,1
873,347,14,0.200418036721164,1
873,348,14,0.261577144541854,1
873,349,14,0.268393464035841,1
873,350,14,0.240505744301765,1
873,351,14,0.204370347804446,1
873,352,14,0.182215887304981,1
873,353,14,0.173441046855038,1
873,354,14,0.161946185892314,1
873,355,14,0.155569437168272,1
874,337,14,0.115492459803629,1
874,338,14,0.107286298491318,1
874,339,14,0.103349792726136,1
874,340,14,0.112632544936851,1
874,341,14,0.150460103183184,1
874,342,14,0.200068222757677,1
874,343,14,0.189501257777622,1
874,344,14,0.144208101585208,1
874,345,14,0.119486821733234,1
874,346,14,0.140574763460086,1
874,347,14,0.20602219874216,1
874,348,14,0.273735906943284,1
874,349,14,0.281095028131012,1
874,350,14,0.241091868405881,1
874,351,14,0.196183862272748,1
874,352,14,0.17552937888513,1
874,353,14,0.17447471688961,1
874,354,14,0.176421972234217,1
874,355,14,0.174268801591481,1
874,356,14,0.170232913056875,1
875,335,14,0.133662942813258,1
875,336,14,0.119422261972356,1
875,337,14,0.119120120506795,1
875,338,14,0.123053703905468,1
875,339,14,0.116341094960314,1
875,340,14,0.115560778486314,1
875,341,14,0.137281100248236,1
875,342,14,0.167996443814582,1
875,343,14,0.156794064892241,1
875,344,14,0.131888999418293,1
875,345,14,0.125246248417572,1
875,346,14,0.139210475617603,1
875,347,14,0.174430223301817,1
875,348,14,0.21807990526357,1
875,349,14,0.229575602781593,1
875,350,14,0.206960233775043,1
875,351,14,0.179330786546692,1
875,353,14,0.166276608816302,1
875,354,14,0.177139201284663,1
875,355,14,0.182589459438936,1
875,356,14,0.180161920966539,1
876,334,14,0.104711526286441,1
876,335,14,0.119249820040224,1
876,336,14,0.130538709934467,1
876,337,14,0.1538340980118,1
876,338,14,0.167958363817408,1
876,339,14,0.154527624662132,1
876,340,14,0.133892560511502,1
876,341,14,0.129219227993755,1
876,342,14,0.137608059520976,1
876,343,14,0.133773791967302,1
876,344,14,0.13171964716373,1
876,345,14,0.139559274560661,1
876,346,14,0.146787792735238,1
876,347,14,0.151616300683762,1
876,348,14,0.164119088086016,1
876,349,14,0.176660044718008,1
876,350,14,0.183225364160329,1
876,351,14,0.187232854431079,1
876,355,14,0.171476368852088,1
877,335,14,0.117542477601065,1
877,336,14,0.154216816483682,1
877,337,14,0.198340412598889,1
877,338,14,0.219119531571865,1
877,339,14,0.195652036184519,1
877,340,14,0.151412571583479,1
877,341,14,0.12127971589422,1
877,342,14,0.117573095524978,1
877,343,14,0.126628438543435,1
877,344,14,0.141487177592703,1
877,345,14,0.156984331029259,1
877,346,14,0.160467245357698,1
877,347,14,0.152422182287675,1
877,348,14,0.155506472439496,1
877,349,14,0.173809655427557,1
877,350,14,0.197394837414251,1
877,351,14,0.221263277024908,1
877,352,14,0.224994335962928,1
878,335,14,0.106490544783549,1
878,336,14,0.155011131316338,1
878,337,14,0.211171185448382,1
878,338,14,0.219796985206401,1
878,339,14,0.180829190934578,1
878,340,14,0.134389295893491,1
878,341,14,0.107398051125084,1
878,342,14,0.105117512149683,1
878,343,14,0.120098232115496,1
878,344,14,0.139351942695561,1
878,345,14,0.152071319841548,1
878,346,14,0.153539485543923,1
878,347,14,0.148900072554999,1
878,348,14,0.161474312933787,1
878,349,14,0.190085931852555,1
878,350,14,0.224232713711324,1
878,351,14,0.26289722880238,3
878,352,14,0.277654175802966,3
878,353,14,0.225830712795977,1
879,336,14,0.120913471984678,1
879,337,14,0.152968441743315,1
879,338,14,0.14937394209217,1
879,339,14,0.125256911709106,1
879,340,14,0.104316214868804,1
879,343,14,0.107648214621452,1
879,344,14,0.120420406291931,1
879,345,14,0.124659265450016,1
879,346,14,0.125301561453888,1
879,347,14,0.136125025442435,1
879,348,14,0.170952417537733,1
879,349,14,0.211825483232264,1
879,350,14,0.246162308146639,3
879,351,14,0.288231759458273,3
879,352,14,0.311323808827796,3
879,353,14,0.24589476660821,3
880,332,14,0.105226409341365,1
880,333,14,0.108691622159694,1
880,336,14,0.10410343981723,1
880,337,14,0.116502784368346,1
880,338,14,0.111519067526833,1
880,347,14,0.113105488686158,1
880,348,14,0.163073092803385,1
880,349,14,0.212624873167063,1
880,350,14,0.235549009157135,3
880,351,14,0.257350108698649,3
880,352,14,0.271048400546425,3
880,353,14,0.218366609495362,1
880,354,14,0.155684246017394,1
881,332,14,0.120841717848235,1
881,333,14,0.125370036293561,1
881,334,14,0.103726454537659,1
881,336,14,0.117591678206668,1
881,337,14,0.125456402262545,1
881,338,14,0.111222692715794,1
881,348,14,0.122816055276362,1
881,349,14,0.159220744501199,1
881,350,14,0.170198034277976,1
881,351,14,0.176608646760488,1
881,352,14,0.179707760672192,1
881,353,14,0.15568520526747,1
881,354,14,0.127999552677151,1
882,332,14,0.116482472805707,1
882,333,14,0.118440904529097,1
882,334,14,0.108659208430407,1
882,335,14,0.114092155467043,1
882,336,14,0.13778089184558,1
882,337,14,0.137512881836185,1
882,338,14,0.110680348338949,1
882,351,14,0.106833108601118,1
882,352,14,0.112966508965954,1
882,353,14,0.114946836130016,1
883,332,14,0.108091020071884,1
883,333,14,0.113763311156364,1
883,334,14,0.118737201261641,1
883,335,14,0.146966581333565,1
883,336,14,0.176071410947997,1
883,337,14,0.154419340944336,1
883,338,14,0.106740407120009,1
884,332,14,0.114722538923468,1
884,333,14,0.125937845413683,1
884,334,14,0.144006870996748,1
884,335,14,0.185215997685664,1
884,336,14,0.200429971576751,1
884,337,14,0.155667180289312,1
885,328,14,0.108719830804349,1
885,329,14,0.104887972529933,1
885,332,14,0.116648824615267,1
885,333,14,0.141009303744172,1
885,336,14,0.170434132491263,1
885,337,14,0.120948852696755,1
886,332,14,0.107900731626725,1
886,333,14,0.146113350699775,1
886,336,14,0.128847295508184,1
887,332,14,0.103331555820636,1
887,336,14,0.1046350985944,1
888,331,14,0.106166095176703,1
888,332,14,0.11851336137199,1
888,335,14,0.125132699978432,1
889,335,14,0.12181520051762,1
897,349,14,0.110269688920108,1
899,335,14,0.109310873853618,1
899,354,14,0.107090711862604,1
900,336,14,0.120449440337813,1
902,354,14,0.118115707599518,1
903,354,14,0.131623309455591,1
867,355,15,0.222736038204387,1
867,356,15,0.228082496577262,2
867,357,15,0.238792077504551,2
867,358,15,0.261262242819478,2
867,359,15,0.27374868950824,2
868,354,15,0.227762419366108,1
868,355,15,0.292537186109952,2
868,356,15,0.338546054399206,2
868,357,15,0.340040878330416,2
868,358,15,0.316472304754909,2
868,359,15,0.31320712903948,2
868,360,15,0.257510102687944,2
869,351,15,0.13984575571104,1
869,352,15,0.150887281780647,1
869,354,15,0.206873298948457,1
869,355,15,0.295441326866828,2
869,356,15,0.386722604777101,2
869,357,15,0.390272008520639,2
869,358,15,0.316633882622235,2
869,359,15,0.284599614818709,2
870,350,15,0.147467979117081,1
870,351,15,0.164215459256366,1
870,352,15,0.17914669976481,1
870,353,15,0.165673441292245,1
870,355,15,0.236604741943437,2
870,356,15,0.314812958281723,2
870,357,15,0.33172315400354,2
870,358,15,0.270951003201575,2
870,359,15,0.233799939339702,1
871,342,15,0.112709307251011,1
871,343,15,0.115197780411328,1
871,346,15,0.161886723541719,1
871,348,15,0.164134703784915,1
871,349,15,0.167134568776044,1
871,350,15,0.176986803217476,1
871,351,15,0.182479814924521,1
871,352,15,0.184457063565085,1
871,353,15,0.170058786860076,1
871,355,15,0.17741434989927,1
871,356,15,0.211428376009254,2
871,357,15,0.231134897241116,2
871,358,15,0.207370882039814,1
872,339,15,0.126259517656938,1
872,340,15,0.115475784468019,1
872,341,15,0.138494361974221,1
872,342,15,0.181666705482833,1
872,343,15,0.175157245626288,1
872,344,15,0.131620420551295,1
872,345,15,0.10928260943861,1
872,346,15,0.13167764093369,1
872,347,15,0.174457238460913,1
872,348,15,0.206147771269452,1
872,349,15,0.216434902925231,1
872,350,15,0.213170641843595,1
872,351,15,0.197004221860354,1
872,352,15,0.181391958414769,1
872,353,15,0.167762654493917,1
872,354,15,0.153334317568527,1
872,355,15,0.148137111814918,1
872,356,15,0.160348175653591,1
872,357,15,0.176171697197143,1
873,337,15,0.147770522129185,1
873,338,15,0.143351982047122,1
873,339,15,0.130562568491571,1
873,340,15,0.132871940739583,1
873,341,15,0.179985028560221,1
873,342,15,0.253043276634069,1
873,343,15,0.239904406045292,1
873,344,15,0.159017651182943,1
873,345,15,0.111725585144777,1
873,346,15,0.126974973210153,1
873,347,15,0.190307317846665,1
873,348,15,0.257668691264337,1
873,349,15,0.273823577938533,1
873,350,15,0.249503978478533,1
873,351,15,0.217512274608579,1
873,352,15,0.189053577998319,1
873,353,15,0.173250267630771,1
873,354,15,0.163702885094066,1
873,355,15,0.160162103447134,1
873,356,15,0.162031670689717,1
874,335,15,0.140504403582473,1
874,336,15,0.129259683807975,1
874,337,15,0.132037337403766,1
874,338,15,0.139989788225245,1
874,339,15,0.142960083775101,1
874,340,15,0.147138086323762,1
874,341,15,0.189206790312663,1
874,342,15,0.261361759437749,1
874,343,15,0.240701163619419,1
874,344,15,0.158229794557188,1
874,345,15,0.117704434706792,1
874,346,15,0.131505712088809,1
874,347,15,0.185485134256194,1
874,348,15,0.255786107221315,1
874,349,15,0.277753937810791,1
874,350,15,0.250307272338056,1
874,351,15,0.215215696079594,1
874,352,15,0.187472443868478,1
874,353,15,0.175971057774427,1
874,354,15,0.180944122478477,1
874,355,15,0.183382792713376,1
874,356,15,0.177253976671574,1
874,357,15,0.18545519673059,1
875,334,15,0.150018491218311,1
875,335,15,0.151492713581045,1
875,336,15,0.13765552009156,1
875,337,15,0.148899068688641,1
875,338,15,0.179515531418742,1
875,340,15,0.172257176105197,1
875,341,15,0.173753561606297,1
875,342,15,0.205167172302997,1
875,343,15,0.18625581361316,1
875,344,15,0.142797412808853,1
875,345,15,0.128834903335701,1
875,346,15,0.136097363347242,1
875,347,15,0.156671035493056,1
875,348,15,0.193130123120416,1
875,349,15,0.217570721938745,1
875,350,15,0.215738888917146,1
875,351,15,0.201333072060383,1
875,353,15,0.173298107439756,1
875,354,15,0.175926675727341,1
875,355,15,0.180725971164854,1
875,356,15,0.182810031185889,1
875,357,15,0.199942851003657,1
876,333,15,0.103507109738476,1
876,334,15,0.124090039762923,1
876,335,15,0.14061703738782,1
876,336,15,0.159614282421604,1
876,337,15,0.198185192551829,1
876,340,15,0.190401815133147,1
876,341,15,0.153578580561524,1
876,342,15,0.149800931070431,1
876,343,15,0.144929256868521,1
876,344,15,0.140632987708839,1
876,345,15,0.146803006887594,1
876,346,15,0.147863290534718,1
876,347,15,0.143810202423182,1
876,348,15,0.151760433584603,1
876,349,15,0.174733547098866,1
876,350,15,0.196686955475002,1
876,351,15,0.20518510804859,1
876,352,15,0.196124522616931,1
876,354,15,0.158926712044995,1
876,355,15,0.164963384309221,1
876,356,15,0.176712301538967,1
877,335,15,0.134188355310868,1
877,336,15,0.184296813032166,1
877,337,15,0.234289446883914,1
877,340,15,0.178325102075362,1
877,341,15,0.136106509685169,1
877,342,15,0.126668883203585,1
877,343,15,0.134325260373933,1
877,344,15,0.146097177297344,1
877,345,15,0.158680095543092,1
877,346,15,0.156623619538755,1
877,347,15,0.148325637916916,1
877,348,15,0.152771672783113,1
877,349,15,0.179258441244505,1
877,350,15,0.217799514235762,1
877,351,15,0.247592170770428,3
877,352,15,0.244186788387024,3
877,353,15,0.197460155651933,1
878,335,15,0.111811304177663,1
878,336,15,0.157494629761149,1
878,337,15,0.198426722797519,1
878,338,15,0.21139411070424,1
878,339,15,0.176632851093782,1
878,340,15,0.138227935842856,1
878,341,15,0.118544057374398,1
878,342,15,0.115024156147709,1
878,343,15,0.124381417550314,1
878,344,15,0.138064484091663,1
878,345,15,0.149370138554081,1
878,346,15,0.149875094486132,1
878,347,15,0.151584511582432,1
878,348,15,0.165531293815978,1
878,349,15,0.204016116828985,1
878,350,15,0.264025284582728,3
878,351,15,0.319883286481775,3
878,352,15,0.32686156308149,3
878,353,15,0.245190699361122,3
878,354,15,0.178668379753452,1
879,336,15,0.112392855112816,1
879,337,15,0.131844572754924,1
879,338,15,0.138776269955636,1
879,339,15,0.123931551573166,1
879,340,15,0.10838266555697,1
879,343,15,0.104915054613453,1
879,344,15,0.117157885245315,1
879,345,15,0.12595030451059,1
879,346,15,0.129780779680246,1
879,347,15,0.146758200985824,1
879,348,15,0.18716914237957,1
879,349,15,0.252616432658726,3
879,350,15,0.313894621337594,3
879,351,15,0.358702062369815,3
879,352,15,0.366579780917991,3
879,353,15,0.265655028152428,3
879,354,15,0.174055781150352,1
880,332,15,0.113525651373187,1
880,333,15,0.117995622874982,1
880,337,15,0.108724615900654,1
880,338,15,0.11613525774068,1
880,339,15,0.111962029134254,1
880,347,15,0.12621422097606,1
880,348,15,0.200135838733911,1
880,349,15,0.294891609649288,3
880,350,15,0.325001264871611,3
880,351,15,0.312499447873503,3
880,352,15,0.29898941443003,3
880,353,15,0.226525053693465,1
880,354,15,0.159508619910409,1
881,332,15,0.131818739927317,1
881,333,15,0.139990803245674,1
881,334,15,0.110172458886319,1
881,336,15,0.110981932100978,1
881,337,15,0.120465557969891,1
881,338,15,0.115087277033474,1
881,339,15,0.10520168076675,1
881,348,15,0.152851469004488,1
881,349,15,0.221384387923943,1
881,350,15,0.222306048781123,3
881,351,15,0.194600742718333,3
881,352,15,0.184150828555599,1
881,353,15,0.161211690340512,1
881,354,15,0.134556896958963,1
882,332,15,0.124331079229505,1
882,333,15,0.128135264254657,1
882,334,15,0.114999706424861,1
882,335,15,0.117341626251007,1
882,336,15,0.139256240769449,1
882,337,15,0.140539092742171,1
882,338,15,0.11171383990839,1
882,349,15,0.104157113205161,1
882,350,15,0.105126981955658,1
882,351,15,0.10463371548964,1
882,352,15,0.112199242754606,1
882,353,15,0.119372771360915,1
883,332,15,0.118817878654598,1
883,333,15,0.120361434720445,1
883,334,15,0.121632374145721,1
883,335,15,0.154220006547886,1
883,336,15,0.185830843521685,1
883,337,15,0.162133986979719,1
883,338,15,0.106167333278545,1
884,332,15,0.128330103560638,1
884,333,15,0.133530822846499,1
884,337,15,0.166039529044798,1
885,337,15,0.140640873636783,1
886,332,15,0.117458219751432,1
886,337,15,0.10534909296436,1
888,354,15,0.106742303312018,1
890,354,15,0.103252205762086,1
899,335,15,0.117682539266121,1
867,355,16,0.232759911484865,2
867,356,16,0.257587199624224,2
867,357,16,0.257256347580829,2
867,358,16,0.261231948363613,2
867,359,16,0.289106617835038,2
868,354,16,0.210260009417605,2
868,355,16,0.301815365151703,2
868,356,16,0.395535257526521,2
868,357,16,0.392110600909048,2
868,358,16,0.340723217447893,2
868,359,16,0.355618831854705,2
868,360,16,0.287914961543888,2
869,351,16,0.136352657716105,1
869,352,16,0.137389093960196,1
869,354,16,0.193823995546938,2
869,355,16,0.309491708108501,2
869,356,16,0.449625495385739,2
869,357,16,0.458220554525068,2
869,358,16,0.368059413004986,2
869,359,16,0.345523996376801,2
869,360,16,0.289298088611685,2
870,350,16,0.144379673499829,1
870,351,16,0.149854704844998,1
870,352,16,0.156478237382002,1
870,353,16,0.148183735830203,1
870,354,16,0.169062639119146,1
870,355,16,0.2425024567956,2
870,356,16,0.344977402299041,2
870,357,16,0.366277907150125,2
870,358,16,0.305330771287923,2
870,359,16,0.271981728561497,2
871,342,16,0.10882524792599,1
871,343,16,0.114925431468453,1
871,349,16,0.160912225851906,1
871,350,16,0.166805579462447,1
871,351,16,0.170575911883199,1
871,352,16,0.17054016308679,1
871,353,16,0.159131378087213,1
871,355,16,0.178612665170593,1
871,356,16,0.216856102940829,2
871,357,16,0.233884754892867,2
871,358,16,0.215622351187074,2
872,339,16,0.150566613403749,1
872,340,16,0.117998857555469,1
872,341,16,0.133537704908086,1
872,342,16,0.189867289759823,1
872,343,16,0.185545868170842,1
872,344,16,0.132123837221598,1
872,345,16,0.108894247006984,1
872,346,16,0.133768114545345,1
872,347,16,0.171981124010868,1
872,348,16,0.195972158011956,1
872,349,16,0.20543879623128,1
872,350,16,0.19842759281503,1
872,351,16,0.185771403479231,1
872,352,16,0.171828324397138,1
872,353,16,0.159852979533351,1
872,354,16,0.151779440120978,1
872,355,16,0.150716981430079,1
872,356,16,0.159855723434729,1
872,357,16,0.171521687841108,1
873,338,16,0.176528426684428,1
873,339,16,0.159536962403911,1
873,340,16,0.141704949667925,1
873,341,16,0.18412515188498,1
873,342,16,0.279976274845581,1
873,343,16,0.266606782692202,1
873,344,16,0.162524111754508,1
873,345,16,0.112286211043404,1
873,346,16,0.129730028658823,1
873,347,16,0.179550845206395,1
873,348,16,0.232608796135802,1
873,349,16,0.252800296359195,1
873,350,16,0.232635788986756,1
873,351,16,0.208286252001152,1
873,352,16,0.181438247807935,1
873,353,16,0.16626683785042,1
873,354,16,0.165981505569317,1
873,355,16,0.168501790139106,1
873,356,16,0.16630852061241,1
873,357,16,0.175654795255433,1
874,336,16,0.125230498869825,1
874,337,16,0.139010527747268,1
874,338,16,0.167653969229578,1
874,340,16,0.178595097509332,1
874,341,16,0.207086654011704,1
874,342,16,0.294810296474305,1
874,343,16,0.270538146430818,1
874,344,16,0.162809745195518,1
874,345,16,0.11592968821874,1
874,346,16,0.126134435908755,1
874,347,16,0.162082377094857,1
874,348,16,0.218339192789723,1
874,349,16,0.25263820540462,1
874,350,16,0.244723544574477,1
874,351,16,0.227707206716428,1
874,352,16,0.197042257241245,1
874,353,16,0.174597344742252,1
874,354,16,0.177263401861266,1
874,355,16,0.18335334596688,1
874,356,16,0.176774708564211,1
874,357,16,0.191199241951513,1
875,334,16,0.156661944925482,1
875,335,16,0.152544564750763,1
875,336,16,0.143432715210431,1
875,337,16,0.158772640867212,1
875,341,16,0.203053587456971,1
875,342,16,0.224955809802929,1
875,343,16,0.20071540424449,1
875,344,16,0.149255987795127,1
875,345,16,0.130740799386365,1
875,346,16,0.131402737708638,1
875,347,16,0.138206151942892,1
875,348,16,0.167095562991008,1
875,349,16,0.205769179803708,1
875,350,16,0.225636007338843,1
875,351,16,0.225451117463875,1
875,352,16,0.203759483971645,1
875,353,16,0.179876432528447,1
875,354,16,0.170124863574562,1
875,355,16,0.172816641980478,1
875,356,16,0.177312111687762,1
876,333,16,0.110003385483521,1
876,334,16,0.126208432013396,1
876,335,16,0.140329340443741,1
876,336,16,0.167562271614827,1
876,341,16,0.171229886199033,1
876,342,16,0.149838453364072,1
876,343,16,0.143623650591688,1
876,344,16,0.144102818312414,1
876,345,16,0.145562105374558,1
876,346,16,0.140474744908635,1
876,347,16,0.132161794523994,1
876,348,16,0.143311961241657,1
876,349,16,0.177456735367711,1
876,350,16,0.207137248876138,1
876,351,16,0.214041819377048,1
876,352,16,0.199601424901293,1
876,355,16,0.15474672407176,1
877,335,16,0.126119578686659,1
877,336,16,0.187591814732493,1
877,341,16,0.13879891271904,1
877,342,16,0.12296377978795,1
877,343,16,0.126358153103629,1
877,344,16,0.134836328736696,1
877,345,16,0.140541814335408,1
877,346,16,0.137055553785776,1
877,347,16,0.135322322748656,1
877,348,16,0.146917737658222,1
877,349,16,0.178737579607718,1
877,350,16,0.222550724474735,1
877,351,16,0.250639886724613,3
877,352,16,0.236505113784459,3
877,353,16,0.184760208897004,1
878,336,16,0.143316322483278,1
878,337,16,0.177760393786879,1
878,340,16,0.123478149755623,1
878,341,16,0.11447532010175,1
878,342,16,0.108987907738168,1
878,343,16,0.10950988478202,1
878,344,16,0.113784001957406,1
878,345,16,0.122746955808732,1
878,346,16,0.127871682411307,1
878,347,16,0.142070323559958,1
878,348,16,0.159339200731421,1
878,349,16,0.200270379134,1
878,350,16,0.276033400106062,3
878,351,16,0.341658129340997,3
878,352,16,0.331688754849678,3
878,353,16,0.232295299826327,3
878,354,16,0.163477149012405,1
879,337,16,0.110815948375749,1
879,338,16,0.12024831013599,1
879,339,16,0.112189449480582,1
879,345,16,0.108452345036273,1
879,346,16,0.119517818895549,1
879,347,16,0.145504951916586,1
879,348,16,0.183148534921744,1
879,349,16,0.255567755134419,3
879,350,16,0.329401701897022,3
879,351,16,0.36707462010797,3
879,352,16,0.352385646013879,3
879,353,16,0.239773301098961,3
879,354,16,0.154232889499478,1
880,332,16,0.107480568939697,1
880,333,16,0.111749901018777,1
880,338,16,0.114460507495937,1
880,339,16,0.113612541583491,1
880,347,16,0.128888978270175,1
880,348,16,0.205138796347283,1
880,349,16,0.321950247312516,3
880,350,16,0.350015852165197,3
880,351,16,0.301004731913697,3
880,352,16,0.263485249098506,3
880,353,16,0.193463139053516,1
880,354,16,0.140559025066409,1
881,332,16,0.125656762833494,1
881,333,16,0.138248916649735,1
881,334,16,0.106538261897757,1
881,336,16,0.105677245722659,1
881,337,16,0.119738279101796,1
881,338,16,0.119429579042697,1
881,339,16,0.110285628087056,1
881,348,16,0.154823174071943,1
881,349,16,0.241363403101599,1
881,350,16,0.235403805465512,3
881,351,16,0.179235508475264,3
881,352,16,0.156183580297842,1
881,353,16,0.140320071411037,1
881,354,16,0.12397798596925,1
882,332,16,0.120756177280479,1
882,333,16,0.131552157638963,1
882,334,16,0.116307866983871,1
882,335,16,0.115998821148582,1
882,336,16,0.142457414427532,1
882,337,16,0.152815653283656,1
882,338,16,0.119632226198128,1
882,349,16,0.104428870982293,1
882,350,16,0.103419751057205,1
882,353,16,0.10496240364333,1
882,354,16,0.111470123464854,1
883,332,16,0.131775105202963,1
883,333,16,0.138354947245261,1
883,334,16,0.130829842332304,1
883,337,16,0.186963171311088,1
883,338,16,0.116456305355979,1
884,338,16,0.112396859424177,1
885,356,16,0.114173613644944,1
886,329,16,0.106510309796727,1
886,355,16,0.114431785764033,1
887,329,16,0.109513342543919,1
887,330,16,0.11475747347272,1
888,330,16,0.11228926725876,1
904,341,16,0.104748468568409,1
866,358,17,0.202277397989108,1
866,359,17,0.207648886096504,1
867,355,17,0.227900305987389,1
867,356,17,0.266239836076209,2
867,357,17,0.253563970959797,2
867,358,17,0.244783085003566,2
867,359,17,0.280767566925093,2
867,360,17,0.228967572082735,2
868,354,17,0.181633722895943,1
868,355,17,0.28704735331304,2
868,356,17,0.404187470123822,2
868,357,17,0.393290612350447,2
868,358,17,0.346376948158824,2
868,359,17,0.376660963813429,2
868,360,17,0.303454745838439,2
868,361,17,0.200001008327986,2
869,354,17,0.169531020853561,1
869,355,17,0.286483269652513,2
869,356,17,0.443980955629018,2
869,357,17,0.465419347101383,2
869,358,17,0.416877768607645,2
869,359,17,0.413180551119953,2
869,360,17,0.327840912792033,2
869,361,17,0.211337581874225,2
870,351,17,0.138832174157696,1
870,352,17,0.134570783776913,1
870,354,17,0.155879029553022,1
870,355,17,0.224863074859608,2
870,356,17,0.32784780600769,2
870,357,17,0.365176732680026,2
870,358,17,0.350272462714396,2
870,359,17,0.326776591371336,2
870,360,17,0.25950179584999,2
871,350,17,0.154052918569663,1
871,351,17,0.156353367561161,1
871,352,17,0.152998167341577,1
871,353,17,0.143367017734348,1
871,354,17,0.152849204728148,1
871,355,17,0.174907807144512,1
871,356,17,0.208173328189968,2
871,357,17,0.228340222533525,2
871,358,17,0.232785365074071,2
871,359,17,0.221018177476612,2
872,342,17,0.174924872872595,1
872,343,17,0.18303108255788,1
872,344,17,0.134281023329765,1
872,348,17,0.194225698247053,1
872,349,17,0.1923259146271,1
872,350,17,0.178040907509465,1
872,351,17,0.169068026535266,1
872,352,17,0.157477842884832,1
872,353,17,0.145937160999908,1
872,354,17,0.149998112731247,1
872,355,17,0.157418904775557,1
872,356,17,0.163383800595199,1
872,357,17,0.172770207584393,1
873,340,17,0.150399971588351,1
873,341,17,0.175619414543355,1
873,342,17,0.259377807200729,1
873,343,17,0.250069512168243,1
873,344,17,0.153144452978052,1
873,345,17,0.124725431397067,1
873,346,17,0.169345662507626,1
873,347,17,0.210405034644097,1
873,348,17,0.219798256770454,1
873,349,17,0.226966977972317,1
873,350,17,0.207770844704908,1
873,351,17,0.188524852741729,1
873,352,17,0.162489991452413,1
873,353,17,0.146247846483581,1
873,354,17,0.152793077444676,1
873,355,17,0.163710503324315,1
873,356,17,0.166157550266266,1
874,341,17,0.216755403991069,1
874,342,17,0.278387042860453,1
874,343,17,0.250972411878603,1
874,344,17,0.151082243781405,1
874,345,17,0.119286461162285,1
874,346,17,0.140808642013315,1
874,347,17,0.165467514840045,1
874,348,17,0.194242920132125,1
874,349,17,0.22936873938746,1
874,350,17,0.239989913150837,1
874,351,17,0.234167755973206,1
874,352,17,0.193677877221523,1
874,353,17,0.157427671875082,1
874,354,17,0.152906648191956,1
874,355,17,0.163795597729245,1
874,356,17,0.167602426269139,1
875,335,17,0.150319405736101,1
875,336,17,0.146714097790504,1
875,342,17,0.213435216399232,1
875,343,17,0.190443598281773,1
875,344,17,0.149850265524882,1
875,345,17,0.136800984431505,1
875,346,17,0.136229940630897,1
875,347,17,0.134868318611299,1
875,348,17,0.157350351857389,1
875,349,17,0.205993108925925,1
875,350,17,0.244347830858959,1
875,351,17,0.250355011760406,1
875,352,17,0.213034182943356,1
875,354,17,0.152571345674376,1
875,355,17,0.155310183104331,1
876,334,17,0.122230957346745,1
876,335,17,0.130569060160685,1
876,342,17,0.141066657975415,1
876,343,17,0.14377736483921,1
876,344,17,0.156703828460744,1
876,345,17,0.154546095803116,1
876,346,17,0.142108582022262,1
876,347,17,0.128703764927158,1
876,348,17,0.143927286702715,1
876,349,17,0.186819718808556,1
876,350,17,0.218169204753133,1
876,351,17,0.214813948763196,1
876,352,17,0.188766494528125,1
877,335,17,0.109861249161325,1
877,341,17,0.133262533985338,1
877,342,17,0.119038818485882,1
877,343,17,0.127561220009046,1
877,344,17,0.144201308756186,1
877,346,17,0.133232295299826,1
877,347,17,0.127711420724317,1
877,348,17,0.140855187950106,1
877,349,17,0.173380736795075,1
877,350,17,0.211561756385995,1
877,351,17,0.22759680372521,3
877,352,17,0.203007588069642,1
878,336,17,0.126523768744527,1
878,340,17,0.105161838426416,1
878,341,17,0.107113376934149,1
878,342,17,0.107598980553636,1
878,343,17,0.109566960161497,1
878,344,17,0.116325836191675,1
878,345,17,0.122539099702311,1
878,346,17,0.12390315330931,1
878,347,17,0.134551922243457,1
878,348,17,0.151549855884946,1
878,349,17,0.18702084901038,1
878,350,17,0.259363128443764,3
878,351,17,0.318119270209681,3
878,352,17,0.290889462178376,3
878,353,17,0.199132373922639,1
879,338,17,0.103677064312854,1
879,345,17,0.108515398997615,1
879,346,17,0.11880506262743,1
879,347,17,0.141156113621967,1
879,348,17,0.172516597480197,1
879,349,17,0.231092087917991,3
879,350,17,0.297245877031636,3
879,351,17,0.326138221600331,3
879,352,17,0.293853344137612,3
879,353,17,0.198440955391659,1
880,338,17,0.109427110423782,1
880,339,17,0.110850927541283,1
880,347,17,0.126989964281096,1
880,348,17,0.187112780860614,1
880,349,17,0.287911325316858,1
880,350,17,0.312627675069608,3
880,351,17,0.253364736949983,3
880,352,17,0.206183441987366,1
880,353,17,0.155332190085709,1
880,354,17,0.119540283193823,1
881,332,17,0.115181718549603,1
881,333,17,0.125628308799286,1
881,336,17,0.103205704441578,1
881,337,17,0.121394558205555,1
881,338,17,0.121823543762461,1
881,339,17,0.112979938467008,1
881,348,17,0.134256261292939,1
881,349,17,0.215714327653591,1
881,350,17,0.219480744995548,1
881,351,17,0.156514744655215,1
881,352,17,0.125501676635283,1
881,353,17,0.116752769399584,1
881,354,17,0.108668064762497,1
882,332,17,0.112653648438506,1
882,333,17,0.125593586177376,1
882,334,17,0.113283251109986,1
882,335,17,0.111277548435213,1
882,336,17,0.141862500915749,1
882,337,17,0.164956747637189,1
882,338,17,0.129958921342475,1
883,334,17,0.139442669906166,1
883,338,17,0.133997966479073,1
885,338,17,0.114978312917369,1
885,356,17,0.10295293089268,1
886,355,17,0.103566650167565,1
904,341,17,0.118131590996113,1
866,358,18,0.182088953981071,1
866,359,18,0.186339904151732,1
867,355,18,0.204989532573946,1
867,356,18,0.24887397426051,2
867,357,18,0.23824771424092,2
867,358,18,0.22784250559332,2
867,359,18,0.253689454254524,2
867,360,18,0.213084643958942,2
868,354,18,0.158459992267106,1
868,355,18,0.245896015864122,2
868,356,18,0.35799145883733,2
868,357,18,0.359170756418208,2
868,358,18,0.354136991261723,2
868,359,18,0.383884161496309,2
868,360,18,0.298232164574118,2
868,361,18,0.190345799390381,2
869,354,18,0.153816284960984,1
869,355,18,0.242780371619725,2
869,356,18,0.385250222836023,2
869,357,18,0.436559126256138,2
869,358,18,0.479795293356966,2
869,359,18,0.489542032598262,2
869,360,18,0.350794495528601,2
869,361,18,0.207003266179582,2
870,351,18,0.143005570075181,1
870,352,18,0.134844716597819,1
870,354,18,0.152744066458273,1
870,355,18,0.201844084652793,2
870,356,18,0.288208558991337,2
870,357,18,0.349291908364223,2
870,358,18,0.409818178832947,2
870,359,18,0.394278149148842,2
870,360,18,0.276633533722905,2
871,350,18,0.14837657855754,1
871,351,18,0.155528735964498,1
871,352,18,0.153385280517292,1
871,353,18,0.141212742838618,1
871,354,18,0.155083454310384,1
871,355,18,0.175573214382755,1
871,356,18,0.198911902562322,2
871,357,18,0.21955404954781,2
871,358,18,0.248796319620697,2
871,359,18,0.2389537222963,2
871,360,18,0.191535157942979,1
872,347,18,0.230727215959137,1
872,348,18,0.195193046177585,1
872,349,18,0.179385486109122,1
872,350,18,0.16375592269997,1
872,351,18,0.162467159069808,1
872,352,18,0.155625218675555,1
872,353,18,0.138969926930129,1
872,354,18,0.148558891842189,1
872,355,18,0.160821297868029,1
872,356,18,0.161432239779324,1
872,357,18,0.162958150105415,1
872,358,18,0.189937448864163,1
872,359,18,0.205294083318766,1
873,342,18,0.211632540118292,1
873,343,18,0.215907783854813,1
873,344,18,0.148174154483521,1
873,346,18,0.223519143196048,1
873,347,18,0.266139717138122,1
873,348,18,0.22362405838451,1
873,349,18,0.209790824590104,1
873,350,18,0.194362090222868,1
873,351,18,0.179949513999296,1
873,352,18,0.153341523098162,1
873,354,18,0.135028379525017,1
873,355,18,0.145737726216822,1
873,356,18,0.149477674949144,1
874,342,18,0.229648104240769,1
874,343,18,0.209332213821571,1
874,344,18,0.143482440057355,1
874,345,18,0.133961961139039,1
874,346,18,0.172956547488545,1
874,347,18,0.198349625861239,1
874,348,18,0.199158496756084,1
874,349,18,0.229482667065001,1
874,350,18,0.254442108633331,1
874,351,18,0.24687059163243,1
874,352,18,0.187898194744898,1
874,354,18,0.126017608172846,1
874,355,18,0.132530168861029,1
875,343,18,0.17097945500497,1
875,344,18,0.155304494528304,1
875,345,18,0.153439310835484,1
875,346,18,0.156315086790716,1
875,347,18,0.157495388237952,1
875,348,18,0.180342193056261,1
875,349,18,0.239271925623586,1
875,350,18,0.287178837497773,1
875,351,18,0.281273381720584,1
875,352,18,0.213867146630788,1
876,335,18,0.12953533435576,1
876,342,18,0.135705944700259,1
876,343,18,0.151054748997271,1
876,344,18,0.17876089161536,1
876,346,18,0.161528566333392,1
876,347,18,0.146243953712927,1
876,348,18,0.165069548753595,1
876,349,18,0.210823602299023,1
876,350,18,0.235342212687425,1
876,351,18,0.217924952914206,1
876,352,18,0.17807347739574,1
877,341,18,0.12720688864695,1
877,342,18,0.125960990110266,1
877,343,18,0.142410355403491,1
877,347,18,0.139396023582739,1
877,348,18,0.148971492069322,1
877,349,18,0.171721312243395,1
877,350,18,0.193345508224521,1
877,351,18,0.195995358478892,1
877,352,18,0.171778621858356,1
878,336,18,0.115303164070757,1
878,341,18,0.10606047728179,1
878,342,18,0.119128385673141,1
878,343,18,0.126324612813207,1
878,344,18,0.13961273602125,1
878,346,18,0.141566784194878,1
878,347,18,0.140302258360221,1
878,348,18,0.153595055123863,1
878,349,18,0.173773906631149,1
878,350,18,0.223013283784275,1
878,351,18,0.262623931763501,3
878,352,18,0.23374816214378,1
878,353,18,0.164260633242468,1
879,342,18,0.108594068657856,1
879,343,18,0.111418848202111,1
879,344,18,0.114579131037219,1
879,345,18,0.126202709975157,1
879,346,18,0.134241426378984,1
879,347,18,0.146144927873764,1
879,348,18,0.173516202983027,1
879,349,18,0.205063082515762,1
879,350,18,0.244726310783996,3
879,351,18,0.260076074331084,3
879,352,18,0.22762042804683,1
879,353,18,0.160207768212344,1
880,337,18,0.10635825750573,1
880,338,18,0.108000649791539,1
880,339,18,0.106313340063253,1
880,345,18,0.104207473834112,1
880,346,18,0.116444102802697,1
880,347,18,0.130630385241077,1
880,348,18,0.172201896531093,1
880,349,18,0.233812342666257,1
880,350,18,0.250976315803328,1
880,351,18,0.198305254968224,1
880,352,18,0.158041368841826,1
880,353,18,0.12596836295096,1
881,332,18,0.111299399259602,1
881,333,18,0.122137999322011,1
881,337,18,0.122450469456987,1
881,338,18,0.123393222661752,1
881,339,18,0.113970241474922,1
881,348,18,0.113889329846482,1
881,349,18,0.173293121570179,1
881,350,18,0.189948290620828,1
881,351,18,0.132033957720361,1
882,334,18,0.114715723786305,1
882,335,18,0.105735280352212,1
882,336,18,0.133310574567595,1
882,338,18,0.138346659770774,1
887,337,18,0.107327345471282,1
891,355,18,0.127381293695514,1
901,337,18,0.104827506312981,1
866,359,19,0.166152609012971,1
867,356,19,0.218351663040701,1
867,357,19,0.21175405256387,2
867,358,19,0.19970346233953,2
867,359,19,0.210924212016218,2
867,360,19,0.193105673397568,1
868,355,19,0.200967040078182,1
868,356,19,0.285378860501928,2
868,357,19,0.301244789822062,2
868,358,19,0.334368498013371,2
868,359,19,0.356768214218121,2
868,360,19,0.271062766989412,2
868,361,19,0.181988489266795,1
869,354,19,0.145084008444613,1
869,355,19,0.202687912405031,2
869,356,19,0.30660867085328,2
869,357,19,0.379147206159617,2
869,358,19,0.499715303500924,2
869,359,19,0.518114121490673,2
869,360,19,0.338532446433022,2
869,361,19,0.189365535046045,2
870,351,19,0.137045827436176,1
870,352,19,0.128653114292371,1
870,354,19,0.144474795414267,1
870,355,19,0.182260548203833,1
870,356,19,0.251090332713435,2
870,357,19,0.322568606680789,2
870,358,19,0.433076379238759,2
870,359,19,0.42432087994731,2
870,360,19,0.272059673207146,2
870,361,19,0.158468324357876,1
871,350,19,0.140346205398552,1
871,351,19,0.142350513814495,1
871,352,19,0.13892634797613,1
871,353,19,0.127399642141721,1
871,354,19,0.143500509651796,1
871,355,19,0.171580213249769,1
871,356,19,0.196557746720681,1
871,357,19,0.211246720814772,2
871,358,19,0.24419053615476,2
871,359,19,0.236618439142186,2
871,360,19,0.184911067702443,1
872,347,19,0.241353765984564,1
872,348,19,0.192738057537336,1
872,350,19,0.146960190051087,1
872,351,19,0.144596642481965,1
872,352,19,0.140245528756934,1
872,353,19,0.125857089942232,1
872,354,19,0.140084296665798,1
872,355,19,0.164041689989828,1
872,356,19,0.166801273991179,1
872,357,19,0.155717496301979,1
872,358,19,0.180535392713858,1
872,359,19,0.210322048358518,1
873,346,19,0.247812218276061,1
873,347,19,0.298037704506539,1
873,348,19,0.222786811533952,1
873,349,19,0.187706634735686,1
873,350,19,0.176447704675189,1
873,351,19,0.164057986087037,1
873,352,19,0.140095506506794,1
873,354,19,0.129306218590695,1
873,355,19,0.144596486324976,1
873,356,19,0.145939023729705,1
874,342,19,0.177627080334561,1
874,343,19,0.171853632983426,1
874,344,19,0.141466921800417,1
874,345,19,0.146969726781486,1
874,347,19,0.225499615363028,1
874,348,19,0.204961669705482,1
874,349,19,0.227222941585418,1
874,350,19,0.262067879033836,1
874,351,19,0.242894990849647,1
874,352,19,0.17335164697884,1
875,342,19,0.151900551020013,1
875,343,19,0.154797151625135,1
875,344,19,0.159925938309423,1
875,345,19,0.166906735729103,1
875,346,19,0.173707963765511,1
875,347,19,0.17564709894669,1
875,348,19,0.197626262071939,1
875,349,19,0.265229589589986,1
875,350,19,0.321511959260694,1
875,351,19,0.291415331992882,1
875,352,19,0.199362237010438,1
876,342,19,0.133477930243513,1
876,343,19,0.162500219735192,1
876,346,19,0.168643614147324,1
876,347,19,0.15354916727724,1
876,348,19,0.17557556789166,1
876,349,19,0.221291831445752,1
876,350,19,0.238048011760138,1
876,351,19,0.205461952081934,1
877,336,19,0.136908431594003,1
877,341,19,0.119433527583704,1
877,342,19,0.12893854696011,1
877,347,19,0.142640274261643,1
877,348,19,0.151558857219954,1
877,349,19,0.164805743828832,1
877,350,19,0.166684312406423,1
878,336,19,0.10863650989665,1
878,337,19,0.129840487420395,1
878,342,19,0.122621416743652,1
878,343,19,0.132520208275946,1
878,346,19,0.150966553760702,1
878,347,19,0.1469447974336,1
878,348,19,0.162566017597911,1
878,349,19,0.170765162999788,1
878,350,19,0.184539135216872,1
878,351,19,0.196714506029489,1
878,352,19,0.176068622430336,1
879,337,19,0.119282869551538,1
879,338,19,0.105434823151318,1
879,342,19,0.118436654828182,1
879,343,19,0.119612583879727,1
879,344,19,0.118089819001557,1
879,345,19,0.130539044556586,1
879,346,19,0.143540653152038,1
879,347,19,0.155211458425076,1
879,348,19,0.186572957303735,1
879,349,19,0.198881340408762,1
879,350,19,0.20374759373234,1
879,351,19,0.201808347010455,1
879,352,19,0.176042098050349,1
880,337,19,0.125006647826103,1
880,338,19,0.117372009939437,1
880,339,19,0.103594055719134,1
880,345,19,0.107322158828434,1
880,346,19,0.12323968687936,1
880,347,19,0.131807429699685,1
880,348,19,0.163417017417572,1
880,349,19,0.192528606398814,1
880,350,19,0.197850637356981,1
880,351,19,0.160063021837618,1
880,352,19,0.129741695816715,1
881,333,19,0.112217513122318,1
881,337,19,0.123049108428364,1
881,338,19,0.123494535085397,1
881,339,19,0.11042355932462,1
881,349,19,0.131237713233484,1
881,350,19,0.150940085151068,1
881,351,19,0.110928782954367,1
882,334,19,0.118546857046129,1
882,336,19,0.121425131513185,1
882,338,19,0.142581414230863,1
886,338,19,0.108449277666847,1
895,332,19,0.104722568816377,1
895,335,19,0.11570066168624,1
867,357,20,0.183365593136445,1
867,358,20,0.174197337460875,2
867,359,20,0.175160948777741,2
867,360,20,0.17443652535173,1
868,356,20,0.218336582737193,1
868,357,20,0.243320741726067,2
868,358,20,0.299558115875803,2
868,359,20,0.31431769523706,2
868,360,20,0.23876046686835,2
868,361,20,0.183260510636923,1
869,355,20,0.172395352732315,1
869,356,20,0.23601652087404,2
869,357,20,0.312092301986915,2
869,358,20,0.469331615071059,2
869,359,20,0.489704435866815,2
869,360,20,0.30388399909304,2
869,361,20,0.172115999033076,2
870,355,20,0.162213102802786,1
870,356,20,0.215806437968956,1
870,357,20,0.280979494267298,2
870,358,20,0.403194400906389,2
870,359,20,0.399475589137934,2
870,360,20,0.247693405115578,2
871,351,20,0.120311765643874,1
871,352,20,0.114797695051456,1
871,354,20,0.126718396123166,1
871,355,20,0.160488058853517,1
871,356,20,0.18810902898818,1
871,357,20,0.19323749220442,1
871,358,20,0.217863917839651,2
871,359,20,0.213327133454707,2
872,346,20,0.18245965951887,1
872,347,20,0.216054772197738,1
872,351,20,0.116119374344085,1
872,352,20,0.115307536466449,1
872,353,20,0.1131492795675,1
872,354,20,0.132447037572532,1
872,355,20,0.165980312083758,1
872,356,20,0.168221410265368,1
872,357,20,0.146138648131992,1
873,345,20,0.161454402917691,1
873,346,20,0.229187284966249,1
873,347,20,0.276558645292612,1
873,348,20,0.199495840468592,1
873,349,20,0.157762706694968,1
873,350,20,0.149764223023947,1
873,351,20,0.138328735179252,1
873,354,20,0.132224101162602,1
873,355,20,0.155229528019516,1
873,356,20,0.149024027742048,1
874,341,20,0.151831797328573,1
874,342,20,0.138268436273359,1
874,343,20,0.142078109101267,1
874,344,20,0.135007454488492,1
874,345,20,0.148745979069074,1
874,346,20,0.200879547548063,1
874,347,20,0.223507230648602,1
874,348,20,0.192130874547847,1
874,349,20,0.209677766930072,1
874,350,20,0.243304278317798,1
874,351,20,0.21359041413815,1
874,352,20,0.148284300931115,1
875,341,20,0.148112383240304,1
875,342,20,0.126906252980925,1
875,343,20,0.133093482890682,1
875,344,20,0.146594871929407,1
875,345,20,0.159615185901326,1
875,346,20,0.1709796334701,1
875,347,20,0.171692891671398,1
875,348,20,0.190002209398313,1
875,349,20,0.26115549836343,1
875,350,20,0.314245662248852,1
875,351,20,0.26556146780788,1
875,352,20,0.169441609823292,1
876,341,20,0.126158082538517,1
876,342,20,0.126575568248591,1
876,343,20,0.160063590695221,1
876,346,20,0.150526425287224,1
876,347,20,0.13904303070912,1
876,348,20,0.161237534322191,1
876,349,20,0.205254240978432,1
876,350,20,0.216850302824095,1
876,351,20,0.180662749892452,1
877,336,20,0.131253808557421,1
877,340,20,0.120988750807443,1
877,341,20,0.109857278312177,1
877,342,20,0.124253067659432,1
877,347,20,0.129737736121637,1
877,348,20,0.138246685835606,1
877,349,20,0.146961093530809,1
877,350,20,0.140153853450324,1
877,351,20,0.126820823953875,1
878,336,20,0.106146385933878,1
878,337,20,0.121229846044378,1
878,338,20,0.107526847178792,1
878,342,20,0.117529159640718,1
878,343,20,0.129405411740918,1
878,346,20,0.152248379558925,1
878,347,20,0.145679535430281,1
878,348,20,0.159377804969915,1
878,349,20,0.158357341354984,1
878,350,20,0.148151065557292,1
878,351,20,0.14087210867527,1
878,352,20,0.129067978795844,1
879,337,20,0.130301708241457,1
879,338,20,0.112885084250265,1
879,342,20,0.118642748591442,1
879,343,20,0.118794544338814,1
879,344,20,0.114558551776884,1
879,345,20,0.130722462094229,1
879,346,20,0.153439321989554,1
879,347,20,0.16268650386899,1
879,348,20,0.195042867770456,1
879,349,20,0.19382905949501,1
879,350,20,0.173192288771572,1
879,351,20,0.156175170128578,1
879,352,20,0.135723356204532,1
880,337,20,0.132214017882741,1
880,338,20,0.120950760042835,1
880,345,20,0.108610342446923,1
880,346,20,0.127838331740086,1
880,347,20,0.131555314240955,1
880,348,20,0.159224436498582,1
880,349,20,0.168930887236718,1
880,350,20,0.163653528331473,1
880,351,20,0.137593670769848,1
880,352,20,0.111864564864981,1
881,337,20,0.113792557129588,1
881,338,20,0.114941850260439,1
881,349,20,0.105821769015973,1
881,350,20,0.119407181668847,1
882,335,20,0.104202688737806,1
882,336,20,0.109567562481311,1
882,338,20,0.135533904314671,1
890,355,20,0.111675046050696,1
892,335,20,0.122268167326408,1
893,335,20,0.118773318142381,1
894,335,20,0.109839732959056,1
894,349,20,0.104349621310378,1
895,334,20,0.130761144411217,1
901,336,20,0.111659965747188,1
902,337,20,0.111717632292409,1
867,358,21,0.163913083555322,1
867,359,21,0.153460392028998,1
868,357,21,0.206566852011628,1
868,358,21,0.269550051928891,2
868,359,21,0.270611183285384,2
868,360,21,0.210227930310437,1
869,356,21,0.18435157951902,1
869,357,21,0.257367375200004,2
869,358,21,0.411033615602707,2
869,359,21,0.42085339169857,2
869,360,21,0.257203633442973,2
870,356,21,0.18529787971825,1
870,357,21,0.237601871242584,2
870,358,21,0.339430259887169,2
870,359,21,0.335393423256559,2
870,360,21,0.210884213518894,2
871,355,21,0.141038148170853,1
871,356,21,0.174986989892003,1
871,357,21,0.174685015737501,1
871,358,21,0.18377648679077,2
871,359,21,0.181282079664871,2
872,354,21,0.122004473942351,1
872,355,21,0.153650881247428,1
872,356,21,0.160937869060312,1
873,340,21,0.104282228415557,1
873,341,21,0.103489854391193,1
873,342,21,0.114439047064021,1
873,343,21,0.151524647685294,1
873,344,21,0.168411475629114,1
873,345,21,0.153901580139187,1
873,346,21,0.190658470298628,1
873,347,21,0.224203668511371,1
873,355,21,0.153855569597787,1
874,339,21,0.118920049941682,1
874,340,21,0.123364378235071,1
874,341,21,0.121710653413489,1
874,342,21,0.112756031652932,1
874,343,21,0.116261889904683,1
874,344,21,0.122815229875134,1
874,345,21,0.147933048092516,1
874,346,21,0.201742247987828,1
874,347,21,0.213093589523597,1
874,348,21,0.171684827278324,1
874,349,21,0.179790691187419,1
874,350,21,0.202069642269323,1
874,351,21,0.172590047035377,1
875,340,21,0.135286540490035,1
875,341,21,0.121271874582559,1
875,342,21,0.111489241541935,1
875,343,21,0.117477203979665,1
875,344,21,0.133394910495722,1
875,345,21,0.154430216163212,1
875,346,21,0.177292859761833,1
875,347,21,0.171273465153033,1
875,348,21,0.170863553056925,1
875,349,21,0.223054085374684,1
875,350,21,0.257118505575831,1
875,351,21,0.208252053620562,1
876,340,21,0.13974400827864,1
876,341,21,0.114571122414498,1
876,342,21,0.119514584215063,1
876,343,21,0.156227962344928,1
876,346,21,0.138315907998013,1
876,347,21,0.128800370332992,1
876,348,21,0.142508031600107,1
876,349,21,0.174033673782339,1
876,350,21,0.179565189341241,1
876,351,21,0.149281731390169,1
877,335,21,0.111805035589962,1
877,336,21,0.135565113404329,1
877,339,21,0.13428372261486,1
877,340,21,0.113972505751262,1
877,341,21,0.103235653121253,1
877,342,21,0.119636063198429,1
877,347,21,0.119664349921578,1
877,348,21,0.126744117410068,1
877,349,21,0.1302086832923,1
877,350,21,0.119835397594879,1
877,351,21,0.106501799240827,1
878,337,21,0.109874410964683,1
878,342,21,0.112559563852637,1
878,343,21,0.12881891955247,1
878,346,21,0.152568412153797,1
878,347,21,0.146585324044937,1
878,348,21,0.153697750652268,1
878,349,21,0.143425821994774,1
878,350,21,0.121698551246842,1
878,351,21,0.105328480241813,1
879,337,21,0.126899515922257,1
879,338,21,0.112353280470177,1
879,342,21,0.113463746281121,1
879,343,21,0.114920456752947,1
879,344,21,0.110655742459112,1
879,345,21,0.130917680638612,1
879,346,21,0.161636950437824,1
879,347,21,0.170246599101553,1
879,348,21,0.191850684293311,1
879,349,21,0.179068119337134,1
879,350,21,0.146907531683584,1
879,351,21,0.122297792538034,1
879,352,21,0.105491798144159,1
880,337,21,0.124747739538352,1
880,338,21,0.114747044416669,1
880,343,21,0.103988764816956,1
880,345,21,0.105611090929679,1
880,346,21,0.126344812835141,1
880,347,21,0.130663869761145,1
880,348,21,0.148963695373943,1
880,349,21,0.147246492736335,1
880,350,21,0.13654999553391,1
880,351,21,0.119315818676215,1
882,335,21,0.109093414092374,1
882,336,21,0.104210831209375,1
882,337,21,0.120874298888582,1
882,338,21,0.120700507313903,1
883,338,21,0.164844526532456,1
890,356,21,0.132632808619081,1
892,331,21,0.110768331648176,1
892,335,21,0.106172196453345,1
893,333,21,0.105331569919381,1
893,334,21,0.10918502247456,1
894,334,21,0.104830930612668,1
895,331,21,0.1059776471532,1
901,336,21,0.106025799276163,1
902,336,21,0.11770682167791,1
867,358,22,0.159891104146807,1
868,357,22,0.191672687633999,1
868,358,22,0.249119720744903,2
868,359,22,0.230649739784455,2
869,356,22,0.158967011702226,1
869,357,22,0.221810674195754,2
869,358,22,0.344491307900446,2
869,359,22,0.335754324366264,2
869,360,22,0.210593895368214,2
870,357,22,0.19763478378191,1
870,358,22,0.265279247512486,2
870,359,22,0.257843676324575,2
870,360,22,0.174098122002511,1
871,358,22,0.151845851457583,1
871,359,22,0.150084222156607,1
872,355,22,0.135081082508802,1
873,342,22,0.103700677480404,1
873,343,22,0.127426066135073,1
873,344,22,0.150178719443089,1
873,345,22,0.138117711316768,1
874,341,22,0.107150174213199,1
874,344,22,0.110894551111566,1
874,345,22,0.141409734880233,1
874,346,22,0.188227886764946,1
874,347,22,0.184957569022951,1
874,348,22,0.144533621982835,1
875,339,22,0.126359413513612,1
875,340,22,0.112046264675745,1
875,341,22,0.106996471119746,1
875,342,22,0.103040367652446,1
875,343,22,0.109159814274908,1
875,344,22,0.123720070393786,1
875,345,22,0.147240447230047,1
875,346,22,0.173178602726894,1
875,347,22,0.158605251729082,1
875,348,22,0.145576360276839,1
875,349,22,0.177123607893905,1
875,350,22,0.192889306735247,1
876,339,22,0.146599054705898,1
876,340,22,0.122612906187752,1
876,341,22,0.105369002980457,1
876,342,22,0.113770617072635,1
876,343,22,0.152077064187929,1
876,345,22,0.150926532955237,1
876,346,22,0.128256732083952,1
876,347,22,0.11806381886289,1
876,348,22,0.12457529760622,1
876,349,22,0.143101651239695,1
876,350,22,0.146296578618218,1
877,335,22,0.118913335191155,1
877,338,22,0.118325649517149,1
877,339,22,0.114579421043056,1
877,340,22,0.103684894470445,1
877,342,22,0.115915221389117,1
877,346,22,0.123290928679891,1
877,347,22,0.114307830576984,1
877,348,22,0.120480448654199,1
877,349,22,0.11731529149022,1
877,350,22,0.107975173894192,1
878,342,22,0.109329077296906,1
878,345,22,0.15024871123637,1
878,346,22,0.147958512835792,1
878,347,22,0.14526019814448,1
878,348,22,0.147772808713667,1
878,349,22,0.130335761619128,1
878,350,22,0.107852791431104,1
879,337,22,0.111184880416316,1
879,342,22,0.108933487027504,1
879,345,22,0.133048375829004,1
879,346,22,0.163076238251306,1
879,347,22,0.171743888082375,1
879,348,22,0.180228309995002,1
879,349,22,0.160535787121796,1
879,350,22,0.129002080546489,1
879,351,22,0.104552904247836,1
880,337,22,0.107871195647664,1
880,343,22,0.11393722542582,1
880,344,22,0.105662711968612,1
880,345,22,0.108579233743901,1
880,346,22,0.126294574900967,1
880,347,22,0.13265815066758,1
880,348,22,0.140555846156276,1
880,349,22,0.133755410058884,1
880,350,22,0.121499506856229,1
880,351,22,0.106859510286329,1
882,337,22,0.10660776291193,1
882,338,22,0.104890582582464,1
883,338,22,0.142532927485781,1
891,335,22,0.107503490554867,1
892,334,22,0.131050235614127,1
893,333,22,0.121932875962897,1
893,334,22,0.119823540817786,1
894,333,22,0.10713040920002,1
894,334,22,0.10748844371357,1
895,335,22,0.112158664245609,1
897,336,22,0.103156626530751,1
900,336,22,0.102921108329137,1
901,336,22,0.10629036267773,1
903,340,22,0.109241551304576,1
904,341,22,0.12224771076085,1
867,358,23,0.164927189349986,1
868,357,23,0.203403200647186,1
868,358,23,0.244868012097437,1
868,359,23,0.199474647734372,1
869,357,23,0.214859435063276,1
869,358,23,0.289409361620413,2
869,359,23,0.257158749462708,2
869,360,23,0.174133123476187,1
870,358,23,0.207927514781151,1
870,359,23,0.197833058541649,1
874,338,23,0.120759289266188,1
874,345,23,0.130981905777371,1
874,346,23,0.161032042878746,1
875,339,23,0.116797552993213,1
875,340,23,0.103888746265506,1
875,343,23,0.106374073977901,1
875,344,23,0.114314924565913,1
875,345,23,0.136073828258187,1
875,346,23,0.156120548644642,1
875,347,23,0.137365648103705,1
875,348,23,0.119938840446016,1
876,339,23,0.124602123146115,1
876,340,23,0.109809739663099,1
876,342,23,0.120425782553981,1
876,345,23,0.132852666505513,1
876,346,23,0.118917796819412,1
876,347,23,0.109924336584879,1
876,348,23,0.110653165868794,1
876,349,23,0.1203073486319,1
877,338,23,0.10364678101106,1
877,346,23,0.112499019557191,1
877,347,23,0.111977845606425,1
877,348,23,0.117364447479541,1
877,349,23,0.111231415199036,1
877,350,23,0.104097963168545,1
878,334,23,0.113365713154245,1
878,346,23,0.135515343941122,1
878,347,23,0.142967780083845,1
878,348,23,0.144318716503768,1
878,349,23,0.122520985491588,1
879,346,23,0.155297333614951,1
879,347,23,0.170399075247234,1
879,348,23,0.167542584680143,1
879,349,23,0.141040022054721,1
879,350,23,0.1124283473656,1
880,345,23,0.112532269841775,1
880,346,23,0.132962288711786,1
880,347,23,0.146761971061701,1
880,348,23,0.141744803162331,1
880,349,23,0.125246939969952,1
880,350,23,0.107156699344524,1
883,338,23,0.11690307050149,1
886,333,23,0.134176888926248,1
886,338,23,0.112371483913465,1
887,335,23,0.123346955576727,1
887,337,23,0.119560996303006,1
888,336,23,0.108425709115579,1
892,333,23,0.136043544956392,1
892,334,23,0.130843472606629,1
893,333,23,0.134166727567892,1
893,334,23,0.129329552906479,1
894,333,23,0.115737827049621,1
894,334,23,0.113438928473942,1
895,335,23,0.123951718132887,1
896,336,23,0.134716701329057,1
896,348,23,0.107118318187444,1
897,336,23,0.125323033039874,1
897,346,23,0.109318213232101,1
898,336,23,0.107223501073602,1
898,346,23,0.110313502109592,1
901,336,23,0.1082300332543,1
903,339,23,0.126257476462011,1
903,340,23,0.115886399270577,1
904,341,23,0.117065551848537,1
868,358,24,0.229894408428694,1
869,357,24,0.202821382014338,1
869,358,24,0.234088093600678,1
869,359,24,0.194374939712248,1
870,358,24,0.165287923148632,1
874,341,24,0.103606905208514,1
875,340,24,0.109051430170476,1
875,345,24,0.116981026301209,1
875,346,24,0.129427485646719,1
876,339,24,0.115423360336,1
876,340,24,0.104619728285055,1
876,341,24,0.103011132833292,1
876,342,24,0.124723724824259,1
876,345,24,0.116203866429201,1
876,346,24,0.109260591303162,1
877,346,24,0.105878420540765,1
877,347,24,0.108331222983168,1
877,348,24,0.114238028402904,1
877,349,24,0.108260338864235,1
878,346,24,0.122880246952909,1
878,347,24,0.135894158488279,1
878,348,24,0.13945264164532,1
878,349,24,0.117464466030992,1
879,346,24,0.143386225043994,1
879,347,24,0.16451557068107,1
879,348,24,0.160348209115803,1
879,349,24,0.131819922258805,1
879,350,24,0.105212924069958,1
880,346,24,0.141691531320943,1
880,347,24,0.165654122441892,1
880,348,24,0.15693816433087,1
880,349,24,0.132686928169837,1
880,350,24,0.103182570899065,1
881,346,24,0.114406432561463,1
881,347,24,0.133976796052994,1
881,348,24,0.127121091535568,1
881,349,24,0.109522979660954,1
886,338,24,0.107294987512349,1
887,334,24,0.122915081115525,1
887,335,24,0.11671137664343,1
887,336,24,0.126057305510263,1
887,337,24,0.10998998944468,1
888,335,24,0.117756535370763,1
888,336,24,0.105594850602824,1
889,335,24,0.115162165463767,1
890,335,24,0.106664771366983,1
891,334,24,0.121913657499181,1
892,334,24,0.12523545127719,1
893,334,24,0.128545600205449,1
894,334,24,0.112192461079655,1
895,334,24,0.11782680601581,1
895,335,24,0.119495410367628,1
895,336,24,0.112467029682588,1
895,348,24,0.118780356360957,1
896,335,24,0.153723873485712,1
896,347,24,0.124186600552475,1
897,337,24,0.114598706431196,1
897,346,24,0.137767540423021,1
898,336,24,0.110192346594274,1
903,339,24,0.121557998802677,1
903,340,24,0.121641353172588,1
869,358,25,0.182485146570288,1
876,341,25,0.10546333295588,1
876,344,25,0.106775720907663,1
877,345,25,0.106543113918487,1
877,347,25,0.105099041008699,1
877,348,25,0.113068446017555,1
878,346,25,0.113141092479649,1
878,347,25,0.128244819536506,1
878,348,25,0.13625203684484,1
878,349,25,0.117889112654418,1
879,346,25,0.131881057719996,1
879,347,25,0.158229805711259,1
879,348,25,0.158905720084046,1
879,349,25,0.129110710040475,1
880,346,25,0.149249061117258,1
880,349,25,0.144704725426489,1
880,350,25,0.10295275242755,1
881,346,25,0.141648186602426,1
881,349,25,0.137715506683475,1
882,337,25,0.110907590220147,1
885,338,25,0.121660013932773,1
886,337,25,0.149529429836925,1
886,338,25,0.111497752097835,1
887,335,25,0.117636261027026,1
887,336,25,0.119882969706169,1
887,337,25,0.113862024681549,1
888,335,25,0.110137780880692,1
889,335,25,0.103471539407198,1
