x,y,z,signal,mito.p
761,211,9,0.113814943349368,1
765,210,9,0.122992334208794,1
766,211,9,0.122105128275828,1
767,213,9,0.134151301488194,1
768,213,9,0.129984363777611,1
768,221,9,0.11953103646926,1
768,222,9,0.112733678895365,1
769,220,9,0.133643032797162,1
769,221,9,0.114070862346186,1
769,222,9,0.11437756582664,1
770,220,9,0.145360573626191,1
770,221,9,0.125717786753979,1
770,222,9,0.125154584265033,1
776,219,9,0.113666649980177,1
777,217,9,0.127907408899574,1
777,219,9,0.109371038910663,1
778,217,9,0.135813715330806,1
784,208,9,0.112869334702518,1
784,209,9,0.120703663915894,1
785,209,9,0.157401794431192,1
761,211,10,0.102988791229795,1
762,211,10,0.119918696194436,1
764,210,10,0.103505726633717,1
765,211,10,0.130951767478496,1
766,212,10,0.109989230967876,1
766,213,10,0.12461904387128,1
767,213,10,0.108324184764592,1
767,221,10,0.130469253536577,1
767,222,10,0.115519430346443,1
768,213,10,0.103414642492851,1
768,214,10,0.111397889703374,1
768,220,10,0.125316909455092,1
768,221,10,0.113073766509251,1
768,222,10,0.112728849182777,1
768,223,10,0.123624781168288,1
769,215,10,0.104412530268801,1
769,219,10,0.123106841898009,1
769,220,10,0.117367871779229,1
769,221,10,0.104592378503839,1
769,222,10,0.112086207402716,1
769,223,10,0.132593992453245,1
770,218,10,0.108406222954167,1
770,219,10,0.119055560745916,1
770,220,10,0.118527493579494,1
770,221,10,0.108427069912198,1
770,222,10,0.117395901958753,1
770,223,10,0.135753951820304,1
771,220,10,0.11650804908969,1
771,221,10,0.117661803848797,1
775,219,10,0.104356269136481,1
778,217,10,0.105028513820027,1
779,217,10,0.104193743173151,1
784,208,10,0.125219623650949,1
784,209,10,0.140739654086392,1
785,207,10,0.111512955096121,1
785,208,10,0.192373966363428,1
785,209,10,0.211453294203069,1
785,210,10,0.130659765063149,1
786,208,10,0.180376670288616,1
786,209,10,0.187620837624304,1
761,212,11,0.113540240897587,1
761,218,11,0.113147048753372,1
762,212,11,0.125330338956145,1
763,211,11,0.119827489358794,1
763,212,11,0.143491921017401,1
764,211,11,0.125456324184051,1
764,212,11,0.145358967440019,1
765,212,11,0.11663342084371,1
765,213,11,0.118526199707299,1
765,222,11,0.118461405710938,1
766,214,11,0.112710545352853,1
766,221,11,0.139050002003271,1
766,222,11,0.117656059502416,1
767,221,11,0.121251685714696,1
767,222,11,0.111881206738379,1
767,223,11,0.116294437482817,1
768,220,11,0.112320253267005,1
768,221,11,0.10388014647704,1
768,222,11,0.106852851306155,1
768,223,11,0.128589814941475,1
768,224,11,0.147503995611186,1
769,219,11,0.103475510256346,1
769,222,11,0.105651156351427,1
769,223,11,0.135900627849252,1
769,224,11,0.15462794437349,1
770,222,11,0.106634956536156,1
770,223,11,0.132834373829659,1
771,222,11,0.109297042806022,1
772,221,11,0.1088964443589,1
775,221,11,0.104303621923049,1
776,221,11,0.111499648289845,1
779,218,11,0.104802588119166,1
780,204,11,0.120396982743582,1
781,204,11,0.108557070605535,1
783,216,11,0.12087739972022,1
784,208,11,0.12895053758605,1
784,209,11,0.147382438549325,1
785,207,11,0.119366368924367,1
785,208,11,0.22803158939885,1
785,209,11,0.25272050013782,1
785,210,11,0.138938885151532,1
786,203,11,0.122211638496392,1
786,207,11,0.125663310272962,1
786,208,11,0.220867240592679,1
786,209,11,0.232328717421971,1
786,210,11,0.132820620860557,1
787,203,11,0.192257696331051,1
787,208,11,0.124258957008732,1
787,209,11,0.130906046942932,1
788,202,11,0.171442928948302,1
788,203,11,0.218225599734301,1
788,204,11,0.177538807019498,1
760,212,12,0.103168862546246,1
763,212,12,0.11058798147996,1
764,212,12,0.109159535423142,1
764,213,12,0.107500992043043,1
765,214,12,0.106912715203293,1
765,222,12,0.124865169594075,1
766,221,12,0.132480276703046,1
766,222,12,0.119396027598205,1
766,223,12,0.108033732765065,1
767,220,12,0.112776086671947,1
767,221,12,0.110102210549413,1
767,222,12,0.108662822349295,1
767,223,12,0.118328772656929,1
768,223,12,0.131418074555771,1
769,223,12,0.136221396612785,1
770,223,12,0.130742416726609,1
780,203,12,0.106586179785237,1
782,216,12,0.109639104690412,1
783,216,12,0.120565665753907,1
784,208,12,0.111897000902409,1
784,209,12,0.132338631159958,1
784,215,12,0.10767943486518,1
784,216,12,0.107167429560482,1
785,207,12,0.104118274731185,1
785,208,12,0.219018007220878,1
785,209,12,0.250215541261094,1
785,210,12,0.131187419528957,1
786,203,12,0.109670001466091,1
786,207,12,0.114794192673275,1
786,208,12,0.223146329538897,1
786,209,12,0.239771181825539,1
786,210,12,0.12885885112537,1
787,202,12,0.161753688941167,1
787,203,12,0.231599151969394,1
787,204,12,0.190527164579026,1
787,205,12,0.10882993263566,1
787,208,12,0.123280443853487,1
787,209,12,0.136261495496745,1
787,210,12,0.10866846630904,1
788,201,12,0.131961512031539,1
788,202,12,0.219891460184742,1
788,203,12,0.300300976980586,1
788,204,12,0.231823393405589,1
788,205,12,0.122743888439305,1
789,202,12,0.155869002043515,1
789,203,12,0.186732527438345,1
789,204,12,0.145512123984009,1
765,215,13,0.107072006486137,1
765,221,13,0.155756067078261,1
766,219,13,0.110609999615408,1
766,220,13,0.114748628294701,1
766,221,13,0.118653924970225,1
766,222,13,0.113421472353387,1
767,219,13,0.104789615935009,1
783,216,13,0.119540718202578,1
784,209,13,0.106473300590336,1
785,208,13,0.179124291236889,1
785,209,13,0.206409088836462,1
785,210,13,0.112904124248851,1
786,208,13,0.190891657299478,1
786,209,13,0.205486602578054,1
786,210,13,0.112197346562597,1
787,202,13,0.160515252477743,1
787,203,13,0.236368231029536,1
787,204,13,0.190580771042534,1
787,205,13,0.106801776816684,1
787,208,13,0.111767122903849,1
787,209,13,0.125526962913429,1
788,201,13,0.127085286968806,1
788,202,13,0.239099929854281,1
788,203,13,0.337101089163767,1
788,204,13,0.251515392037475,1
788,205,13,0.131833084062163,1
789,202,13,0.168474529590456,1
789,203,13,0.212482167987264,1
789,204,13,0.161706719149692,1
764,218,14,0.117918827098609,1
765,218,14,0.103701837503751,1
765,219,14,0.113926350206944,1
765,220,14,0.133633484912692,1
777,222,14,0.104236340568934,1
779,220,14,0.109629512189659,1
780,219,14,0.113177075511541,1
785,208,14,0.122079841997682,1
785,209,14,0.139409731935559,1
786,208,14,0.136201977375797,1
786,209,14,0.145853003536911,1
787,203,14,0.182291556520219,1
787,204,14,0.150006422513876,1
788,202,14,0.1974849399969,1
788,203,14,0.284365937038751,1
788,204,14,0.215276061909911,1
788,205,14,0.12593763348634,1
789,203,14,0.201037043025534,1
789,204,14,0.152868311651158,1
766,224,15,0.109098678813717,1
778,224,15,0.106437551793927,1
779,223,15,0.116274594391144,1
779,224,15,0.11779468229236,1
779,225,15,0.13566201997007,1
780,220,15,0.121898499117178,1
780,224,15,0.130870510073866,1
788,203,15,0.207066487451983,1
788,204,15,0.16517312545358,1
765,225,16,0.104929688754136,1
774,225,16,0.104620955232825,1
779,224,16,0.108104293415948,1
780,221,16,0.106059741113128,1
780,222,16,0.116517240043899,1
780,223,16,0.113769691284771,1
765,226,17,0.105463712194281,1
766,227,17,0.114621304578318,1
772,229,17,0.114434719284612,1
773,225,17,0.104943542109874,1
773,229,17,0.11930705157669,1
774,226,17,0.115093701778164,1
774,228,17,0.129929184590143,1
774,229,17,0.12774116863072,1
775,227,17,0.109351050816072,1
776,226,17,0.103885288503606,1
781,221,17,0.107145422579105,1
781,222,17,0.116861454663923,1
781,223,17,0.114742482401777,1
767,228,18,0.113131143048636,1
771,229,18,0.113832109464086,1
772,229,18,0.110518636622776,1
773,229,18,0.114119204088351,1
774,228,18,0.122464735513338,1
774,229,18,0.120306043605635,1
775,228,18,0.109195730382377,1
776,228,18,0.105540597203219,1
777,226,18,0.10459655012626,1
773,229,19,0.112613181470215,1
773,230,19,0.107672017408203,1
774,228,19,0.118839952560399,1
774,229,19,0.115672408425303,1
773,230,20,0.10370407947195,1
774,229,20,0.109961501948259,1
774,230,21,0.10692326695412,1
783,219,21,0.127165897437339,1
783,220,21,0.10610856248033,1
785,223,21,0.1101915769634,1
786,220,21,0.118031483212098,1
783,217,22,0.160703354725056,1
783,219,22,0.11726752975973,1
784,220,22,0.131228165349014,1
784,223,22,0.105649628243749,1
785,216,22,0.116458435783472,1
785,220,22,0.135642344189456,1
785,222,22,0.121100079586525,1
786,220,22,0.110162275219822,1
786,221,22,0.106615671148015,1
783,217,23,0.153441742422884,1
783,218,23,0.164453509432016,1
784,217,23,0.149001686138551,1
784,219,23,0.131139780493244,1
785,216,23,0.105024197194689,1
785,219,23,0.133123152718591,1
785,220,23,0.109965963576516,1
783,217,24,0.133663020891753,1
783,218,24,0.135399296990159,1
784,217,24,0.146436127196025,1
784,218,24,0.169071830073355,1
784,219,24,0.115350691565765,1
785,217,24,0.136005163799312,1
785,218,24,0.167619391610586,1
785,219,24,0.126257074915468,1
786,219,24,0.120927046488649,1
783,217,25,0.107496786958411,1
784,217,25,0.145143760801044,1
784,218,25,0.150411783749162,1
785,216,25,0.108442629840744,1
785,217,25,0.161857343719647,1
785,218,25,0.178897740908072,1
785,219,25,0.121826901137724,1
786,217,25,0.141199201796858,1
786,218,25,0.154306015586609,1
786,219,25,0.115370735430709,1
784,217,26,0.131630838453275,1
784,218,26,0.124777041281929,1
785,216,26,0.112025919650894,1
785,217,26,0.173727829165325,1
785,218,26,0.174015526109404,1
785,219,26,0.111940379083137,1
786,216,26,0.104156187417298,1
786,217,26,0.144769296341438,1
786,218,26,0.151987909701284,1
786,219,26,0.111265959355816,1
756,214,27,0.112669498372889,1
756,215,27,0.111653674851345,1
757,214,27,0.104929911835549,1
757,215,27,0.118666540224122,1
757,216,27,0.113930566445647,1
784,217,27,0.113159474388068,1
784,218,27,0.103117698824209,1
785,216,27,0.109687825670978,1
785,217,27,0.163272895670802,1
785,218,27,0.154387786078488,1
786,216,27,0.105517117884517,1
786,217,27,0.150301916153334,1
786,218,27,0.154576289872345,1
786,219,27,0.114842969424194,1
787,217,27,0.128610104195974,1
787,218,27,0.136168459393517,1
758,215,28,0.112487876640619,1
758,216,28,0.11002471206659,1
785,217,28,0.13540852140658,1
785,218,28,0.128252973162146,1
786,217,28,0.144228915081026,1
786,218,28,0.151151488251953,1
786,219,28,0.122363155391998,1
786,230,31,0.106067091645681,1
754,216,42,0.117937889405337,1
754,217,42,0.126822385523765,1
754,218,42,0.129547525754972,1
755,216,42,0.136718912779718,1
755,218,42,0.158516744178534,1
756,216,42,0.125526137512201,1
756,217,42,0.123955320897705,1
756,218,42,0.115312455411603,1
769,213,42,0.105544467665732,1
754,217,43,0.104048282937904,1
754,218,43,0.105374591169849,1
755,217,43,0.120983039923274,1
755,218,43,0.124263117477081,1
756,216,43,0.11256204005632,1
756,217,43,0.113583072528854,1
756,218,43,0.10680849156721,1
774,213,43,0.143059767704432,1
775,213,44,0.134671605421449,1
774,213,45,0.114365653279194,1
768,212,46,0.108579813755575,1
772,213,46,0.103699405916351,1
773,213,46,0.10990160458891,1
768,212,48,0.13201604428291,1
772,213,48,0.105162384975877,1
773,213,48,0.105954089756003,1
768,212,49,0.145694247649458,1
769,213,49,0.104965169852849,1
772,213,49,0.108294079927929,1
773,213,49,0.10489729733299,1
768,212,50,0.148516963690645,1
768,213,50,0.108136673683023,1
769,213,50,0.109792026998919,1
772,213,50,0.105394467723733,1
755,230,51,0.11376671314791,1
768,212,51,0.13893017382236,1
768,213,51,0.119506664824907,1
769,213,51,0.114759615054283,1
755,229,52,0.106164745534156,1
768,213,52,0.12134620530932,1
769,213,52,0.111209642453142,1
