x,y,z,signal,mito.p
651,834,1,0.112210642214802,1
651,835,1,0.105530380074511,1
652,833,1,0.112248499130563,1
652,834,1,0.113222952204093,1
652,835,1,0.109662673241679,1
652,836,1,0.107989127636566,1
653,833,1,0.110361765773261,1
653,834,1,0.106710525364758,1
653,835,1,0.106055937575039,1
653,836,1,0.108686903987812,1
653,837,1,0.10553157356007,1
654,834,1,0.110042703582536,1
654,835,1,0.110083114780473,1
654,836,1,0.111976875202279,1
654,837,1,0.107804170837174,1
655,835,1,0.120280545400146,1
655,836,1,0.135719028425123,1
655,837,1,0.132340237346131,1
656,835,1,0.121099956891748,1
656,836,1,0.152001238815702,1
656,837,1,0.153085403328071,1
656,838,1,0.122351923242861,1
657,836,1,0.109111639843804,1
657,837,1,0.110650377351133,1
692,847,1,0.200250011801007,1
692,848,1,0.254656824493197,1
692,849,1,0.214676129066339,1
693,846,1,0.208039077795717,1
693,847,1,0.28043430560244,2
693,848,1,0.300826400632266,1
693,849,1,0.223891019911265,1
693,850,1,0.173923560796957,1
693,851,1,0.169757258868401,1
694,845,1,0.210501584279578,1
694,846,1,0.29500709889672,2
694,847,1,0.377306070643102,2
694,848,1,0.329917287658396,2
694,849,1,0.222716830894741,1
694,850,1,0.178169502789901,1
694,851,1,0.178068413447669,1
694,852,1,0.159205106494159,1
695,845,1,0.234450467047708,1
695,846,1,0.333355998404879,2
695,847,1,0.404968478150202,2
695,848,1,0.335133332637319,2
695,849,1,0.241086202137994,1
695,850,1,0.210752662409738,1
695,851,1,0.199958176696719,1
695,852,1,0.175667131657564,1
696,846,1,0.240522274634457,1
696,847,1,0.275329489015962,2
696,848,1,0.253364112322027,1
696,849,1,0.235990754970856,1
696,850,1,0.236963233773883,1
696,851,1,0.208382400090089,1
697,847,1,0.139762970198733,1
697,848,1,0.150381355444449,1
651,834,2,0.10551178623875,1
651,835,2,0.102975819045638,1
652,833,2,0.106282532520139,1
652,834,2,0.109545365880733,1
652,835,2,0.106427312357077,1
652,836,2,0.104035310753747,1
653,833,2,0.105459395568943,1
653,834,2,0.103910552473611,1
653,835,2,0.10308454892626,1
654,833,2,0.109176891157062,1
654,836,2,0.103376863655585,1
654,837,2,0.102944152639084,1
655,835,2,0.103090137115652,1
655,836,2,0.117257022625185,1
655,837,2,0.11877814785497,1
655,838,2,0.108804568279019,1
656,835,2,0.108457743606464,1
656,836,2,0.13350618350445,1
656,837,2,0.137084242055469,1
656,838,2,0.119610631917364,1
689,852,2,0.202524282188707,1
689,853,2,0.23084464601486,1
689,854,2,0.199953759684745,1
690,852,2,0.215948139282397,1
690,853,2,0.242819790105376,3
690,854,2,0.218442680257143,1
691,848,2,0.194188042104564,1
691,849,2,0.197030835472907,1
691,852,2,0.211956186632052,1
691,853,2,0.220103320602523,1
691,854,2,0.201930216386293,1
692,847,2,0.185450813180828,1
692,848,2,0.229346609711305,1
692,849,2,0.211387128256018,1
692,850,2,0.22053977938676,1
692,851,2,0.227351414171077,1
692,852,2,0.201573486899009,1
692,853,2,0.194405501865808,1
693,846,2,0.183942370129363,1
693,847,2,0.253195105843653,2
693,848,2,0.262303988401194,2
693,849,2,0.219866698147916,1
693,850,2,0.231334064326507,1
693,851,2,0.240221739355068,1
693,852,2,0.200156406840176,1
694,845,2,0.191007905023713,1
694,846,2,0.284962189039011,2
694,847,2,0.390492591421663,2
694,848,2,0.312566193832227,2
694,849,2,0.231072925224627,2
694,850,2,0.24212984391172,1
694,851,2,0.254287758603782,3
694,852,2,0.221562094577417,1
694,853,2,0.209413125450011,1
695,844,2,0.180506001737715,1
695,845,2,0.23490577621133,2
695,846,2,0.349637684554137,2
695,847,2,0.454134238437088,2
695,848,2,0.33421550878044,2
695,849,2,0.24290755033319,2
695,850,2,0.261082639973994,3
695,851,2,0.284629530036172,3
695,852,2,0.263768094021855,3
695,853,2,0.23538970672022,1
696,845,2,0.20126478683991,1
696,846,2,0.237650659147574,2
696,847,2,0.280057922642683,2
696,848,2,0.23420985143581,2
696,849,2,0.229941835537065,1
696,850,2,0.277742069879628,1
696,851,2,0.29566621523912,3
696,852,2,0.264205311282896,3
697,846,2,0.122428395551186,1
697,847,2,0.124142553127508,1
697,848,2,0.131182299810533,1
697,849,2,0.170004098451717,1
697,850,2,0.214891380321596,1
697,851,2,0.219403179588301,1
651,835,3,0.103492252516381,1
651,836,3,0.105547680038077,1
651,837,3,0.103456905266515,1
652,834,3,0.103916787599101,1
652,835,3,0.104034318041459,1
652,836,3,0.104587314555768,1
652,837,3,0.108035651265215,1
652,838,3,0.112392342025567,1
653,837,3,0.108795968490554,1
654,836,3,0.105522248757013,1
654,837,3,0.112429418156382,1
654,838,3,0.110834575673721,1
655,836,3,0.114801141659285,1
655,837,3,0.120744599355152,1
655,838,3,0.112409619680992,1
656,835,3,0.107202721039995,1
656,836,3,0.122681057559377,1
656,837,3,0.124116051055661,1
656,838,3,0.113162530603424,1
656,839,3,0.104234968618245,1
657,836,3,0.105585793497462,1
664,855,3,0.124700212043345,1
665,855,3,0.114236712222568,1
668,856,3,0.115354930112609,1
669,856,3,0.113328190860604,1
670,856,3,0.112799710993568,1
671,856,3,0.135302814279102,1
672,855,3,0.12019796066111,1
672,856,3,0.171481968195551,1
673,856,3,0.165370273652184,1
674,856,3,0.150208991590812,1
678,856,3,0.119592696171771,1
679,856,3,0.144709811682702,1
685,852,3,0.129377571180594,1
685,853,3,0.124287109883033,1
686,851,3,0.139482356089511,1
686,852,3,0.177910862199845,1
687,851,3,0.159652395880989,1
687,852,3,0.224238402287352,1
687,853,3,0.231286324904158,1
688,852,3,0.245492885442965,1
688,853,3,0.270065793847254,3
688,854,3,0.219241289406997,1
689,851,3,0.184916856665106,1
689,852,3,0.264719402398803,1
689,853,3,0.307610284088825,3
689,854,3,0.261236499224435,1
689,855,3,0.219342791449843,1
690,851,3,0.21358050932342,1
690,852,3,0.278449282574638,3
690,853,3,0.323898082668796,3
690,854,3,0.287676822135673,3
690,855,3,0.248949264237346,1
691,848,3,0.175047110332765,1
691,850,3,0.214679698368945,1
691,851,3,0.240649007185095,1
691,852,3,0.263421269349301,1
691,853,3,0.284609608866005,3
691,854,3,0.265278221337987,1
691,855,3,0.231621237029266,1
692,847,3,0.176281018243509,1
692,848,3,0.187712390236137,1
692,849,3,0.187051890788977,1
692,850,3,0.230770315288099,1
692,851,3,0.25810057687961,1
692,852,3,0.244762873827562,1
692,853,3,0.247587954531725,1
692,854,3,0.250531580698675,1
693,845,3,0.134915199170209,1
693,846,3,0.176551404069951,1
693,847,3,0.229856529204792,2
693,848,3,0.214299054554203,2
693,849,3,0.198996160411955,1
693,850,3,0.248001770552557,1
693,851,3,0.268452714459093,3
693,852,3,0.234753656995909,1
693,853,3,0.234427958133151,1
694,845,3,0.188751079602497,1
694,846,3,0.287437745785524,2
694,847,3,0.389399180184731,2
694,848,3,0.295672216129125,2
694,849,3,0.237257991244679,2
694,850,3,0.282761156279148,3
694,851,3,0.302605363359021,3
694,852,3,0.264552069031026,3
694,853,3,0.249593367200661,3
694,854,3,0.274526128232015,3
694,855,3,0.259471077539441,1
695,844,3,0.188949510519226,1
695,845,3,0.232965168692826,2
695,846,3,0.34737075354492,2
695,847,3,0.460016538363623,2
695,848,3,0.321999325223342,2
695,849,3,0.243551162517397,2
695,850,3,0.298238678551374,3
695,851,3,0.356385763443934,3
695,852,3,0.335781763380044,3
695,853,3,0.280080320016533,3
695,854,3,0.265602514787844,1
696,845,3,0.204470265969261,1
696,846,3,0.226060821273329,2
696,847,3,0.268888548615374,2
696,848,3,0.214077289321691,2
696,849,3,0.21492113938207,1
696,850,3,0.293323213468121,3
696,851,3,0.373748747509408,3
696,852,3,0.356090202880052,3
696,853,3,0.263514115833328,3
697,846,3,0.115616180755195,1
697,847,3,0.11611095302075,1
697,848,3,0.122112043799626,1
697,849,3,0.164822586475502,1
697,850,3,0.229037240407968,1
697,851,3,0.276325547524327,3
697,852,3,0.254649797428692,3
698,850,3,0.137348448526775,1
698,851,3,0.146512309498512,1
650,835,4,0.1069517321424,1
650,836,4,0.111200998048395,1
651,835,4,0.110348648586186,1
651,836,4,0.11340747399473,1
651,837,4,0.107534733106736,1
651,838,4,0.10382283686208,1
652,834,4,0.110589944596393,1
652,835,4,0.112840568354331,1
652,836,4,0.111679608065589,1
652,837,4,0.111450882692996,1
652,838,4,0.114827219876447,1
653,834,4,0.109331899276779,1
653,835,4,0.110775604102235,1
653,836,4,0.111800618577988,1
653,837,4,0.117349367176033,1
653,838,4,0.120875258138657,1
654,835,4,0.103780674475052,1
654,836,4,0.116136005063413,1
654,837,4,0.125698412133273,1
654,838,4,0.120530753512796,1
655,836,4,0.117637387588161,1
655,837,4,0.127225672101911,1
655,838,4,0.117564294963241,1
655,839,4,0.110396767246937,1
655,840,4,0.10580175861324,1
656,835,4,0.108099430241148,1
656,836,4,0.121343717951567,1
656,837,4,0.120837412376967,1
656,838,4,0.110474176497195,1
656,839,4,0.105650130176928,1
657,835,4,0.105898955184818,1
657,836,4,0.120446406430598,1
657,837,4,0.105859614777662,1
657,852,4,0.111544487653827,1
658,836,4,0.11582272068128,1
658,852,4,0.104656001322784,1
663,854,4,0.10671402774294,1
663,855,4,0.143993129181717,1
663,856,4,0.109206181746569,1
664,854,4,0.107057260804747,1
664,855,4,0.17044726083241,1
664,856,4,0.14914769292326,1
665,855,4,0.138507501469437,1
665,856,4,0.151738080827036,1
666,855,4,0.103389188903645,1
666,856,4,0.137106829048519,1
667,856,4,0.131664233740778,1
668,856,4,0.130774172365728,1
668,857,4,0.158800492581606,1
669,856,4,0.12343017609779,1
669,857,4,0.177075578465719,1
670,856,4,0.121582972766846,1
670,857,4,0.19008845267252,1
671,856,4,0.145942793805582,1
672,855,4,0.116121850547767,1
672,856,4,0.17893748286177,1
673,855,4,0.114027238775904,1
673,856,4,0.157051601229304,1
673,857,4,0.161811355486388,1
674,856,4,0.135085354517858,1
678,856,4,0.119823317736373,1
679,855,4,0.108501311406394,1
679,856,4,0.149687382631292,1
679,857,4,0.147810743707922,1
680,856,4,0.132590121990732,1
681,856,4,0.10539283922942,1
682,854,4,0.110863074324213,1
683,853,4,0.103803874941988,1
683,854,4,0.120022562900258,1
683,855,4,0.104525587928833,1
684,854,4,0.111542000296074,1
685,851,4,0.107665704204219,1
685,852,4,0.134413321761654,1
685,853,4,0.131963999389292,1
685,854,4,0.121557084168885,1
686,851,4,0.145374828528472,1
686,852,4,0.209372792330568,1
686,853,4,0.212723720541096,1
687,851,4,0.179113795256415,1
687,852,4,0.279404673341441,3
687,853,4,0.293157218588821,3
687,854,4,0.215766551012339,1
688,850,4,0.116066492895169,1
688,851,4,0.192589329159391,1
688,852,4,0.285294044948763,3
688,853,4,0.305846334741156,3
688,854,4,0.235967755277192,3
689,850,4,0.134656469347588,1
689,851,4,0.199080016715044,1
689,852,4,0.273244503207063,3
689,853,4,0.307792073132155,3
689,854,4,0.259494947250615,3
689,855,4,0.239362429752778,1
689,856,4,0.243883263816703,3
689,857,4,0.210578770448423,3
690,848,4,0.112896539480815,1
690,849,4,0.136271768395806,1
690,850,4,0.163541876084343,1
690,851,4,0.213432026335028,1
690,852,4,0.274380389145001,3
690,853,4,0.317571649957423,3
690,854,4,0.286599762766302,3
690,855,4,0.268083916267373,3
690,856,4,0.272616952884581,3
690,857,4,0.250749442006462,3
691,847,4,0.132572911259731,1
691,848,4,0.147267652008344,1
691,849,4,0.161400339137287,1
691,851,4,0.23445120321637,1
691,852,4,0.269672679781534,3
691,853,4,0.292558936547704,3
691,854,4,0.276482418373842,3
691,855,4,0.251021623638278,1
691,856,4,0.241272675890994,3
692,846,4,0.122366936621946,1
692,847,4,0.168208058842809,1
692,848,4,0.165804780474059,1
692,849,4,0.166330616826353,1
692,850,4,0.207259363641531,1
692,851,4,0.249409771197887,1
692,852,4,0.260441035522503,1
692,853,4,0.266525357976512,3
692,854,4,0.266747926302111,3
692,855,4,0.238462073170525,1
693,845,4,0.127536234890807,1
693,846,4,0.174436257654035,1
693,847,4,0.220363455838045,2
693,848,4,0.204322608382097,2
693,849,4,0.18801127471307,1
693,850,4,0.228853778254042,1
693,851,4,0.265694022783394,3
693,852,4,0.257608169277032,3
693,853,4,0.256343788445293,3
693,854,4,0.280706375693549,3
693,855,4,0.267746193316463,1
694,844,4,0.127105007365702,1
694,845,4,0.187453415023962,1
694,846,4,0.274705463379803,2
694,847,4,0.37088226289502,2
694,848,4,0.311209144981592,2
694,849,4,0.254325280897423,2
694,850,4,0.294290092927686,3
694,851,4,0.340097340236008,3
694,852,4,0.313897052924994,3
694,853,4,0.278219464103122,3
694,854,4,0.299103632113408,3
694,855,4,0.292252311145745,3
694,856,4,0.194350601530106,1
695,830,4,0.10932583146235,1
695,843,4,0.129110721194546,1
695,844,4,0.18628447957471,1
695,845,4,0.219906295098696,2
695,846,4,0.308827527818029,2
695,847,4,0.419849525340755,2
695,848,4,0.330950221524305,2
695,849,4,0.264579463428524,2
695,850,4,0.326841909609018,3
695,851,4,0.431497587463753,3
695,852,4,0.418616732837075,3
695,853,4,0.320043726633895,3
695,854,4,0.289006075042267,3
695,855,4,0.262210584213635,1
696,845,4,0.196332055255303,1
696,846,4,0.206547042382167,2
696,847,4,0.246803399510881,2
696,848,4,0.213467161657552,2
696,849,4,0.216261880981426,3
696,850,4,0.307737596651138,3
696,851,4,0.452173575899569,3
696,852,4,0.452310146340515,3
696,853,4,0.311823131954173,3
696,854,4,0.231176680389743,3
697,846,4,0.118449705090834,1
697,847,4,0.118520845753391,1
697,848,4,0.125425349329877,1
697,849,4,0.162500743976512,1
697,850,4,0.23197049328922,3
697,851,4,0.319682557826495,3
697,852,4,0.314067710205823,3
697,853,4,0.216006341223009,3
698,850,4,0.13892044747276,1
698,851,4,0.158467331645589,3
698,852,4,0.150010951066557,3
650,835,5,0.103847900058813,1
650,836,5,0.11113111779582,1
650,837,5,0.103707871855969,1
651,835,5,0.10358392782299,1
651,836,5,0.109178675808365,1
651,837,5,0.108977121751857,1
651,838,5,0.110957683151402,1
652,834,5,0.104223201073718,1
652,835,5,0.105476227061542,1
652,836,5,0.107483424381781,1
652,837,5,0.110932854190152,1
652,838,5,0.11646673441203,1
653,833,5,0.104388470938426,1
653,834,5,0.105555632890445,1
653,835,5,0.103723788714775,1
653,836,5,0.107586421070093,1
653,837,5,0.116690083522573,1
653,838,5,0.121867524263004,1
654,833,5,0.106520036146327,1
654,836,5,0.113344408879318,1
654,837,5,0.124486477741695,1
654,838,5,0.12206835330492,1
654,839,5,0.122568401445889,1
654,840,5,0.126554710136489,1
655,836,5,0.109554880302991,1
655,837,5,0.1188389263859,1
655,838,5,0.116535175789492,1
655,839,5,0.121698004697381,1
655,840,5,0.115736923569899,1
656,835,5,0.104961466701396,1
656,836,5,0.113197297841616,1
656,837,5,0.109939550737235,1
656,838,5,0.107314362133054,1
656,839,5,0.115424810365183,1
656,840,5,0.104407867867273,1
656,851,5,0.104878580802452,1
656,852,5,0.148166435866637,1
656,853,5,0.12367187365454,1
657,835,5,0.109235661955276,1
657,836,5,0.129058107443325,1
657,837,5,0.105901364464077,1
657,851,5,0.10380287107563,1
657,852,5,0.169880087494315,1
657,853,5,0.153971728089457,1
658,836,5,0.129719097669593,1
658,837,5,0.103425205397749,1
658,852,5,0.130995156813295,1
658,853,5,0.146947251329141,1
659,853,5,0.126262194633893,1
662,855,5,0.109714171585835,1
663,854,5,0.113897070771507,1
663,855,5,0.166900377908837,1
663,856,5,0.139311665346471,1
664,854,5,0.103110169826526,1
664,855,5,0.179507032016912,1
664,856,5,0.183722802248768,1
664,857,5,0.125017065728083,1
665,855,5,0.140636936249846,1
665,856,5,0.191452662436508,1
665,857,5,0.157443822969372,1
666,855,5,0.106898326452164,1
666,856,5,0.170732124642546,1
666,857,5,0.164763938372064,1
667,856,5,0.146740120237312,1
667,857,5,0.163606145839384,1
668,856,5,0.135751553695116,1
668,857,5,0.177909891795699,1
668,858,5,0.117686900507742,1
669,856,5,0.127791205791622,1
669,857,5,0.191418129433799,1
669,858,5,0.153642281458963,1
670,856,5,0.124174297612556,1
672,855,5,0.111500217147447,1
673,856,5,0.139140138048132,1
674,856,5,0.115770173854484,1
678,856,5,0.10562169845086,1
679,855,5,0.103964158937119,1
679,856,5,0.137758048308905,1
679,857,5,0.135723545823733,1
680,855,5,0.106582287014583,1
680,856,5,0.133888165807669,1
681,855,5,0.105104149573053,1
681,856,5,0.113184403735953,1
682,854,5,0.12003961747427,1
682,855,5,0.11708990118475,1
683,854,5,0.136963198080857,1
683,855,5,0.132010177241752,1
684,854,5,0.114836109670749,1
684,855,5,0.112912813269882,1
685,851,5,0.10311928270224,1
685,852,5,0.128799444545129,1
685,853,5,0.134064946673281,1
685,854,5,0.121875298650241,1
685,855,5,0.105891604652265,1
686,851,5,0.147130010776617,1
686,852,5,0.232069898366785,3
686,853,5,0.254427563725213,3
686,854,5,0.184696318380365,1
687,850,5,0.11119033475686,1
687,851,5,0.203467024239402,3
687,852,5,0.326812529786946,3
687,853,5,0.351039929699016,3
687,854,5,0.242144544976827,3
687,855,5,0.184814428834397,1
688,850,5,0.136735967353731,1
688,851,5,0.238436798046449,3
688,852,5,0.323855273345671,3
688,853,5,0.322053221692686,3
688,854,5,0.243074571386989,3
688,855,5,0.230249397880959,1
688,856,5,0.270505598852683,3
688,857,5,0.229454848812819,3
689,850,5,0.152485381251935,1
689,851,5,0.243174489551804,1
689,852,5,0.290812186776965,3
689,853,5,0.285854760079956,3
689,854,5,0.248999390630813,1
689,855,5,0.267536920643071,3
689,856,5,0.33303132571662,3
689,857,5,0.311033802991093,3
689,858,5,0.228438601436591,3
690,849,5,0.122616486644428,1
690,850,5,0.160777585065181,1
690,851,5,0.227415416228423,1
690,852,5,0.272405784019179,3
690,853,5,0.293367918983256,3
690,854,5,0.283786304603749,3
690,855,5,0.297560734137729,3
690,856,5,0.36041782613231,3
690,857,5,0.351845565913374,3
690,858,5,0.262581613219483,3
691,847,5,0.111980645278156,1
691,848,5,0.123664958130742,1
691,849,5,0.144110246923462,1
691,850,5,0.177082170521469,1
691,851,5,0.230502037581009,1
691,852,5,0.27742036417416,3
691,853,5,0.303359177761175,3
691,854,5,0.301485293893253,3
691,855,5,0.284358307654432,3
691,856,5,0.299840358479338,3
691,857,5,0.283475217573533,3
692,846,5,0.119069648337138,1
692,847,5,0.153998464396787,1
692,848,5,0.149248916114339,1
692,849,5,0.15473525768714,1
692,850,5,0.181365958276102,1
692,851,5,0.226011475664807,1
692,852,5,0.271473794492584,3
692,853,5,0.293638672894029,3
692,854,5,0.293968565687348,3
692,855,5,0.260219404138838,3
692,856,5,0.216827347746713,3
693,845,5,0.119442618151278,1
693,846,5,0.166915848604818,1
693,847,5,0.193331454095512,1
693,848,5,0.184179059508395,1
693,849,5,0.168155456245659,1
693,850,5,0.190274547187117,1
693,851,5,0.23964757241468,3
693,852,5,0.275624714957725,3
693,853,5,0.284276035229374,3
693,854,5,0.296002220463151,3
693,855,5,0.280523917405981,3
694,844,5,0.126622181109805,1
694,845,5,0.180315769062909,1
694,846,5,0.232849099433721,1
694,847,5,0.290180888686747,2
694,848,5,0.283907460119067,2
694,849,5,0.23493685145214,1
694,850,5,0.268416307572516,3
694,851,5,0.354657953285146,3
694,852,5,0.366291046645342,3
694,853,5,0.315913552740149,3
694,854,5,0.309710439433798,3
694,855,5,0.302456411899662,3
694,856,5,0.199292345603793,1
695,829,5,0.145178182263047,1
695,830,5,0.116403780837324,1
695,843,5,0.133747077968114,1
695,844,5,0.187608635071022,1
695,845,5,0.207088059424605,1
695,846,5,0.242810442994177,2
695,847,5,0.314796784879292,2
695,848,5,0.306769824865921,2
695,849,5,0.2624579368842,3
695,850,5,0.324009578758937,3
695,851,5,0.474278980796349,3
695,852,5,0.492903601792183,3
695,853,5,0.370715844161036,3
695,854,5,0.297987176566529,3
695,855,5,0.261179301150181,3
696,835,5,0.103026447372284,1
696,842,5,0.11109899407237,1
696,843,5,0.174725237316238,1
696,844,5,0.207636058915266,1
696,846,5,0.181111957779433,1
696,847,5,0.202842173202015,2
696,848,5,0.206116428330947,1
696,849,5,0.216414468667814,3
696,850,5,0.295527681681741,3
696,851,5,0.465324537500922,3
696,852,5,0.507368423682644,3
696,853,5,0.36749100156505,3
696,854,5,0.247083612073559,3
697,847,5,0.120721532737063,1
697,849,5,0.162557551658294,1
697,850,5,0.209044438798997,3
697,851,5,0.300012309632361,3
697,852,5,0.328113495970391,3
697,853,5,0.247378592625767,3
698,850,5,0.130899599890101,1
698,851,5,0.149437877225092,3
698,852,5,0.153127275709263,3
649,836,6,0.103533310650415,1
650,835,6,0.103068029747639,1
650,836,6,0.110661553729917,1
651,836,6,0.106016028310281,1
651,837,6,0.107276181749246,1
651,838,6,0.116864979350246,1
652,837,6,0.104909912586887,1
652,838,6,0.111410571881694,1
653,837,6,0.109067001253093,1
653,838,6,0.113987686441406,1
654,836,6,0.103651789188779,1
654,837,6,0.116188596506492,1
654,838,6,0.116121036300611,1
654,839,6,0.116015574562687,1
654,840,6,0.113582358668332,1
654,841,6,0.103820193347337,1
655,837,6,0.10920134087991,1
655,838,6,0.111093874353945,1
655,839,6,0.119544109040053,1
655,840,6,0.110782263082409,1
655,852,6,0.114921694854788,1
656,836,6,0.106067515500366,1
656,838,6,0.102925246489345,1
656,839,6,0.114784856716147,1
656,851,6,0.125601394026826,1
657,835,6,0.106518229186883,1
657,836,6,0.131687724213551,1
657,837,6,0.104270605873948,1
657,851,6,0.108871158080754,1
657,854,6,0.12060218418119,1
658,836,6,0.133902576866939,1
658,837,6,0.108913164310793,1
658,852,6,0.142139869190413,1
658,854,6,0.137998675074873,1
659,853,6,0.155157461569096,1
659,854,6,0.147148180757693,1
660,853,6,0.106240570906382,1
660,854,6,0.126508922676502,1
661,854,6,0.108563495350225,1
661,855,6,0.111178946450735,1
662,854,6,0.107339759951907,1
662,855,6,0.144788559421437,1
662,856,6,0.126135517853607,1
663,854,6,0.111735423035083,1
663,855,6,0.183112484965428,1
663,856,6,0.183902193166909,1
663,857,6,0.125827687812018,1
664,855,6,0.170808161942115,1
664,856,6,0.219212824218718,1
664,857,6,0.175296928052943,1
665,855,6,0.130341729046922,1
665,856,6,0.218530172787262,1
665,857,6,0.210101599306342,1
666,856,6,0.184873556562872,1
666,857,6,0.201573419974585,1
666,858,6,0.103038504922648,1
667,856,6,0.143881978867765,1
667,857,6,0.178224938520993,1
668,856,6,0.129503667949206,1
668,857,6,0.182795787437679,1
668,858,6,0.124878866792824,1
669,856,6,0.123669341680504,1
669,857,6,0.193827765622815,1
670,856,6,0.119146276802451,1
672,855,6,0.103032704805914,1
672,856,6,0.146029170928637,1
673,856,6,0.119914468801663,1
673,857,6,0.140749748520323,1
679,856,6,0.116272162803744,1
680,856,6,0.128925675162588,1
681,856,6,0.114092858173493,1
682,854,6,0.10882194632108,1
682,855,6,0.118912164013738,1
683,854,6,0.128435676839268,1
683,855,6,0.139403742199624,1
684,854,6,0.107422433923509,1
684,855,6,0.114906503010573,1
685,852,6,0.12537244557282,1
685,853,6,0.138147827307503,1
685,854,6,0.119810613249912,1
685,855,6,0.104329042050043,1
686,851,6,0.14570036008017,1
686,852,6,0.244992826147926,3
686,853,6,0.2898984230018,3
686,854,6,0.199391326826673,1
687,850,6,0.107146794529794,1
687,851,6,0.207358300248129,3
687,852,6,0.344101294666364,3
687,853,6,0.389279608547445,3
687,854,6,0.264286401376466,3
687,855,6,0.195947775213531,1
687,856,6,0.222744158367815,3
687,857,6,0.195917503065808,3
688,850,6,0.138519213243612,1
688,851,6,0.255948978960835,3
688,852,6,0.329852170193985,3
688,853,6,0.313614609548188,3
688,854,6,0.241565782559335,3
688,855,6,0.242878705906509,3
688,856,6,0.331339364740876,3
688,857,6,0.305233530100063,3
688,858,6,0.204817402955793,3
689,850,6,0.153212816277019,1
689,851,6,0.265771766655771,1
689,852,6,0.292005716951983,3
689,853,6,0.247737240613203,3
689,854,6,0.229933380751518,1
689,855,6,0.277701959841598,3
689,856,6,0.410279377345868,3
689,857,6,0.409546019509273,3
689,858,6,0.282233881051741,3
690,849,6,0.105370564550347,1
690,850,6,0.146038752275319,1
690,851,6,0.21888244064629,1
690,852,6,0.248899606314846,1
690,853,6,0.246319089763588,3
690,854,6,0.266231983610476,3
690,855,6,0.306431856525457,3
690,856,6,0.429135467615673,3
690,857,6,0.437708129381152,3
690,858,6,0.308189827291262,3
690,859,6,0.166953761290931,3
691,848,6,0.104648171165193,1
691,849,6,0.129931359633918,1
691,850,6,0.160566561202698,1
691,851,6,0.202922973289749,1
691,852,6,0.246770361153638,1
691,853,6,0.278269969734991,3
691,854,6,0.30399424592727,3
691,855,6,0.297101677206371,3
691,856,6,0.336602546822335,3
691,857,6,0.318475598150423,3
691,858,6,0.236194740614764,3
692,846,6,0.106614778822364,1
692,847,6,0.1309926471474,1
692,848,6,0.133353183117449,1
692,849,6,0.152255317390865,1
692,851,6,0.189863675840934,1
692,852,6,0.245963118753107,1
692,853,6,0.292900362650068,3
692,854,6,0.307168872897223,3
692,855,6,0.271114209563215,3
692,856,6,0.225107438239242,3
692,857,6,0.186386840480996,3
693,845,6,0.11136378055535,1
693,846,6,0.152645163313887,1
693,847,6,0.158957285352626,1
693,848,6,0.158707646097579,1
693,849,6,0.155216622759783,1
693,850,6,0.164128937130393,1
693,851,6,0.200317114689991,3
693,852,6,0.261407245737829,3
693,853,6,0.295785028399602,3
693,854,6,0.303985322670756,3
693,855,6,0.284707430065539,3
694,844,6,0.126194679044294,1
694,845,6,0.174003535483463,1
694,846,6,0.202158160973941,1
694,847,6,0.219921219245216,1
694,848,6,0.242612324391427,1
694,849,6,0.208576302454136,1
694,850,6,0.23252888837372,3
694,851,6,0.331011658145403,3
694,852,6,0.38233570879345,3
694,853,6,0.344063616215734,3
694,854,6,0.311452839116987,3
694,855,6,0.299290886651353,3
695,829,6,0.132095137797835,1
695,830,6,0.119403924680219,1
695,831,6,0.116746523120024,1
695,843,6,0.135448932604517,1
695,844,6,0.193741790046304,1
695,845,6,0.205436833114847,1
695,846,6,0.209648744038261,1
695,847,6,0.241779115314441,2
695,848,6,0.279041853731585,1
695,849,6,0.253612379626385,3
695,850,6,0.309843886734963,3
695,851,6,0.482164864124235,3
695,852,6,0.551978727670331,3
695,853,6,0.434631033604895,3
695,854,6,0.303254084107582,3
695,855,6,0.242610361274994,3
696,830,6,0.130596778026231,1
696,842,6,0.110528362972376,1
696,843,6,0.180332912869486,1
696,844,6,0.214663770356067,1
696,845,6,0.193251992496255,1
696,846,6,0.179960311139677,1
696,847,6,0.1824330905226,1
696,848,6,0.20753924158209,1
696,849,6,0.228818932937355,3
696,850,6,0.290859770042326,3
696,851,6,0.453621998896907,3
696,852,6,0.552280066042806,3
696,853,6,0.443396928490182,3
696,854,6,0.26759438641502,3
696,855,6,0.168985754110208,1
697,843,6,0.174403509302629,1
697,844,6,0.173461101874053,1
697,849,6,0.17476451079897,1
697,850,6,0.200933287860418,3
697,851,6,0.273220231949345,3
697,852,6,0.33203883651086,3
697,853,6,0.282889115777558,3
697,854,6,0.182214203040314,1
698,843,6,0.189138616632897,1
698,844,6,0.163175542942235,1
698,851,6,0.152060098846482,1
698,852,6,0.163149007408177,3
698,853,6,0.143133629960226,1
699,843,6,0.178395026944219,1
649,835,7,0.103156983461012,1
649,836,7,0.106534357973032,1
650,835,7,0.104411582172797,1
650,836,7,0.110307155443396,1
651,836,7,0.1046460407377,1
651,837,7,0.104079558951985,1
651,838,7,0.117745459378615,1
651,841,7,0.124389995030638,1
651,847,7,0.11493718785891,1
652,838,7,0.106935904516158,1
652,848,7,0.126154357078922,1
653,833,7,0.107617540927185,1
653,837,7,0.102915408599039,1
653,838,7,0.10792773563175,1
653,840,7,0.119038840794023,1
653,841,7,0.126835056548015,1
653,848,7,0.111927395744909,1
654,832,7,0.10742037042044,1
654,833,7,0.115306242594255,1
654,834,7,0.103282054055125,1
654,837,7,0.107674805925863,1
654,838,7,0.110524035192967,1
654,839,7,0.109444075765229,1
654,840,7,0.107092273432494,1
655,838,7,0.104169304604374,1
655,839,7,0.115952230595509,1
655,840,7,0.104473498418933,1
656,839,7,0.112248956447459,1
657,836,7,0.122467501722858,1
658,836,7,0.131421331544399,1
658,837,7,0.115334083154578,1
659,855,7,0.123152082808534,1
660,853,7,0.120306121684129,1
660,854,7,0.170818814079578,1
660,855,7,0.135577048259916,1
661,854,7,0.132340159267636,1
661,855,7,0.150161486403946,1
661,856,7,0.107657149032036,1
662,854,7,0.116688376949765,1
662,855,7,0.178595967526842,1
662,856,7,0.166623968884248,1
663,854,7,0.10496743412919,1
663,855,7,0.188455875968876,1
663,856,7,0.223690001250148,1
663,857,7,0.157725875953706,1
664,855,7,0.153250104335177,1
664,856,7,0.237028195081305,1
664,857,7,0.213411748234601,1
665,855,7,0.113539493574854,1
665,856,7,0.21219541913919,1
665,857,7,0.231661726305698,1
665,858,7,0.11115645984432,1
666,856,7,0.169437159349106,1
666,857,7,0.203744626749549,1
666,858,7,0.110906508275294,1
667,856,7,0.131051072169425,1
667,857,7,0.174319284915208,1
667,858,7,0.114456135100245,1
668,856,7,0.123336894605008,1
668,857,7,0.180413824497926,1
668,858,7,0.141738523420559,1
669,856,7,0.117567206175679,1
669,857,7,0.184556256715308,1
670,856,7,0.110548284142543,1
671,856,7,0.119427827853606,1
672,856,7,0.125021281966786,1
673,856,7,0.104135976241294,1
673,857,7,0.126373913805447,1
680,856,7,0.116266552306211,1
681,856,7,0.112663508636954,1
682,855,7,0.109155241105945,1
683,854,7,0.109595258038716,1
683,855,7,0.127767514545577,1
684,855,7,0.110887412506354,1
685,851,7,0.104526859492886,1
685,852,7,0.124389270016047,1
685,853,7,0.124405253799277,1
685,854,7,0.105942099130063,1
686,851,7,0.14536871609776,1
686,852,7,0.228154038786362,1
686,853,7,0.254865472538633,3
686,854,7,0.171508615270315,1
686,855,7,0.116778914541169,1
687,851,7,0.188361066368416,1
687,852,7,0.297956882110664,3
687,853,7,0.334599699589646,3
687,854,7,0.233595039062002,3
687,855,7,0.168794762958598,1
687,856,7,0.215503091863766,3
687,857,7,0.217952704241964,3
688,850,7,0.131364256164922,1
688,851,7,0.24160703031257,1
688,852,7,0.292939044967056,3
688,853,7,0.267659749268985,3
688,854,7,0.21940612426295,1
688,855,7,0.219790091990744,3
688,856,7,0.338977426927229,3
688,857,7,0.356813566669353,3
688,858,7,0.230657949180448,3
689,850,7,0.145066028082737,1
689,851,7,0.261451616630844,1
689,852,7,0.276578454922073,1
689,853,7,0.217751797121554,1
689,854,7,0.214892027257693,1
689,855,7,0.261888677734896,3
689,856,7,0.432543303894618,3
689,857,7,0.479904023237588,3
689,858,7,0.316627881732229,3
689,859,7,0.163987916215261,3
690,850,7,0.133997464545894,1
690,851,7,0.206339576668218,1
690,852,7,0.226761051520117,1
690,853,7,0.211701182269025,1
690,854,7,0.246764471804339,3
690,855,7,0.293556779707372,3
690,856,7,0.443275393736463,3
690,857,7,0.487065650450522,3
690,858,7,0.331905456134119,3
690,859,7,0.172603242300947,3
691,849,7,0.122893431064408,1
691,850,7,0.145633145650479,1
691,851,7,0.172785220963478,1
691,852,7,0.204130691442624,1
691,853,7,0.238454711483901,1
691,854,7,0.285859333248919,3
691,855,7,0.294300689294796,3
691,856,7,0.34077872010341,3
691,857,7,0.33109372979719,3
691,858,7,0.240939949963731,3
691,859,7,0.161716735505129,1
692,847,7,0.115974047957685,1
692,848,7,0.12156985557977,1
692,849,7,0.148030969678685,1
692,851,7,0.160771271861198,1
692,852,7,0.210122078180041,1
692,853,7,0.274523428946919,3
692,854,7,0.30378294321302,3
692,855,7,0.273335185801386,3
692,856,7,0.220823360478772,3
692,857,7,0.182231547620163,3
692,858,7,0.161722089459037,1
693,845,7,0.10611776458861,1
693,846,7,0.143039645760994,1
693,847,7,0.138991141972491,1
693,848,7,0.137723347995136,1
693,850,7,0.15284472079175,1
693,851,7,0.173660815508905,1
693,852,7,0.241729702781495,3
693,853,7,0.300431055752417,3
693,854,7,0.309702564659924,3
693,855,7,0.280410012036581,3
694,831,7,0.103797885206053,1
694,844,7,0.119086424059384,1
694,845,7,0.17333238389884,1
694,846,7,0.197893424371966,1
694,847,7,0.185315324684735,1
694,848,7,0.195247723431874,1
694,849,7,0.184882122889126,1
694,850,7,0.201561038956172,1
694,851,7,0.277218676268805,3
694,852,7,0.349753597656253,3
694,853,7,0.343939872956028,3
694,854,7,0.304678905091441,3
694,855,7,0.282108799303558,3
695,829,7,0.126420894750993,1
695,830,7,0.130532854047379,1
695,831,7,0.136727211408276,1
695,843,7,0.123338612331887,1
695,844,7,0.192527067137065,1
695,845,7,0.227071179300258,1
695,846,7,0.235119086658295,1
695,847,7,0.230957145971359,1
695,848,7,0.247289360060628,1
695,849,7,0.235643149513357,1
695,850,7,0.280964770894051,3
695,851,7,0.42351711761682,3
695,852,7,0.524344740735228,3
695,853,7,0.44544994673262,3
695,854,7,0.291965941536073,3
695,855,7,0.217243907668923,3
696,830,7,0.138202571486216,1
696,835,7,0.115049241652584,1
696,842,7,0.104517445457264,1
696,843,7,0.175822853637802,1
696,844,7,0.233589238945268,1
696,845,7,0.239594746736118,4
696,846,7,0.23463872545201,4
696,847,7,0.215541461866776,1
696,848,7,0.220782938126764,1
696,849,7,0.237392353179637,1
696,850,7,0.283110635620516,3
696,851,7,0.407849529980848,3
696,852,7,0.528163939139464,3
696,853,7,0.462699226201965,3
696,854,7,0.264596573772889,3
697,843,7,0.192262983360536,1
697,844,7,0.211113585827584,1
697,845,7,0.198442963124375,1
697,849,7,0.19177671049681,1
697,850,7,0.205083739854592,1
697,851,7,0.249052149384951,3
697,852,7,0.306702498895524,3
697,853,7,0.28091580452393,3
697,854,7,0.176987182455878,1
698,842,7,0.165804713549635,1
698,843,7,0.228225134832637,1
698,844,7,0.203022913762704,1
698,845,7,0.158411494367953,1
698,851,7,0.163817760867612,1
698,852,7,0.165930698777541,3
698,853,7,0.146583193617444,1
699,842,7,0.155113904923237,1
699,843,7,0.214344920092684,1
699,844,7,0.189617750891411,1
700,843,7,0.154135224456933,1
650,836,8,0.10421785827388,1
650,841,8,0.125677040933922,1
650,847,8,0.162150528466482,1
651,835,8,0.104334619085364,1
651,840,8,0.105549676616722,1
651,841,8,0.119088398329888,1
651,842,8,0.126243991190604,1
651,848,8,0.115489225123143,1
652,834,8,0.103373361277403,1
652,835,8,0.106426152333731,1
652,841,8,0.123562943000647,1
653,832,8,0.107782855408176,1
653,833,8,0.117210643999454,1
653,834,8,0.109038614143308,1
653,839,8,0.104615779744047,1
653,840,8,0.115672575736363,1
653,841,8,0.11822599905003,1
653,842,8,0.103196725414711,1
654,833,8,0.117862142111605,1
654,834,8,0.110813762177903,1
654,838,8,0.10920238936255,1
654,839,8,0.11188555682593,1
654,840,8,0.114557324829113,1
654,841,8,0.107984063688494,1
655,838,8,0.105731554892617,1
655,839,8,0.120356694240422,1
655,840,8,0.109081278463515,1
655,851,8,0.106097252252698,1
655,854,8,0.108750694117816,1
656,839,8,0.112030637822775,1
657,836,8,0.115022817659232,1
658,835,8,0.104595914344233,1
658,836,8,0.142181362333203,1
658,837,8,0.127270901858366,1
659,836,8,0.121146748218093,1
659,837,8,0.113591393465553,1
660,853,8,0.123324625127301,1
660,855,8,0.168776592977522,1
661,854,8,0.146881698855976,1
661,855,8,0.188158419212985,1
661,856,8,0.131701332179735,1
662,854,8,0.119183654093174,1
662,855,8,0.203783799845646,1
662,856,8,0.19746515267558,1
662,857,8,0.11110402455823,1
663,855,8,0.187929537683403,1
663,856,8,0.247010441370145,1
663,857,8,0.176550679055359,1
664,855,8,0.137420303049853,1
664,856,8,0.235675072463535,1
664,857,8,0.228765438014554,1
664,858,8,0.104521092838364,1
665,856,8,0.185771013086759,1
665,857,8,0.222702620608743,1
665,858,8,0.118665915596166,1
666,856,8,0.142295133853756,1
666,857,8,0.190613140155538,1
666,858,8,0.137981297032812,1
667,856,8,0.119810947872031,1
667,857,8,0.183293403991248,1
668,856,8,0.118953601386174,1
668,857,8,0.196788167512011,1
669,856,8,0.110782330006833,1
669,857,8,0.182014043242636,1
670,856,8,0.103751238882626,1
671,856,8,0.108330029497609,1
672,856,8,0.107045649417209,1
672,857,8,0.142735407330152,1
673,857,8,0.120776053834363,1
673,858,8,0.146632271528271,1
674,857,8,0.119532586885079,1
683,855,8,0.10354571397697,1
684,855,8,0.105906026865605,1
685,851,8,0.10321582118365,1
685,852,8,0.123977930198897,1
685,853,8,0.108857237800592,1
686,851,8,0.142701777807165,1
686,852,8,0.201872728306203,1
686,853,8,0.19501759264638,1
686,854,8,0.136835205120236,1
687,851,8,0.158203526720825,1
687,852,8,0.227989315471115,1
687,853,8,0.242032870421555,3
687,854,8,0.183839484981758,1
687,856,8,0.179812497395525,1
687,857,8,0.205201861462695,3
688,850,8,0.110317439496528,1
688,851,8,0.194933134023476,1
688,852,8,0.22754558423282,1
688,853,8,0.205316703774029,1
688,854,8,0.181931770817578,1
688,855,8,0.182526082009546,1
688,856,8,0.300101475273076,3
688,857,8,0.365072040572977,3
688,858,8,0.232669117349836,3
689,850,8,0.121388769242891,1
689,851,8,0.21202786269,1
689,852,8,0.224525351908698,1
689,853,8,0.175711156774389,1
689,854,8,0.179715802757126,1
689,855,8,0.219245594878265,3
689,856,8,0.395062324931284,3
689,857,8,0.501974895131659,3
689,858,8,0.325359712085775,3
689,859,8,0.160887162655172,3
690,850,8,0.115823947629051,1
690,852,8,0.185781698686434,1
690,853,8,0.166603835786738,1
690,854,8,0.197931192055161,1
690,855,8,0.242440886325654,3
690,856,8,0.387769035068487,3
690,857,8,0.476040967027586,3
690,858,8,0.323304619186197,3
690,859,8,0.166119592963869,3
691,849,8,0.111472120043499,1
691,852,8,0.153032098024471,1
691,853,8,0.178478604395543,1
691,854,8,0.226734058669162,1
691,855,8,0.250555829648251,3
691,856,8,0.29050406672954,3
691,857,8,0.299845913206518,3
691,858,8,0.220985139119369,3
691,859,8,0.15183435161075,1
692,848,8,0.110112684221746,1
692,852,8,0.158684958717892,1
692,853,8,0.217144257201804,1
692,854,8,0.252821020622449,3
692,856,8,0.186762877664562,1
692,857,8,0.157647496299302,3
692,858,8,0.144284551585391,1
693,846,8,0.124383402974889,1
693,847,8,0.120919640185743,1
693,852,8,0.191100952281012,1
693,853,8,0.253638703233101,3
693,854,8,0.269738622647171,3
694,830,8,0.114572182051209,1
694,831,8,0.120629701273465,1
694,844,8,0.105602736530768,1
694,845,8,0.170924454282632,1
694,846,8,0.199451402651153,1
694,850,8,0.17298771196192,1
694,851,8,0.207082214691589,3
694,852,8,0.266254514833174,3
694,853,8,0.287359957296864,3
694,854,8,0.265966293647775,3
695,830,8,0.149348644659953,1
695,832,8,0.133296241586819,1
695,844,8,0.183782532297058,1
695,845,8,0.268915251460492,4
695,846,8,0.295904555420606,4
695,847,8,0.243114502959889,1
695,848,8,0.210220947862215,1
695,849,8,0.203125888142875,1
695,850,8,0.237010705498537,3
695,851,8,0.322056657146444,3
695,852,8,0.416217804555876,3
695,853,8,0.385248884347546,3
695,854,8,0.262153363831239,3
696,835,8,0.122892438352121,1
696,843,8,0.156355074133969,1
696,844,8,0.250509584871368,4
696,845,8,0.319679077756454,4
696,846,8,0.335686909163301,4
696,847,8,0.271860974592723,4
696,848,8,0.222545192055696,1
696,849,8,0.219019100319801,1
696,850,8,0.259955431903016,3
696,851,8,0.342733047128804,3
696,852,8,0.443933930067189,3
696,853,8,0.410008958057214,3
696,854,8,0.24112588832134,3
697,843,8,0.195017548030097,1
697,844,8,0.252671846081678,1
697,845,8,0.267034228987359,4
697,846,8,0.254847046013932,4
697,847,8,0.205071782690863,1
697,849,8,0.18552951630328,1
697,850,8,0.198069680996257,1
697,851,8,0.222479070724928,3
697,852,8,0.257757856905052,3
697,853,8,0.241532431888114,3
698,842,8,0.160515386326591,1
698,843,8,0.237817903282786,1
698,844,8,0.232801873098621,1
698,845,8,0.184186900820056,1
698,852,8,0.168096005049135,1
699,842,8,0.148555010225606,1
699,843,8,0.209951844753897,1
699,844,8,0.195114030741154,1
699,845,8,0.155006725458435,1
700,843,8,0.142613627186878,1
700,844,8,0.171886314410408,1
650,841,9,0.113115181573547,1
650,842,9,0.109344927231289,1
650,847,9,0.144705495057364,1
651,840,9,0.105318809662566,1
651,841,9,0.117966633445383,1
651,842,9,0.110378329568165,1
651,848,9,0.108943447612587,1
652,833,9,0.105984261517091,1
652,834,9,0.10344120033505,1
652,840,9,0.108141782247377,1
652,841,9,0.110520521660714,1
653,833,9,0.115581636598415,1
653,834,9,0.106369523117079,1
653,840,9,0.107836216482129,1
653,841,9,0.105315106511113,1
654,839,9,0.110106917567224,1
654,840,9,0.119652727379969,1
654,841,9,0.109017153711392,1
655,839,9,0.11532751340697,1
655,840,9,0.11095054454619,1
657,836,9,0.107969663783295,1
658,835,9,0.133788258796926,1
658,836,9,0.160822647510577,1
658,837,9,0.128985249053889,1
659,835,9,0.132510928089171,1
659,836,9,0.16066071271299,1
659,837,9,0.124936767573528,1
660,853,9,0.111039977884601,1
660,855,9,0.181952896627375,1
661,854,9,0.147139157114544,1
661,855,9,0.211830814878031,1
661,856,9,0.150208500811704,1
662,854,9,0.116227100358349,1
662,855,9,0.212296385786644,1
662,856,9,0.210932466028493,1
662,857,9,0.113691467787356,1
663,855,9,0.175082167576794,1
663,856,9,0.240257811619526,1
663,857,9,0.171609793845112,1
664,855,9,0.118501393054191,1
664,856,9,0.205208085434113,1
664,857,9,0.205688937419507,1
664,858,9,0.108735000340422,1
665,856,9,0.148673221066274,1
665,857,9,0.186997670851585,1
665,858,9,0.134095441902417,1
666,845,9,0.105233436405869,1
666,856,9,0.118071437093139,1
666,857,9,0.173897694507138,1
667,856,9,0.110536449673592,1
668,856,9,0.112397796366111,1
669,856,9,0.105606506606645,1
672,857,9,0.132687987806548,1
673,857,9,0.123144799200405,1
673,858,9,0.144520638644607,1
674,857,9,0.116138581653731,1
674,858,9,0.15987466304668,1
675,857,9,0.111548246575633,1
677,857,9,0.121369060000066,1
685,852,9,0.117844741761403,1
686,851,9,0.125978825469223,1
686,852,9,0.167900619193693,1
686,853,9,0.139640063494324,1
686,854,9,0.108409346093947,1
687,851,9,0.128796678335609,1
687,852,9,0.166956951355135,1
687,853,9,0.159214743611194,1
687,856,9,0.137382122666044,1
687,857,9,0.164513161401811,1
688,851,9,0.146771663949089,1
688,852,9,0.16878349734725,1
688,853,9,0.153522096347791,1
688,855,9,0.143839448396406,1
688,856,9,0.232800311528731,3
688,857,9,0.317520475081315,3
688,858,9,0.211892920743368,3
689,851,9,0.154873144308421,1
689,852,9,0.167852868617273,1
689,855,9,0.171042341655252,3
689,856,9,0.319184417031606,3
689,857,9,0.462347694511599,3
689,858,9,0.310817101706653,3
689,859,9,0.148033568577145,3
690,855,9,0.185197671547599,3
690,856,9,0.300969172736489,3
690,857,9,0.416376326207845,3
690,858,9,0.29941360373656,3
690,859,9,0.154987127756316,1
691,856,9,0.220357254174768,3
691,857,9,0.245576808670479,3
691,858,9,0.197977124518066,1
693,846,9,0.107616704371887,1
693,847,9,0.111339687762762,1
693,853,9,0.195902534303006,1
694,830,9,0.130902031477501,1
694,831,9,0.137650612300477,1
694,832,9,0.106437351020655,1
694,845,9,0.168555162367129,4
694,846,9,0.195718692910678,4
694,847,9,0.155517726896774,1
694,851,9,0.155277613218056,1
694,852,9,0.194774790836637,3
694,853,9,0.22402705495682,3
695,830,9,0.163289961398885,1
695,844,9,0.179060813420863,4
695,845,9,0.314581533624035,4
695,846,9,0.348894020356268,4
695,847,9,0.244691376234744,4
695,848,9,0.17269098022062,1
695,850,9,0.192562023994458,1
695,851,9,0.233050385792534,3
695,852,9,0.301509654383536,3
695,853,9,0.299902397420251,3
695,854,9,0.234279162830782,1
696,835,9,0.133050138172165,1
696,836,9,0.104910882991033,1
696,843,9,0.137338443325409,1
696,844,9,0.262245005675637,4
696,845,9,0.410683645482231,4
696,846,9,0.436470741400368,4
696,847,9,0.310573920658508,4
696,848,9,0.208638497552038,4
696,849,9,0.185890807805458,1
696,850,9,0.225610286051942,1
696,851,9,0.277513166041905,3
696,852,9,0.344866106982172,3
696,853,9,0.324737538025342,3
696,854,9,0.215972075917996,3
697,836,9,0.160344204804442,1
697,837,9,0.127775277778744,1
697,838,9,0.111462672545665,1
697,843,9,0.183519352000251,1
697,844,9,0.276192010990597,4
697,845,9,0.333818669255125,4
697,846,9,0.324556440534392,4
697,847,9,0.252499738771666,4
697,848,9,0.194654148408568,1
697,850,9,0.181579558728904,1
697,851,9,0.197895008249997,1
697,852,9,0.213985022849337,3
697,853,9,0.19466284858367,3
698,842,9,0.145638912305001,1
698,843,9,0.216250526137512,1
698,844,9,0.232209458098663,1
698,845,9,0.196696391818766,4
698,846,9,0.1783304448752,4
698,847,9,0.175838302025642,1
699,843,9,0.17762027635147,1
699,844,9,0.172750252952014,1
699,845,9,0.145526691200268,1
650,834,10,0.103132823744,1
650,841,10,0.106828022344905,1
650,847,10,0.125721322594373,1
651,840,10,0.108264175864536,1
651,841,10,0.129407932560883,1
651,842,10,0.108187424704446,1
652,833,10,0.109629244491964,1
652,834,10,0.108583293825615,1
652,841,10,0.109868767004938,1
653,849,10,0.107697024834583,1
654,839,10,0.109525734716402,1
654,840,10,0.120822744774073,1
654,841,10,0.105649951711797,1
655,839,10,0.106952970244241,1
655,840,10,0.107522050928416,1
657,835,10,0.102939456775344,1
658,834,10,0.110928258713047,1
658,835,10,0.164556338809268,1
658,836,10,0.177932679562022,1
658,837,10,0.119506765211542,1
658,854,10,0.182649211795367,1
659,834,10,0.112967111285769,1
659,835,10,0.178462843693725,1
659,836,10,0.195416640677682,1
659,837,10,0.12418426935171,1
659,853,10,0.148467116148944,1
659,855,10,0.138865156744585,1
660,835,10,0.110066751758841,1
660,836,10,0.116844768174242,1
660,854,10,0.167472414421731,1
660,855,10,0.18232768455503,1
660,856,10,0.10815572483568,1
661,854,10,0.137575277707358,1
661,855,10,0.217759805744275,1
661,856,10,0.158507274372559,1
662,854,10,0.105755134597955,1
662,855,10,0.201063433556674,1
662,856,10,0.202627390417725,1
662,857,10,0.11170671245725,1
663,855,10,0.151578477230214,1
663,856,10,0.211676152534504,1
663,857,10,0.157889015390922,1
664,856,10,0.167391357790373,1
664,857,10,0.17873953157008,1
664,858,10,0.138341283508724,1
665,856,10,0.120769026769859,1
665,857,10,0.165311268618486,1
666,845,10,0.103886203137399,1
666,856,10,0.106126330914863,1
672,857,10,0.13015382757288,1
673,857,10,0.134218962080711,1
674,857,10,0.124924453479539,1
675,857,10,0.142636359182847,1
676,856,10,0.140875332201686,1
677,856,10,0.129994647830743,1
686,852,10,0.133938950291304,1
686,853,10,0.111227277038828,1
687,851,10,0.107189124227882,1
687,852,10,0.131532080311807,1
687,853,10,0.115410890085022,1
687,857,10,0.120151392416178,1
688,851,10,0.113520074337865,1
688,852,10,0.130195744570355,1
688,856,10,0.169830585728804,1
688,857,10,0.24077324122391,3
688,858,10,0.175448043402006,1
689,851,10,0.112125759737214,1
689,855,10,0.133839433673033,1
689,856,10,0.237368215770767,3
689,857,10,0.372287341173842,3
689,858,10,0.266155801307989,3
689,859,10,0.124803141807232,1
690,856,10,0.218336515812769,3
690,857,10,0.32455153274331,3
690,858,10,0.248574732853316,1
690,859,10,0.129877730862269,1
691,857,10,0.184759807350461,1
691,858,10,0.162003685126475,1
694,829,10,0.106032580951114,1
694,830,10,0.149568011767277,1
694,832,10,0.12571329166351,1
694,845,10,0.166695232241582,4
694,846,10,0.199708615520167,4
694,847,10,0.173023204214704,1
695,833,10,0.109886245433635,1
695,844,10,0.1809790681818,4
695,845,10,0.343127745072555,4
695,846,10,0.383286169461029,4
695,847,10,0.25617409041454,4
695,848,10,0.162709235864959,1
695,851,10,0.172226636259778,1
695,852,10,0.210648728779492,3
695,853,10,0.214187179225659,1
696,835,10,0.14961217073295,1
696,836,10,0.112229905294802,1
696,843,10,0.129177879853883,1
696,844,10,0.268776249432146,4
696,845,10,0.474572065156548,4
696,846,10,0.494145942180332,4
696,847,10,0.316642114326369,4
696,848,10,0.187369960267416,4
696,850,10,0.187300604256161,1
696,851,10,0.212931810883,1
696,852,10,0.246557541485781,3
696,853,10,0.22732194511644,3
697,836,10,0.150723874645736,1
697,837,10,0.127577928806869,1
697,838,10,0.127875318638336,1
697,839,10,0.116118047009678,1
697,843,10,0.166776445029929,1
697,844,10,0.271070909460981,4
697,845,10,0.365982614283939,4
697,846,10,0.348277066400896,4
697,847,10,0.262025181251417,4
697,848,10,0.19508445014581,1
698,836,10,0.136604315857939,1
698,843,10,0.186279014080096,1
698,844,10,0.209955436364644,1
698,845,10,0.192907577102959,4
698,846,10,0.176199069286499,4
698,847,10,0.183837254167629,1
699,844,10,0.146788662752748,1
699,845,10,0.133163441221751,1
650,841,11,0.105263864710582,1
650,847,11,0.111673964105844,1
651,840,11,0.107811476753444,1
651,841,11,0.139632545650711,1
651,842,11,0.11040323660791,1
652,833,11,0.108746399800619,1
652,834,11,0.114415556591248,1
652,841,11,0.110652552394908,1
653,849,11,0.114955157066715,1
654,839,11,0.106448761634923,1
654,840,11,0.109183260131399,1
657,835,11,0.110825496260219,1
658,834,11,0.123885128331152,1
658,835,11,0.189267646922088,1
658,836,11,0.182077242206896,1
658,837,11,0.106828814283921,1
658,853,11,0.131132307265913,1
658,854,11,0.152181131667022,1
658,855,11,0.115544694316448,1
659,834,11,0.133808693054342,1
659,835,11,0.209464924954074,1
659,836,11,0.205997972100725,1
659,837,11,0.114228826294624,1
659,853,11,0.110356311432717,1
659,854,11,0.159812691030191,1
659,855,11,0.148140926507078,1
660,835,11,0.13292484449664,1
660,836,11,0.12385747739003,1
660,854,11,0.139365851821652,1
660,855,11,0.182578573065989,1
660,856,11,0.129501626754279,1
661,854,11,0.12197320908234,1
661,855,11,0.210225297949766,1
661,856,11,0.173436518302358,1
662,855,11,0.176875630595384,1
662,856,11,0.192504892844628,1
662,857,11,0.117455353155277,1
663,855,11,0.123838359312949,1
663,856,11,0.180470219479094,1
663,857,11,0.150690880904775,1
663,858,11,0.112062069993846,1
664,856,11,0.136067738135616,1
675,856,11,0.112027280447512,1
687,852,11,0.113573368487395,1
688,852,11,0.113554730035351,1
688,857,11,0.166896206286416,1
689,856,11,0.16929936196039,1
689,857,11,0.260076096639225,3
689,858,11,0.202366630554248,1
690,856,11,0.152547587503907,1
690,857,11,0.225620793186487,1
690,858,11,0.189541256274946,1
691,857,11,0.135954937019209,1
693,830,11,0.104611853511181,1
693,846,11,0.113027097877684,1
693,847,11,0.146937904217943,1
694,829,11,0.10894071486528,1
694,830,11,0.151605213537544,1
694,832,11,0.138789543299701,1
694,845,11,0.167484081579623,4
694,846,11,0.218577733744481,4
694,847,11,0.213457814546354,1
695,829,11,0.117277969969851,1
695,833,11,0.114131127789867,1
695,844,11,0.178528139623265,4
695,845,11,0.337295192301086,4
695,846,11,0.385157376351996,4
695,847,11,0.259836707975098,4
695,848,11,0.153394538395925,1
696,835,11,0.155541563145737,1
696,836,11,0.120150756634151,1
696,843,11,0.126592187813848,1
696,844,11,0.262307000000268,4
696,845,11,0.475574548409604,4
696,846,11,0.478443509227673,4
696,847,11,0.281247571201118,4
696,848,11,0.151279079666031,1
697,836,11,0.138403088214154,1
697,837,11,0.12783736133594,1
697,838,11,0.140161839764904,1
697,843,11,0.149128452151402,1
697,844,11,0.245875715455553,4
697,845,11,0.356228669513007,4
697,846,11,0.324411995319573,4
697,847,11,0.231438488735861,4
697,848,11,0.174297277933831,1
698,836,11,0.131434705275099,1
698,844,11,0.181925669540937,1
698,845,11,0.186449860980125,4
698,846,11,0.166188067803543,4
698,847,11,0.172063853752823,1
651,841,12,0.122107559863228,1
652,834,12,0.112663497482883,1
653,843,12,0.103948141691676,1
654,839,12,0.103822814553938,1
654,842,12,0.108213469459396,1
654,843,12,0.108230568649691,1
654,849,12,0.117170556269565,1
657,835,12,0.119167882237285,1
658,834,12,0.136997541464365,1
658,835,12,0.201424245433813,1
658,836,12,0.171469542560855,1
658,837,12,0.103094710284615,1
658,854,12,0.132645680416602,1
658,855,12,0.138213268239962,1
659,834,12,0.150641055671216,1
659,835,12,0.219424662328358,1
659,836,12,0.191576004149671,1
659,837,12,0.105890232701576,1
659,854,12,0.132554942051926,1
659,855,12,0.166227385902558,1
659,856,12,0.129840119336063,1
660,834,12,0.134812146711544,1
660,835,12,0.156479709719327,1
660,836,12,0.126243712338838,1
660,854,12,0.117889436122467,1
660,855,12,0.183924690927395,1
660,856,12,0.168175857040864,1
661,854,12,0.106244318674118,1
661,855,12,0.198591468420908,1
661,857,12,0.133642564326195,1
662,855,12,0.156258145260087,1
662,858,12,0.108150649733538,1
663,855,12,0.104242832238048,1
663,856,12,0.171525781385034,1
671,841,12,0.11305654462418,1
671,842,12,0.112917910680165,1
677,846,12,0.106201230499227,1
679,856,12,0.109022730746713,1
687,852,12,0.10694080115317,1
688,852,12,0.122634623163293,1
689,857,12,0.165593912768564,1
690,857,12,0.149398068346969,1
692,848,12,0.110161762132573,1
693,830,12,0.123785477864033,1
693,831,12,0.114358704293184,1
693,846,12,0.126018422420003,1
693,847,12,0.17025662661106,1
694,829,12,0.109726842610085,1
694,830,12,0.149798242939406,1
694,832,12,0.147415476906568,1
694,845,12,0.165979408604036,4
694,846,12,0.242940410225302,4
694,847,12,0.246978786117662,1
695,833,12,0.12195444793552,1
695,844,12,0.172220534983136,4
695,845,12,0.318305610113833,4
695,846,12,0.376500791359004,4
695,847,12,0.254969718482857,4
695,848,12,0.140485330121675,1
696,835,12,0.154699453120378,1
696,836,12,0.131821305363564,1
696,837,12,0.110533728080355,1
696,843,12,0.12683722043772,1
696,844,12,0.251203546530455,4
696,845,12,0.436266041895939,4
696,846,12,0.425965614587954,4
696,847,12,0.234572381039829,4
696,848,12,0.122378414160637,1
697,836,12,0.143894928743781,1
697,837,12,0.144012057639597,1
697,843,12,0.143940560046779,1
697,844,12,0.231247084883638,4
697,845,12,0.329147210621245,4
697,846,12,0.285252975660658,4
697,847,12,0.187919454403542,1
698,844,12,0.170643762094916,1
698,845,12,0.186480222360414,4
698,846,12,0.161515326451539,1
653,843,13,0.113244825336623,1
653,844,13,0.112169360999355,1
654,842,13,0.111599733765719,1
654,843,13,0.120764821685227,1
654,844,13,0.107336001030101,1
655,841,13,0.104241527211783,1
655,848,13,0.110522384390512,1
655,849,13,0.108730192935975,1
656,839,13,0.103939564211352,1
656,840,13,0.117272102928693,1
657,835,13,0.118801114086422,1
657,836,13,0.108108063491826,1
657,837,13,0.105271962565868,1
657,854,13,0.121232244169567,1
657,855,13,0.119843830072285,1
658,834,13,0.138234684055595,1
658,835,13,0.192569407989224,1
658,836,13,0.157347674880435,1
658,837,13,0.116295842895718,1
658,854,13,0.131515516516903,1
658,855,13,0.162506532939175,1
658,856,13,0.118819719076254,1
659,834,13,0.155818251022092,1
659,835,13,0.211852833013479,1
659,836,13,0.165904430941178,1
659,854,13,0.120179824142245,1
659,855,13,0.18171214716663,1
659,856,13,0.163860982891351,1
660,833,13,0.109298068980521,1
660,834,13,0.165009762934952,1
660,835,13,0.183468154816002,1
660,836,13,0.127936944878635,1
660,855,13,0.182240660495878,1
660,857,13,0.142401844847591,1
661,834,13,0.123007347587879,1
661,835,13,0.124775892412653,1
661,858,13,0.114010920370554,1
671,841,13,0.110645034551295,1
671,842,13,0.133727000640958,1
672,842,13,0.109058981476301,1
676,846,13,0.130219558511176,1
677,845,13,0.114726420540052,1
677,846,13,0.148896224400627,1
677,847,13,0.12628368852802,1
678,844,13,0.127627385956097,1
678,845,13,0.124036210218003,1
678,846,13,0.111470558473609,1
679,844,13,0.123707421677678,1
679,845,13,0.109297422044423,1
679,856,13,0.132794765724808,1
680,856,13,0.107222452590961,1
680,857,13,0.119750213957383,1
682,856,13,0.113579090525634,1
687,852,13,0.108615473319418,1
688,852,13,0.143292374693609,1
691,830,13,0.105322044343052,1
692,830,13,0.12732982881357,1
692,831,13,0.109801195644987,1
693,829,13,0.105650576339753,1
693,830,13,0.138554348566135,1
693,831,13,0.128573953853022,1
693,846,13,0.129489535741702,1
693,847,13,0.170907132010925,1
694,830,13,0.145997259132529,1
694,832,13,0.149557281551319,1
694,845,13,0.163234436435227,1
694,846,13,0.258331421525625,4
694,847,13,0.252147805534757,1
695,833,13,0.138187747726332,1
695,834,13,0.104385347798646,1
695,844,13,0.159193517414761,1
695,845,13,0.296636351687312,4
695,846,13,0.35693889380709,4
695,847,13,0.233002244823641,4
695,848,13,0.122780194939246,1
696,835,13,0.14341723336038,1
696,836,13,0.132707819744151,1
696,837,13,0.123224283107802,1
696,838,13,0.10592590341949,1
696,840,13,0.116887399032237,1
696,841,13,0.116152211928056,1
696,844,13,0.235498101978723,4
696,845,13,0.384018322657995,4
696,846,13,0.355226766271625,4
696,847,13,0.184745463215615,4
697,836,13,0.159674068240247,1
697,843,13,0.151518446022017,1
697,844,13,0.229578748229514,1
697,845,13,0.301065142360296,4
697,846,13,0.238469011002465,4
697,847,13,0.144419605072729,1
698,844,13,0.17205547704577,1
698,845,13,0.19056040370954,1
698,846,13,0.159073287687307,1
651,845,14,0.107494890766402,1
651,846,14,0.126103371822016,1
653,842,14,0.104763515409706,1
653,843,14,0.120200771486912,1
653,844,14,0.119643112571075,1
653,845,14,0.120754749559437,1
654,842,14,0.116388800920452,1
654,843,14,0.135209934332863,1
654,844,14,0.128937766175165,1
654,845,14,0.113201726007661,1
654,846,14,0.124607900954708,1
655,840,14,0.10457050537131,1
655,841,14,0.118077616448274,1
655,842,14,0.10340247340178,1
655,843,14,0.107472538008834,1
655,844,14,0.106805959593174,1
655,847,14,0.119540138190904,1
656,839,14,0.107277598316217,1
656,840,14,0.126872880001563,1
656,841,14,0.114681815411553,1
657,835,14,0.109868521615384,1
657,836,14,0.119710081611212,1
657,837,14,0.142267583299269,1
657,838,14,0.107491288001584,1
657,854,14,0.12722530401758,1
657,855,14,0.132240319181316,1
658,834,14,0.127136974932163,1
658,835,14,0.167506055098789,1
658,836,14,0.149305835336828,1
658,837,14,0.144305186616079,1
658,854,14,0.135136362082906,1
658,855,14,0.170898498760247,1
658,856,14,0.1316602740457,1
659,834,14,0.153549200739452,1
659,835,14,0.206004240688426,1
659,836,14,0.152911645215604,1
659,837,14,0.104397606122282,1
659,854,14,0.113180577889723,1
659,855,14,0.179035080979891,1
659,857,14,0.117023099455672,1
660,833,14,0.111021584822112,1
660,834,14,0.184822604768178,1
660,835,14,0.218549090091072,1
660,836,14,0.138390907969012,1
661,834,14,0.143671947717569,1
661,835,14,0.151501224136945,1
667,843,14,0.109986420142074,1
671,842,14,0.131299038313876,1
671,843,14,0.10561734836331,1
672,842,14,0.109095968374551,1
676,845,14,0.108992347058283,1
676,846,14,0.148620752317972,1
676,847,14,0.108735189959623,1
677,844,14,0.131742468392264,1
677,845,14,0.150878693146252,1
677,846,14,0.18797410934969,1
677,847,14,0.148869867331699,1
678,843,14,0.128168414152606,1
678,844,14,0.196513353519524,1
678,845,14,0.182482201895639,1
678,846,14,0.152748539240601,1
678,847,14,0.110380192297963,1
679,843,14,0.125088340239488,1
679,844,14,0.174284974993912,1
679,845,14,0.150804574346833,1
679,856,14,0.147666789272211,1
680,842,14,0.111746543643514,1
680,843,14,0.103508325532176,1
680,856,14,0.135380892773599,1
680,857,14,0.158576786540802,1
681,856,14,0.133822211787961,1
681,857,14,0.133930138575497,1
682,856,14,0.131503603969457,1
682,857,14,0.12297906086473,1
687,852,14,0.107670043137699,1
688,852,14,0.161087857848241,1
688,853,14,0.125188001860677,1
689,831,14,0.107716120603523,1
689,852,14,0.138050697660349,1
690,830,14,0.113376153364367,1
690,831,14,0.106281428267146,1
691,830,14,0.13379128155007,1
691,831,14,0.114122795699097,1
692,830,14,0.154988443936652,1
692,831,14,0.129013669625886,1
693,830,14,0.143185541004996,1
693,831,14,0.131977997747949,1
693,846,14,0.117638324530095,1
693,847,14,0.146631178429348,1
694,831,14,0.156002237417338,1
694,832,14,0.138344172413021,1
694,845,14,0.147400831611814,1
694,846,14,0.237238114690794,1
695,834,14,0.132479730153584,1
695,844,14,0.13832957173455,1
695,845,14,0.258528290872463,1
695,846,14,0.305577566254957,4
695,847,14,0.194734368484628,1
696,836,14,0.123278960362091,1
696,837,14,0.120566491155134,1
696,838,14,0.108287945189075,1
696,839,14,0.10575487805433,1
696,840,14,0.125255829764254,1
696,844,14,0.208184727650165,1
696,845,14,0.320529084863828,4
696,846,14,0.27201945162841,4
696,847,14,0.139538427602631,1
697,844,14,0.219907254348771,1
697,845,14,0.262353869405107,1
697,846,14,0.185847942711979,1
698,845,14,0.176091320964094,1
651,846,15,0.117618860676824,1
652,845,15,0.103936675307056,1
653,841,15,0.110231463920017,1
653,842,15,0.11230141404169,1
653,843,15,0.123533351251232,1
653,844,15,0.124231562611234,1
653,845,15,0.121275499655518,1
654,842,15,0.121489747044417,1
654,843,15,0.145692217608601,1
654,844,15,0.152441344981039,1
654,845,15,0.12792383884563,1
655,840,15,0.107824582786449,1
655,841,15,0.12229286243881,1
655,842,15,0.107720771850981,1
655,843,15,0.121370153098989,1
655,844,15,0.134752862826079,1
655,845,15,0.113879692729447,1
655,846,15,0.112701387860855,1
656,837,15,0.105068802323188,1
656,840,15,0.118181048145341,1
656,841,15,0.108927954608465,1
656,855,15,0.108348366789745,1
657,836,15,0.121256872357545,1
657,837,15,0.160983991142419,1
657,838,15,0.125082417427977,1
657,854,15,0.129985133408485,1
657,855,15,0.134662715627147,1
657,856,15,0.104552993480401,1
658,834,15,0.104751245931999,1
658,835,15,0.13598585610303,1
658,836,15,0.144598482903621,1
658,837,15,0.160418580147485,1
658,838,15,0.11681555566323,1
658,854,15,0.130816267828332,1
658,855,15,0.160850175756922,1
658,856,15,0.132404239403477,1
659,834,15,0.136721243980483,1
659,835,15,0.199288173981372,1
659,836,15,0.164519374219159,1
659,837,15,0.114945084940925,1
659,854,15,0.10557898951437,1
659,855,15,0.165180141364014,1
659,857,15,0.133686299437183,1
660,833,15,0.103508258607752,1
660,834,15,0.181226108538388,1
660,835,15,0.24086318764957,1
660,836,15,0.159510047631451,1
661,833,15,0.103274134664969,1
661,834,15,0.154372984626746,1
661,835,15,0.167989249439017,1
662,834,15,0.104276160601128,1
671,842,15,0.11536780191013,1
671,843,15,0.115543188516911,1
676,845,15,0.112312367339061,1
676,846,15,0.146870589401616,1
676,847,15,0.107250627773404,1
677,843,15,0.133705752136384,1
677,844,15,0.171089947228753,1
677,845,15,0.189919066955744,1
677,846,15,0.220341437702597,1
677,847,15,0.155331398146693,1
678,843,15,0.171076294646287,1
678,845,15,0.238181325212456,1
678,846,15,0.197723503259799,1
678,847,15,0.120132887812982,1
679,843,15,0.153483302490097,1
679,844,15,0.207829314343216,1
679,845,15,0.176153828375974,1
679,846,15,0.113573959653139,1
680,842,15,0.107954282319879,1
680,843,15,0.117988138493581,1
680,844,15,0.107141317881108,1
680,856,15,0.162590690402172,1
681,856,15,0.170074335634552,1
681,857,15,0.167325582235795,1
682,856,15,0.139921302231501,1
682,857,15,0.123490385771118,1
688,831,15,0.112541338101208,1
688,852,15,0.159179128663633,1
689,830,15,0.117917533226415,1
689,831,15,0.117822232846846,1
690,830,15,0.131154269631008,1
690,831,15,0.118346295701908,1
691,830,15,0.146183030179078,1
691,831,15,0.120654295999231,1
692,830,15,0.16136237068082,1
692,831,15,0.131930782566919,1
693,831,15,0.126586298464548,1
694,832,15,0.120385940213646,1
694,845,15,0.12499114366791,1
695,845,15,0.201111284519729,1
695,846,15,0.226273908638881,1
696,844,15,0.166789093746038,1
696,845,15,0.241389347469913,1
696,846,15,0.191701108205996,1
697,845,15,0.206128541651664,1
653,842,16,0.114251480212099,1
653,843,16,0.118367878828601,1
653,844,16,0.120813018424472,1
653,845,16,0.116028814444539,1
654,843,16,0.150392029890054,1
654,844,16,0.169556987530017,1
654,845,16,0.139307582956616,1
655,842,16,0.109960051919076,1
655,843,16,0.133479770665169,1
655,844,16,0.161816385972248,1
655,845,16,0.135916132007444,1
656,840,16,0.104080451277636,1
656,844,16,0.10853753982784,1
656,845,16,0.106561808140883,1
656,846,16,0.108338785443063,1
657,836,16,0.112417081754252,1
657,837,16,0.15161747186118,1
657,838,16,0.140377146790514,1
657,839,16,0.111107526936411,1
657,855,16,0.132862370546972,1
657,856,16,0.112637084643602,1
658,835,16,0.113697647142492,1
658,836,16,0.144776189557095,1
658,837,16,0.157691086407373,1
658,838,16,0.131104656324791,1
658,850,16,0.10522337543415,1
658,852,16,0.110776797587794,1
658,854,16,0.126049854591073,1
658,855,16,0.148065357678476,1
658,856,16,0.129544569926252,1
659,834,16,0.114387671414642,1
659,835,16,0.185113458314249,1
659,836,16,0.191008864273788,1
659,837,16,0.130666479813675,1
659,855,16,0.153743214644206,1
660,834,16,0.15311004267012,1
660,835,16,0.226044380173202,1
660,836,16,0.177212293909583,1
661,834,16,0.145780301304464,1
661,835,16,0.157602846554521,1
662,834,16,0.118116510692604,1
671,843,16,0.108199973033919,1
673,857,16,0.111668721692642,1
674,834,16,0.104695341729939,1
675,834,16,0.12059003739826,1
676,833,16,0.120764141286917,1
676,834,16,0.132132370085639,1
676,845,16,0.116263942253681,1
676,846,16,0.136688451012794,1
677,833,16,0.124897192930889,1
677,834,16,0.123478060523058,1
677,843,16,0.174903300899973,1
677,845,16,0.230811406884346,1
677,846,16,0.246452202442634,1
677,847,16,0.149544677451493,1
678,833,16,0.108415335829882,1
678,846,16,0.24390856124892,1
678,847,16,0.128502857806747,1
678,856,16,0.110220242924951,1
679,843,16,0.18828370173444,1
679,845,16,0.193982160268647,1
679,846,16,0.129096845530666,1
679,856,16,0.130738289720471,1
680,843,16,0.136098634911295,1
680,844,16,0.126691916359461,1
680,856,16,0.159497075447294,1
680,857,16,0.204207632221915,1
681,856,16,0.178663516578652,1
681,857,16,0.172402379796819,1
682,856,16,0.135161904904677,1
682,857,16,0.113160087861953,1
686,831,16,0.11359985940517,1
687,830,16,0.11892609544797,1
687,831,16,0.142943308052855,1
688,830,16,0.121601176210134,1
688,831,16,0.129534854730722,1
689,830,16,0.125361146499259,1
689,831,16,0.120050347690228,1
689,847,16,0.113971278803491,1
689,848,16,0.121016044818305,1
690,830,16,0.138367105182262,1
690,831,16,0.124225963267771,1
690,848,16,0.108994901340461,1
691,830,16,0.143828562023459,1
691,831,16,0.121158749998104,1
692,831,16,0.127942733841299,1
696,845,16,0.166757806577886,1
653,843,17,0.112951885979342,1
653,844,17,0.11575222695482,1
653,845,17,0.111151038965987,1
654,843,17,0.145233249909808,1
654,844,17,0.16447528217791,1
655,843,17,0.13784860820845,1
656,844,17,0.119780575337672,1
656,845,17,0.121469792412037,1
657,837,17,0.118455293280226,1
657,838,17,0.135806387106394,1
657,839,17,0.119466867100854,1
657,855,17,0.139237111538297,1
658,836,17,0.13429361627552,1
658,837,17,0.13406007234441,1
658,838,17,0.126311428701708,1
658,839,17,0.106133146052026,1
658,853,17,0.132858377389682,1
658,854,17,0.136258193891835,1
658,855,17,0.148222384684979,1
658,856,17,0.131850506720506,1
659,835,17,0.156275657150995,1
659,836,17,0.197162988901878,1
659,837,17,0.136805122591713,1
659,852,17,0.108143455357974,1
659,853,17,0.105032138892986,1
659,854,17,0.113370542866834,1
659,855,17,0.158617353895729,1
660,834,17,0.12326660165182,1
660,835,17,0.182780294433557,1
660,836,17,0.175002337893207,1
661,834,17,0.133407057278651,1
661,835,17,0.135936175872389,1
662,833,17,0.105872263493771,1
662,834,17,0.129905448727816,1
663,834,17,0.105319534677158,1
663,855,17,0.103070773649017,1
666,855,17,0.10792564982054,1
668,856,17,0.106850743186804,1
669,834,17,0.108777006570461,1
670,834,17,0.130170257518937,1
671,833,17,0.104262943027416,1
671,834,17,0.124336868192169,1
672,833,17,0.129365636325007,1
672,834,17,0.135500865957428,1
673,832,17,0.103036441419579,1
673,833,17,0.158190900312858,1
673,834,17,0.162884678242093,1
673,835,17,0.107747485850169,1
673,857,17,0.10791106029614,1
674,832,17,0.107598489774528,1
674,833,17,0.163825579871132,1
674,834,17,0.172750275260155,1
674,835,17,0.116611012315789,1
674,857,17,0.133206696707702,1
675,832,17,0.120150187776548,1
675,833,17,0.179643502071222,1
675,834,17,0.185171091397258,1
675,835,17,0.123888876098888,1
676,832,17,0.15405512707565,1
676,835,17,0.133718166617009,1
676,843,17,0.105579870685951,1
676,844,17,0.108561197611673,1
676,845,17,0.114146141168952,1
676,846,17,0.115667076779536,1
677,832,17,0.180853651811497,1
677,835,17,0.123650658612178,1
677,842,17,0.114259377294113,1
677,846,17,0.233107293860951,1
677,847,17,0.123273651024466,1
677,857,17,0.158644480595531,1
678,832,17,0.177792216350422,1
678,834,17,0.171390292888941,1
678,847,17,0.119565257157991,1
678,857,17,0.171291869369592,1
679,832,17,0.160534114011199,1
679,834,17,0.125042073154463,1
679,846,17,0.13047712831045,1
679,856,17,0.10871968580143,1
679,857,17,0.18776869598474,1
679,858,17,0.172726528243758,1
680,832,17,0.138273522529572,1
680,833,17,0.145903888407182,1
680,843,17,0.130243260911291,1
680,844,17,0.127728084905857,1
680,856,17,0.137437123388382,1
680,857,17,0.175357405423966,1
681,832,17,0.131246569565574,1
681,833,17,0.123914006220045,1
681,843,17,0.113243341845228,1
681,856,17,0.159355541444913,1
681,857,17,0.150120963665303,1
682,832,17,0.130609304047562,1
682,833,17,0.116581197484962,1
682,856,17,0.122468773286911,1
683,832,17,0.117923422575714,1
683,833,17,0.105068534625492,1
684,832,17,0.129398027746152,1
684,833,17,0.106185068250866,1
685,831,17,0.128861773491878,1
685,832,17,0.147852950711233,1
686,830,17,0.10892144063121,1
686,831,17,0.162142274454207,1
686,832,17,0.135742273508342,1
687,830,17,0.144365998609221,1
687,831,17,0.181362790520039,1
687,832,17,0.11583001544348,1
688,830,17,0.129378630817305,1
688,831,17,0.139663174728695,1
689,830,17,0.122657745551734,1
689,831,17,0.118200690463743,1
689,847,17,0.163330327980539,1
689,848,17,0.180672297776922,1
690,830,17,0.136078412581221,1
690,831,17,0.124311659992517,1
690,847,17,0.131241338306443,1
690,848,17,0.153050491086961,1
653,843,18,0.111087226527842,1
653,844,18,0.112218851610795,1
656,842,18,0.109636438867528,1
656,843,18,0.125032458345569,1
657,838,18,0.119861330809123,1
657,839,18,0.123969943884317,1
658,836,18,0.117102393743869,1
658,837,18,0.114011399995592,1
658,838,18,0.112661277822825,1
658,839,18,0.114354923063236,1
658,854,18,0.137404352728834,1
658,855,18,0.14049462146252,1
659,835,18,0.124997289560834,1
659,836,18,0.17218899127136,1
659,837,18,0.132219840307617,1
659,853,18,0.130237271175356,1
659,854,18,0.117314722632618,1
659,855,18,0.151670565237438,1
660,834,18,0.104811756765234,1
660,835,18,0.140238959009326,1
660,836,18,0.152328711175692,1
661,834,18,0.12184679999975,1
661,835,18,0.118675307323647,1
662,833,18,0.111950540441492,1
662,834,18,0.130793245826526,1
663,833,18,0.126727029373844,1
663,834,18,0.132439731656261,1
664,833,18,0.129647800850047,1
664,834,18,0.134594508485169,1
664,855,18,0.130513267499331,1
665,834,18,0.106833922848275,1
667,834,18,0.107359491502874,1
667,855,18,0.11543777139527,1
668,833,18,0.106135421482437,1
668,834,18,0.113919601994205,1
668,856,18,0.129294763360145,1
669,833,18,0.116174018136162,1
669,834,18,0.144517303577485,1
669,856,18,0.112790787737054,1
670,833,18,0.130621160824655,1
670,834,18,0.176982296972937,1
670,835,18,0.115960004982746,1
671,833,18,0.146321686431234,1
671,834,18,0.17112566256295,1
671,835,18,0.114855316980395,1
672,832,18,0.12260905803338,1
672,835,18,0.121207314821681,1
673,832,18,0.149885568158466,1
673,835,18,0.13779373018089,1
673,857,18,0.107146058361132,1
673,858,18,0.132367509048851,1
674,832,18,0.146214540428643,1
674,835,18,0.139506348495463,1
674,857,18,0.119226374183734,1
674,858,18,0.139459345241776,1
674,859,18,0.130407459985218,1
675,832,18,0.160757485429884,1
675,835,18,0.142634396066414,1
675,857,18,0.124942244222214,1
676,831,18,0.110421462359339,1
676,843,18,0.110237989051343,1
676,845,18,0.113936812725206,1
676,857,18,0.128393246754545,1
677,831,18,0.119675537454432,1
677,842,18,0.133198721547193,1
677,846,18,0.194363763333465,1
677,857,18,0.114273163725427,1
677,858,18,0.14421544096369,1
678,831,18,0.119853835273651,1
678,835,18,0.114607127754531,1
678,857,18,0.128057475765997,1
679,831,18,0.117332881459623,1
679,842,18,0.118144027784879,1
679,846,18,0.127232007614036,1
679,857,18,0.141288802446329,1
680,831,18,0.11305151413832,1
680,834,18,0.132841802440707,1
680,843,18,0.129762074303779,1
680,844,18,0.135896333532054,1
680,856,18,0.106929725161022,1
681,831,18,0.112592278741832,1
681,833,18,0.19817149535308,1
681,834,18,0.105338764294945,1
681,843,18,0.118610557943568,1
681,844,18,0.110598901315118,1
681,856,18,0.124525963151769,1
682,831,18,0.108652928688636,1
682,832,18,0.199586188440796,1
682,833,18,0.17615445300393,1
683,832,18,0.160692524122462,1
683,833,18,0.145705167484617,1
684,831,18,0.114361771662611,1
684,832,18,0.159450752591916,1
684,833,18,0.13691741062087,1
685,831,18,0.170908559731967,1
685,832,18,0.182041906111101,1
685,833,18,0.120221897296708,1
686,830,18,0.134774211717289,1
686,831,18,0.211855398449727,1
686,832,18,0.171021896243764,1
687,830,18,0.152410303202441,1
687,831,18,0.204169797614296,1
687,832,18,0.136164577776933,1
688,830,18,0.124616076888489,1
688,831,18,0.140223209461579,1
689,830,18,0.115054194059949,1
689,848,18,0.199801975091443,1
653,843,19,0.112090892112386,1
653,844,19,0.108887431869821,1
657,839,19,0.111507924610261,1
657,840,19,0.103629257966081,1
657,841,19,0.103985005895149,1
657,842,19,0.117476679738345,1
657,843,19,0.131282909527727,1
658,839,19,0.106893597126212,1
658,840,19,0.109712888867711,1
658,841,19,0.106527141289327,1
658,842,19,0.102969661998643,1
658,843,19,0.109502221935488,1
658,844,19,0.113546174863169,1
658,845,19,0.111381738609084,1
658,846,19,0.12332842866539,1
658,847,19,0.116174709688542,1
658,855,19,0.139760795154957,1
659,836,19,0.128748693523706,1
659,837,19,0.11168622242948,1
659,855,19,0.146863216560922,1
660,835,19,0.111736348822947,1
660,836,19,0.121988423234697,1
660,852,19,0.114096505554593,1
660,853,19,0.110269867385239,1
660,854,19,0.105015251630034,1
661,834,19,0.107114826963333,1
661,835,19,0.10926020091069,1
661,836,19,0.103484176969236,1
662,834,19,0.113816739154741,1
662,854,19,0.105468218438821,1
663,833,19,0.137409093208857,1
663,834,19,0.143085109752932,1
664,833,19,0.147818495787018,1
664,834,19,0.154172668672079,1
665,833,19,0.10800013670429,1
665,834,19,0.109300411335356,1
667,833,19,0.105942868760937,1
667,834,19,0.112649644127145,1
668,833,19,0.115289756877845,1
668,834,19,0.131075209578295,1
668,855,19,0.11761758911277,1
669,833,19,0.134783034587167,1
669,834,19,0.169144030372624,1
669,856,19,0.135759941556239,1
670,833,19,0.157628344760009,1
670,834,19,0.200708957191658,1
670,835,19,0.123862742111373,1
670,856,19,0.107457903868151,1
670,857,19,0.124939790326672,1
671,832,19,0.112639783928697,1
671,835,19,0.126641176492109,1
672,858,19,0.104552658858282,1
673,857,19,0.108742540492176,1
673,858,19,0.115997538430458,1
674,857,19,0.112450086649282,1
674,858,19,0.119730627409335,1
675,831,19,0.108710282919879,1
675,857,19,0.103518029573635,1
676,845,19,0.110679857559841,1
677,846,19,0.144507733384874,1
679,835,19,0.105555320576467,1
679,842,19,0.139804028332767,1
679,846,19,0.125701077956157,1
680,843,19,0.135794608407796,1
680,845,19,0.138035706589406,1
681,834,19,0.133435990937898,1
681,843,19,0.11792873191334,1
681,844,19,0.142744564822149,1
681,845,19,0.119445507055574,1
682,833,19,0.2228852350533,1
683,832,19,0.192001509636537,1
684,832,19,0.179195197663963,1
685,831,19,0.206611155980219,1
685,832,19,0.201500561585149,1
686,830,19,0.147362941233842,1
686,831,19,0.238906875199602,1
686,832,19,0.204280847541612,1
687,830,19,0.135785506686151,1
657,841,20,0.112598346556261,1
657,842,20,0.139383653718397,1
658,840,20,0.115165132446558,1
658,841,20,0.130138669190877,1
658,842,20,0.142411069264012,1
659,841,20,0.128453523352296,1
659,844,20,0.131380273410364,1
659,845,20,0.121079466863978,1
659,846,20,0.116930308741998,1
659,847,20,0.105397613171655,1
659,848,20,0.105609417819083,1
660,841,20,0.115748802655133,1
660,842,20,0.139886646534015,1
660,843,20,0.129144941883276,1
660,844,20,0.110294138642957,1
660,851,20,0.106613641107158,1
661,836,20,0.107063072075552,1
661,841,20,0.10302324615401,1
661,852,20,0.104266278094539,1
662,840,20,0.126523567971256,1
662,841,20,0.112151369483409,1
663,833,20,0.126845440987783,1
663,834,20,0.134528900241651,1
663,840,20,0.109912691735128,1
663,854,20,0.110648615007972,1
664,833,20,0.138813993022549,1
664,834,20,0.147460160113561,1
665,833,20,0.106589470236076,1
665,834,20,0.104753320589138,1
667,833,20,0.104714426344808,1
667,834,20,0.108715101478396,1
667,847,20,0.107797668013989,1
667,848,20,0.114874580060394,1
667,853,20,0.103050015923551,1
668,833,20,0.115320017871498,1
668,834,20,0.135704985450184,1
668,847,20,0.113993709639553,1
668,848,20,0.10785793345767,1
668,854,20,0.115027680834032,1
668,855,20,0.152943858171619,1
669,833,20,0.141884061734301,1
669,834,20,0.172295044175028,1
669,835,20,0.112758630551392,1
669,855,20,0.120970324282742,1
669,856,20,0.147014811535022,1
669,857,20,0.128602463657584,1
670,832,20,0.108597169489494,1
670,835,20,0.126700516147927,1
670,856,20,0.117967258073339,1
670,857,20,0.117099248295948,1
671,858,20,0.104063943253086,1
673,854,20,0.10792512557922,1
673,855,20,0.117024192554595,1
673,856,20,0.115499085321591,1
673,857,20,0.10771242860614,1
674,856,20,0.106900624190716,1
674,857,20,0.115275133891233,1
676,845,20,0.103515218747833,1
677,842,20,0.132275008341014,1
677,846,20,0.106841262226758,1
678,846,20,0.130797852457701,1
679,845,20,0.189628258025956,1
680,844,20,0.191490363195279,1
657,841,21,0.118961766165885,1
658,840,21,0.117463451010563,1
658,841,21,0.141927529147594,1
663,833,21,0.10745874042345,1
663,834,21,0.113654748586802,1
664,833,21,0.116877338060518,1
664,834,21,0.123149383523439,1
667,833,21,0.104267070033554,1
668,833,21,0.109568744812799,1
668,834,21,0.126557030183183,1
669,833,21,0.137812290554438,1
669,834,21,0.15697201693527,1
669,855,21,0.136076516389211,1
669,857,21,0.125377554137174,1
670,835,21,0.123522141410237,1
670,856,21,0.12356889927437,1
670,857,21,0.10711182651833,1
673,856,21,0.130688375254346,1
677,845,21,0.152063433913604,1
