x,y,z,signal,mito.p
601,635,1,0.232696645596181,2
601,636,1,0.225922243099668,2
602,634,1,0.326051465238874,2
602,635,1,0.368112283299831,2
602,636,1,0.357222051044418,2
602,637,1,0.262647466852556,2
603,633,1,0.329960587760629,2
603,634,1,0.41202998642505,2
603,635,1,0.42771457286468,2
603,636,1,0.397131851198273,2
603,637,1,0.304349659234219,2
603,638,1,0.187052827730911,1
603,639,1,0.146585089809454,1
603,640,1,0.156057695456572,1
603,641,1,0.182153859518139,1
603,642,1,0.217837148070109,1
603,643,1,0.222409268550848,1
604,632,1,0.188166762457825,1
604,633,1,0.263688967044718,1
604,634,1,0.315688909757411,2
604,635,1,0.317543028612154,2
604,636,1,0.292811598555896,2
604,637,1,0.251531520823624,1
604,638,1,0.19807668575262,1
604,639,1,0.214061762855356,1
604,640,1,0.263977879782497,1
604,641,1,0.272714149456159,1
604,642,1,0.274869205136833,1
604,643,1,0.274928500176368,1
604,644,1,0.214950853826261,1
604,645,1,0.172002751753844,1
605,632,1,0.117018492824497,1
605,633,1,0.146274694331617,1
605,634,1,0.177301247622956,1
605,635,1,0.191931975160152,1
605,636,1,0.189391680187631,1
605,637,1,0.185225802113759,1
605,638,1,0.179417487137795,1
605,639,1,0.238828417466704,1
605,640,1,0.342141814460333,1
605,641,1,0.372251625839645,1
605,642,1,0.357786112396804,1
605,643,1,0.361234839498724,1
605,644,1,0.306653554833545,1
605,645,1,0.271842748841293,3
605,646,1,0.263809274850667,3
605,647,1,0.253352623629265,3
605,648,1,0.238895966518514,3
606,634,1,0.127785539523735,1
606,635,1,0.152367192719408,1
606,636,1,0.149953808762656,1
606,637,1,0.141076261630238,1
606,638,1,0.134977606195453,1
606,639,1,0.172710354841326,1
606,640,1,0.2601048295252,1
606,641,1,0.31625301572608,1
606,642,1,0.3369151731143,1
606,643,1,0.370494324318078,1
606,644,1,0.352726402872004,3
606,645,1,0.376531531977694,3
606,646,1,0.425030457305296,3
606,647,1,0.425141239534916,3
606,648,1,0.377916510621218,3
606,649,1,0.333554473937889,3
607,634,1,0.108454631620755,1
607,635,1,0.120140974514198,1
607,636,1,0.107358755334211,1
607,640,1,0.126737692665378,1
607,641,1,0.170013824801317,1
607,642,1,0.202754212200929,1
607,643,1,0.230149836646405,1
607,644,1,0.239245535092446,1
607,645,1,0.325537641820662,3
607,646,1,0.463624344821045,3
607,647,1,0.515169625306213,3
607,648,1,0.452896448909761,3
607,649,1,0.380448841587301,3
607,650,1,0.30035279879279,3
608,643,1,0.109796321316116,1
608,644,1,0.127761547117784,1
608,645,1,0.234164208978741,3
608,646,1,0.41760608480431,3
608,647,1,0.48318019686667,3
608,648,1,0.393330231609369,3
608,649,1,0.312944562216558,3
608,650,1,0.28794764297087,1
609,645,1,0.16843623766594,1
609,646,1,0.31105198412624,3
609,647,1,0.348534301578051,3
609,648,1,0.279227859013618,3
609,649,1,0.238667018064508,1
610,628,1,0.11117469674982,1
610,645,1,0.104145267582139,1
610,646,1,0.166424534101162,1
610,647,1,0.189253079705829,1
610,648,1,0.184904609495541,1
610,649,1,0.197024343803793,1
611,648,1,0.107834476447109,1
611,649,1,0.13287032339934,1
611,650,1,0.183289198906616,1
612,650,1,0.126192961317415,1
612,651,1,0.20237760615976,1
612,652,1,0.27862034140201,1
613,627,1,0.111766208270056,1
613,651,1,0.16821171737798,1
613,652,1,0.269764790096899,1
614,626,1,0.174603066780492,1
614,627,1,0.110472224534833,1
614,651,1,0.104921836288404,1
614,652,1,0.166266748617854,1
614,653,1,0.223204709944639,1
615,624,1,0.109762223322162,1
615,625,1,0.129555054752656,1
615,626,1,0.132080715584494,1
615,653,1,0.142211957948975,1
616,625,1,0.109276865092229,1
616,626,1,0.113274517472673,1
616,654,1,0.172990712406923,1
617,625,1,0.10668226094975,1
617,626,1,0.121638319265373,1
617,655,1,0.178127909260475,1
618,626,1,0.126821627046962,1
618,655,1,0.139377184357424,1
619,625,1,0.111007764928586,1
619,626,1,0.139022406832502,1
620,625,1,0.132418628154605,1
620,626,1,0.165167972272943,1
620,627,1,0.112459545301187,1
621,625,1,0.129678474544314,1
621,626,1,0.170716877027977,1
621,627,1,0.129987453455179,1
622,625,1,0.112626309811361,1
622,626,1,0.157796737764498,1
622,627,1,0.141604049944894,1
623,625,1,0.105800565127682,1
623,626,1,0.165243831107382,1
623,627,1,0.165764246581344,1
623,628,1,0.114299520794355,1
624,625,1,0.117234736792041,1
624,626,1,0.204468882864501,1
624,627,1,0.216982166247229,1
624,628,1,0.153625260347163,1
625,625,1,0.124928770104878,1
625,626,1,0.226503593261549,1
625,627,1,0.259773821324816,1
625,628,1,0.203394344315096,1
625,629,1,0.121347108789042,1
626,625,1,0.116623661031898,1
626,626,1,0.204415611023113,1
626,627,1,0.251639559151866,1
626,628,1,0.212904260328513,1
626,629,1,0.129772124121427,1
627,625,1,0.107018957726162,1
627,626,1,0.17403680807619,1
627,627,1,0.211944675631149,1
627,628,1,0.175861446722225,1
627,629,1,0.107139443997241,1
628,625,1,0.107221169872837,1
628,626,1,0.162232131647302,1
628,627,1,0.183138641261085,1
628,628,1,0.144932815017055,1
629,626,1,0.147980430584604,1
629,627,1,0.162298174899575,1
629,628,1,0.129795536515706,1
630,626,1,0.117497883626636,1
630,627,1,0.130684817105811,1
630,628,1,0.109598414640708,1
631,627,1,0.110124373687779,1
635,628,1,0.109637219652473,1
635,629,1,0.109695031200613,1
635,641,1,0.13359785881106,1
636,629,1,0.117939082890896,1
636,630,1,0.126611774361896,1
636,631,1,0.114875003915079,1
637,630,1,0.170215802712509,1
637,631,1,0.176405274590465,1
637,632,1,0.132259693802022,1
638,632,1,0.156385513592752,1
639,632,1,0.145250761800717,1
641,635,1,0.106562722774676,1
641,636,1,0.132426670239539,1
641,637,1,0.121258110459386,1
601,634,2,0.175446961457154,2
601,635,2,0.231983922790274,2
601,636,2,0.23019750914433,2
602,633,2,0.207604849825608,2
602,634,2,0.303378318146397,2
602,635,2,0.399457028764385,2
602,636,2,0.398892052778207,2
602,637,2,0.255999707674117,2
602,638,2,0.124766645688091,1
603,633,2,0.288722984729363,2
603,634,2,0.384814187906471,2
603,635,2,0.46370309255978,2
603,636,2,0.440501197902571,2
603,637,2,0.291332724945704,2
603,638,2,0.150709831670797,1
603,639,2,0.116465998243368,1
603,640,2,0.124731688830697,1
603,641,2,0.145803044454504,1
603,642,2,0.175527270765779,1
603,643,2,0.183996746223745,1
604,632,2,0.16959541330338,1
604,633,2,0.223939004723169,1
604,634,2,0.270953769411095,2
604,635,2,0.302806515868986,2
604,636,2,0.287347754743581,2
604,637,2,0.230431967709233,2
604,638,2,0.168873031072296,1
604,639,2,0.1757509321903,1
604,640,2,0.21079837179123,1
604,641,2,0.209288824486772,1
604,642,2,0.219606161365851,1
604,643,2,0.237388382330489,1
604,644,2,0.181774888813993,1
604,645,2,0.142699569301178,1
605,632,2,0.110773585215449,1
605,633,2,0.133492419381277,1
605,634,2,0.152786351540078,1
605,635,2,0.168082609010294,2
605,636,2,0.171462883580682,2
605,637,2,0.179239055469729,1
605,638,2,0.173699553596246,1
605,639,2,0.209764344826398,1
605,640,2,0.293575808551888,1
605,641,2,0.304035337523516,1
605,642,2,0.283621848986198,1
605,643,2,0.304265669082281,1
605,644,2,0.25834279867768,3
605,645,2,0.227888638829497,3
605,646,2,0.218534411334106,3
605,647,2,0.210522353159114,3
605,648,2,0.205011706866383,3
606,632,2,0.104777881852693,1
606,633,2,0.118125657030531,1
606,634,2,0.133423130294447,1
606,635,2,0.147543302556129,1
606,636,2,0.143382923439084,1
606,637,2,0.145404866440712,1
606,638,2,0.136793656207093,1
606,639,2,0.149870554779381,1
606,640,2,0.221578624910109,1
606,641,2,0.262586877940826,1
606,642,2,0.262117470031912,1
606,643,2,0.298007722364652,3
606,644,2,0.299005364751049,3
606,645,2,0.350690762671627,3
606,646,2,0.41546204934543,3
606,647,2,0.409880284698284,3
606,648,2,0.348341648469916,3
606,649,2,0.28495054418926,3
607,631,2,0.106838886409711,1
607,632,2,0.125318705260465,1
607,633,2,0.122905923623527,1
607,634,2,0.118127921306872,1
607,635,2,0.116409937884319,1
607,640,2,0.103685920644944,1
607,641,2,0.135374702264392,1
607,642,2,0.150356771872753,1
607,643,2,0.17129652061705,1
607,644,2,0.196891253432888,3
607,645,2,0.317135168865045,3
607,646,2,0.479313972900605,3
607,647,2,0.521954378780282,3
607,648,2,0.429109144008957,3
607,649,2,0.324350335617062,3
607,650,2,0.24560409152727,3
608,632,2,0.109908787810403,1
608,644,2,0.110120692844467,1
608,645,2,0.211915608123055,3
608,646,2,0.389810631542587,3
608,647,2,0.468806659890346,3
608,648,2,0.38507965478776,3
608,649,2,0.282917402500707,3
608,650,2,0.237595468806035,3
609,645,2,0.135673586741326,1
609,646,2,0.256510675650244,3
609,647,2,0.320189733418604,3
609,648,2,0.290690295092985,3
609,649,2,0.242542522217347,3
610,646,2,0.137143046315895,1
610,647,2,0.171905867496244,3
610,648,2,0.189229678465621,3
610,649,2,0.200187839011246,1
611,649,2,0.123633894044003,1
611,650,2,0.155193388830635,1
612,650,2,0.109353426633119,1
612,651,2,0.169753968417561,1
612,652,2,0.219250257279793,1
613,651,2,0.146957713847404,1
613,652,2,0.234507955127798,1
613,653,2,0.257321755051076,1
614,652,2,0.143102565873487,1
614,653,2,0.185122660422529,1
615,626,2,0.118066796999751,1
615,653,2,0.123178696421087,1
616,654,2,0.146703467961181,1
617,626,2,0.107695976351943,1
618,626,2,0.119281999534028,1
619,626,2,0.128849860944432,1
620,625,2,0.108454587004473,1
620,626,2,0.15722360815268,1
620,627,2,0.112045918899555,1
621,625,2,0.111292885282347,1
621,626,2,0.173488172803502,1
621,627,2,0.138029817240106,1
622,626,2,0.161895323330184,1
622,627,2,0.148536237924715,1
623,626,2,0.162652305488401,1
623,627,2,0.169383050952419,1
623,628,2,0.108030944247404,1
624,625,2,0.103030250910373,1
624,626,2,0.199986798041988,1
624,627,2,0.224613558299338,1
624,628,2,0.141613553213082,1
625,625,2,0.106070660948287,1
625,626,2,0.210676212409555,1
625,627,2,0.253781274564052,1
625,628,2,0.176029337793534,1
626,626,2,0.174088875277948,1
626,627,2,0.228256120840881,1
626,628,2,0.185442648401118,1
626,629,2,0.111466386851189,1
627,626,2,0.140835835637541,1
627,627,2,0.190095078190481,1
627,628,2,0.166309178702578,1
627,629,2,0.102992226683553,1
628,626,2,0.129318320757342,1
628,627,2,0.160690616776383,1
628,628,2,0.137540655472084,1
629,626,2,0.119361360746648,1
629,627,2,0.139624704339049,1
629,628,2,0.118657706200173,1
630,627,2,0.108452255803708,1
634,629,2,0.103074175640563,1
635,629,2,0.123498952097371,1
635,630,2,0.109021537261155,1
635,641,2,0.110362725023337,1
636,630,2,0.136024783809572,1
636,631,2,0.122303269186719,1
637,632,2,0.158574120717919,1
638,633,2,0.110488264088417,1
640,632,2,0.117269916730847,1
641,636,2,0.119561899782728,1
641,637,2,0.107091481493478,1
642,636,2,0.132289207472942,1
642,637,2,0.118451010117099,1
601,634,3,0.165735056378473,2
601,635,3,0.234559821556286,2
601,636,3,0.228511816756287,2
602,633,3,0.194254386516745,2
602,634,3,0.306084184143534,2
602,635,3,0.45651514174013,2
602,636,3,0.433717158289023,2
602,637,3,0.227320316622126,2
603,633,3,0.245294342985531,2
603,634,3,0.36039525029333,2
603,635,3,0.510464213681297,2
603,636,3,0.477276659589632,2
603,637,3,0.257253090592202,2
603,638,3,0.117441432875115,1
603,640,3,0.103247286816933,1
603,641,3,0.124793181222149,1
603,642,3,0.141244587710302,1
603,643,3,0.150045272141923,1
603,644,3,0.12611247354366,1
604,632,3,0.157712491068936,1
604,633,3,0.193885186778482,1
604,634,3,0.237636627326706,2
604,635,3,0.301422318010406,2
604,636,3,0.295818557535953,2
604,637,3,0.215360922079358,2
604,638,3,0.155911309433462,1
604,639,3,0.146019243805765,1
604,640,3,0.158224652530622,1
604,641,3,0.157881241003684,1
604,642,3,0.17743466146191,1
604,643,3,0.209577759532693,1
604,644,3,0.175167641220127,1
604,645,3,0.128826582399001,1
605,632,3,0.124388879623574,1
605,633,3,0.151684217819904,1
605,634,3,0.155105639756891,1
605,635,3,0.165604118743202,2
605,636,3,0.179828202326989,2
605,637,3,0.196558103650941,1
605,638,3,0.194345470657611,1
605,639,3,0.197516550633101,1
605,640,3,0.238462653182198,1
605,641,3,0.236745350157955,1
605,642,3,0.220620668707059,1
605,643,3,0.250604104465992,1
605,644,3,0.234786606120587,1
605,645,3,0.19950396063202,3
605,646,3,0.179405340354865,3
605,647,3,0.17380483686904,3
605,648,3,0.183150185724199,3
606,632,3,0.138772544496042,1
606,633,3,0.164221928617339,1
606,634,3,0.155396392916326,1
606,635,3,0.147661926097411,1
606,636,3,0.146159885482495,1
606,637,3,0.158161866266976,1
606,638,3,0.151792601924336,1
606,639,3,0.145622616207793,1
606,640,3,0.190984548399788,1
606,641,3,0.219105834373116,1
606,642,3,0.202242552672422,1
606,643,3,0.219164460168412,1
606,644,3,0.247546729086631,3
606,645,3,0.314001276561077,3
606,646,3,0.38169448358036,3
606,647,3,0.374300182453826,3
606,648,3,0.317543697856393,3
606,649,3,0.248180547996814,3
607,631,3,0.113983871749246,1
607,632,3,0.152038995344826,1
607,633,3,0.153753487543268,1
607,634,3,0.13100444815414,1
607,635,3,0.112970803283152,1
607,641,3,0.115076691820434,1
607,642,3,0.11934750739091,1
607,643,3,0.129199686061989,1
607,644,3,0.179853499759206,3
607,645,3,0.326517526926596,3
607,646,3,0.487539564603976,3
607,647,3,0.5095498922026,3
607,648,3,0.404882770271386,3
607,649,3,0.266473090001482,3
607,650,3,0.196248176644072,1
608,631,3,0.108539491790202,1
608,632,3,0.121278868184852,1
608,644,3,0.106240805141866,1
608,645,3,0.199960697516684,3
608,646,3,0.34262636959718,3
608,647,3,0.433271530858718,3
608,648,3,0.404706625187801,3
608,649,3,0.274842189977737,3
608,650,3,0.200522282665387,1
608,651,3,0.213226702202643,1
609,645,3,0.1065374476506,1
609,646,3,0.185973124846799,3
609,647,3,0.283999905056551,3
609,648,3,0.34227858567455,3
609,649,3,0.28336282915774,3
609,650,3,0.208425432494628,1
610,646,3,0.106038358759707,1
610,647,3,0.15716369963926,1
610,648,3,0.20906375764935,3
610,649,3,0.216308504996711,1
610,650,3,0.184236402585567,1
611,649,3,0.120758753870797,1
611,650,3,0.134688782690239,1
611,651,3,0.165048813336271,1
612,651,3,0.144158086732447,1
612,652,3,0.169767911005864,1
612,653,3,0.16567561633602,1
613,651,3,0.130676663480172,1
613,652,3,0.190434050397304,1
613,653,3,0.191293426924017,1
614,652,3,0.133459269483328,1
614,653,3,0.165848571355401,1
615,653,3,0.113811396354903,1
618,626,3,0.105752256847729,1
619,626,3,0.108099764863268,1
620,627,3,0.107229736199091,1
621,627,3,0.138976619372515,1
622,627,3,0.153333514475441,1
623,627,3,0.173694478494104,1
624,627,3,0.227657905724189,1
624,628,3,0.130906894652301,1
625,627,3,0.235294428648793,1
625,628,3,0.14635426747158,1
626,627,3,0.196164766503808,1
626,628,3,0.157879701741936,1
627,627,3,0.171520929364305,1
627,628,3,0.173375037064977,1
627,629,3,0.110769179357545,1
628,627,3,0.145929754697001,1
628,628,3,0.153669753934955,1
628,629,3,0.109251467273377,1
629,627,3,0.118580865807518,1
629,628,3,0.120520792927712,1
634,629,3,0.119169889970001,1
634,630,3,0.103937511862354,1
635,630,3,0.119908177905821,1
638,633,3,0.113699643721137,1
640,632,3,0.103735110096477,1
641,632,3,0.106006725815365,1
642,636,3,0.112219052384067,1
642,637,3,0.106644660577615,1
601,634,4,0.170032150939382,2
601,635,4,0.24549609781531,2
601,636,4,0.225427359293407,2
602,633,4,0.194711569564235,2
602,634,4,0.326696192830146,2
602,635,4,0.507436820443823,2
602,636,4,0.438698432389065,2
602,637,4,0.201835652175387,2
603,633,4,0.218635623371115,2
603,634,4,0.353677108929137,2
603,635,4,0.541946488836872,2
603,636,4,0.478800751802208,2
603,637,4,0.228074108716139,2
603,642,4,0.11468436969373,1
603,643,4,0.12640869219771,1
603,644,4,0.114459793635416,1
604,632,4,0.157280070058272,1
604,633,4,0.185554523729661,1
604,634,4,0.230647977441294,2
604,635,4,0.309635484079081,2
604,636,4,0.302641681013032,2
604,637,4,0.21020522062261,2
604,638,4,0.149191528420884,1
604,639,4,0.125077933491578,1
604,640,4,0.122791605553514,1
604,641,4,0.122695591313424,1
604,642,4,0.140991546463709,1
604,643,4,0.177971964198824,1
604,644,4,0.167015867156268,1
604,645,4,0.118731412298978,1
605,631,4,0.104185589547511,1
605,632,4,0.157333810370627,1
605,633,4,0.191051004352675,1
605,634,4,0.175140748755808,1
605,635,4,0.17787447762141,2
605,636,4,0.197882448766453,2
605,637,4,0.21442957948886,1
605,638,4,0.204104702458027,1
605,639,4,0.178731623333995,1
605,640,4,0.186457947681341,1
605,641,4,0.180232537387776,1
605,642,4,0.168845090125337,1
605,643,4,0.196840078556781,1
605,644,4,0.205223009580633,1
605,645,4,0.170759820199951,1
605,646,4,0.144964827199799,3
605,647,4,0.142889891208549,3
606,631,4,0.114103264921403,1
606,632,4,0.185497136036206,1
606,633,4,0.223317901453518,1
606,634,4,0.18566494902902,1
606,635,4,0.155087637086874,1
606,636,4,0.153401286608664,1
606,637,4,0.167197477734467,1
606,638,4,0.159372774484055,1
606,639,4,0.1410030240024,1
606,640,4,0.162397468436434,1
606,641,4,0.177888498288207,1
606,642,4,0.156422221639236,1
606,643,4,0.158872927116358,1
606,644,4,0.194364677967257,1
606,645,4,0.254100280984424,3
606,646,4,0.312281296559879,3
606,647,4,0.310114886035291,3
606,648,4,0.270317764303066,3
607,631,4,0.121784571439636,1
607,632,4,0.170772156602081,1
607,633,4,0.179224387866834,1
607,634,4,0.145277408875481,1
607,635,4,0.114267608998248,1
607,643,4,0.10489538998691,1
607,644,4,0.157109033539041,1
607,645,4,0.293299946076761,3
607,646,4,0.432916786796007,3
607,647,4,0.450675004200623,3
607,648,4,0.365583075473528,3
607,649,4,0.229953480386816,3
608,631,4,0.114198598763183,1
608,632,4,0.12397138275943,1
608,633,4,0.105011738097781,1
608,645,4,0.178551685866392,3
608,646,4,0.29168878518875,3
608,647,4,0.390549878728482,3
608,648,4,0.42051845726532,3
608,649,4,0.280413447490339,3
608,650,4,0.172804327886488,1
608,651,4,0.168908300243667,1
609,646,4,0.144577089396128,3
609,647,4,0.25681359790075,3
609,648,4,0.384086496337762,3
609,649,4,0.320747459258865,3
609,650,4,0.189254752816425,1
610,647,4,0.141897134305094,1
610,648,4,0.221032454687034,3
610,649,4,0.228142840099437,1
610,650,4,0.162473081881319,1
611,649,4,0.118974292187216,1
611,650,4,0.120481764834535,1
611,651,4,0.137816462176859,1
611,654,4,0.150916416213164,1
612,651,4,0.129338052308308,1
612,652,4,0.135041039395196,1
612,653,4,0.119732579371697,1
612,654,4,0.125504331304096,1
613,651,4,0.120324838214667,1
613,652,4,0.151124216549232,1
613,653,4,0.143342545703358,1
613,654,4,0.142595100275541,1
614,652,4,0.122817471843333,1
614,653,4,0.149099284256672,1
614,654,4,0.171255908645841,1
615,653,4,0.105826989121033,1
624,628,4,0.117169808946832,1
625,628,4,0.122605700658117,1
626,628,4,0.137614473111596,1
627,628,4,0.175010536135129,1
627,629,4,0.109824262263075,1
628,628,4,0.169336772713324,1
628,629,4,0.117417351236598,1
629,628,4,0.129796540382064,1
629,629,4,0.104908607560622,1
633,629,4,0.112166249013646,1
633,630,4,0.10721496820956,1
634,630,4,0.128173846185009,1
638,633,4,0.114179346837254,1
641,632,4,0.105373709998268,1
601,634,5,0.169343487463851,2
601,635,5,0.245197726425626,2
601,636,5,0.218754391915315,2
602,633,5,0.195049604829124,2
602,634,5,0.332854199074819,2
602,635,5,0.506892144866214,2
602,636,5,0.3961887968336,2
602,637,5,0.175102278366162,2
603,632,5,0.188391673138258,1
603,633,5,0.205032988833169,2
603,634,5,0.354156310112075,2
603,635,5,0.536304626057105,2
603,636,5,0.432221843578704,2
603,637,5,0.19479899516993,2
604,631,5,0.134679245959839,1
604,632,5,0.165265994245749,1
604,633,5,0.188930124744449,1
604,634,5,0.242234156780368,2
604,635,5,0.326110403348149,2
604,636,5,0.301922912700837,2
604,637,5,0.19753963955933,2
604,638,5,0.132077715139491,1
604,639,5,0.104335344099956,1
604,642,5,0.107095831581029,1
604,643,5,0.141800595823684,1
604,644,5,0.154097467927808,1
604,645,5,0.113147037599301,1
605,631,5,0.133635548415761,1
605,632,5,0.205330177891365,1
605,633,5,0.23092399607341,1
605,634,5,0.201399193391151,1
605,635,5,0.203471396635094,2
605,636,5,0.220366868983662,2
605,637,5,0.217570119618931,1
605,638,5,0.189643048323628,1
605,639,5,0.14914439131835,1
605,640,5,0.135332684880282,1
605,641,5,0.127290399173849,1
605,642,5,0.119801567298621,1
605,643,5,0.143747683857231,1
605,644,5,0.16982149516123,1
605,645,5,0.144798810012358,1
605,646,5,0.115548676319667,1
605,647,5,0.113231217370439,1
606,631,5,0.140566955610636,1
606,632,5,0.23522578649806,1
606,633,5,0.269684547712697,1
606,634,5,0.207350046235854,1
606,635,5,0.162064340962628,1
606,636,5,0.159596826301049,1
606,637,5,0.166936662100636,1
606,638,5,0.154066838849824,1
606,639,5,0.128916104969977,1
606,640,5,0.129924076025789,1
606,641,5,0.134065760920437,1
606,642,5,0.115409964297158,1
606,643,5,0.115264883300313,1
606,644,5,0.149109211379543,1
606,645,5,0.189430697126738,1
606,646,5,0.223449051016131,3
606,647,5,0.224047935377062,3
606,648,5,0.201868802073336,3
607,631,5,0.130484835773264,1
607,632,5,0.191261414741273,1
607,633,5,0.205073678882873,1
607,634,5,0.160852930812371,1
607,635,5,0.115283086743601,1
607,644,5,0.132496126637429,1
607,645,5,0.226818294210654,1
607,646,5,0.321862821706821,3
607,647,5,0.34541997351399,3
607,648,5,0.296854547617218,3
607,649,5,0.196835282306405,3
608,631,5,0.116770292444563,1
608,632,5,0.131206347986837,1
608,633,5,0.119736806764471,1
608,645,5,0.146307342296388,1
608,646,5,0.226635635149814,3
608,647,5,0.32432564050466,3
608,648,5,0.394730022858706,3
608,649,5,0.275317018764984,3
608,650,5,0.148596135284064,1
609,646,5,0.112629009096457,1
609,647,5,0.217715077920999,3
609,648,5,0.370489929614245,3
609,649,5,0.313562542346429,3
609,650,5,0.164257788954454,1
609,651,5,0.148031159297886,1
610,647,5,0.118657159650712,1
610,648,5,0.206466219986292,3
610,649,5,0.211563362572168,1
610,650,5,0.138966569554866,1
610,651,5,0.13917378987926,1
611,649,5,0.11053902626391,1
611,650,5,0.105143612674986,1
611,651,5,0.112482957695465,1
611,652,5,0.13342838386172,1
611,653,5,0.12989944783781,1
611,654,5,0.109746395695921,1
612,651,5,0.109697183936247,1
612,652,5,0.104039772382004,1
612,655,5,0.138064885638206,1
613,651,5,0.107283086118973,1
613,652,5,0.114098803293146,1
613,654,5,0.105665823954321,1
613,655,5,0.14111119617949,1
614,652,5,0.106665462919363,1
614,653,5,0.123190151651637,1
614,654,5,0.134043017770398,1
615,654,5,0.115862819565239,1
627,629,5,0.121645413254302,1
628,629,5,0.141797372297268,1
629,629,5,0.128142637095352,1
630,629,5,0.112342360635018,1
631,629,5,0.104241705676913,1
633,630,5,0.125251000051666,1
634,631,5,0.110853872215933,1
635,631,5,0.133458979477492,1
641,632,5,0.104796051833769,1
601,634,6,0.161475294492004,2
601,635,6,0.233853233489232,2
601,636,6,0.217094889285141,2
602,633,6,0.187300715796868,2
602,634,6,0.316411671226897,2
602,635,6,0.460185991004822,2
602,636,6,0.338473999102856,2
602,637,6,0.156829177906624,2
603,633,6,0.200665077077751,2
603,634,6,0.35515756641736,2
603,635,6,0.503046265925001,2
603,636,6,0.367633684436707,2
603,637,6,0.164678185876966,2
604,632,6,0.163664738172469,1
604,633,6,0.195438101109598,1
604,634,6,0.267492906680316,2
604,635,6,0.346770530695512,2
604,636,6,0.29121284099444,2
604,637,6,0.175992440127849,2
604,638,6,0.112741129814554,1
604,643,6,0.107539785900737,1
604,644,6,0.126180647223426,1
605,631,6,0.14556526197655,1
605,632,6,0.220919530875851,1
605,633,6,0.235029742552449,1
605,634,6,0.219384686139175,1
605,635,6,0.233211294415621,2
605,636,6,0.234230196460662,2
605,637,6,0.201612102291573,1
605,638,6,0.159989003424835,1
605,639,6,0.119723288030852,1
605,643,6,0.106170389493901,1
605,644,6,0.130060590696381,1
605,645,6,0.116775668706612,1
606,632,6,0.245151570881308,1
606,633,6,0.267614463742176,1
606,634,6,0.217994175076613,1
606,635,6,0.180410433660451,1
606,636,6,0.173000438756523,1
606,637,6,0.164616537328525,1
606,638,6,0.141579867919742,1
606,639,6,0.112013650173187,1
606,644,6,0.116357759141854,1
606,645,6,0.139268008313977,1
606,646,6,0.15303015721618,1
606,647,6,0.153133678145812,1
607,631,6,0.136134863332742,1
607,632,6,0.209510790492556,1
607,633,6,0.228104893951112,1
607,634,6,0.187807846772695,1
607,635,6,0.130640401596513,1
607,644,6,0.110497276577496,1
607,645,6,0.161568509060362,1
607,646,6,0.217482850170225,1
607,647,6,0.247467669033917,3
607,648,6,0.226807787076109,3
607,649,6,0.17076936808442,1
608,631,6,0.119451775643275,1
608,632,6,0.151903674159793,1
608,633,6,0.150807753256966,1
608,634,6,0.123325249755257,1
608,645,6,0.116501267414739,1
608,646,6,0.171624561834643,1
608,647,6,0.25864369088733,3
608,648,6,0.334277190791092,3
608,649,6,0.259954941123907,3
608,650,6,0.136663231659072,1
609,647,6,0.180623688337063,1
609,648,6,0.310706364093315,3
609,649,6,0.273717725808137,1
609,650,6,0.14652633016531,1
609,651,6,0.113996665468273,1
610,648,6,0.173862001481082,1
610,649,6,0.179681057827075,1
610,650,6,0.126670433619404,1
610,651,6,0.115567526699053,1
610,652,6,0.140080448511427,1
611,649,6,0.105225795867479,1
612,651,6,0.105473271232822,1
613,651,6,0.123149071209461,1
613,652,6,0.105808662982968,1
613,655,6,0.105410696896518,1
613,656,6,0.135019166262666,1
614,652,6,0.103013196336361,1
614,654,6,0.103442650364234,1
614,655,6,0.112067368177401,1
628,630,6,0.103582979726986,1
629,630,6,0.103035917178259,1
634,631,6,0.125574825030555,1
635,631,6,0.160354332700585,1
636,631,6,0.165337502992637,1
637,632,6,0.140707050737904,1
639,632,6,0.119023370098042,1
641,632,6,0.103497573008077,1
601,635,7,0.234408906980494,2
601,636,7,0.236519078680904,2
602,634,7,0.287662277227555,2
602,635,7,0.409343773900385,2
602,636,7,0.298479985715651,2
602,637,7,0.150584805692966,2
603,633,7,0.19218006399938,2
603,634,7,0.349674113748855,2
603,635,7,0.475458055295814,2
603,636,7,0.318217314490628,2
603,637,7,0.142691527216245,2
604,632,7,0.161571743740849,1
604,633,7,0.20195602690576,2
604,634,7,0.30299082573228,2
604,635,7,0.382338207305274,2
604,636,7,0.282588268184191,2
604,637,7,0.154116184458346,1
605,632,7,0.218997773736732,1
605,633,7,0.223060643968222,1
605,634,7,0.24179350406557,2
605,635,7,0.27049634097405,2
605,636,7,0.241963737491714,1
605,637,7,0.180918702351483,1
605,638,7,0.128667034572533,1
606,632,7,0.233943112990468,1
606,633,7,0.241981115533774,1
606,634,7,0.223894254591752,1
606,635,7,0.199222543429713,1
606,636,7,0.182147546314155,1
606,637,7,0.160470245802701,1
606,638,7,0.126452427308699,1
606,646,7,0.103725372592807,1
607,632,7,0.22258449900064,1
607,633,7,0.246274897335703,1
607,634,7,0.216557887708134,1
607,635,7,0.145216931504458,1
607,636,7,0.105811161494792,1
607,645,7,0.11504066417226,1
607,646,7,0.140569599125378,1
607,647,7,0.165053810359919,1
608,631,7,0.128269860425099,1
608,632,7,0.178012475783397,1
608,633,7,0.185442481090058,1
608,634,7,0.153941734793499,1
608,646,7,0.123192192846564,1
608,647,7,0.187178065636084,1
608,648,7,0.248400283188469,3
608,649,7,0.224785754841915,1
609,631,7,0.104297174870218,1
609,632,7,0.110641253321348,1
609,647,7,0.137356122527377,1
609,648,7,0.226978689746491,1
609,649,7,0.218780269359206,1
609,650,7,0.125187856857759,1
610,648,7,0.13352442040995,1
610,649,7,0.14554443732666,1
610,650,7,0.114454026980894,1
611,650,7,0.104817144181354,1
612,650,7,0.119635516648967,1
612,651,7,0.10850316298212,1
613,650,7,0.147605932662786,1
613,651,7,0.155305754938286,1
613,652,7,0.104020587380499,1
614,650,7,0.114812719584612,1
614,651,7,0.133659875443832,1
626,629,7,0.104437113840497,1
628,630,7,0.132919624391579,1
629,630,7,0.129181315307641,1
630,630,7,0.113963705189525,1
634,631,7,0.138412279168363,1
635,631,7,0.177408081311569,1
637,632,7,0.125673203933621,1
638,632,7,0.139668707147734,1
639,632,7,0.10637421898082,1
601,635,8,0.237372811247872,2
602,634,8,0.26015154277305,2
602,635,8,0.372165025635177,2
602,636,8,0.27975071722905,2
603,633,8,0.183201449832872,2
603,634,8,0.336575330889967,2
603,635,8,0.461274895997214,2
603,636,8,0.295358496738237,2
603,637,8,0.132153417816941,2
604,632,8,0.154494006293216,1
604,633,8,0.207889702481674,2
604,634,8,0.33282140610713,2
604,635,8,0.417326296096316,2
604,636,8,0.276895074371328,2
604,637,8,0.137606230253391,1
605,632,8,0.206450314281556,1
605,633,8,0.223272660542993,1
605,634,8,0.271875207186862,2
605,635,8,0.305400751927133,2
605,636,8,0.241673285492186,2
605,637,8,0.159662512623062,1
605,638,8,0.104353413694397,1
606,633,8,0.236301998158061,1
606,634,8,0.237269926100267,1
606,635,8,0.211986614936764,2
606,636,8,0.180116267355399,1
606,637,8,0.14785915237451,1
606,638,8,0.11018150483761,1
607,632,8,0.227109794692822,1
607,633,8,0.265546677510208,1
607,634,8,0.236474975485584,1
607,635,8,0.148669439836326,1
608,632,8,0.19202082848689,1
608,633,8,0.207252648891004,1
608,634,8,0.168421570063045,1
608,647,8,0.127326560670872,1
609,631,8,0.10689026205909,1
609,632,8,0.114839366659376,1
609,648,8,0.154531818592694,1
609,649,8,0.167839851816833,1
610,649,8,0.114489753469161,1
611,650,8,0.104653268575476,1
612,649,8,0.105632317126112,1
612,650,8,0.139754928113799,1
612,651,8,0.110093108827769,1
613,649,8,0.102937092112368,1
613,650,8,0.183185231814158,1
613,651,8,0.171326357756019,1
614,650,8,0.135010376855,1
614,651,8,0.144724423515244,1
626,629,8,0.110921867430569,1
627,630,8,0.119930173733127,1
628,630,8,0.162458146580729,1
629,630,8,0.147753980642423,1
634,631,8,0.133783172540713,1
637,632,8,0.11037424717831,1
638,632,8,0.116696485959122,1
640,631,8,0.121977179931489,1
644,634,8,0.127304352916223,1
644,635,8,0.103717018193895,1
645,637,8,0.115068538194795,1
601,635,9,0.228116293411308,2
602,634,9,0.21723083509813,2
602,635,9,0.317715180538449,2
602,636,9,0.258628320577984,2
603,634,9,0.285429031511677,2
603,635,9,0.411903990043073,2
603,636,9,0.270259986217138,2
604,632,9,0.143683860265015,1
604,633,9,0.196812483386012,2
604,634,9,0.315673650988773,2
604,635,9,0.408358289450989,2
604,636,9,0.25975929872484,2
604,637,9,0.123916549348152,1
605,633,9,0.235727139665294,1
605,634,9,0.288484912245572,2
605,635,9,0.315022007873703,2
605,636,9,0.228782659899626,2
605,637,9,0.138301987717851,1
606,634,9,0.25829608542983,1
606,635,9,0.215185713937707,2
606,636,9,0.167407486576522,1
606,637,9,0.128940610463179,1
607,633,9,0.276074268620896,1
607,634,9,0.243826088050591,1
607,635,9,0.14690260158436,1
608,632,9,0.184928323049726,1
608,633,9,0.208701852673287,1
608,634,9,0.167980303874362,1
609,631,9,0.105206421246773,1
609,632,9,0.10994519469698,1
612,649,9,0.116750438198819,1
612,650,9,0.146405152341851,1
612,651,9,0.104062069369218,1
613,649,9,0.117705349340585,1
613,650,9,0.191568352457211,1
613,651,9,0.157159137624367,1
614,650,9,0.13753328263139,1
614,651,9,0.131381924212819,1
626,629,9,0.116191240021234,1
627,630,9,0.159424417831129,1
641,632,9,0.106606312882746,1
642,633,9,0.103762270258492,1
643,634,9,0.107378397652612,1
644,634,9,0.135918251280867,1
644,635,9,0.113405064715472,1
645,637,9,0.116958417000017,1
645,638,9,0.107808710543925,1
645,639,9,0.106334276253849,1
602,635,10,0.265537642712988,2
603,634,10,0.234875704836878,2
603,635,10,0.346895634751837,2
603,636,10,0.247286839240663,2
604,633,10,0.180505778656302,1
604,634,10,0.274428329340622,2
604,635,10,0.368491008614423,2
604,636,10,0.240010235867547,2
604,637,10,0.115050212056729,1
605,633,10,0.246306931826588,1
605,634,10,0.283763126444954,1
605,635,10,0.302547072185844,2
605,636,10,0.21008038426398,1
605,637,10,0.120472596188467,1
606,634,10,0.269047159499909,1
606,635,10,0.206773536940631,1
606,636,10,0.149051310598839,1
606,637,10,0.11205190863549,1
607,633,10,0.2714976865119,1
607,634,10,0.231166775575012,1
607,635,10,0.139483482650646,1
608,632,10,0.158246302581739,1
608,633,10,0.18622821844239,1
608,634,10,0.150010415671166,1
612,649,10,0.105735469971413,1
612,650,10,0.126808989484924,1
613,649,10,0.113113820776928,1
613,650,10,0.161139913895929,1
613,651,10,0.121055184452189,1
614,650,10,0.115140236560884,1
626,629,10,0.114214761011544,1
627,630,10,0.211779171530957,1
627,631,10,0.119480820843228,1
628,631,10,0.14765894796055,1
629,631,10,0.10403605807648,1
640,632,10,0.107289265474109,1
641,633,10,0.109812952035444,1
642,633,10,0.131374863686103,1
642,634,10,0.113400101154036,1
643,634,10,0.136120619584531,1
643,635,10,0.117371396465552,1
645,637,10,0.121683972876513,1
645,638,10,0.116098036606946,1
645,639,10,0.108200553045592,1
603,635,11,0.274936419566524,2
604,634,11,0.237880723008644,1
604,635,11,0.309423199806615,2
604,636,11,0.215220291556699,1
604,637,11,0.107902538586169,1
605,634,11,0.259331071644737,1
605,635,11,0.266911556518434,1
605,636,11,0.18546855930722,1
605,637,11,0.10491049259856,1
606,634,11,0.260281621544882,1
606,635,11,0.186099087766563,1
606,636,11,0.130458155236287,1
607,634,11,0.208084943334198,1
607,635,11,0.126766302856575,1
608,633,11,0.163050450039981,1
608,634,11,0.132561311026263,1
613,650,11,0.114290039834309,1
626,630,11,0.115361879098619,1
627,631,11,0.154951992433792,1
629,631,11,0.130408084613174,1
640,632,11,0.120023410609627,1
641,633,11,0.141520149025522,1
642,633,11,0.160506507686359,1
642,634,11,0.146656777021472,1
642,635,11,0.102937939821737,1
643,633,11,0.156046474461506,1
643,634,11,0.164922493486246,1
643,635,11,0.155280189808374,1
644,636,11,0.128374329450735,1
645,637,11,0.149484066231622,1
645,638,11,0.141401793181936,1
645,639,11,0.120661144598606,1
604,635,12,0.250088273315064,1
604,636,12,0.181496538981112,1
605,633,12,0.217983556401361,1
605,634,12,0.231097084941639,1
605,635,12,0.224999689916836,1
605,636,12,0.160056017081255,1
606,634,12,0.223368652474941,1
606,635,12,0.163112154358774,1
606,636,12,0.12272886390615,1
607,634,12,0.173028848174449,1
607,635,12,0.115210975676898,1
607,638,12,0.104794802577857,1
608,633,12,0.137159955886989,1
608,634,12,0.111022956772801,1
626,630,12,0.114742326244788,1
627,631,12,0.17125797214891,1
629,631,12,0.149340245644759,1
640,633,12,0.107661666430647,1
641,633,12,0.154434934335094,1
641,634,12,0.113216304377991,1
642,634,12,0.166675768388311,1
642,635,12,0.123958655964827,1
643,633,12,0.152181477443212,1
643,634,12,0.177009903297777,1
643,635,12,0.184222192299569,1
643,636,12,0.109533252560015,1
644,633,12,0.162948780686075,1
644,634,12,0.152618427006557,1
644,635,12,0.186314941341635,1
644,636,12,0.151908894264853,1
644,637,12,0.105547813886925,1
645,638,12,0.154132179395647,1
645,639,12,0.131286746528028,1
605,633,13,0.207189003763919,1
605,634,13,0.221693846459845,1
605,635,13,0.186527504465867,1
605,636,13,0.13193548958473,1
606,634,13,0.186168220696405,1
606,635,13,0.144796735355218,1
606,636,13,0.120007270669408,1
607,634,13,0.14584412489668,1
607,635,13,0.110065067494174,1
607,636,13,0.115757513984305,1
607,637,13,0.126771110261022,1
607,638,13,0.11054492676728,1
608,633,13,0.12581296443877,1
608,637,13,0.10713647701445,1
608,640,13,0.107084577123751,1
613,644,13,0.116679977934571,1
628,632,13,0.111546439616189,1
640,633,13,0.103752822760657,1
641,634,13,0.115337217448429,1
642,635,13,0.130419260991957,1
643,634,13,0.167023050377762,1
643,635,13,0.183643396419865,1
643,636,13,0.115882863430184,1
644,634,13,0.146573835352175,1
644,635,13,0.182156670343941,1
644,636,13,0.163868567659388,1
644,637,13,0.118695998124688,1
645,639,13,0.144066969129369,1
646,640,13,0.165395749549532,1
605,633,14,0.215969934336432,1
605,634,14,0.248261504241536,1
605,635,14,0.177595313541372,1
606,634,14,0.175930568497996,1
606,635,14,0.14486413940411,1
606,636,14,0.120402258618996,1
607,635,14,0.11183954628453,1
607,636,14,0.132270490942404,1
607,637,14,0.143698907106312,1
607,638,14,0.111926983044296,1
608,636,14,0.111516557860938,1
608,637,14,0.143444739298584,1
608,638,14,0.125965730590289,1
608,639,14,0.110764483493805,1
608,640,14,0.106326713793954,1
613,643,14,0.112333983927966,1
613,644,14,0.14932896887934,1
614,644,14,0.104101900555482,1
628,632,14,0.120536765556872,1
639,643,14,0.104172160046458,1
642,635,14,0.119934635361384,1
643,634,14,0.138936620875191,1
643,635,14,0.157973228624272,1
643,636,14,0.113255243238603,1
644,634,14,0.130151585604681,1
644,635,14,0.158035222948902,1
644,636,14,0.158604448635995,1
644,637,14,0.126222329985417,1
605,635,15,0.193245277745728,1
606,635,15,0.160405563347046,1
606,636,15,0.120014476199043,1
607,634,15,0.115345359919998,1
607,635,15,0.115864247286282,1
607,636,15,0.136017254811888,1
607,637,15,0.139512706315729,1
607,638,15,0.105279246173998,1
608,636,15,0.127758345899509,1
608,637,15,0.171110626875724,1
608,638,15,0.149478087649758,1
608,639,15,0.123190341270838,1
609,637,15,0.120295079154193,1
609,638,15,0.121216104229347,1
609,639,15,0.10774194227706,1
613,643,15,0.14009387801248,1
613,644,15,0.154093798238567,1
614,643,15,0.116699452941913,1
614,644,15,0.11489898516696,1
639,644,15,0.110563542911182,1
641,643,15,0.118808308461987,1
643,635,15,0.126733900281359,1
643,636,15,0.112780012904814,1
643,642,15,0.108548058116456,1
644,634,15,0.114247899755422,1
644,635,15,0.134025673190549,1
644,636,15,0.146793001686228,1
644,637,15,0.131394338693444,1
644,638,15,0.109723886781364,1
645,639,15,0.159445878263045,1
645,641,15,0.104529413775063,1
646,640,15,0.173749579603077,1
606,635,16,0.171804856232507,1
606,636,16,0.111966691535783,1
607,634,16,0.116903449739892,1
607,635,16,0.117240860376824,1
607,636,16,0.124631737203671,1
607,637,16,0.119081449343877,1
608,636,16,0.128420049986298,1
608,637,16,0.173426557717274,1
608,638,16,0.160036854387891,1
608,639,16,0.124975728742282,1
609,637,16,0.146217552027716,1
609,638,16,0.151413006592234,1
609,639,16,0.122189988445275,1
613,642,16,0.11526431444271,1
613,643,16,0.143177911620677,1
613,644,16,0.123232882896268,1
614,642,16,0.136671452209135,1
614,643,16,0.139582129251407,1
614,644,16,0.10324863645948,1
627,647,16,0.129379846611005,1
628,647,16,0.111665018541189,1
641,644,16,0.119276322112071,1
642,643,16,0.132010210703964,1
643,636,16,0.105019289403606,1
644,635,16,0.11536849346251,1
644,636,16,0.131502310097263,1
644,637,16,0.131855124505752,1
644,638,16,0.119416450701551,1
644,642,16,0.11574787686727,1
645,636,16,0.167270648437881,1
645,639,16,0.157091521648133,1
645,640,16,0.105579781453386,1
645,641,16,0.111040502125921,1
645,642,16,0.147876563878783,1
646,642,16,0.157648745555214,1
607,635,17,0.121782920637181,1
607,636,17,0.111246383961838,1
608,636,17,0.119340268399063,1
608,637,17,0.156330300943072,1
608,638,17,0.152012961743947,1
608,639,17,0.111486609181264,1
609,636,17,0.104838281145221,1
609,637,17,0.156579003256186,1
609,638,17,0.161200268572175,1
609,639,17,0.118236573108999,1
613,642,17,0.116890109471403,1
613,643,17,0.122732923987864,1
614,641,17,0.116311726292313,1
614,642,17,0.162844891672112,1
614,643,17,0.141731920210739,1
615,642,17,0.122342776904935,1
629,648,17,0.115744976808902,1
630,648,17,0.110912386470523,1
642,643,17,0.103862099190741,1
643,643,17,0.161221427844183,1
644,636,17,0.12339839815053,1
644,637,17,0.135864165192322,1
644,638,17,0.125585376781383,1
644,642,17,0.111001607881591,1
644,643,17,0.195010186343473,1
645,639,17,0.147677196020121,1
645,640,17,0.113094635775423,1
645,641,17,0.119682475286372,1
645,642,17,0.143311782776527,1
645,643,17,0.165840250418702,1
645,644,17,0.168530612257645,1
609,636,18,0.110155404312306,1
609,638,18,0.140944699367011,1
614,641,18,0.133838809045077,1
614,642,18,0.165385833580731,1
615,641,18,0.113610745778117,1
615,642,18,0.130245737114974,1
639,647,18,0.121558422657362,1
640,646,18,0.110947733720389,1
641,645,18,0.142223067403335,1
642,644,18,0.162205674191738,1
643,643,18,0.122668219224068,1
643,644,18,0.228881507273659,1
644,636,18,0.114531726236989,1
644,637,18,0.132127027285801,1
644,638,18,0.119709825067587,1
644,642,18,0.107249144282008,1
644,643,18,0.160882935262399,1
644,644,18,0.201427078567757,1
645,639,18,0.129176240205499,1
645,643,18,0.144469129146381,1
638,647,19,0.123066352621577,1
639,647,19,0.14105095304395,1
640,646,19,0.110565773725311,1
640,647,19,0.110750574367714,1
641,645,19,0.13464140019815,1
641,646,19,0.149002087685094,1
642,644,19,0.133454629389941,1
642,645,19,0.23078091165521,1
643,643,19,0.104778138396318,1
643,644,19,0.161687656842964,1
643,645,19,0.235967799893474,1
644,638,19,0.109669655689901,1
644,642,19,0.116145530639741,1
644,643,19,0.139217636530956,1
638,647,20,0.132856369656966,1
638,648,20,0.104913872281965,1
639,647,20,0.1359493934461,1
641,645,20,0.113754689059757,1
641,646,20,0.128442592363067,1
642,644,20,0.10430450309463,1
642,645,20,0.17188409475035,1
638,647,21,0.128281192960871,1
