x,y,z,signal,mito.p
469,322,1,0.220902777461746,1
469,323,1,0.218274409947432,1
470,321,1,0.216926485126582,1
470,322,1,0.259827650869736,1
470,323,1,0.239521799114117,1
471,321,1,0.236671376361455,1
471,322,1,0.272335067211307,3
471,323,1,0.233464357970355,1
471,325,1,0.169859229382214,1
471,326,1,0.17932015671737,1
472,321,1,0.226667714256981,1
472,322,1,0.27108895674728,1
472,323,1,0.23703939376823,1
472,324,1,0.211054446945038,1
472,325,1,0.24269450758392,1
472,326,1,0.273306542147976,1
472,327,1,0.212610685189206,1
472,331,1,0.24827355063783,1
472,332,1,0.25572786066442,1
473,321,1,0.221824126004948,1
473,322,1,0.268049985584479,1
473,323,1,0.242309781379323,1
473,324,1,0.238827725914324,1
473,325,1,0.311359144923591,2
473,326,1,0.353277324729172,2
473,327,1,0.250427357062592,1
473,328,1,0.150718598770322,1
473,330,1,0.197072640929675,1
473,331,1,0.299457260769054,1
473,332,1,0.328070508182135,4
473,333,1,0.270648817119732,1
474,321,1,0.241180855581466,1
474,322,1,0.269715979883767,1
474,323,1,0.238618074002529,1
474,324,1,0.24971592812888,1
474,325,1,0.330345269348944,2
474,326,1,0.364784243242262,2
474,327,1,0.254439610121507,2
474,328,1,0.157851158475162,1
474,331,1,0.270150096313169,1
474,332,1,0.317136663510511,1
474,333,1,0.275375956874258,1
475,321,1,0.237088694760469,1
475,322,1,0.256270216195336,1
475,323,1,0.248367066366096,1
475,324,1,0.279427561494399,2
475,325,1,0.311888450191854,2
475,326,1,0.291569949720127,2
475,327,1,0.212501620686464,1
475,332,1,0.222379888728776,1
476,321,1,0.220989511515061,1
476,322,1,0.245706530512049,1
476,323,1,0.266201644538329,1
476,324,1,0.302932556867245,2
476,325,1,0.291524798042166,2
476,326,1,0.232336123724878,1
477,320,1,0.198628232237745,1
477,321,1,0.229242497615929,1
477,322,1,0.256208868806803,1
477,323,1,0.266136237068082,2
477,324,1,0.275121153284503,2
477,325,1,0.259960272769674,1
477,326,1,0.215527028499364,1
477,330,1,0.222489064772224,1
477,331,1,0.254662156138964,1
478,321,1,0.21589140967911,1
478,322,1,0.254693989856577,1
478,323,1,0.266724971224729,2
478,324,1,0.271711666203103,2
478,325,1,0.272225801935294,2
478,326,1,0.244447637483067,1
478,327,1,0.20019571378512,1
478,328,1,0.187457787419654,1
478,329,1,0.229244193034667,1
478,330,1,0.290970931510348,2
478,331,1,0.313783326020725,2
478,332,1,0.256197893201291,1
479,321,1,0.205907044116848,1
479,322,1,0.276018453651401,1
479,323,1,0.303565282678505,2
479,324,1,0.301537093397317,2
479,325,1,0.293952570750047,2
479,326,1,0.261290373385638,2
479,327,1,0.216635542347946,1
479,328,1,0.212487878871433,1
479,329,1,0.269475654277707,1
479,330,1,0.324049778029533,2
479,331,1,0.32022908497983,2
479,332,1,0.246102544636137,2
480,321,1,0.180484797849424,1
480,322,1,0.245849592622109,1
480,323,1,0.285212062529542,2
480,324,1,0.288836176238242,2
480,325,1,0.275032612271744,2
480,326,1,0.24412611024273,1
480,327,1,0.213568239845713,1
480,328,1,0.208689940125841,1
480,329,1,0.248402424770032,1
480,330,1,0.27330921912493,2
480,331,1,0.247537114277737,2
481,322,1,0.184824512114258,1
481,323,1,0.212563793476225,1
481,324,1,0.233232665614972,1
481,325,1,0.254779407729557,1
481,326,1,0.268480398862428,2
481,327,1,0.252555486816736,2
481,328,1,0.216724752604944,1
481,329,1,0.2107363774666,1
482,324,1,0.199194301322846,1
482,325,1,0.292592978771305,2
482,326,1,0.385419586244657,2
482,327,1,0.35235336613344,2
482,328,1,0.253553441517111,2
482,329,1,0.204099772358803,1
482,330,1,0.192011012904724,1
482,331,1,0.175701664660272,1
483,324,1,0.196474247347852,1
483,325,1,0.33430614675848,2
483,326,1,0.462453925880397,2
483,327,1,0.402443955033569,2
483,328,1,0.280604092865758,2
483,329,1,0.238575777766653,1
483,330,1,0.256749238913144,1
483,331,1,0.263440231269393,1
483,332,1,0.209889315033876,1
484,324,1,0.185192016433783,1
484,325,1,0.274198711642378,2
484,326,1,0.358249920962255,2
484,327,1,0.32548361150247,2
484,328,1,0.279291147210443,1
484,329,1,0.299868845975759,1
484,330,1,0.350910074008597,5
484,331,1,0.348306044676425,5
484,332,1,0.262034929909159,1
485,325,1,0.21051117678033,1
485,326,1,0.265424674285522,2
485,327,1,0.276643907008602,1
485,328,1,0.282875329346244,1
485,329,1,0.306528049230677,1
485,330,1,0.330211911280344,5
485,331,1,0.294684567790024,5
485,332,1,0.212520961844958,1
486,326,1,0.206899644863314,1
486,327,1,0.238982477490416,1
486,328,1,0.238391534827782,1
486,329,1,0.214508505692725,1
486,330,1,0.204126185198084,1
486,331,1,0.17578670329485,1
468,322,2,0.160002734085796,1
468,323,2,0.159249533157527,1
469,321,2,0.166015090476021,1
469,322,2,0.223240603743966,1
469,323,2,0.219551417187138,1
469,324,2,0.146214339655371,1
470,320,2,0.170271305368026,1
470,321,2,0.242825545605827,1
470,322,2,0.294850161122781,3
470,323,2,0.257955283955423,1
470,324,2,0.160974264792818,1
471,320,2,0.175072285070205,1
471,321,2,0.264563044636538,3
471,322,2,0.308277386745805,3
471,323,2,0.243721172862128,3
471,324,2,0.16609963833149,1
471,325,2,0.138891056496617,1
471,326,2,0.14774282657178,1
471,331,2,0.182687057557057,1
471,332,2,0.199688895123271,1
472,320,2,0.144165046872528,1
472,321,2,0.231506640107486,1
472,322,2,0.294818728951711,3
472,323,2,0.238508496412539,1
472,324,2,0.195632159630634,1
472,325,2,0.214211026628693,2
472,326,2,0.245104589935762,2
472,327,2,0.188337018192111,1
472,330,2,0.154937737531511,1
472,331,2,0.231744333352875,1
472,332,2,0.238813805634162,4
472,333,2,0.193787789433633,1
473,320,2,0.133653539931707,1
473,321,2,0.216510728297458,1
473,322,2,0.287386169362873,1
473,323,2,0.24326836221033,1
473,324,2,0.230935462458031,2
473,325,2,0.311977481983722,2
473,326,2,0.374505105039668,2
473,327,2,0.249864411117271,2
473,328,2,0.143294025496064,1
473,330,2,0.176298976297243,1
473,331,2,0.2808270627379,4
473,332,2,0.311531876861559,4
473,333,2,0.237730366136384,4
473,334,2,0.166793243060316,1
474,320,2,0.149840951875896,1
474,321,2,0.232193909324187,1
474,322,2,0.272821987011129,1
474,323,2,0.227382221714191,1
474,324,2,0.241008079027215,2
474,325,2,0.359631285686891,2
474,326,2,0.442692392772127,2
474,327,2,0.289155517280734,2
474,328,2,0.160278596560923,1
474,330,2,0.165695481735834,1
474,331,2,0.252701560525869,1
474,332,2,0.305552648061141,4
474,333,2,0.248093412396955,1
475,320,2,0.159347532822191,1
475,321,2,0.222118861167603,1
475,322,2,0.249625133993851,1
475,323,2,0.242346701353149,2
475,324,2,0.286810240079324,2
475,325,2,0.338472571381814,2
475,326,2,0.342996930132062,2
475,327,2,0.239346367891053,2
475,328,2,0.159815066847238,1
475,331,2,0.179756225109134,1
475,332,2,0.203428921934087,1
476,320,2,0.179480117244452,1
476,321,2,0.204577434279993,1
476,322,2,0.237784842617402,1
476,323,2,0.278534678139476,2
476,324,2,0.337150836318832,2
476,325,2,0.316144955089696,2
476,326,2,0.242859610137569,2
476,327,2,0.186570570332617,1
476,330,2,0.153254777890776,1
476,331,2,0.163742816666966,1
477,319,2,0.178280675411993,1
477,320,2,0.215768045657805,1
477,321,2,0.231891500160931,1
477,322,2,0.266121134456432,2
477,323,2,0.292798525985103,2
477,324,2,0.30942953531874,2
477,325,2,0.280748716545707,2
477,326,2,0.219488709001986,1
477,327,2,0.178127574638356,1
477,328,2,0.16668582936003,1
477,329,2,0.185081546518141,1
477,330,2,0.224895488588895,2
477,331,2,0.238617962461823,2
477,332,2,0.209162805796654,1
478,320,2,0.181581164915076,1
478,321,2,0.21313722424795,1
478,322,2,0.261760562079497,2
478,323,2,0.280846203123122,2
478,324,2,0.290388845179804,2
478,325,2,0.300365559049605,2
478,326,2,0.26632737322261,2
478,327,2,0.210788801598619,1
478,328,2,0.197603150837568,1
478,329,2,0.250197984753902,2
478,330,2,0.334321003980576,2
478,331,2,0.354640865248922,2
478,332,2,0.277668519937812,2
478,333,2,0.17508001484116,1
479,320,2,0.148051303549466,1
479,321,2,0.205225842714576,1
479,322,2,0.3002008580425,2
479,323,2,0.328108119708342,2
479,324,2,0.316103595795754,2
479,325,2,0.325159318052613,2
479,326,2,0.299542165554784,2
479,327,2,0.240439288348877,2
479,328,2,0.22090563290383,1
479,329,2,0.286051874816348,2
479,330,2,0.391969033444455,2
479,331,2,0.43021143388612,2
479,332,2,0.328165830869845,2
479,333,2,0.182775542799463,2
480,321,2,0.173799516377343,1
480,322,2,0.268301286796052,2
480,323,2,0.320565982529513,2
480,324,2,0.309289640964743,2
480,325,2,0.29511232639916,2
480,326,2,0.271162707462368,2
480,327,2,0.237107678988702,1
480,328,2,0.215498563311085,1
480,329,2,0.25514287427551,2
480,330,2,0.318364682071955,2
480,331,2,0.334956696774626,2
480,332,2,0.252356609737182,2
481,321,2,0.146900995398187,1
481,322,2,0.181163389199165,1
481,323,2,0.224512814733296,2
481,324,2,0.243785063378768,2
481,325,2,0.251568507721874,2
481,326,2,0.263902679038226,2
481,327,2,0.258959217237661,2
481,328,2,0.221382000952825,1
481,329,2,0.221912421628153,1
481,330,2,0.227868226880222,2
481,331,2,0.204343288029068,2
482,322,2,0.151103090739435,1
482,323,2,0.161885931602703,1
482,324,2,0.188143561990889,1
482,325,2,0.266385463622516,2
482,326,2,0.379667610479508,2
482,327,2,0.371149045956645,2
482,328,2,0.25870307515943,2
482,329,2,0.20361354411136,1
482,330,2,0.181986057679395,1
482,331,2,0.159277741802182,1
483,324,2,0.172383139024961,2
483,325,2,0.306110262360696,2
483,326,2,0.477749815266282,2
483,327,2,0.440188348529193,2
483,328,2,0.281364845099852,2
483,329,2,0.214598295961397,2
483,330,2,0.225391287028949,5
483,331,2,0.245640476105705,5
483,332,2,0.205814688411929,1
484,324,2,0.160602376923531,1
484,325,2,0.24507746323596,2
484,326,2,0.349169458976711,2
484,327,2,0.324299406130509,2
484,328,2,0.26088376289444,2
484,329,2,0.28084477540208,5
484,330,2,0.349389305709073,5
484,331,2,0.374493281724787,5
484,332,2,0.293672670501347,5
484,333,2,0.158459323022867,1
485,325,2,0.193622508414854,1
485,326,2,0.263978638259301,2
485,327,2,0.270936212903903,2
485,328,2,0.264043242636462,1
485,329,2,0.300198225681828,5
485,330,2,0.341363550335332,5
485,331,2,0.31688522845009,5
485,332,2,0.233841521715057,5
485,333,2,0.132087039942549,1
486,326,2,0.200378863625068,1
486,327,2,0.225580705456598,1
486,328,2,0.209614478733247,1
486,329,2,0.193605219605358,1
486,330,2,0.194863844936645,5
486,331,2,0.17100410550109,5
486,332,2,0.132921297502175,1
468,322,3,0.141226350804802,1
469,321,3,0.168270030859298,1
469,322,3,0.227001890213427,3
469,323,3,0.219897394150323,1
470,320,3,0.179528972073866,1
470,321,3,0.272668551615373,3
470,322,3,0.332297387868351,3
470,323,3,0.271111287196706,3
470,324,3,0.147167510762117,1
471,320,3,0.178811252244311,1
471,321,3,0.283802455698039,3
471,322,3,0.33054019788749,3
471,323,3,0.245621335720483,3
471,324,3,0.150437605422699,1
471,325,3,0.116786700082478,1
471,326,3,0.12222496761081,1
471,331,3,0.174167779173673,1
471,332,3,0.197503054207623,1
472,320,3,0.137788075067074,1
472,321,3,0.231376962882198,1
472,322,3,0.301390171978815,3
472,323,3,0.230251227148544,1
472,324,3,0.181180343386542,1
472,325,3,0.192447025526135,2
472,326,3,0.214331758289326,2
472,327,3,0.168869986011011,1
472,330,3,0.140587010629651,1
472,331,3,0.227593412887734,1
472,332,3,0.256837422995642,1
472,333,3,0.199108348054476,1
473,320,3,0.127849809278777,1
473,321,3,0.223175107041154,1
473,322,3,0.305070145273293,1
473,323,3,0.239593274398793,1
473,324,3,0.22174896987696,2
473,325,3,0.300345615571297,2
473,326,3,0.366124717143923,2
473,327,3,0.244914747653429,2
473,328,3,0.141022309390541,1
473,330,3,0.162602881801384,1
473,331,3,0.257317940358917,1
473,332,3,0.302033583389751,4
473,333,3,0.221518102922804,1
474,320,3,0.134787819683472,1
474,321,3,0.218888776158415,1
474,322,3,0.27272528121866,1
474,323,3,0.224517521751107,1
474,324,3,0.239264452396256,2
474,325,3,0.356784744550813,2
474,326,3,0.457522666633115,2
474,327,3,0.295870357040017,2
474,328,3,0.161636894667471,1
474,330,3,0.168127716071972,1
474,331,3,0.231797449037274,1
474,332,3,0.282476013617246,1
474,333,3,0.219507894003491,1
475,320,3,0.13639093848655,1
475,321,3,0.194745589479695,1
475,322,3,0.240542775816297,1
475,323,3,0.246111757898487,2
475,324,3,0.290504312119094,2
475,325,3,0.336392426439573,2
475,326,3,0.354226335367568,2
475,327,3,0.244643436039123,2
475,328,3,0.166854668527344,1
475,331,3,0.167627433695519,1
475,332,3,0.192016054544655,1
476,320,3,0.164088983249352,1
476,321,3,0.182475866383514,1
476,322,3,0.233283550485242,2
476,323,3,0.295470751305182,2
476,324,3,0.357890358341027,2
476,325,3,0.326032034847815,2
476,326,3,0.252067563150556,2
476,327,3,0.199096636280301,1
476,328,3,0.189752514372912,1
476,329,3,0.173789466559695,1
476,330,3,0.155765536884236,1
476,331,3,0.145435317053566,1
477,320,3,0.210832436322972,1
477,321,3,0.213366061161249,1
477,322,3,0.260895586209321,2
477,323,3,0.320742707624771,2
477,324,3,0.347872686723827,2
477,325,3,0.307172040653286,2
477,326,3,0.235928515256672,2
477,327,3,0.205213774010141,1
477,328,3,0.230598966454891,2
477,329,3,0.253214223920734,2
477,330,3,0.257442107473308,2
477,331,3,0.225108196716045,2
477,332,3,0.193023490205075,2
478,320,3,0.17455181382589,1
478,321,3,0.200532120555694,1
478,322,3,0.257259805342728,2
478,323,3,0.297778751602505,2
478,324,3,0.315469888426278,2
478,325,3,0.328313243067455,2
478,326,3,0.293010810257569,2
478,327,3,0.242444857174802,2
478,328,3,0.255466030010161,2
478,329,3,0.329316306332184,2
478,330,3,0.417396209811103,2
478,331,3,0.408921168471886,2
478,332,3,0.313504072708122,2
478,333,3,0.213681475970875,2
479,320,3,0.141130492721701,1
479,321,3,0.190896855096398,1
479,322,3,0.28983990874721,2
479,323,3,0.328121303819841,2
479,324,3,0.318370638345678,2
479,325,3,0.348433022616618,2
479,326,3,0.344710039225743,2
479,327,3,0.288182146152055,2
479,328,3,0.262123270148646,2
479,329,3,0.323908210564939,2
479,330,3,0.478881462657376,2
479,331,3,0.565805581336331,2
479,332,3,0.42782655973393,2
479,333,3,0.228066791645797,2
480,321,3,0.160346245999369,1
480,322,3,0.260607632721617,2
480,323,3,0.331134866009719,2
480,324,3,0.316602428143023,2
480,325,3,0.311592220383734,2
480,326,3,0.311570023783156,2
480,327,3,0.286912946761799,2
480,328,3,0.253004348927527,2
480,329,3,0.270450966214677,2
480,330,3,0.368335743951081,2
480,331,3,0.44401919178318,2
480,332,3,0.327686272756646,2
480,333,3,0.164787674234391,2
481,322,3,0.171979607057261,1
481,323,3,0.233854103506742,2
481,324,3,0.258452510116519,2
481,325,3,0.25379008627986,2
481,326,3,0.265115617296162,2
481,327,3,0.27383011422393,2
481,328,3,0.244821388082152,1
481,329,3,0.242005832954318,1
481,330,3,0.249303450596524,2
481,331,3,0.232084175577208,2
481,332,3,0.164286343375299,2
482,323,3,0.15853316297052,1
482,324,3,0.191007838099289,1
482,325,3,0.240299773233282,2
482,326,3,0.348770388637268,2
482,327,3,0.377201356227911,2
482,328,3,0.264336572386215,2
482,329,3,0.201523048191564,1
482,330,3,0.17374060057621,1
482,331,3,0.145197924968084,1
483,324,3,0.162699208355452,1
483,325,3,0.266952224259997,2
483,326,3,0.445572596893404,2
483,327,3,0.456145897385584,2
483,328,3,0.275574030860726,2
483,329,3,0.188070971299149,1
483,330,3,0.197547915879747,5
483,331,3,0.225550054070473,5
483,332,3,0.19823087962518,1
484,324,3,0.149339018696989,1
484,325,3,0.226557155108774,2
484,326,3,0.330676456014458,2
484,327,3,0.321262420392282,2
484,328,3,0.237954852962133,2
484,329,3,0.252413562421882,5
484,330,3,0.330160134084422,5
484,331,3,0.386258863136073,5
484,332,3,0.318343801651713,5
484,333,3,0.156383985485074,1
485,325,3,0.191697293513837,1
485,326,3,0.263278452628796,2
485,327,3,0.256989921449465,2
485,328,3,0.232240957194157,1
485,329,3,0.284977090877389,5
485,330,3,0.339990350390406,5
485,331,3,0.342848826382072,5
485,332,3,0.265486913999706,5
485,333,3,0.13483656297218,1
486,326,3,0.193392935332892,1
486,327,3,0.202334886069199,1
486,328,3,0.174564261768727,1
486,329,3,0.180099870871555,1
486,330,3,0.188437404827892,5
486,331,3,0.175043987192985,5
486,332,3,0.13856796768639,1
468,322,4,0.125351275146741,1
469,321,4,0.173964975861253,1
469,322,4,0.228409266230801,3
469,323,4,0.210021401538423,1
470,320,4,0.185084703120133,1
470,321,4,0.295919323410137,3
470,322,4,0.360770897084424,3
470,323,4,0.274558408112454,3
470,324,4,0.138440833589208,1
471,320,4,0.17626524638762,1
471,321,4,0.287425632464806,3
471,322,4,0.334734820001408,3
471,323,4,0.243205319403059,3
471,324,4,0.143724829166485,1
471,332,4,0.225625946367124,1
472,320,4,0.132748164017664,1
472,321,4,0.221786001391493,1
472,322,4,0.281304055414851,3
472,323,4,0.214089826497093,1
472,324,4,0.173557986131653,1
472,325,4,0.180778629532356,1
472,326,4,0.195373965203404,2
472,327,4,0.15510474743124,1
472,331,4,0.241214897805066,1
472,332,4,0.311965569436276,6
472,333,4,0.248160582210364,6
473,320,4,0.124716541602765,1
473,321,4,0.222525940129767,1
473,322,4,0.296276989839356,1
473,323,4,0.227990341645614,1
473,324,4,0.220653796296866,2
473,325,4,0.290893946114774,2
473,326,4,0.346418352069049,2
473,327,4,0.231993247593331,2
473,328,4,0.13945438168034,1
473,330,4,0.158486416260458,1
473,331,4,0.247983834806965,1
473,332,4,0.31629348269437,1
473,333,4,0.238781458829299,1
474,320,4,0.12067841109996,1
474,321,4,0.195794473666622,1
474,322,4,0.258786507607835,1
474,323,4,0.235193952780447,2
474,324,4,0.266021907843998,2
474,325,4,0.35442396319121,2
474,326,4,0.426720879019291,2
474,327,4,0.275684500776368,2
474,328,4,0.165381360798403,1
474,331,4,0.216910334032292,1
474,332,4,0.257453596166069,1
475,321,4,0.170340181754243,1
475,322,4,0.23951247431106,2
475,323,4,0.283950247134051,2
475,324,4,0.340494112836899,2
475,325,4,0.363253614744289,2
475,326,4,0.360666718064624,2
475,327,4,0.248420672829603,2
475,328,4,0.182570843295034,1
476,321,4,0.168347897426453,1
476,322,4,0.239135065176804,2
476,323,4,0.326201487489014,2
476,324,4,0.391377332305017,2
476,325,4,0.363299859521173,2
476,326,4,0.298400947971079,2
476,327,4,0.235022849336792,2
476,328,4,0.233684829330673,2
476,329,4,0.211275632165877,2
476,330,4,0.169444543343871,2
477,320,4,0.200156674537871,1
477,321,4,0.196582486449366,1
477,322,4,0.251269310930962,2
477,323,4,0.337385629505854,2
477,324,4,0.380096997582958,2
477,325,4,0.348135766633999,2
477,326,4,0.285626391637624,2
477,327,4,0.252901887634606,2
477,328,4,0.313559419206649,2
477,329,4,0.348389343275983,2
477,330,4,0.304856990983317,2
477,331,4,0.234428716609955,2
477,332,4,0.206215498786393,2
478,320,4,0.170326696482836,1
478,321,4,0.193418188148827,1
478,322,4,0.24553116621341,2
478,323,4,0.302558962425148,2
478,324,4,0.332804451919754,2
478,325,4,0.347857383338906,2
478,326,4,0.324601391439081,2
478,327,4,0.280416927560379,2
478,328,4,0.326743129159409,2
478,329,4,0.432910005121057,2
478,330,4,0.502285469074625,2
478,331,4,0.470490746092216,2
478,332,4,0.381238192858522,2
478,333,4,0.286793442048937,2
479,321,4,0.177046957120451,1
479,322,4,0.259986752533379,2
479,323,4,0.308483246273581,2
479,324,4,0.308911629510673,2
479,325,4,0.352314215345485,2
479,326,4,0.380474808263756,2
479,327,4,0.338395050590849,2
479,328,4,0.310648898321366,2
479,329,4,0.372758578350341,2
479,330,4,0.551295340070214,2
479,331,4,0.67758712645352,2
479,332,4,0.522919116658283,2
479,333,4,0.289322404485685,2
480,321,4,0.147409855254964,1
480,322,4,0.230079387536227,2
480,323,4,0.312831192242549,2
480,324,4,0.312686858568437,2
480,325,4,0.322151132124785,2
480,326,4,0.348215406698385,2
480,327,4,0.336373062972938,2
480,328,4,0.291216677994741,2
480,329,4,0.2818716637617,2
480,330,4,0.392884381097652,2
480,331,4,0.514709586816638,2
480,332,4,0.376100761769485,2
480,333,4,0.182046133503875,2
481,322,4,0.160043580292488,1
481,323,4,0.235139476299429,2
481,324,4,0.272197559828427,2
481,325,4,0.261430312355917,2
481,326,4,0.265205296024127,2
481,327,4,0.2778829234837,2
481,328,4,0.252772522723296,2
481,329,4,0.238837273798794,2
481,330,4,0.242044202957328,2
481,331,4,0.237484753500839,2
481,332,4,0.166799054331121,2
482,323,4,0.162245906924545,1
482,324,4,0.206288803338654,1
482,325,4,0.226058077371951,2
482,326,4,0.302539219720111,2
482,327,4,0.351381824272346,2
482,328,4,0.249243776318587,2
482,329,4,0.18485060148549,1
483,324,4,0.165170046930083,1
483,325,4,0.226112821550664,2
483,326,4,0.364326658648228,2
483,327,4,0.410998904134868,2
483,328,4,0.246112382526443,2
483,329,4,0.162212032012004,1
483,330,4,0.167129014048864,1
483,331,4,0.195683512971872,5
483,332,4,0.176114320657758,1
484,324,4,0.143314113977291,1
484,325,4,0.203415693206305,1
484,326,4,0.282845324896216,2
484,327,4,0.284993531977516,2
484,328,4,0.202518102833571,1
484,329,4,0.212128695488607,1
484,330,4,0.274666580289544,5
484,331,4,0.347907755121927,5
484,332,4,0.298622534738461,5
484,333,4,0.143521323147614,1
485,325,4,0.18069830906966,1
485,326,4,0.234927571265365,1
485,327,4,0.216737111315216,1
485,328,4,0.19019836488463,1
485,329,4,0.246440356819612,1
485,330,4,0.295176239223941,5
485,331,4,0.3280073761423,5
485,332,4,0.267796743564614,5
485,333,4,0.131088929085185,1
486,326,4,0.171081827065326,1
486,327,4,0.166719191185322,1
486,329,4,0.159016446543313,1
486,330,4,0.166702649698559,1
486,331,4,0.166258539221862,5
486,332,4,0.136527040456528,1
469,321,5,0.168947718729318,1
469,322,5,0.210926353597781,3
469,323,5,0.176376597474843,1
470,320,5,0.178794554600559,1
470,321,5,0.287411355254384,3
470,322,5,0.351864081670641,3
470,323,5,0.248277075324153,3
470,324,5,0.125306848483372,1
471,320,5,0.167059223028855,1
471,321,5,0.269283893495223,3
471,322,5,0.31272667860063,3
471,323,5,0.224396990863745,3
471,324,5,0.140929730604209,1
471,332,5,0.250893039511912,6
471,333,5,0.258597490726729,6
472,320,5,0.130983846585663,1
472,321,5,0.207200291683409,1
472,322,5,0.24239932625844,3
472,323,5,0.192921430458697,1
472,324,5,0.175068113447785,1
472,325,5,0.175007736463398,1
472,326,5,0.176546518587009,1
472,331,5,0.229130845368799,6
472,332,5,0.348717272952869,6
472,333,5,0.321421187433806,6
472,334,5,0.236358995459044,6
473,321,5,0.20394049223003,1
473,322,5,0.252629482921378,1
473,323,5,0.217166498418665,1
473,324,5,0.243853125517828,2
473,325,5,0.288635157577125,2
473,326,5,0.301766956485115,2
473,327,5,0.205858144671152,1
473,331,5,0.214537305503124,1
473,332,5,0.299095958112806,6
473,333,5,0.253783728459593,6
474,321,5,0.163300792001478,1
474,322,5,0.227699956570511,1
474,323,5,0.267119245313796,2
474,324,5,0.348642942226108,2
474,325,5,0.385028792225631,2
474,326,5,0.365943463495984,2
474,327,5,0.237935779501335,2
474,328,5,0.173611559132949,1
474,332,5,0.210756231712343,1
475,321,5,0.1442756952533,1
475,322,5,0.231875103677087,2
475,323,5,0.335577398497734,2
475,324,5,0.427236866327208,2
475,325,5,0.421672502030264,2
475,326,5,0.368135662231897,2
475,327,5,0.256096391158445,2
475,328,5,0.204592916130044,1
475,329,5,0.186989372223027,1
476,321,5,0.152463530427546,1
476,322,5,0.241788083187237,2
476,323,5,0.35387458059579,2
476,324,5,0.421570419975745,2
476,325,5,0.412680581057479,2
476,326,5,0.386220403900498,2
476,327,5,0.306407852965435,2
476,328,5,0.28140805596952,2
476,329,5,0.251865139076538,2
476,330,5,0.196465413323903,2
477,321,5,0.177697317517397,1
477,322,5,0.245497413995646,2
477,323,5,0.348067302948396,2
477,324,5,0.400614687448217,2
477,325,5,0.38803856203149,2
477,326,5,0.369795789490028,2
477,327,5,0.326811458996164,2
477,328,5,0.384861838096255,2
477,329,5,0.425816640820454,2
477,330,5,0.334621204637845,2
477,331,5,0.23670341085234,2
477,332,5,0.211839425820567,2
477,333,5,0.199735050667589,2
478,321,5,0.184229442445486,1
478,322,5,0.237289891886716,2
478,323,5,0.308071861840149,2
478,324,5,0.349991647831903,2
478,325,5,0.358001274419495,2
478,326,5,0.360081597826866,2
478,327,5,0.323534303808865,2
478,328,5,0.380782080601813,2
478,329,5,0.500801263818667,2
478,330,5,0.51982350512476,2
478,331,5,0.469603997476146,2
478,332,5,0.403023520544147,2
478,333,5,0.31996254730776,2
478,334,5,0.187621685333673,2
479,321,5,0.162576513578386,1
479,322,5,0.224796128127613,1
479,323,5,0.278679190278719,2
479,324,5,0.299191682347059,2
479,325,5,0.344033143294739,2
479,326,5,0.407443209495487,2
479,327,5,0.383162671590877,2
479,328,5,0.344689114189218,2
479,329,5,0.405431238233013,2
479,330,5,0.562099708289821,2
479,331,5,0.677509449505567,2
479,332,5,0.530120318513857,2
479,333,5,0.305472628758353,2
479,334,5,0.147421712032057,2
480,321,5,0.13398141383824,1
480,322,5,0.191397449786828,1
480,323,5,0.275428269465571,2
480,324,5,0.305654060871422,2
480,325,5,0.326290764670436,2
480,326,5,0.373939236727838,2
480,327,5,0.369357813752184,2
480,328,5,0.314358229129775,2
480,329,5,0.299644448382575,2
480,330,5,0.396600649738,2
480,331,5,0.502668232162789,2
480,332,5,0.361006894911076,2
480,333,5,0.17788924561094,2
481,322,5,0.151413575449837,1
481,323,5,0.232941031283956,1
481,324,5,0.289377661751648,2
481,325,5,0.27737503403107,2
481,326,5,0.274235609308063,2
481,327,5,0.278578781334796,2
481,328,5,0.253119659709828,2
481,329,5,0.2318475531226,2
481,330,5,0.227257117657866,2
481,331,5,0.223890484515875,2
481,332,5,0.158813732463459,2
482,323,5,0.172685916272549,1
482,324,5,0.227485352251351,1
482,325,5,0.225580526991468,1
482,326,5,0.258757150093904,2
482,327,5,0.29698723644158,2
482,328,5,0.220898048135793,1
482,329,5,0.16270021222181,1
483,324,5,0.172363898253103,1
483,325,5,0.196916684713953,1
483,326,5,0.273327556417066,2
483,327,5,0.319536907972046,2
483,328,5,0.201944158974596,1
483,329,5,0.13502271325713,1
483,330,5,0.134474356836209,1
483,331,5,0.153740638053888,1
483,332,5,0.136559844578287,1
484,325,5,0.180367836264668,1
484,326,5,0.228932503684636,1
484,327,5,0.23338822028415,1
484,328,5,0.166164789258112,1
484,329,5,0.1634591798046,1
484,330,5,0.203910242390448,1
484,331,5,0.265324756120707,5
484,332,5,0.227078139440339,1
484,333,5,0.112188055221751,1
485,326,5,0.198059062321005,1
485,327,5,0.174565321405438,1
485,329,5,0.186462119303761,1
485,330,5,0.22353411195885,1
485,331,5,0.268364753458007,5
485,332,5,0.224144217314848,1
486,330,5,0.135382532421983,1
486,331,5,0.142546345832763,1
469,321,6,0.153717950674201,1
469,322,6,0.182996036467922,1
470,320,6,0.156304646580595,1
470,321,6,0.251186726191926,1
470,322,6,0.310518529543698,3
470,323,6,0.210130778355142,1
470,333,6,0.182869281609142,1
471,320,6,0.147018983157443,1
471,321,6,0.239564496896536,1
471,322,6,0.279708733307153,3
471,323,6,0.198597335462065,1
471,332,6,0.261379092863527,6
471,333,6,0.31324585597275,6
471,334,6,0.237921011511804,1
472,321,6,0.19429059263005,1
472,322,6,0.213328985030434,1
472,323,6,0.178171265133062,1
472,324,6,0.175699456154285,1
472,325,6,0.171410883303347,2
472,326,6,0.16098437038082,1
472,331,6,0.208085924892415,6
472,332,6,0.355954970927584,6
472,333,6,0.391741133473089,6
472,334,6,0.268622568646835,6
473,321,6,0.173383871088926,1
473,322,6,0.201843303867848,1
473,323,6,0.209775811211019,2
473,324,6,0.273212602565026,2
473,325,6,0.294246792825452,2
473,326,6,0.256033370659315,2
473,327,6,0.183082670134601,1
473,332,6,0.277226015647287,6
473,333,6,0.270590994417521,6
474,321,6,0.132689950922981,1
474,322,6,0.189736229429774,2
474,323,6,0.290396630721112,2
474,324,6,0.438679292003843,2
474,325,6,0.440826896765328,2
474,326,6,0.325525149261543,2
474,327,6,0.214043090941101,2
474,328,6,0.187576712120843,1
474,329,6,0.188635367273653,1
475,321,6,0.124266129076155,1
475,322,6,0.213306119185617,2
475,323,6,0.359759512882996,2
475,324,6,0.49777712756982,2
475,325,6,0.482732963250193,2
475,326,6,0.385727527826952,2
475,327,6,0.27224137301791,2
475,328,6,0.226277143319368,2
475,329,6,0.217926358327107,2
475,330,6,0.208423000907227,1
476,321,6,0.139684490157693,1
476,322,6,0.238839437688498,2
476,323,6,0.36643531339503,2
476,324,6,0.433657327854097,2
476,325,6,0.441373892389631,2
476,326,6,0.464808416344158,2
476,327,6,0.382361675469905,2
476,328,6,0.321141197952541,2
476,329,6,0.302204151438014,2
476,330,6,0.243191131425202,2
476,331,6,0.188270584547365,1
477,321,6,0.164056681060772,1
477,322,6,0.254101909478738,2
477,323,6,0.370327994816659,2
477,324,6,0.414450419754448,2
477,325,6,0.404387261837168,2
477,326,6,0.436630289226836,2
477,327,6,0.394588544626678,2
477,328,6,0.420620807017534,2
477,329,6,0.468220000390839,2
477,330,6,0.34948875540292,2
477,331,6,0.237505232374538,2
477,332,6,0.208622658771726,2
477,333,6,0.208146134565742,2
478,321,6,0.173497296833288,1
478,322,6,0.242760338908852,2
478,323,6,0.325627833635876,2
478,324,6,0.360998306276681,2
478,325,6,0.352364676361071,2
478,326,6,0.3772983966425,2
478,327,6,0.356275405068999,2
478,328,6,0.402075379923262,2
478,329,6,0.512798225271358,2
478,330,6,0.48777179235475,2
478,331,6,0.437754128768481,2
478,332,6,0.385847367161934,2
478,333,6,0.319059379899704,2
478,334,6,0.196955947042614,2
479,321,6,0.149317089794106,1
479,322,6,0.204252583126604,1
479,323,6,0.256897476511981,2
479,324,6,0.284315520639448,2
479,325,6,0.329338569857186,2
479,326,6,0.422956826340311,2
479,327,6,0.411818014466562,2
479,328,6,0.352552600143254,2
479,329,6,0.412205149950418,2
479,330,6,0.541865822597987,2
479,331,6,0.624270178003798,2
479,332,6,0.487939995740037,2
479,333,6,0.298139764252917,2
479,334,6,0.155356394419003,2
480,322,6,0.166503694540511,1
480,323,6,0.240298925523913,2
480,324,6,0.290060290874962,2
480,325,6,0.320504590524697,2
480,326,6,0.385121237163115,2
480,327,6,0.377020347969526,2
480,328,6,0.305094037292609,2
480,329,6,0.308960774345923,2
480,330,6,0.395116266016911,2
480,331,6,0.448297402502492,2
480,332,6,0.314926506720863,2
480,333,6,0.165966860274563,2
481,322,6,0.140944175125691,1
481,323,6,0.22106397609067,1
481,324,6,0.295151008716148,2
481,325,6,0.288042140257352,2
481,326,6,0.277573353407091,2
481,327,6,0.265849867458409,2
481,328,6,0.231597724248352,2
481,329,6,0.214145931472424,2
481,330,6,0.208343293918417,2
481,331,6,0.193619675280911,2
481,332,6,0.137371314371592,2
482,323,6,0.168352481749487,1
482,324,6,0.234309189588951,1
482,325,6,0.233166120429519,1
482,326,6,0.233301486230835,2
482,327,6,0.240359202121665,1
482,328,6,0.185177783839643,1
483,324,6,0.166585576573096,1
483,325,6,0.177539777423643,1
483,326,6,0.206707437918004,1
483,327,6,0.227909809255576,1
483,328,6,0.158100831192421,1
484,326,6,0.181374758837839,1
484,327,6,0.186193518128622,1
484,330,6,0.151985823890074,1
484,331,6,0.189803086929205,1
484,332,6,0.155599530850866,1
485,330,6,0.164638834315739,1
485,331,6,0.200768497620747,1
469,322,7,0.148269912179986,1
470,321,7,0.202116533982304,1
470,322,7,0.254882181336456,1
470,323,7,0.187066803781426,1
470,332,7,0.186078898898701,1
470,333,7,0.18178802830921,6
471,321,7,0.206866472657224,1
471,322,7,0.253287260775301,1
471,323,7,0.19269558283633,1
471,331,7,0.15181055997807,1
471,332,7,0.252451910116751,6
471,333,7,0.337209640579259,6
471,334,7,0.23268308224628,6
472,322,7,0.208720769977097,1
472,323,7,0.188846937685598,1
472,324,7,0.187644685027338,2
472,325,7,0.170825673833023,2
472,331,7,0.180724264592045,6
472,332,7,0.33662746501615,6
472,333,7,0.431902212530376,6
472,334,7,0.280404479617542,6
472,335,7,0.158955378006546,1
473,322,7,0.170508898226779,1
473,323,7,0.217340725002099,2
473,324,7,0.304162493928839,2
473,325,7,0.291805702157224,2
473,326,7,0.207937642677295,2
473,327,7,0.161648104508466,1
473,332,7,0.246965155843337,6
473,333,7,0.273969986269785,6
473,334,7,0.189082154727305,1
474,322,7,0.157747581775177,2
474,323,7,0.296795341810249,2
474,324,7,0.495263847756394,2
474,325,7,0.47025137973623,2
474,326,7,0.294156913324216,2
474,327,7,0.20123005306393,2
474,328,7,0.201806584667293,1
474,329,7,0.213493529880551,2
474,330,7,0.203975159081586,1
474,333,7,0.173927286256552,1
475,322,7,0.187087026111501,2
475,323,7,0.342386557078369,2
475,324,7,0.515740847571951,2
475,325,7,0.514525500034756,2
475,326,7,0.401327387945983,2
475,327,7,0.288154060202178,2
475,328,7,0.25266789754067,2
475,329,7,0.283844952707187,2
475,330,7,0.276416720897758,2
475,331,7,0.21064643104094,1
476,321,7,0.128908219042033,1
476,322,7,0.224116198289394,2
476,323,7,0.351940487054541,2
476,324,7,0.426595284183858,2
476,325,7,0.456426756884359,2
476,326,7,0.508685496344097,2
476,327,7,0.429636463852646,2
476,328,7,0.368776775904281,2
476,329,7,0.405246660672023,2
476,330,7,0.336519560536755,2
476,331,7,0.223804932794047,2
477,321,7,0.151263731664827,1
477,322,7,0.263189331604363,2
477,323,7,0.398974949831221,2
477,324,7,0.431260273456765,2
477,325,7,0.407855553178995,2
477,326,7,0.458175224381977,2
477,327,7,0.429889393558533,2
477,328,7,0.439423982376211,2
477,329,7,0.500963756319785,2
477,330,7,0.367401612842922,2
477,331,7,0.240130298283942,2
477,332,7,0.212317176974322,2
478,321,7,0.16216246332207,1
478,322,7,0.256009947110966,2
478,323,7,0.358741146233346,2
478,324,7,0.372566572178303,2
478,325,7,0.334806674524486,2
478,326,7,0.362373915500866,2
478,327,7,0.365909488196807,2
478,328,7,0.394570742729933,2
478,329,7,0.468531154345479,2
478,330,7,0.42288909882337,2
478,331,7,0.393137400036103,2
478,332,7,0.358301497384906,2
478,333,7,0.306596780613975,2
479,321,7,0.145161875011768,1
479,322,7,0.200762853661002,1
479,323,7,0.245510062711754,2
479,324,7,0.262014094105199,2
479,325,7,0.302906790964061,2
479,326,7,0.405604037095405,2
479,327,7,0.4044944301479,2
479,328,7,0.329317466355531,2
479,329,7,0.370213531743727,2
479,330,7,0.479067646404539,2
479,331,7,0.543051366458425,2
479,332,7,0.432358503252215,2
479,333,7,0.283601615502052,2
480,322,7,0.162737288352625,1
480,323,7,0.213344623037475,1
480,324,7,0.265226287985076,2
480,325,7,0.309402319386373,2
480,326,7,0.378267819230171,2
480,327,7,0.357718831042689,2
480,328,7,0.270520746080616,2
480,329,7,0.284481270129194,2
480,330,7,0.360086728699361,2
480,331,7,0.369861821588231,2
480,332,7,0.259120036628183,2
481,322,7,0.139518874516795,1
481,323,7,0.215589714376375,1
481,324,7,0.303178704898181,2
481,325,7,0.306641776134947,2
481,326,7,0.280542723169084,2
481,327,7,0.247621193662239,2
481,328,7,0.20081594703726,1
481,329,7,0.184321575068992,2
481,330,7,0.178376544649165,2
481,331,7,0.155193701144613,2
482,323,7,0.168557504721964,1
482,324,7,0.245072443904171,1
482,325,7,0.248885239871858,2
482,326,7,0.214794674529126,1
482,327,7,0.18999817162474,1
483,324,7,0.158647492194604,1
483,325,7,0.1641825435939,1
483,326,7,0.160080701039586,1
483,327,7,0.156857643094903,1
470,322,8,0.20543393305648,1
470,332,8,0.173112302930995,1
470,333,8,0.174877334223517,6
471,322,8,0.237621279325502,1
471,331,8,0.151031202754145,1
471,332,8,0.242369678738673,6
471,333,8,0.33767083909218,6
471,334,8,0.224461171386222,6
472,323,8,0.223667648492581,1
472,324,8,0.209056864433693,2
472,325,8,0.174196578984071,2
472,331,8,0.165329617064693,6
472,332,8,0.318523002950653,6
472,333,8,0.453973441354707,6
472,334,8,0.290427371339803,6
472,335,8,0.166064503008967,1
473,322,8,0.164317251305049,1
473,323,8,0.236998212939418,2
473,324,8,0.330943283692365,2
473,325,8,0.293237483281164,2
473,326,8,0.183733833624633,2
473,332,8,0.225295250480718,6
473,333,8,0.28029974289421,6
473,334,8,0.196858438157058,1
474,322,8,0.139783716770127,2
474,323,8,0.285960344512657,2
474,324,8,0.498175372508036,2
474,325,8,0.464292339803676,2
474,326,8,0.277080410409122,2
474,327,8,0.196948563047849,2
474,328,8,0.205827582517592,2
474,329,8,0.230626539317519,2
474,330,8,0.219669471870817,2
474,333,8,0.181049941146662,1
475,322,8,0.164488377056844,2
475,323,8,0.301783687591079,2
475,324,8,0.483566083094614,2
475,325,8,0.505851514691562,2
475,326,8,0.400040297426417,2
475,327,8,0.295014973670593,2
475,328,8,0.279789689551875,2
475,329,8,0.378027337467121,2
475,330,8,0.371493952129049,2
475,331,8,0.242681055774726,2
476,322,8,0.207779455647444,2
476,323,8,0.324229023944756,2
476,324,8,0.405607695630576,2
476,325,8,0.447379690186319,2
476,326,8,0.488096018880183,2
476,327,8,0.424904371690755,2
476,328,8,0.412191541984234,2
476,329,8,0.544201752688198,2
476,330,8,0.456868948860906,2
476,331,8,0.256581035527857,2
476,332,8,0.197176998414605,1
477,321,8,0.146574337285354,1
477,322,8,0.276785362932489,2
477,323,8,0.433124074044826,2
477,324,8,0.448926893633265,2
477,325,8,0.393972839927218,2
477,326,8,0.421718189103615,2
477,327,8,0.427816074907526,2
477,328,8,0.453967016610017,2
477,329,8,0.52757437958159,2
477,330,8,0.376751936413588,2
477,331,8,0.231045620059695,2
477,332,8,0.201106332112364,2
478,321,8,0.16026186545496,1
478,322,8,0.286941300409372,2
478,323,8,0.416574288653606,2
478,324,8,0.3923090987502,2
478,325,8,0.310731817682521,2
478,326,8,0.324400149696551,2
478,327,8,0.362519788436727,2
478,328,8,0.378029389816119,2
478,329,8,0.399375336351,2
478,330,8,0.336220899141235,2
478,331,8,0.320014079114128,2
478,332,8,0.297131837813388,2
478,333,8,0.262791376671984,2
479,321,8,0.148152961749301,1
479,322,8,0.213276717055404,1
479,323,8,0.250936317306005,2
479,324,8,0.242702560822924,2
479,325,8,0.26595389032122,2
479,326,8,0.357427308252379,2
479,327,8,0.369695224389116,2
479,328,8,0.294705002047441,2
479,329,8,0.302011431405455,2
479,330,8,0.376869589550724,2
479,331,8,0.424321995354374,2
479,332,8,0.344010612072042,2
479,333,8,0.238325391188873,2
480,322,8,0.159516316219152,1
480,323,8,0.184555353235586,1
480,324,8,0.234943030807275,2
480,325,8,0.291392510764347,2
480,326,8,0.345735232166626,2
480,327,8,0.313523793105018,2
480,328,8,0.226963029431309,2
480,329,8,0.231994072994558,2
480,330,8,0.285689992148427,2
480,331,8,0.275624826498431,2
480,332,8,0.194464060736681,2
481,323,8,0.202775984946823,1
481,324,8,0.30797308139054,2
481,325,8,0.3275083653299,2
481,326,8,0.271891291356729,2
481,327,8,0.215921302588431,2
482,323,8,0.172739199268007,1
482,324,8,0.260034023484762,1
482,325,8,0.268975416517537,2
482,326,8,0.200314794643298,1
483,324,8,0.1589325233158,1
483,325,8,0.160080879504716,1
470,332,9,0.179431864734853,1
470,333,9,0.166869447670945,6
471,324,9,0.215530173947285,1
471,331,9,0.185301103244666,1
471,332,9,0.256266758433437,6
471,333,9,0.329347872352102,6
471,334,9,0.213886844719543,6
472,323,9,0.272297321836253,1
472,324,9,0.253023556237173,2
472,325,9,0.197644019352402,2
472,326,9,0.153747843583523,1
472,331,9,0.174309313176054,6
472,332,9,0.31796904718627,6
472,333,9,0.469352629340149,6
472,334,9,0.304944438897153,6
472,335,9,0.169514434750516,1
473,322,9,0.162610600418269,1
473,323,9,0.253496087285867,2
473,324,9,0.335210541114306,2
473,325,9,0.304150135218568,2
473,326,9,0.217991609640365,2
473,327,9,0.185825946884673,1
473,332,9,0.22254231430547,6
473,333,9,0.302591933857967,6
473,334,9,0.221742589748552,1
474,322,9,0.131531689919335,1
474,323,9,0.257656488711054,2
474,324,9,0.430949654897516,2
474,325,9,0.427058044266669,2
474,326,9,0.296792307903034,2
474,327,9,0.233982620708683,2
474,328,9,0.223134773921711,2
474,329,9,0.250464343960843,2
474,330,9,0.239128707356538,2
474,331,9,0.187372235697827,1
474,333,9,0.204056271483298,1
475,322,9,0.147621648748321,1
475,323,9,0.26095077655086,2
475,324,9,0.412623204518095,2
475,325,9,0.459286080585394,2
475,326,9,0.384763860739733,2
475,327,9,0.309328211741025,2
475,328,9,0.314449380195064,2
475,329,9,0.468560154929149,2
475,330,9,0.463266254537141,2
475,331,9,0.267627737086241,2
475,332,9,0.196167265015632,1
475,334,9,0.254126716131847,7
475,335,9,0.217115078153004,7
476,322,9,0.186524247477239,2
476,323,9,0.293141000570107,2
476,324,9,0.377214339566139,2
476,325,9,0.422874063136145,2
476,326,9,0.427275771725609,2
476,327,9,0.389000712165102,2
476,328,9,0.429503239632894,2
476,329,9,0.635853323435657,2
476,330,9,0.558150274956765,2
476,331,9,0.281403973579665,2
476,332,9,0.198986300213507,2
477,321,9,0.141854090746485,1
477,322,9,0.267407934970162,2
477,323,9,0.426215153456365,2
477,324,9,0.432240493184818,2
477,325,9,0.364658380709133,2
477,326,9,0.362813385884176,2
477,327,9,0.400804529730551,2
477,328,9,0.440225290811161,2
477,329,9,0.504647365841292,2
477,330,9,0.374289117615749,2
477,331,9,0.222241734409799,2
478,321,9,0.158217212765504,1
478,322,9,0.298142552770577,2
478,323,9,0.433747095814627,2
478,324,9,0.373875747757742,2
478,325,9,0.274562981281417,2
478,326,9,0.288463050267113,2
478,327,9,0.356711306149703,2
478,328,9,0.354879673901375,2
478,329,9,0.323619833222551,2
478,330,9,0.262617306245539,2
478,331,9,0.249664507863218,2
478,332,9,0.241139340130535,2
479,322,9,0.214353887965481,1
479,323,9,0.240769359607327,2
479,324,9,0.20839872964951,2
479,325,9,0.218852547736968,2
479,326,9,0.292393231674241,2
479,327,9,0.32061715740562,2
479,328,9,0.260616734443261,2
479,329,9,0.237252391901217,2
479,330,9,0.27122403254276,2
479,331,9,0.296008377510146,2
479,332,9,0.251964588770385,2
480,323,9,0.149044640464595,1
480,324,9,0.192534696521384,1
480,325,9,0.260098516321216,2
480,326,9,0.290229966597574,2
480,327,9,0.256239787890623,2
481,323,9,0.172560979527283,1
481,324,9,0.280424088473731,2
481,325,9,0.326798810280056,2
481,326,9,0.253744800753051,2
482,324,9,0.252788361503608,1
482,325,9,0.268582726306501,2
470,324,10,0.233745953637793,1
470,332,10,0.198880693472665,1
470,333,10,0.156483457487063,1
471,323,10,0.271415793325244,1
471,324,10,0.297270639068462,2
471,325,10,0.21007500800193,1
471,331,10,0.245130868926196,1
471,332,10,0.273867413436158,6
471,333,10,0.291506884604714,6
471,334,10,0.186566131012501,1
472,322,10,0.20981732666195,1
472,323,10,0.315765493606442,2
472,324,10,0.321186706560762,2
472,325,10,0.237840412197342,2
472,326,10,0.194884703048747,1
472,331,10,0.193513510836537,6
472,332,10,0.298314481615459,6
472,333,10,0.426918350685944,6
472,334,10,0.290686279627554,6
472,335,10,0.161597821958011,1
473,322,10,0.157718960429908,1
473,323,10,0.25123488946896,2
473,324,10,0.309678070320794,2
473,325,10,0.310567473605676,2
473,326,10,0.299270028539251,2
473,327,10,0.259833651759742,2
473,329,10,0.189024978961192,2
473,332,10,0.208798067686648,6
473,333,10,0.299353483295798,6
473,334,10,0.241021820842247,1
474,322,10,0.131714984762201,1
474,323,10,0.223776958384876,2
474,324,10,0.331713918433048,2
474,325,10,0.376545229176443,2
474,326,10,0.34685958479552,2
474,327,10,0.287071245332356,2
474,328,10,0.246960448825525,2
474,329,10,0.273395417782855,2
474,330,10,0.258310362640252,2
474,331,10,0.186500902007385,1
474,333,10,0.213766113058909,1
474,334,10,0.239009001870404,7
474,335,10,0.262219083615464,7
474,336,10,0.272063532515588,7
475,322,10,0.138718547640062,1
475,323,10,0.230630621707374,2
475,324,10,0.332594376153275,2
475,325,10,0.385160276410363,2
475,326,10,0.34902757919814,2
475,327,10,0.314814854473733,2
475,328,10,0.350802236453627,2
475,329,10,0.532140856102584,2
475,330,10,0.521790503174404,2
475,331,10,0.273435728594156,2
475,332,10,0.18685417373277,1
475,333,10,0.25191258849305,7
475,334,10,0.318583904176361,7
475,335,10,0.312478009749729,7
475,336,10,0.242636060253754,7
476,322,10,0.166312324150499,1
476,323,10,0.268251472716563,2
476,324,10,0.346733610721685,2
476,325,10,0.376479330927088,2
476,326,10,0.3444200110809,2
476,327,10,0.339585903788913,2
476,328,10,0.42527049290552,2
476,329,10,0.6578421013698,2
476,330,10,0.606697385869541,2
476,331,10,0.289563243178996,2
476,332,10,0.187437509319226,2
476,333,10,0.260761737361613,1
476,334,10,0.310559464982955,7
476,335,10,0.267114359830854,7
476,336,10,0.175438607058242,1
477,322,10,0.232097091991011,2
477,323,10,0.373335466883966,2
477,324,10,0.380091063617376,2
477,325,10,0.319161283489093,2
477,326,10,0.297188255102697,2
477,327,10,0.35411818549862,2
477,328,10,0.39751501583298,2
477,329,10,0.446388673317884,2
477,330,10,0.358255051834751,2
477,331,10,0.21197925325014,2
477,332,10,0.177468134827907,1
477,333,10,0.206996729894185,1
477,334,10,0.205591428533951,1
477,335,10,0.162450204882431,1
478,322,10,0.265517253071853,2
478,323,10,0.378654330086071,2
478,324,10,0.313017398297853,2
478,325,10,0.230505919197592,2
478,326,10,0.253327303888907,2
478,327,10,0.337173189076399,2
478,328,10,0.321063030225479,2
478,329,10,0.262021745797659,2
478,330,10,0.207927559397434,2
478,331,10,0.190371520677282,1
479,322,10,0.190759102323964,1
479,323,10,0.206654389158029,2
479,324,10,0.169720026580597,2
479,325,10,0.176694455025939,1
479,326,10,0.230554550945593,1
479,327,10,0.269200862593361,2
479,328,10,0.225800775270372,2
479,329,10,0.186594730049628,1
480,325,10,0.22404494608613,1
480,326,10,0.230176807189218,1
480,327,10,0.196864595204053,1
481,324,10,0.22990493787138,1
481,325,10,0.303071938133992,2
481,326,10,0.230301933553684,1
482,324,10,0.214873243802731,1
482,325,10,0.24197495848678,1
489,321,10,0.110064799796478,1
490,321,10,0.111678269577112,1
470,323,11,0.175777055023744,1
470,324,11,0.256660318661983,2
470,325,11,0.213666038737106,1
470,332,11,0.20607134357741,1
470,333,11,0.146236926648422,1
471,322,11,0.156201783741131,1
471,323,11,0.293857448835609,2
471,324,11,0.394325710106061,2
471,325,11,0.267562128842722,2
471,326,11,0.15244241577182,1
471,331,11,0.309560372567375,8
471,332,11,0.29421810455576,1
471,333,11,0.253511100664952,6
471,334,11,0.166242968139245,1
472,322,11,0.176748898044745,2
472,323,11,0.323439984987513,2
472,324,11,0.395023597998014,2
472,325,11,0.282223418533479,2
472,326,11,0.225840059907175,2
472,327,11,0.228231046490077,2
472,331,11,0.238368780523672,1
472,332,11,0.29209073327842,6
472,333,11,0.363900461608983,6
472,334,11,0.268083938575515,6
472,335,11,0.15453817641296,1
473,323,11,0.22541091819328,2
473,324,11,0.273547849312253,2
473,325,11,0.29745378890841,2
473,326,11,0.36127506107746,2
473,327,11,0.30903833975317,2
473,328,11,0.236572417446715,2
473,329,11,0.203359320533279,2
473,330,11,0.176771406959301,1
473,332,11,0.207242922541404,1
473,333,11,0.289329364625766,6
473,334,11,0.26374507202005,7
473,335,11,0.23267058968716,7
473,336,11,0.228432422081455,7
474,323,11,0.19634017541873,1
474,324,11,0.244402307339976,2
474,325,11,0.316805677618269,2
474,326,11,0.3847618976233,2
474,327,11,0.318741756584092,2
474,328,11,0.266805347457778,2
474,329,11,0.293657523273415,2
474,330,11,0.276889363487159,2
474,331,11,0.18728112924882,1
474,333,11,0.220542121741595,7
474,334,11,0.28777192174197,7
474,335,11,0.352918765974302,7
474,336,11,0.322567290500453,7
474,337,11,0.195894815686121,7
475,323,11,0.215394964302958,1
475,324,11,0.270055889032524,2
475,325,11,0.306918151697324,2
475,326,11,0.310418254448623,2
475,327,11,0.305688281560153,2
475,328,11,0.375548456807557,2
475,329,11,0.543601395989942,2
475,330,11,0.518400468792204,2
475,331,11,0.269001204728862,2
475,332,11,0.182480417244336,1
475,333,11,0.244772243246902,7
475,334,11,0.357654226665528,7
475,335,11,0.39359868778159,7
475,336,11,0.292054683322103,7
476,322,11,0.155345630740833,1
476,323,11,0.255010073910441,2
476,324,11,0.31831857114392,2
476,325,11,0.321186818101468,2
476,326,11,0.277261507900071,2
476,327,11,0.297513597035194,2
476,328,11,0.408964089335718,2
476,329,11,0.605771910320201,2
476,330,11,0.56568993593191,2
476,331,11,0.280436625649133,2
476,332,11,0.180820981538585,2
476,333,11,0.236511047750041,1
476,334,11,0.306851829593284,7
476,335,11,0.275114706231672,7
476,336,11,0.1805017520368,1
476,337,11,0.114092579321727,1
477,322,11,0.196345930919182,1
477,323,11,0.304932972512533,2
477,324,11,0.31427845521654,2
477,325,11,0.270025996123202,2
477,326,11,0.24951798799126,2
477,327,11,0.305180191334251,2
477,328,11,0.344834585578536,2
477,329,11,0.376125166876051,2
477,330,11,0.321830095663556,2
477,331,11,0.19824685225434,2
477,332,11,0.161962370448816,1
477,333,11,0.181710563288598,1
477,334,11,0.189159318588009,1
477,335,11,0.150578001709874,1
477,336,11,0.106861863795234,1
478,321,11,0.128884661644836,1
478,322,11,0.21278161016773,1
478,323,11,0.286273327734882,2
478,324,11,0.238460377751787,2
478,325,11,0.191613169513052,1
478,326,11,0.226276340226281,1
478,327,11,0.304482660372558,2
478,328,11,0.281485799841898,2
478,329,11,0.216698384381945,2
478,330,11,0.170266018338541,2
478,331,11,0.146007242025754,1
478,332,11,0.139895357863187,1
478,333,11,0.133030986632873,1
478,334,11,0.113346416612034,1
479,321,11,0.119544622127303,1
479,322,11,0.156223076861987,1
479,323,11,0.166424043322053,1
479,324,11,0.139994718324469,1
479,325,11,0.146139317376231,1
479,326,11,0.184640759954495,1
479,327,11,0.222732379669217,1
479,328,11,0.195091432594033,1
479,329,11,0.15050360405869,1
479,330,11,0.124580417324645,1
479,331,11,0.114108462718322,1
479,332,11,0.105458369394444,1
480,321,11,0.104639560222657,1
480,322,11,0.105710964478211,1
480,324,11,0.127916789472984,1
480,325,11,0.184278386507465,1
480,326,11,0.179800629464361,1
480,327,11,0.149941829290786,1
480,328,11,0.121061888048645,1
481,323,11,0.111474930869301,1
481,324,11,0.178373577666374,1
481,325,11,0.256575413876253,1
481,326,11,0.201737206347898,1
481,327,11,0.119257259805343,1
482,323,11,0.132607990811901,1
482,324,11,0.17091208441829,1
482,325,11,0.203663179725719,1
482,326,11,0.151848595358961,1
483,323,11,0.134671337723754,1
483,324,11,0.124840664100873,1
483,325,11,0.112061556906596,1
488,321,11,0.118661933592947,1
489,322,11,0.114090571589012,1
490,322,11,0.111436772793633,1
469,324,12,0.16766598216366,1
470,323,12,0.161992609134327,1
470,324,12,0.261534848305978,2
470,325,12,0.239079763294559,2
470,331,12,0.232039135439954,8
470,332,12,0.19746098105316,1
471,322,12,0.130163096605584,1
471,323,12,0.287436630378459,2
471,324,12,0.450663180885742,2
471,325,12,0.307171081403211,2
471,326,12,0.167628526794442,2
471,330,12,0.272089856122304,8
471,331,12,0.348020165845861,8
471,332,12,0.297958822918956,8
471,333,12,0.215137996823499,1
472,322,12,0.142432741623271,1
472,323,12,0.291976448670618,2
472,324,12,0.430775829860625,2
472,325,12,0.314548428342369,2
472,326,12,0.238536046967025,2
472,327,12,0.229269222769188,2
472,330,12,0.264154024866082,1
472,331,12,0.300212770589946,8
472,332,12,0.294065494561231,1
472,333,12,0.292977459586348,6
472,334,12,0.230053309319065,1
473,323,12,0.192012418317625,1
473,324,12,0.245837367760685,2
473,325,12,0.27672044624135,2
473,326,12,0.36705831285669,2
473,327,12,0.311966952541036,2
473,328,12,0.238025659002571,2
473,329,12,0.203457721744486,2
473,330,12,0.200075829833855,1
473,331,12,0.194571831367228,1
473,332,12,0.213420024555017,1
473,333,12,0.270987655477706,1
473,334,12,0.280684357558101,7
473,335,12,0.264014264360933,7
473,336,12,0.222778691370524,7
474,324,12,0.194232011451037,1
474,325,12,0.266544899908278,2
474,326,12,0.382035307362909,2
474,327,12,0.323052737962951,2
474,328,12,0.273952117448616,2
474,329,12,0.292134814165598,2
474,330,12,0.274032181367687,2
474,331,12,0.187578898318689,1
474,332,12,0.16849493038566,1
474,333,12,0.236082374507113,7
474,334,12,0.356094909897864,7
474,335,12,0.457181798234284,7
474,336,12,0.372100064327756,7
474,337,12,0.18085717649782,7
475,323,12,0.198675123950725,1
475,324,12,0.225981805836898,1
475,325,12,0.245436624310645,2
475,326,12,0.275433712652044,2
475,327,12,0.285042788353473,2
475,328,12,0.370412163433726,2
475,329,12,0.494980534362078,2
475,330,12,0.447206846707644,2
475,331,12,0.248313526827012,2
475,332,12,0.176454341347221,1
475,333,12,0.245108672325617,7
475,334,12,0.39051338260934,7
475,335,12,0.46187177262543,7
475,336,12,0.332373927101099,7
475,337,12,0.160003447946317,7
476,322,12,0.144114742013931,1
476,323,12,0.229041568187377,1
476,324,12,0.274786798862927,2
476,325,12,0.262114793054958,2
476,326,12,0.2310078523765,2
476,327,12,0.259570081070462,2
476,328,12,0.37334751328026,2
476,329,12,0.506882686214309,2
476,330,12,0.447312542681051,2
476,331,12,0.24592758188404,2
476,332,12,0.173119898853103,1
476,333,12,0.219433964823274,1
476,334,12,0.287820062710862,7
476,335,12,0.272026121762654,7
476,336,12,0.18682135845694,7
476,337,12,0.117873017330481,1
477,321,12,0.111772164543779,1
477,322,12,0.161718910548904,1
477,323,12,0.233162684975761,1
477,324,12,0.246704172898446,2
477,325,12,0.222138760029629,1
477,326,12,0.214056765831709,1
477,327,12,0.253361234571801,2
477,328,12,0.288252996808776,2
477,329,12,0.307809585023063,2
477,330,12,0.259950077949107,2
477,331,12,0.175307747501466,1
477,332,12,0.146724303765141,1
477,333,12,0.162022914744263,1
477,334,12,0.166488357693377,1
477,335,12,0.135384283611074,1
477,336,12,0.104586154532421,1
478,321,12,0.111133694386138,1
478,322,12,0.155943979706373,1
478,323,12,0.193229974360807,1
478,324,12,0.173695582747098,1
478,325,12,0.159294762913982,1
478,326,12,0.193893463098899,1
478,327,12,0.248665526988345,1
478,328,12,0.22819011105082,2
478,329,12,0.175825452536262,2
478,330,12,0.136690213355956,1
478,331,12,0.115256138508929,1
478,332,12,0.108505549953238,1
478,333,12,0.107400025395588,1
479,322,12,0.118247805258136,1
479,323,12,0.124055651763133,1
479,324,12,0.113199852123793,1
479,325,12,0.120270160960378,1
479,326,12,0.148012052374876,1
479,327,12,0.176939242260257,1
479,328,12,0.158335903231209,1
479,329,12,0.118600430047424,1
480,324,12,0.103913898694804,1
480,325,12,0.141055604291408,1
480,326,12,0.136992912525049,1
480,327,12,0.113396732624702,1
481,324,12,0.131326466173585,1
481,325,12,0.191230495657453,1
481,326,12,0.158734862029946,1
482,323,12,0.103558764239621,1
482,324,12,0.126396433874074,1
482,325,12,0.153675364432488,1
482,326,12,0.12264134906789,1
483,323,12,0.107009766771952,1
493,322,12,0.115650546446844,1
469,325,13,0.263849697202675,1
470,323,13,0.144097575899212,1
470,324,13,0.243865796542077,2
470,325,13,0.26590804709088,2
470,326,13,0.229754447150273,1
470,331,13,0.202623285719729,8
471,322,13,0.113231987001314,1
471,323,13,0.258821486773369,2
471,324,13,0.440872673071245,2
471,325,13,0.336488106057544,2
471,326,13,0.192907911725079,2
471,330,13,0.268252543507345,8
471,331,13,0.3398777388932,8
471,332,13,0.278920341286007,8
472,322,13,0.117254602191855,1
472,323,13,0.253991573411944,2
472,324,13,0.432021025690859,2
472,325,13,0.353135712648297,2
472,326,13,0.24521671065386,2
472,327,13,0.220298672995754,2
472,330,13,0.297143772668975,8
472,331,13,0.35627455735963,8
472,332,13,0.297182655759235,8
472,333,13,0.23664819820266,1
473,323,13,0.171044416312391,1
473,324,13,0.24395386908387,2
473,325,13,0.275099358230468,2
473,326,13,0.332273607389741,2
473,327,13,0.303542149135992,2
473,328,13,0.254576381335724,2
473,329,13,0.213540354669107,2
473,331,13,0.241704182267865,8
473,332,13,0.221901624487772,1
473,333,13,0.245494647786127,1
473,334,13,0.28124344419498,7
473,335,13,0.285950640471198,7
473,336,13,0.217944584078537,7
474,324,13,0.172344211318419,1
474,325,13,0.229110946506773,2
474,326,13,0.340975076362998,2
474,327,13,0.325344141003158,2
474,328,13,0.293537750862857,2
474,329,13,0.288751873772327,2
474,330,13,0.265979812381393,2
474,331,13,0.200526409671525,1
474,332,13,0.174276375205447,1
474,333,13,0.250625475665343,7
474,334,13,0.409007590211223,7
474,335,13,0.513502448675436,7
474,336,13,0.383321728638237,7
474,337,13,0.16760123278358,7
475,323,13,0.178183166526438,1
475,324,13,0.191170040594571,1
475,325,13,0.20177301091466,1
475,326,13,0.246734467354311,2
475,327,13,0.274609672221126,2
475,328,13,0.356395712874947,2
475,329,13,0.426647842164725,2
475,330,13,0.362059794563435,2
475,331,13,0.230022457159669,2
475,332,13,0.178368391023525,1
475,333,13,0.249219594293435,7
475,334,13,0.399967528269546,7
475,335,13,0.476885151710084,7
475,336,13,0.343378176266618,7
475,337,13,0.159413330684911,7
476,322,13,0.131495729195584,1
476,323,13,0.192311570492254,1
476,324,13,0.220140441349621,1
476,325,13,0.207713535089948,1
476,326,13,0.202957662449446,1
476,327,13,0.238513493436186,2
476,328,13,0.339005579801531,2
476,329,13,0.405468492828959,2
476,330,13,0.325793181579079,2
476,331,13,0.210481930807106,2
476,332,13,0.175916603601551,1
476,333,13,0.214209286593673,1
476,334,13,0.263904642154659,7
476,335,13,0.259946843268621,7
476,336,13,0.197274373451313,7
476,337,13,0.128191770776531,1
477,322,13,0.134233953151654,1
477,323,13,0.175056624755023,1
477,324,13,0.188014531701698,1
477,325,13,0.18037828762886,1
477,326,13,0.188492773634561,1
477,327,13,0.217119919019662,1
477,328,13,0.249018084853209,2
477,329,13,0.252303293279512,2
477,330,13,0.201824118866343,2
477,331,13,0.153772728315126,1
477,332,13,0.143186701028343,1
477,333,13,0.154329204899475,1
477,334,13,0.149145317106213,1
477,335,13,0.125117597366783,1
477,336,13,0.108033409297016,1
478,322,13,0.115461429179102,1
478,323,13,0.13102806132169,1
478,324,13,0.130609493666763,1
478,325,13,0.135868225274035,1
478,326,13,0.164672474992797,1
478,327,13,0.195298407528873,1
478,328,13,0.183257209032013,1
478,329,13,0.14730005458356,1
478,330,13,0.116541087446932,1
479,325,13,0.105654469110408,1
479,326,13,0.12531046240226,1
479,327,13,0.1403609287718,1
479,328,13,0.125827687812018,1
480,325,13,0.110253805523514,1
480,326,13,0.110577017028518,1
481,325,13,0.134059793492644,1
481,326,13,0.118443849203747,1
482,325,13,0.111005846428435,1
488,321,13,0.139269436035019,1
489,322,13,0.119577236629861,1
470,324,14,0.213392183994694,2
470,325,14,0.279801847488875,2
471,323,14,0.220066266779849,2
471,324,14,0.384995374629986,2
471,325,14,0.350445283884929,2
471,326,14,0.214224099199486,2
471,331,14,0.287470449520647,8
472,323,14,0.241738001410053,2
472,324,14,0.43476934408086,2
472,325,14,0.391377466153865,2
472,326,14,0.243491733629014,2
472,330,14,0.294968171190178,8
472,331,14,0.371371346584548,8
472,332,14,0.285352380738223,8
473,323,14,0.193529305000566,2
473,324,14,0.294466617249672,2
473,325,14,0.295061553069596,2
473,326,14,0.286061690398514,2
473,327,14,0.29712179914981,2
473,328,14,0.278489392612668,2
473,330,14,0.253447210148313,1
473,331,14,0.288637700705232,8
473,332,14,0.229502632851451,1
473,333,14,0.211715771793426,1
473,334,14,0.256887594005392,7
473,335,14,0.283064212378502,7
473,336,14,0.204928207493555,7
474,324,14,0.183133421156024,2
474,325,14,0.206695168440298,2
474,326,14,0.286024948889817,2
474,327,14,0.325115170241011,2
474,328,14,0.311024567420602,2
474,329,14,0.279389793811204,2
474,330,14,0.252483096898267,1
474,331,14,0.218998487597253,1
474,332,14,0.179554068732811,1
474,333,14,0.243925113889754,7
474,334,14,0.410330686070823,7
474,335,14,0.496638029259537,7
474,336,14,0.345372122550934,7
474,337,14,0.151091568584462,7
475,323,14,0.160287296736024,1
475,324,14,0.162401807369914,1
475,325,14,0.169965549983577,1
475,326,14,0.21952333123726,1
475,327,14,0.266862367066901,2
475,328,14,0.329743239540092,2
475,329,14,0.357409684820764,2
475,330,14,0.290179974052955,2
475,331,14,0.208491241511418,1
475,332,14,0.171818586893467,1
475,333,14,0.236694264514413,7
475,334,14,0.370837021984495,7
475,335,14,0.432616831528292,7
475,336,14,0.312718424588355,7
475,337,14,0.155718645171256,7
476,322,14,0.129520599828441,1
476,323,14,0.158856251780747,1
476,324,14,0.16961504446771,1
476,325,14,0.164368214253814,1
476,326,14,0.179885478479738,1
476,327,14,0.221710622182091,1
476,328,14,0.299063365918389,2
476,329,14,0.320111409534553,2
476,330,14,0.241468875993593,2
476,331,14,0.178798023516529,1
476,332,14,0.170226153690065,1
476,333,14,0.203067552353415,1
476,334,14,0.230355606941615,7
476,335,14,0.230495791301449,7
476,336,14,0.190769765615498,7
476,337,14,0.131911798338686,1
477,322,14,0.121981396170192,1
477,323,14,0.139776087385808,1
477,324,14,0.146474720280447,1
477,325,14,0.145238726558494,1
477,326,14,0.160444847983848,1
477,327,14,0.18698872528693,1
477,328,14,0.215727734846503,1
477,329,14,0.204603289415742,2
477,330,14,0.158071852916892,1
477,331,14,0.134635800854687,1
477,332,14,0.136866916143072,1
477,333,14,0.143836157945567,1
477,334,14,0.127982397716503,1
477,335,14,0.109680709373908,1
478,323,14,0.10579150802232,1
478,324,14,0.108719596568865,1
478,325,14,0.11454320377568,1
478,326,14,0.131668673060894,1
478,327,14,0.146464570076163,1
478,328,14,0.142292746882638,1
478,329,14,0.118919034921254,1
488,321,14,0.120319975039867,1
490,322,14,0.10457398544135,1
470,324,15,0.175397470845713,2
470,325,15,0.265592632281255,2
471,323,15,0.171152075402231,2
471,324,15,0.305865675899649,2
471,325,15,0.332229102647878,2
471,326,15,0.217679384894943,2
471,331,15,0.222093541427245,8
472,323,15,0.237814891683712,2
472,324,15,0.422910336173874,2
472,325,15,0.388033609624125,2
472,326,15,0.223979806313579,2
472,330,15,0.26281352865628,8
472,331,15,0.340613929863739,8
472,332,15,0.267617386108685,8
473,323,15,0.243641733571013,2
473,324,15,0.359444231922218,2
473,325,15,0.300019849784115,2
473,326,15,0.23710277119762,2
473,327,15,0.28042944242764,2
473,328,15,0.290139395543958,2
473,329,15,0.240729004179743,1
473,330,15,0.262896091087175,1
473,331,15,0.315913998902975,8
473,332,15,0.245470175755137,1
473,333,15,0.193856654665779,1
473,334,15,0.234644503260603,7
473,335,15,0.267759265887256,7
474,323,15,0.180968237579206,1
474,324,15,0.20625625576052,2
474,325,15,0.190037367028978,2
474,326,15,0.235621399075604,2
474,327,15,0.312846473319329,2
474,328,15,0.307857525218684,2
474,329,15,0.257948859210733,2
474,330,15,0.237716535088788,1
474,331,15,0.234216030790946,1
474,332,15,0.192514775351217,1
474,333,15,0.227340929344673,7
474,334,15,0.361767267906767,7
474,335,15,0.417461884979045,7
474,336,15,0.281723002308179,7
474,337,15,0.135452144976862,1
475,322,15,0.138340714651122,1
475,323,15,0.148536349465421,1
475,324,15,0.143135347687105,1
475,325,15,0.150141520617496,1
475,326,15,0.198103455522162,1
475,327,15,0.255441379514041,2
475,328,15,0.287712782859424,2
475,329,15,0.283377128676304,2
475,330,15,0.232428590970503,1
475,331,15,0.18761711216471,1
475,332,15,0.167949808645226,1
475,333,15,0.219683905238228,7
475,334,15,0.320525180939103,7
475,335,15,0.356832060118478,7
475,336,15,0.266990259640887,7
475,337,15,0.156198839066481,1
476,321,15,0.108819191265631,1
476,322,15,0.13306722620839,1
476,323,15,0.136887818871456,1
476,324,15,0.137278668660836,1
476,325,15,0.140337159447261,1
476,326,15,0.164466291996972,1
476,327,15,0.204703006807285,1
476,328,15,0.251941812158133,1
476,329,15,0.245859185122861,2
476,330,15,0.188556842616331,1
476,331,15,0.156373221806904,1
476,332,15,0.165578520151078,1
476,333,15,0.198408006266982,1
476,334,15,0.21543353507924,7
476,335,15,0.211315407581788,7
476,336,15,0.182187589427761,1
476,337,15,0.137498883477529,1
477,322,15,0.115789091158293,1
477,323,15,0.119832095989969,1
477,324,15,0.122595695456751,1
477,325,15,0.124021475690685,1
477,326,15,0.138731731751561,1
477,327,15,0.16421327305852,1
477,328,15,0.185844730339634,1
477,329,15,0.166425794511144,1
477,330,15,0.133143598130078,1
477,331,15,0.125082562430895,1
477,332,15,0.1352588560867,1
477,333,15,0.139769294556787,1
477,334,15,0.121644799780417,1
477,335,15,0.10477904187604,1
478,326,15,0.107851363710062,1
478,327,15,0.116368868596214,1
478,328,15,0.115483324619773,1
489,321,15,0.125433926810201,1
490,321,15,0.118893547869836,1
471,324,16,0.239238151097681,2
471,325,16,0.284834631087144,2
472,323,16,0.242378155832361,2
472,324,16,0.396936387264336,2
472,325,16,0.344725409535089,2
472,326,16,0.199702614630161,2
472,331,16,0.284565840292804,8
473,323,16,0.294168134319282,2
473,324,16,0.399141056251228,2
473,325,16,0.282327084466029,2
473,328,16,0.292366394980276,2
473,329,16,0.268901442721036,1
473,330,16,0.274298674423475,1
473,331,16,0.310107524348667,1
473,332,16,0.246204604382515,1
473,333,16,0.176439863363527,1
473,334,16,0.205071448068744,1
473,335,16,0.235724395763916,1
474,324,16,0.21648975864465,2
474,325,16,0.173163522423385,1
474,326,16,0.209263036275447,1
474,327,16,0.309243083873882,2
474,328,16,0.304687426801411,2
474,329,16,0.251098118254743,2
474,330,16,0.227798380089859,1
474,331,16,0.22886381691762,1
474,332,16,0.191943173847077,1
474,333,16,0.196618023318432,1
474,334,16,0.282468161151514,7
474,335,16,0.31752645366318,7
474,336,16,0.220352904087217,1
475,323,16,0.135449546078403,1
475,324,16,0.122750826271245,1
475,325,16,0.134603799826014,1
475,326,16,0.192620716714179,1
475,327,16,0.263522347537462,1
475,328,16,0.261390291550452,2
475,329,16,0.229280354531689,1
475,330,16,0.189474554932504,1
475,331,16,0.164546222067196,1
475,332,16,0.156593637396868,1
475,333,16,0.190436392752138,1
475,334,16,0.253742391473793,7
475,335,16,0.272382628168526,7
475,336,16,0.216020462276442,1
475,337,16,0.148762654404685,1
476,322,16,0.137816919493755,1
476,323,16,0.121620416981992,1
476,324,16,0.113151610768265,1
476,325,16,0.126521125229785,1
476,326,16,0.159341308850773,1
476,327,16,0.198815553700113,1
476,328,16,0.215105761559343,1
476,329,16,0.194757256637587,1
476,330,16,0.153309176293299,1
476,331,16,0.134962537046015,1
476,332,16,0.147534725075805,1
476,333,16,0.17473846604402,1
476,334,16,0.188917476028341,1
476,335,16,0.181052997362018,1
476,336,16,0.155232840778497,1
476,337,16,0.127345065274068,1
477,322,16,0.110143123680529,1
477,323,16,0.105641998859429,1
477,324,16,0.105863585626811,1
477,325,16,0.11275512817321,1
477,326,16,0.127612116033388,1
477,327,16,0.14983459405563,1
477,328,16,0.161788199635735,1
477,329,16,0.141767457079805,1
477,330,16,0.116510402598595,1
477,331,16,0.113125588321456,1
477,332,16,0.122726410010609,1
477,333,16,0.123422948260014,1
477,334,16,0.109305162969449,1
471,324,17,0.200992337510399,2
472,323,17,0.251145589979397,2
472,324,17,0.355056153607079,2
472,325,17,0.29451484745113,2
473,323,17,0.321011520727253,2
473,324,17,0.391458087776468,2
473,325,17,0.257432314199284,2
473,328,17,0.26956461914515,1
473,329,17,0.294560266826786,1
473,330,17,0.286039069943251,1
473,331,17,0.278492828066426,1
473,332,17,0.222297326297881,1
473,333,17,0.151917438282966,1
473,334,17,0.161838214488495,1
473,335,17,0.184064763746522,1
474,324,17,0.213914261425181,2
474,326,17,0.190851212639329,1
474,327,17,0.295131109854122,1
474,328,17,0.298851148570347,2
474,329,17,0.256849982479186,1
474,330,17,0.221503825712382,1
474,331,17,0.208201726453824,1
474,332,17,0.177934798835444,1
474,333,17,0.157304910173592,1
474,334,17,0.193105762630133,1
474,335,17,0.216548116742251,1
474,336,17,0.169097618284681,1
475,325,17,0.126391615315556,1
475,326,17,0.195115815392457,1
475,327,17,0.28351198139037,1
475,328,17,0.258312771919511,1
475,329,17,0.199939683247594,1
475,330,17,0.161345639574857,1
475,331,17,0.144874066526982,1
475,332,17,0.141793691453956,1
475,333,17,0.153329588242574,1
475,334,17,0.183283945339343,1
475,335,17,0.193572225864398,1
475,336,17,0.170598543492532,1
475,337,17,0.13011735376188,1
476,321,17,0.130969524758958,1
476,322,17,0.142788645709328,1
476,323,17,0.115337195140287,1
476,325,17,0.124222137421541,1
476,326,17,0.165654479372153,1
476,327,17,0.206116941418196,1
476,328,17,0.194551999429625,1
476,329,17,0.162128354174045,1
476,330,17,0.131190007273346,1
476,331,17,0.120199711850201,1
476,332,17,0.130377265915989,1
476,333,17,0.14521054022198,1
476,334,17,0.156875099215458,1
476,335,17,0.146593310359517,1
476,336,17,0.125925018232444,1
476,337,17,0.108266652068219,1
477,320,17,0.108364674041024,1
477,321,17,0.109600344294929,1
477,322,17,0.110881556619267,1
477,325,17,0.1166967982731,1
477,326,17,0.133495442134422,1
477,327,17,0.145609967491684,1
477,328,17,0.143386314276559,1
477,329,17,0.125410893654324,1
477,330,17,0.105685165112815,1
477,332,17,0.109123106228424,1
477,333,17,0.105042378329836,1
478,319,17,0.115713243477925,1
480,320,17,0.103776402465995,1
472,324,18,0.287536860857252,2
473,324,18,0.326311087387146,2
473,328,18,0.236176291781922,9
473,329,18,0.296735578299747,1
473,330,18,0.290316700650889,1
473,331,18,0.237121643885147,1
473,332,18,0.176853132834898,1
474,326,18,0.167104318936462,1
474,327,18,0.271750080822396,9
474,328,18,0.311253895113009,9
474,329,18,0.279255387259963,9
474,330,18,0.220736001797501,1
474,331,18,0.181307466329653,1
474,332,18,0.150814278388292,1
474,333,18,0.121943048475323,1
474,334,18,0.127005368052654,1
474,335,18,0.14221620764989,1
475,325,18,0.118418707928519,1
475,326,18,0.196788435209707,1
475,327,18,0.308333112482735,9
475,328,18,0.292473875604986,9
475,329,18,0.206650864471706,1
475,330,18,0.147698310675847,1
475,331,18,0.127039566433243,1
475,332,18,0.122653752394444,1
475,333,18,0.119792253649634,1
475,334,18,0.128403876583867,1
475,335,18,0.136348898794299,1
475,336,18,0.129418261230298,1
476,322,18,0.138461468619896,1
476,323,18,0.104802811200579,1
476,325,18,0.1289352453552,1
476,326,18,0.186093410344606,1
476,327,18,0.230857383963534,1
476,328,18,0.200154176026047,1
476,329,18,0.149156236941372,1
476,330,18,0.116923259369352,1
476,331,18,0.106155398422957,1
476,332,18,0.10994033152218,1
476,333,18,0.113981797092107,1
476,334,18,0.118822150663654,1
476,335,18,0.111319532357111,1
477,319,18,0.147578984428114,1
477,320,18,0.127248314865315,1
477,321,18,0.117620321860078,1
477,322,18,0.110750529751431,1
477,325,18,0.128988762586142,1
477,326,18,0.155762067968266,1
477,327,18,0.153281982669073,1
477,328,18,0.13287380346938,1
477,329,18,0.112513687160085,1
478,320,18,0.128743161104667,1
478,321,18,0.111783709006894,1
478,325,18,0.103435656761941,1
478,326,18,0.107843890482731,1
479,321,18,0.128107468310616,1
479,322,18,0.104931651870569,1
480,320,18,0.155392868230003,1
480,321,18,0.133210266010308,1
481,320,18,0.115429338917864,1
481,321,18,0.103901751911875,1
473,328,19,0.209725840974541,9
473,329,19,0.272606311901188,9
473,330,19,0.278865039403762,1
473,331,19,0.199295223354018,1
474,326,19,0.147093146573144,1
474,327,19,0.251755204556286,9
474,328,19,0.345498498171312,9
474,329,19,0.313313962728093,9
474,330,19,0.234341335620542,9
474,331,19,0.162938017007905,1
474,332,19,0.126184417299303,1
475,325,19,0.113179562869295,1
475,326,19,0.200782685598605,9
475,327,19,0.335433287905034,9
475,328,19,0.356087525903098,9
475,329,19,0.240560332323488,9
475,330,19,0.152002331914625,1
475,331,19,0.116132190371253,1
475,332,19,0.107551542291194,1
475,335,19,0.105987986976686,1
476,322,19,0.126569533896373,1
476,325,19,0.137933122601708,1
476,326,19,0.226255214416485,1
476,327,19,0.280891287876658,9
476,328,19,0.231200148554374,9
476,329,19,0.149207411817479,1
476,330,19,0.109209840281739,1
477,320,19,0.139256408080508,1
477,321,19,0.122745561549902,1
477,322,19,0.109263212509763,1
477,325,19,0.141255284464048,1
477,326,19,0.191177603054466,1
477,327,19,0.179836255565993,1
477,328,19,0.133147122816401,1
478,321,19,0.144081837505536,1
478,322,19,0.112700038218308,1
478,325,19,0.112894085585273,1
478,326,19,0.118801984103932,1
479,322,19,0.141719338419054,1
479,323,19,0.11062549261953,1
480,321,19,0.194564781994582,1
480,322,19,0.126430386865109,1
481,320,19,0.140098651954715,1
481,321,19,0.123531644678424,1
473,328,20,0.18380131575202,9
473,329,20,0.229676324039494,9
474,326,20,0.129739565389222,1
474,327,20,0.230928413085385,9
474,328,20,0.358266830533349,9
474,329,20,0.320728118100371,9
474,330,20,0.236512832401344,9
474,331,20,0.143804056530258,1
475,325,20,0.106382696074508,1
475,326,20,0.206371231920702,9
475,327,20,0.352849633044461,9
475,328,20,0.407256713434346,9
475,329,20,0.264786549904071,9
475,330,20,0.15405999025045,1
475,331,20,0.104108336454242,1
476,325,20,0.143715113970955,1
476,326,20,0.277447200868126,9
476,327,20,0.340323901718896,9
476,328,20,0.270325795233928,9
476,329,20,0.151780499757689,1
477,320,20,0.144760685398902,1
477,321,20,0.123249558231878,1
477,322,20,0.103718167063172,1
477,325,20,0.147166239198063,1
477,326,20,0.228409400079649,1
477,327,20,0.213595143464103,9
477,328,20,0.140626663350785,1
478,322,20,0.128874846062671,1
478,323,20,0.10304496312955,1
478,324,20,0.105791541484532,1
478,325,20,0.119833267167386,1
478,326,20,0.126926486465071,1
479,323,20,0.1273360862472,1
479,324,20,0.116817619166298,1
480,322,20,0.160915850924864,1
480,323,20,0.113624286819877,1
481,320,20,0.16006878849214,1
481,321,20,0.14430486314803,1
481,322,20,0.103593587248167,1
473,328,21,0.15318452955387,9
473,329,21,0.18085196754683,1
474,326,21,0.116845370494057,1
474,327,21,0.203405654542727,9
474,328,21,0.323349012387354,9
474,329,21,0.288317021174263,9
474,330,21,0.217607039592757,1
475,325,21,0.104244014569536,1
475,326,21,0.207357028684076,9
475,327,21,0.355255008378492,9
475,328,21,0.422550104308407,9
475,329,21,0.270101576105875,9
475,330,21,0.153892656882673,1
476,325,21,0.148614829506461,1
476,326,21,0.316421821431181,9
476,327,21,0.394828847924598,9
476,328,21,0.311989907618418,9
476,329,21,0.162392794880835,9
477,321,21,0.121432894746352,1
477,325,21,0.15381516955392,1
477,326,21,0.259519932368854,1
477,327,21,0.252352973510153,9
477,328,21,0.158650124555276,9
478,322,21,0.14461844869007,1
478,323,21,0.110452091437323,1
478,324,21,0.114111786631373,1
478,325,21,0.127884955755371,1
478,326,21,0.135903840221597,1
478,327,21,0.110430106764087,1
479,323,21,0.135229364723922,1
479,324,21,0.12052699459099,1
480,323,21,0.118033937107639,1
481,322,21,0.107167373790129,1
482,320,21,0.12116910097566,1
473,328,22,0.118974571038982,1
474,327,22,0.168762773083996,9
474,328,22,0.252799649423098,9
474,329,22,0.223623857611239,1
475,326,22,0.189967141000213,9
475,327,22,0.331372336173695,9
475,328,22,0.389652422204596,9
475,329,22,0.244627731107659,9
475,330,22,0.134438173031046,1
476,325,22,0.138758401134467,1
476,326,22,0.306863362902328,9
476,327,22,0.412195602065948,9
476,328,22,0.331128262799898,9
476,329,22,0.162805417416109,9
477,325,22,0.148550292053724,1
477,326,22,0.255134754112082,1
477,327,22,0.269086801066972,9
477,328,22,0.169843312523407,9
478,322,22,0.158815349803702,1
478,323,22,0.116025144755298,1
478,324,22,0.115430443170858,1
478,325,22,0.128321659929162,1
478,326,22,0.13508712801509,1
478,327,22,0.114810856854814,1
479,323,22,0.13731501977706,1
479,324,22,0.112677886234012,1
480,323,22,0.115574475685063,1
481,322,22,0.109717272417473,1
482,319,22,0.120109542343128,1
482,320,22,0.134629019179737,1
482,321,22,0.10293904407473,1
490,317,22,0.125308967756794,1
474,327,23,0.138165963826367,1
474,328,23,0.185390090420251,1
474,329,23,0.162334704480929,1
475,326,23,0.164100427325831,1
475,327,23,0.28909588761908,9
475,328,23,0.323923380101013,9
475,329,23,0.204633516947183,1
475,330,23,0.113113073454195,1
476,325,23,0.122628466116298,1
476,326,23,0.261630840237926,9
476,327,23,0.389078924508447,9
476,328,23,0.318770221772371,9
476,329,23,0.158423150371774,1
477,322,23,0.113488262928393,1
477,325,23,0.137469815969435,1
477,326,23,0.225776794018491,1
477,327,23,0.262598902028979,9
477,328,23,0.173079141878975,1
478,322,23,0.169768970642575,1
478,323,23,0.117455096611652,1
478,324,23,0.110070756070201,1
478,325,23,0.122167602225496,1
478,326,23,0.127682018594103,1
478,327,23,0.114949602339535,1
479,323,23,0.134196408549872,1
480,322,23,0.183129807237136,1
480,323,23,0.11120839319723,1
481,321,23,0.140291371987274,1
481,322,23,0.111123499565571,1
482,319,23,0.111325611325611,1
482,320,23,0.134670367319608,1
482,321,23,0.106288243404308,1
483,320,23,0.122966155604996,1
490,317,23,0.118915744470414,1
490,318,23,0.110357326453146,1
474,327,24,0.111263471998063,1
474,328,24,0.131442000037299,1
474,329,24,0.112943977743257,1
475,326,24,0.133861306805563,1
475,327,24,0.229380808091895,1
475,328,24,0.237609634475751,1
475,329,24,0.154711767214367,1
476,325,24,0.103326703799906,1
476,326,24,0.201534626116891,1
476,327,24,0.320639153232927,9
476,328,24,0.2670668881062,1
476,329,24,0.141514917766391,1
477,322,24,0.123370535282065,1
477,325,24,0.118637662335229,1
477,326,24,0.179824019550498,1
477,327,24,0.225110918309282,1
477,328,24,0.159853938783426,1
478,322,24,0.17369875050316,1
478,323,24,0.112272446920232,1
478,325,24,0.109166506717294,1
478,326,24,0.114260225003482,1
478,327,24,0.107596058187128,1
479,323,24,0.128028084789854,1
480,322,24,0.169472584677466,1
480,323,24,0.113436273805129,1
481,318,24,0.13130431418929,1
481,319,24,0.131514144566214,1
481,320,24,0.13297313046845,1
481,321,24,0.129050623061924,1
481,322,24,0.115177513464971,1
482,320,24,0.118830616603271,1
482,321,24,0.103263694454847,1
483,320,24,0.130485148087242,1
484,320,24,0.108740298523977,1
490,318,24,0.113848215942094,1
491,318,24,0.103871022447255,1
475,326,25,0.105615251398029,1
475,327,25,0.161732841983137,1
475,328,25,0.155318626735808,1
475,329,25,0.106894757149559,1
476,326,25,0.145015689761928,1
476,327,25,0.224511030081993,1
476,328,25,0.193246281612086,1
476,329,25,0.113923539381142,1
477,322,25,0.123992698188427,1
477,326,25,0.135642188032467,1
477,327,25,0.170677570083034,1
477,328,25,0.135635395203446,1
479,322,25,0.162738057983499,1
479,323,25,0.116456584207746,1
480,318,25,0.158518093821082,1
480,319,25,0.191770598066098,1
480,321,25,0.155961580829847,1
480,322,25,0.147796154183522,1
480,323,25,0.113758782603683,1
481,318,25,0.120178463345627,1
481,319,25,0.120018380123767,1
481,320,25,0.119401470784678,1
481,321,25,0.119255542078464,1
481,322,25,0.115200680469695,1
483,320,25,0.125434517975945,1
484,320,25,0.120633326346423,1
490,318,25,0.120463516774964,1
490,319,25,0.112028931249967,1
491,318,25,0.114486463018322,1
491,319,25,0.109194826902655,1
476,327,26,0.129670477075663,1
476,328,26,0.117553263587376,1
477,327,26,0.113849041343321,1
479,322,26,0.132965389543425,1
480,319,26,0.147391138724426,1
480,321,26,0.128879385769423,1
480,322,26,0.121681853603091,1
480,323,26,0.103352904711845,1
481,319,26,0.106015872153292,1
481,320,26,0.105872653886243,1
481,321,26,0.106034889843737,1
481,322,26,0.103453581353463,1
483,320,26,0.108523351849983,1
484,320,26,0.11404487336159,1
488,318,26,0.10434895206614,1
489,318,26,0.1075394958949,1
490,318,26,0.114108864264865,1
490,319,26,0.112845163831436,1
491,318,26,0.110608928824626,1
491,319,26,0.11039508298227,1
480,320,27,0.121719375896732,1
480,321,27,0.107718619115347,1
