x,y,z,signal,mito.p
32,655,1,0.102982054171127,1
32,656,1,0.108149735099746,1
32,682,1,0.10486637824917,1
33,656,1,0.103827376568831,1
34,683,1,0.110582995610382,1
65,668,1,0.11270702066653,1
66,668,1,0.125410112869379,1
67,668,1,0.129844703659097,1
67,669,1,0.119602790605703,1
69,667,1,0.129796462303569,1
70,667,1,0.119188015334795,1
70,668,1,0.118149917134178,1
70,669,1,0.131891542546399,1
70,670,1,0.104931361864732,1
71,667,1,0.117063298726268,1
71,668,1,0.103407091187026,1
71,682,1,0.131638635148654,1
72,682,1,0.151135314849521,1
73,682,1,0.144751829066812,1
74,681,1,0.109499333031192,1
32,682,2,0.135925010647676,1
71,682,2,0.114422940586013,1
33,657,4,0.104624658384278,1
32,681,6,0.103377722519025,1
45,691,7,0.106881550729918,1
33,681,8,0.103242066711872,1
45,691,8,0.111430080351248,1
45,691,9,0.111357578892072,1
59,670,9,0.10539215883111,1
63,671,9,0.106293050808755,1
72,684,9,0.106470846694795,1
73,684,9,0.11797682826595,1
74,684,9,0.107358677255717,1
58,670,10,0.10773361018629,1
59,670,10,0.13744734051709,1
59,671,10,0.105336343861616,1
62,671,10,0.107963294808958,1
63,671,10,0.130731831513569,1
63,672,10,0.117012692707763,1
64,671,10,0.109141186976935,1
71,685,10,0.10875753156312,1
73,684,10,0.110395395296248,1
58,670,11,0.113113620003657,1
59,671,11,0.118292053456374,1
62,671,11,0.116853947974381,1
62,672,11,0.114703063916126,1
63,672,11,0.140631147287183,1
64,672,11,0.110475894224074,1
72,685,11,0.115100026136218,1
73,685,11,0.113386515495993,1
59,671,12,0.119423689693398,1
62,672,12,0.119329460104611,1
63,672,12,0.145162577718218,1
64,672,12,0.111000157852408,1
45,690,13,0.103940701926558,1
50,669,13,0.106408986219012,1
51,669,13,0.104481573966078,1
59,671,13,0.106387035007988,1
62,672,13,0.115118017652165,1
63,672,13,0.137450564043506,1
49,669,14,0.111177340264562,1
50,669,14,0.125937912338106,1
51,669,14,0.103436013692202,1
76,675,14,0.107471511834335,1
49,669,15,0.118233193425594,1
50,669,15,0.126180234522812,1
75,675,15,0.111352236092235,1
76,675,15,0.123406841782006,1
49,669,16,0.109336115515482,1
50,669,16,0.110901622792353,1
75,674,16,0.107293180552905,1
75,675,16,0.122945475958025,1
76,675,16,0.130255998859965,1
26,670,17,0.103270275356526,1
75,675,17,0.119716060193076,1
27,669,18,0.105954100910074,1
27,670,18,0.103155064960861,1
28,670,18,0.107775794881459,1
75,675,18,0.106634309600059,1
76,676,18,0.106764667223656,1
27,670,19,0.108658349566968,1
27,672,19,0.105738146948367,1
27,673,19,0.111753113391122,1
28,671,19,0.110778214154765,1
28,674,19,0.10367246883575,1
28,675,19,0.110418160754429,1
29,671,19,0.116157510111611,1
30,670,19,0.111421870955255,1
30,671,19,0.112584448584241,1
28,671,20,0.117902676004319,1
28,672,20,0.106420709147257,1
28,673,20,0.109713190027618,1
28,674,20,0.127995871833839,1
29,671,20,0.128161554399161,1
29,672,20,0.112218494680534,1
29,675,20,0.105442184837942,1
29,676,20,0.110764271566463,1
30,671,20,0.128529259491958,1
30,672,20,0.117120775652288,1
75,676,20,0.104053090342351,1
29,671,21,0.131236419361289,1
29,672,21,0.119139852057761,1
29,673,21,0.102929429265836,1
29,674,21,0.112051317469746,1
30,671,21,0.136513064406013,1
30,672,21,0.13027431384396,1
31,670,21,0.110770740927435,1
31,671,21,0.107843656247248,1
31,672,21,0.104282763810948,1
48,690,21,0.107937473135421,1
75,677,21,0.102929886582733,1
28,670,22,0.123893850814394,1
29,671,22,0.128825533916361,1
29,672,22,0.120047916102828,1
29,673,22,0.106681993252055,1
30,671,22,0.138396228460709,1
30,672,22,0.134869077088102,1
30,673,22,0.10414667299504,1
31,670,22,0.116856379561781,1
31,671,22,0.111122651856202,1
31,672,22,0.109502523095396,1
48,690,22,0.104451301818354,1
48,691,22,0.103222100925422,1
74,682,22,0.105679811158907,1
74,683,22,0.109065595840192,1
75,677,22,0.107899370830106,1
28,670,23,0.12267572591361,1
29,671,23,0.126854654250134,1
29,672,23,0.118743458695272,1
29,673,23,0.110783523492391,1
30,671,23,0.142195706468049,1
30,672,23,0.134587024103768,1
30,673,23,0.109020131848254,1
31,671,23,0.118449035846595,1
31,672,23,0.115409350823273,1
31,673,23,0.105224803155192,1
47,690,23,0.10693646221969,1
48,690,23,0.110611315795743,1
48,691,23,0.102920316390122,1
73,682,23,0.107596972820921,1
73,683,23,0.111954120898169,1
74,682,23,0.120339561587915,1
74,683,23,0.120923153717995,1
75,678,23,0.106458521446735,1
75,682,23,0.105176773727006,1
28,669,24,0.11913254614149,1
28,670,24,0.117758777338962,1
29,670,24,0.133125004294317,1
29,671,24,0.124297929331556,1
29,672,24,0.117384970969523,1
30,671,24,0.142284727105846,1
30,672,24,0.129935297020855,1
30,673,24,0.114524375704435,1
30,674,24,0.105406882204358,1
31,671,24,0.12506163739437,1
31,672,24,0.122060567763612,1
31,673,24,0.120609780103297,1
31,674,24,0.106719772089321,1
32,670,24,0.105376487361858,1
32,673,24,0.109356025531578,1
32,674,24,0.112169952165099,1
33,675,24,0.111067428052452,1
48,690,24,0.116036410366647,1
73,682,24,0.119051601050838,1
73,683,24,0.127142172729083,1
74,678,24,0.114067471508711,1
74,679,24,0.112026588895132,1
74,680,24,0.106707056448788,1
74,681,24,0.112138207680051,1
74,682,24,0.131798774140867,1
75,680,24,0.108698571145704,1
75,681,24,0.108467481110135,1
28,670,25,0.11544158608743,1
28,671,25,0.129718595736415,1
29,670,25,0.123366910209107,1
29,671,25,0.121826845367371,1
29,672,25,0.121466591193763,1
30,671,25,0.139802076370405,1
30,672,25,0.131288943879944,1
30,673,25,0.131127332550407,1
30,674,25,0.123164318824029,1
31,671,25,0.134718129050099,1
31,672,25,0.132379778526558,1
31,673,25,0.139098901448967,1
31,674,25,0.119421425417057,1
32,671,25,0.104284994625076,1
32,672,25,0.110626318020757,1
32,673,25,0.126323809720121,1
32,674,25,0.118464551158859,1
32,675,25,0.105170348982316,1
33,674,25,0.10524074232214,1
33,675,25,0.118045280797482,1
47,670,25,0.116158547440181,1
48,670,25,0.1187007051425,1
70,677,25,0.1068149163119,1
71,676,25,0.107928482954483,1
71,677,25,0.120397094284288,1
71,678,25,0.107528442210894,1
72,677,25,0.10376796998859,1
72,683,25,0.102943349545998,1
72,684,25,0.106483562335327,1
73,678,25,0.111873555045919,1
73,679,25,0.108648020897553,1
73,680,25,0.107359681122075,1
73,681,25,0.103625342887286,1
73,682,25,0.118281970176514,1
74,681,25,0.123088225754107,1
29,670,26,0.115867225423143,1
29,671,26,0.120788892169673,1
29,672,26,0.131533764576474,1
30,671,26,0.133979662649149,1
30,672,26,0.1377498054507,1
30,673,26,0.154072873202042,1
30,674,26,0.142128492038358,1
31,672,26,0.142045829220827,1
31,673,26,0.152764913416304,1
31,674,26,0.128598191648528,1
31,675,26,0.105373308451725,1
32,671,26,0.120971082759546,1
32,672,26,0.124422230294795,1
32,673,26,0.134329420842282,1
32,674,26,0.118855646337793,1
32,675,26,0.103549272125505,1
33,674,26,0.114399416651029,1
33,675,26,0.11726075923885,1
46,670,26,0.112195550757223,1
47,671,26,0.128930772572872,1
48,669,26,0.109860758382217,1
49,670,26,0.120493420838356,1
49,671,26,0.121903708068168,1
58,691,26,0.112785444937216,1
70,676,26,0.1064501001234,1
70,678,26,0.120343208969015,1
70,689,26,0.107799798441482,1
71,676,26,0.121432526662021,1
71,678,26,0.131291866246453,1
72,677,26,0.111972268571104,1
72,678,26,0.109498072621209,1
72,683,26,0.109575426101114,1
72,685,26,0.105958395227271,1
73,681,26,0.107253717450972,1
30,671,27,0.126260956532051,1
30,672,27,0.137505932850175,1
30,673,27,0.169716189580296,1
30,674,27,0.156222831472433,1
31,672,27,0.141511895013247,1
31,673,27,0.155802468012133,1
31,674,27,0.134613671178533,1
31,675,27,0.112736322410107,1
32,671,27,0.137841703838722,1
32,672,27,0.131167699132062,1
32,673,27,0.131995978109824,1
32,674,27,0.117931297349588,1
32,675,27,0.103250532651489,1
33,670,27,0.115425814231541,1
33,673,27,0.112095677208691,1
33,674,27,0.123383485158081,1
33,675,27,0.113730518188675,1
34,669,27,0.103463452705982,1
34,674,27,0.106658179311233,1
34,675,27,0.106172754156877,1
45,670,27,0.119138078560529,1
46,671,27,0.112636560402282,1
70,686,27,0.113447539416478,1
71,685,27,0.104195840138432,1
71,686,27,0.111511482758796,1
30,671,28,0.119841298098249,1
30,672,28,0.133097431431689,1
31,672,28,0.137070678705567,1
31,673,28,0.149207222198278,1
31,674,28,0.134272356616876,1
32,672,28,0.132867936428222,1
32,673,28,0.123812928031884,1
32,674,28,0.114041460215973,1
33,671,28,0.116650386185157,1
33,672,28,0.108249630956419,1
33,673,28,0.115483056922078,1
33,674,28,0.125444790875007,1
33,675,28,0.107010915641228,1
34,669,28,0.116931089526943,1
34,674,28,0.123521594860775,1
34,675,28,0.109574422234756,1
35,666,28,0.110822038498319,1
35,667,28,0.121590847540719,1
35,668,28,0.109108706323225,1
35,675,28,0.107588373032455,1
37,667,28,0.115921501130889,1
37,668,28,0.113520531654762,1
38,667,28,0.119193636986399,1
38,668,28,0.10466079757316,1
44,670,28,0.119914602650511,1
45,670,28,0.144588935019151,1
45,671,28,0.110425210127075,1
49,672,28,0.104518616634681,1
69,685,28,0.112971171367483,1
69,686,28,0.111188907035818,1
70,685,28,0.127705899459349,1
70,687,28,0.117404836369338,1
71,685,28,0.119655382048781,1
71,687,28,0.109762859104189,1
72,686,28,0.108184379643161,1
31,671,29,0.139262063194324,1
31,672,29,0.125774360200277,1
32,672,29,0.127717622387594,1
32,673,29,0.113825394713559,1
32,674,29,0.107643507603641,1
33,671,29,0.132310745983352,1
33,672,29,0.114556488273815,1
33,673,29,0.113326216590101,1
33,674,29,0.119321540714455,1
34,669,29,0.130901596468746,1
34,670,29,0.110700693363801,1
34,673,29,0.109033985203991,1
34,674,29,0.132110976578147,1
34,675,29,0.1113257674826,1
35,666,29,0.134205342960456,1
35,667,29,0.144398746960627,1
35,668,29,0.129115450520498,1
35,669,29,0.11126360584691,1
35,674,29,0.119582479043063,1
35,675,29,0.121788051509677,1
36,667,29,0.12015246320696,1
36,668,29,0.11612033359416,1
36,675,29,0.109127746321811,1
37,667,29,0.146364172286311,1
37,668,29,0.138700210347926,1
38,667,29,0.148999310321504,1
38,668,29,0.131176600080434,1
44,670,29,0.129435115031038,1
45,670,29,0.152706231850654,1
45,671,29,0.122414742968719,1
49,684,29,0.123331496034817,1
50,672,29,0.106638748920174,1
50,685,29,0.107916313863412,1
68,685,29,0.108680546167546,1
69,684,29,0.116360737278716,1
69,687,29,0.107047556763289,1
70,684,29,0.108887866878576,1
70,688,29,0.107882204715388,1
71,684,29,0.107631215817793,1
32,672,30,0.118054505213903,1
33,671,30,0.140266007630634,1
33,672,30,0.115177290383558,1
33,673,30,0.10612020733008,1
33,674,30,0.107642157961093,1
34,668,30,0.147370481385596,1
34,669,30,0.13818459112434,1
34,670,30,0.11835275390881,1
34,673,30,0.108888257271049,1
34,674,30,0.126260666526215,1
34,675,30,0.108636632591427,1
35,667,30,0.155284071424958,1
35,668,30,0.145425211465564,1
35,669,30,0.122230198869941,1
35,674,30,0.122628756122135,1
35,675,30,0.124501223423084,1
36,666,30,0.114229662849922,1
36,667,30,0.13924775252169,1
36,668,30,0.132111088118853,1
36,669,30,0.105903929900325,1
37,667,30,0.1676974254888,1
37,668,30,0.153772728315126,1
37,669,30,0.112460917251876,1
38,668,30,0.149923346995731,1
38,669,30,0.115230439530169,1
44,670,30,0.126603944204305,1
45,670,30,0.141676105241244,1
45,671,30,0.118266521788674,1
46,672,30,0.10531957929344,1
48,678,30,0.112244026348235,1
49,678,30,0.11459790333811,1
49,683,30,0.130304831381237,1
50,670,30,0.103069925939648,1
50,672,30,0.129159431021041,1
50,683,30,0.110539996668056,1
51,671,30,0.105549754695217,1
51,672,30,0.127763666391206,1
52,672,30,0.103063478886817,1
67,677,30,0.103188504864647,1
68,676,30,0.126427520268954,1
68,678,30,0.112058166069121,1
68,684,30,0.111182292671927,1
69,679,30,0.108904441827551,1
70,681,30,0.107342001920106,1
70,682,30,0.11773929117755,1
70,683,30,0.109315815106913,1
71,680,30,0.104359046500071,1
71,681,30,0.115504483891782,1
71,682,30,0.124527558183871,1
71,683,30,0.111019320545771,1
33,671,31,0.141222859580691,1
33,672,31,0.111187412390352,1
34,669,31,0.142600554616085,1
34,670,31,0.123527763061841,1
34,671,31,0.110433776453329,1
34,674,31,0.108421403644312,1
35,668,31,0.159476708114301,1
35,669,31,0.130566427800013,1
35,674,31,0.109189238713263,1
35,675,31,0.115012957460784,1
36,667,31,0.153844437835286,1
36,668,31,0.148335855045624,1
36,669,31,0.114965943053026,1
36,675,31,0.107852590657832,1
37,667,31,0.174338179910876,1
37,668,31,0.159464237863323,1
37,669,31,0.121399332147789,1
38,667,31,0.157413004272188,1
38,668,31,0.156228129655988,1
38,669,31,0.130765171030719,1
39,668,31,0.120627492767478,1
39,669,31,0.114176257159686,1
43,669,31,0.110179151328704,1
44,669,31,0.109859620667012,1
44,670,31,0.116453249140623,1
45,670,31,0.121273134992541,1
45,671,31,0.103395680572759,1
46,670,31,0.138249496661408,1
47,669,31,0.108403891753403,1
47,678,31,0.111755600748875,1
47,679,31,0.122068777159604,1
48,677,31,0.118388770402914,1
48,678,31,0.161875246003028,1
48,680,31,0.124345501442846,1
49,673,31,0.110867837112377,1
49,677,31,0.120464063324425,1
49,678,31,0.16026881444097,1
49,679,31,0.142105838120884,1
49,680,31,0.103248123372231,1
49,682,31,0.130803161795327,1
50,672,31,0.137131814166758,1
50,682,31,0.135761157349939,1
51,670,31,0.109159825428979,1
51,671,31,0.126631450142509,1
51,672,31,0.132475670071871,1
52,670,31,0.108218020320218,1
52,671,31,0.123000287061162,1
52,672,31,0.117386197917294,1
60,675,31,0.124751833082278,1
61,675,31,0.120941189850224,1
64,676,31,0.131690267341657,1
64,677,31,0.109896797184463,1
65,676,31,0.138984360297541,1
65,677,31,0.133931666683175,1
66,676,31,0.106516477997793,1
66,677,31,0.122206407237261,1
67,677,31,0.112858180631875,1
67,678,31,0.107701341459922,1
69,680,31,0.10326756491736,1
69,681,31,0.103136493433242,1
70,680,31,0.122147602976834,1
70,681,31,0.139280110480624,1
70,682,31,0.143660916341704,1
36,668,32,0.165330754779899,1
36,669,32,0.129204348463518,1
37,668,32,0.16020039537165,1
37,669,32,0.129713531788343,1
38,667,32,0.140006608563774,1
38,668,32,0.153137381297265,1
38,669,32,0.13685645362481,1
39,667,32,0.103447658541952,1
39,668,32,0.129525106072981,1
39,669,32,0.125274178210461,1
40,668,32,0.103153258001417,1
42,668,32,0.107120192071312,1
42,669,32,0.129095183574141,1
43,669,32,0.142198004206602,1
43,670,32,0.113667542305828,1
44,669,32,0.115421687225404,1
44,670,32,0.105599669161341,1
46,670,32,0.119945856356451,1
46,671,32,0.115628149072994,1
47,677,32,0.109700117456825,1
47,678,32,0.133312080367131,1
48,677,32,0.13974104129585,1
49,677,32,0.144515920472726,1
49,678,32,0.194931371680314,1
49,680,32,0.138005969837073,1
50,677,32,0.10578508327763,1
50,678,32,0.124944296571212,1
50,679,32,0.11431487994963,1
50,681,32,0.120835627725664,1
51,671,32,0.152778097527803,1
51,672,32,0.126088737681333,1
51,682,32,0.120711036756589,1
52,671,32,0.15274036330682,1
52,672,32,0.120639026076522,1
53,670,32,0.115780725605311,1
53,671,32,0.112194781126349,1
59,675,32,0.108752746466814,1
60,674,32,0.111451183852903,1
60,675,32,0.151586017381968,1
60,676,32,0.126546500740496,1
61,675,32,0.140847335484374,1
61,676,32,0.120553307043635,1
64,676,32,0.142296115411972,1
64,677,32,0.133593809883417,1
65,676,32,0.164882929997677,1
65,677,32,0.176239424714083,1
65,678,32,0.126622326112723,1
66,676,32,0.117405037142609,1
66,677,32,0.141509619582836,1
66,678,32,0.121427563100585,1
67,678,32,0.122217237839854,1
67,684,32,0.104180804451206,1
68,679,32,0.120898012442767,1
69,680,32,0.119614279298464,1
69,681,32,0.115394103208705,1
69,682,32,0.10544285408218,1
38,668,33,0.147897990848487,1
38,669,33,0.133663991295899,1
39,668,33,0.129872666914198,1
39,669,33,0.124510894002331,1
42,668,33,0.130416505936509,1
42,669,33,0.172549992767701,1
42,670,33,0.121705667543912,1
43,668,33,0.123700271918396,1
43,669,33,0.164675910446555,1
43,670,33,0.122479124264467,1
44,669,33,0.120877265871373,1
45,669,33,0.104977483946838,1
46,669,33,0.11070762004167,1
46,670,33,0.107717581786777,1
47,669,33,0.123598524485996,1
47,670,33,0.134986339832766,1
47,672,33,0.127470258562958,1
47,677,33,0.121268851829415,1
48,673,33,0.122611668085911,1
49,673,33,0.128892491802427,1
49,677,33,0.15188191256797,1
50,673,33,0.109094707964569,1
50,677,33,0.121466457344915,1
50,678,33,0.144682696136971,1
50,680,33,0.131443539299048,1
51,672,33,0.129527035727202,1
52,671,33,0.168089245682326,1
52,672,33,0.117458543219481,1
53,671,33,0.125633049279309,1
53,682,33,0.120760616600594,1
55,682,33,0.104471312221087,1
59,675,33,0.121240342024853,1
59,676,33,0.117907673027967,1
60,674,33,0.119606337600167,1
60,675,33,0.162856246516026,1
60,676,33,0.15627435212473,1
60,677,33,0.112664769046936,1
61,674,33,0.109339930207642,1
61,675,33,0.141354667233472,1
61,676,33,0.139885664975799,1
61,677,33,0.113035931901633,1
63,687,33,0.10700122275384,1
64,676,33,0.127711610343518,1
64,677,33,0.15570847265883,1
64,678,33,0.138930162668289,1
64,686,33,0.102999075282927,1
65,676,33,0.157948856979918,1
65,677,33,0.20265942490861,1
65,678,33,0.16845429610631,1
65,685,33,0.111865111414442,1
65,687,33,0.105785864062575,1
65,688,33,0.11026658808847,1
66,676,33,0.117158097172657,1
66,677,33,0.150880109713223,1
66,678,33,0.135517485522686,1
66,684,33,0.133665697868707,1
66,685,33,0.129684564666885,1
67,683,33,0.113889117919139,1
67,684,33,0.124260217418714,1
68,683,33,0.110001600832219,1
43,670,34,0.117361569729316,1
46,669,34,0.116692515109973,1
47,670,34,0.117739971575859,1
47,671,34,0.106497437999206,1
47,677,34,0.124513113662389,1
48,672,34,0.131279853312371,1
49,672,34,0.157396094701094,1
49,673,34,0.11333488330299,1
50,673,34,0.117659985735282,1
50,677,34,0.123711548683815,1
51,673,34,0.103718557455644,1
52,672,34,0.117895202776989,1
53,671,34,0.137359926065466,1
53,677,34,0.104457436557208,1
54,671,34,0.112240412429347,1
54,677,34,0.108508104235415,1
57,677,34,0.108511071218206,1
57,678,34,0.112541438487844,1
58,675,34,0.103052380586527,1
58,676,34,0.107373913716214,1
58,677,34,0.104957406619682,1
59,672,34,0.104265686928794,1
59,675,34,0.126934428163368,1
59,676,34,0.138487881459177,1
59,677,34,0.111672491768519,1
60,673,34,0.10697013635896,1
60,674,34,0.119769900892067,1
60,675,34,0.157838375910206,1
60,676,34,0.18622196100876,1
60,677,34,0.151181938864807,1
61,674,34,0.11184059476717,1
61,675,34,0.132810537580696,1
61,676,34,0.162402153146104,1
61,677,34,0.149573666881093,1
62,677,34,0.107456431530827,1
63,677,34,0.114421758254525,1
63,678,34,0.108647005877124,1
63,686,34,0.106202635912128,1
64,676,34,0.120138654467504,1
64,677,34,0.183702200680291,1
64,678,34,0.171348665897303,1
65,676,34,0.136177951507633,1
65,677,34,0.203501222619991,1
65,678,34,0.184726400908887,1
65,679,34,0.107932052257089,1
65,685,34,0.117013295027578,1
65,686,34,0.105062310654074,1
66,676,34,0.108337948887765,1
66,677,34,0.142454179747045,1
66,678,34,0.133616809577081,1
66,683,34,0.107368693611154,1
66,684,34,0.142474970934723,1
66,685,34,0.136531345927796,1
67,682,34,0.106593541471861,1
67,683,34,0.128224965290763,1
67,684,34,0.128708371558333,1
68,680,34,0.108250958290825,1
68,683,34,0.111564085355946,1
69,681,34,0.114101814892219,1
47,677,35,0.126175438272436,1
48,671,35,0.119725106144367,1
49,672,35,0.125074743427375,1
49,676,35,0.102957314442442,1
49,677,35,0.147751493284669,1
50,673,35,0.120994205147987,1
50,677,35,0.125206227612107,1
50,678,35,0.1492020467095,1
51,673,35,0.117082305262642,1
52,672,35,0.130292316513976,1
52,673,35,0.109987758630551,1
53,672,35,0.125391998658656,1
53,673,35,0.109235617338994,1
53,676,35,0.120468201484634,1
53,677,35,0.130412847401338,1
53,678,35,0.103104447788286,1
54,671,35,0.139815773569154,1
54,672,35,0.111204255037022,1
54,676,35,0.117441633648387,1
54,677,35,0.137758728707214,1
54,678,35,0.114363600930196,1
55,671,35,0.11932649312182,1
55,677,35,0.107384309310053,1
55,678,35,0.108108922355265,1
56,671,35,0.110952674973683,1
56,674,35,0.108786967155545,1
56,677,35,0.123815158846012,1
56,678,35,0.136650103317926,1
57,671,35,0.114144055357742,1
57,672,35,0.104803558523312,1
57,674,35,0.112933582149418,1
57,675,35,0.118451456279925,1
57,676,35,0.124198803105757,1
57,677,35,0.156386272069556,1
57,678,35,0.165291503605308,1
57,679,35,0.115695898898076,1
58,671,35,0.129898466279594,1
58,672,35,0.11873404465965,1
58,674,35,0.109726998767074,1
58,675,35,0.128635267779343,1
58,676,35,0.135794954183986,1
58,677,35,0.134022773132182,1
58,678,35,0.122956763877515,1
59,672,35,0.122994141168238,1
59,673,35,0.108999340660576,1
59,674,35,0.111565501922917,1
59,675,35,0.136693057643969,1
59,676,35,0.155569593325261,1
59,677,35,0.130503083832835,1
60,672,35,0.109888632404752,1
60,673,35,0.117784978250901,1
60,674,35,0.12148719276224,1
60,675,35,0.152941571587138,1
60,676,35,0.203173404483811,1
60,677,35,0.184850356095936,1
60,678,35,0.117908743818749,1
61,673,35,0.117147177337498,1
61,674,35,0.118798269798408,1
61,675,35,0.132891148049229,1
61,676,35,0.176910698993483,1
61,677,35,0.178361542424151,1
61,678,35,0.123799186216852,1
62,676,35,0.110514241918943,1
62,677,35,0.118735383148127,1
63,677,35,0.126771322188364,1
63,678,35,0.113959555875246,1
64,676,35,0.118811955843087,1
64,677,35,0.194220321985003,1
64,678,35,0.170123368929096,1
65,676,35,0.115596148044321,1
65,677,35,0.184137399054545,1
65,678,35,0.169106597311548,1
65,679,35,0.105829431862504,1
65,685,35,0.106033707512249,1
65,686,35,0.106914343697607,1
66,677,35,0.127708397971173,1
66,678,35,0.125791526314996,1
66,683,35,0.108320972392247,1
66,684,35,0.128248266144335,1
66,685,35,0.119955080772872,1
67,677,35,0.11819265953288,1
67,682,35,0.115992084089914,1
67,683,35,0.128465636673014,1
68,680,35,0.118344801056442,1
68,681,35,0.104705224236528,1
47,677,36,0.120765189769558,1
49,672,36,0.111618372217762,1
49,677,36,0.143684384506336,1
50,673,36,0.119984717138569,1
50,677,36,0.11958468754905,1
50,678,36,0.135976899384304,1
51,673,36,0.129010055706998,1
52,672,36,0.145817299356785,1
52,673,36,0.130850811985111,1
53,672,36,0.148873258169174,1
53,673,36,0.132320516949235,1
53,677,36,0.140196060453635,1
54,672,36,0.134638466677571,1
54,677,36,0.153832335668639,1
54,681,36,0.10440451049201,1
55,671,36,0.14496692416508,1
56,671,36,0.137204315625934,1
56,677,36,0.151190148260799,1
57,671,36,0.145765488698651,1
57,672,36,0.122546294077876,1
57,674,36,0.136838975196113,1
57,675,36,0.140516193435142,1
57,676,36,0.147729151681173,1
57,677,36,0.193488726491569,1
57,678,36,0.201173011146664,1
58,672,36,0.140707418822235,1
58,673,36,0.119672291619875,1
58,674,36,0.147794503381067,1
58,675,36,0.16543582612535,1
58,676,36,0.160791650348261,1
58,677,36,0.155174359986119,1
59,672,36,0.146189622234828,1
59,673,36,0.121836705565819,1
59,674,36,0.133820014436044,1
59,675,36,0.153540578642846,1
59,676,36,0.165610420793115,1
59,677,36,0.147336494932349,1
60,672,36,0.130816769761511,1
60,673,36,0.127478668732222,1
60,674,36,0.127556401450529,1
60,675,36,0.152661202867471,1
60,676,36,0.202089875753469,1
60,677,36,0.205325203175858,1
60,678,36,0.151511887428479,1
61,673,36,0.128337286782132,1
61,674,36,0.129314673376242,1
61,675,36,0.145604178529021,1
61,676,36,0.184489655759503,1
61,677,36,0.19374694322694,1
61,678,36,0.152178164684231,1
62,675,36,0.12210273015064,1
62,676,36,0.129699477659333,1
62,677,36,0.131070424481989,1
62,678,36,0.113716464059666,1
63,676,36,0.109302307527365,1
63,677,36,0.130703243630513,1
63,678,36,0.111137062915472,1
64,676,36,0.116699999491374,1
64,677,36,0.176528683228052,1
64,678,36,0.145380160174239,1
65,677,36,0.15484672031507,1
65,678,36,0.139089007788308,1
66,677,36,0.112094673342333,1
66,678,36,0.113499885470003,1
