x,y,z,signal,mito.p
929,662,34,0.114890084218587,1
930,662,34,0.114638091454634,1
942,671,34,0.140707541517013,1
944,674,34,0.143073844141583,1
944,675,34,0.124951959417743,1
944,684,34,0.107992630014747,1
944,685,34,0.12161672498461,1
923,661,35,0.11563329109956,1
928,663,35,0.136989019754395,1
928,665,35,0.103427960453198,1
929,662,35,0.138670752447359,1
929,663,35,0.14784127239927,1
930,662,35,0.135379074660084,1
930,663,35,0.146240719032441,1
931,662,35,0.104899316219777,1
931,663,35,0.111366468686374,1
931,664,35,0.112207608307588,1
932,665,35,0.106063856965195,1
933,665,35,0.109681534775135,1
934,665,35,0.111846272189127,1
934,666,35,0.107131903845486,1
935,665,35,0.10979153621981,1
935,666,35,0.116279870266558,1
935,667,35,0.110629374236113,1
936,666,35,0.105339121225206,1
936,667,35,0.111975135167259,1
941,687,35,0.104304759638255,1
941,688,35,0.134602818267798,1
942,673,35,0.139098923757109,1
943,674,35,0.145020597553011,1
943,675,35,0.111178734523392,1
943,686,35,0.116027498264204,1
944,676,35,0.123750052535673,1
944,677,35,0.103267609533643,1
944,681,35,0.108228315527421,1
944,682,35,0.111725083211598,1
944,685,35,0.103198643914861,1
944,686,35,0.127363525260981,1
922,664,36,0.113641954867775,1
923,663,36,0.124752770024211,1
923,664,36,0.124737444331149,1
924,663,36,0.139585185466763,1
924,664,36,0.117671106343713,1
925,664,36,0.119896276512445,1
927,664,36,0.144612392029712,1
928,664,36,0.15192897159201,1
928,665,36,0.103574101086754,1
929,661,36,0.147112130801377,1
929,664,36,0.148487873874409,1
929,665,36,0.109765725700344,1
930,662,36,0.150802354686775,1
930,663,36,0.160455857051572,1
930,664,36,0.150382995092834,1
930,665,36,0.123269869794518,1
931,662,36,0.114521397567574,1
931,663,36,0.131448179392435,1
931,664,36,0.138170559303472,1
931,665,36,0.130423321073671,1
932,663,36,0.112010839347385,1
932,664,36,0.131476466115584,1
932,665,36,0.139332155374241,1
932,666,36,0.103135523029096,1
933,663,36,0.113313489795498,1
933,664,36,0.135850568380209,1
933,665,36,0.15519313228701,1
933,666,36,0.120524719160579,1
934,663,36,0.115892578625713,1
934,666,36,0.161504384308239,1
935,667,36,0.133092334021406,1
936,664,36,0.113073677276686,1
936,665,36,0.140233315049581,1
936,666,36,0.152496256470811,1
936,667,36,0.134976122704057,1
936,668,36,0.112698699729831,1
937,666,36,0.103839244499995,1
937,667,36,0.103090204040076,1
941,669,36,0.105301264309446,1
941,671,36,0.125155688518026,1
941,688,36,0.108580984932992,1
941,689,36,0.11871320885569,1
942,670,36,0.156408457516063,1
942,687,36,0.108823184422921,1
943,675,36,0.118922771534919,1
944,676,36,0.151140958809266,1
944,677,36,0.117279877315931,1
944,681,36,0.106479636102461,1
944,682,36,0.105105343058612,1
923,664,37,0.104291597834897,1
924,664,37,0.108595819846947,1
931,662,37,0.128367570083926,1
931,666,37,0.103669613393665,1
932,662,37,0.12439228161512,1
932,666,37,0.116418928065257,1
933,663,37,0.136590038647516,1
934,667,37,0.10831267376369,1
937,665,37,0.110863654335886,1
938,666,37,0.107095764656605,1
941,689,37,0.114988719665278,1
941,690,37,0.110695919421566,1
942,669,37,0.127215243045861,1
942,670,37,0.178406192168932,1
943,670,37,0.151726547517992,1
943,675,37,0.126239696873407,1
943,687,37,0.130032259356949,1
944,677,37,0.128720172565073,1
944,681,37,0.105303997056753,1
944,686,37,0.110490784908382,1
945,685,37,0.138305066241349,1
938,665,38,0.130282579010306,1
939,666,38,0.120235014483784,1
941,691,38,0.118145544738487,1
943,670,38,0.153843891285824,1
940,667,42,0.137714101270574,1
941,668,42,0.11800131145101,1
944,685,42,0.137612141910832,1
902,685,43,0.13627200263129,1
902,686,43,0.161114728004418,1
902,687,43,0.122481923936198,1
903,685,43,0.150411081042711,1
903,687,43,0.170879235680248,1
904,685,43,0.110404162395773,1
904,686,43,0.156075251963763,1
904,687,43,0.131516866159451,1
904,696,43,0.140239795564624,1
905,695,43,0.12383786853384,1
907,694,43,0.128115967712446,1
908,694,43,0.12830374649171,1
909,695,43,0.158996034594038,1
909,696,43,0.173277673182339,1
910,696,43,0.123879250135924,1
932,667,43,0.156845061303218,1
933,668,43,0.117154572486334,1
934,668,43,0.111999674122672,1
935,668,43,0.126484015636758,1
936,693,43,0.130271045701261,1
937,692,43,0.104084031734313,1
938,669,43,0.121502641150079,1
939,669,43,0.152113125298316,1
939,691,43,0.111662575799718,1
940,667,43,0.146421448439059,1
940,668,43,0.177485100169354,1
940,670,43,0.116918329270128,1
940,690,43,0.129164149192923,1
941,668,43,0.143511016786341,1
941,669,43,0.147059784747852,1
941,670,43,0.1266404960938,1
941,671,43,0.119458601934508,1
941,672,43,0.112483113852454,1
941,689,43,0.131588107208644,1
942,673,43,0.146454832572492,1
943,675,43,0.105389504162298,1
943,685,43,0.106138488851863,1
943,686,43,0.123002138636889,1
944,676,43,0.134389831288881,1
944,677,43,0.12312492264652,1
944,678,43,0.120853875785235,1
944,679,43,0.125876286097807,1
944,680,43,0.131529604108125,1
944,681,43,0.135210848966656,1
944,682,43,0.140797800256651,1
944,683,43,0.141406355196829,1
945,679,43,0.175340897399415,1
902,685,44,0.118220143162943,1
903,685,44,0.129090387323765,1
903,686,44,0.197177890740256,1
903,687,44,0.174171816947245,1
904,686,44,0.14082348808134,1
904,687,44,0.132940805971729,1
904,696,44,0.126919994795957,1
904,697,44,0.123369520261637,1
905,695,44,0.119568625687325,1
905,696,44,0.193993782810257,1
906,695,44,0.213618321622898,1
907,687,44,0.113062177429854,1
907,694,44,0.131926220552027,1
908,694,44,0.148766837181175,1
909,694,44,0.122439884243947,1
909,695,44,0.226548878788357,1
910,695,44,0.132707172808053,1
910,696,44,0.150738932641103,1
911,696,44,0.1187092156984,1
911,697,44,0.174687614635961,1
911,700,44,0.169331764535606,1
911,701,44,0.127677021570456,1
912,697,44,0.112332355433652,1
912,698,44,0.13964606438433,1
912,699,44,0.14631815059084,1
912,700,44,0.115589979843256,1
926,697,44,0.106445683111425,1
926,698,44,0.116580572857006,1
927,697,44,0.144728650908017,1
927,698,44,0.143701349847783,1
928,697,44,0.171676673652684,1
928,698,44,0.16327946541841,1
929,696,44,0.112581871993922,1
929,697,44,0.198375190991152,1
930,696,44,0.115032053229724,1
931,667,44,0.103271569228721,1
931,696,44,0.125826806640438,1
932,667,44,0.169437806285203,1
932,668,44,0.113118505486598,1
932,695,44,0.106878126430231,1
933,668,44,0.146741759885697,1
934,668,44,0.141019610105445,1
934,694,44,0.117549025040532,1
936,669,44,0.113855376855446,1
936,693,44,0.124339879791242,1
937,669,44,0.127838153274956,1
938,669,44,0.160087683487808,1
938,670,44,0.106655413101714,1
939,670,44,0.129028359536922,1
939,691,44,0.11817042947009,1
940,667,44,0.16220692344765,1
940,670,44,0.144082562520128,1
940,671,44,0.107817042634695,1
941,673,44,0.13497738311404,1
942,674,44,0.131145904078026,1
942,687,44,0.117088975396886,1
943,675,44,0.112411627413707,1
943,685,44,0.122171539612433,1
943,686,44,0.14390879325359,1
944,676,44,0.141869606058748,1
944,677,44,0.136510476661624,1
944,678,44,0.13503971206079,1
944,679,44,0.13725009193185,1
944,680,44,0.140018889195551,1
944,681,44,0.143798624497855,1
944,682,44,0.149384806156976,1
904,686,45,0.112353592784155,1
904,687,45,0.112951573665364,1
904,696,45,0.109091975217261,1
905,695,45,0.11730156082926,1
905,696,45,0.157857471679145,1
905,697,45,0.118099210729038,1
906,695,45,0.185264941747643,1
906,696,45,0.235838925761272,1
906,697,45,0.147316774535453,1
906,698,45,0.119088666027583,1
906,699,45,0.18743376155149,1
907,687,45,0.114003681378707,1
907,688,45,0.107122958280831,1
907,694,45,0.122183764473857,1
907,695,45,0.277499334994308,1
907,697,45,0.170347108432112,1
907,698,45,0.170253882709682,1
908,687,45,0.109052355958339,1
908,688,45,0.109658825087307,1
908,694,45,0.149733437788974,1
908,695,45,0.332831355538143,1
908,697,45,0.183690321595057,1
909,694,45,0.142804161021592,1
909,695,45,0.284493807304596,1
909,696,45,0.246732593470443,1
910,694,45,0.103943758141914,1
910,695,45,0.181285760508183,1
910,696,45,0.178085178015844,1
910,701,45,0.190268925535514,1
911,695,45,0.103407291960298,1
911,696,45,0.135697211062946,1
911,701,45,0.151431912741973,1
911,702,45,0.179993918354523,1
912,697,45,0.140629819952776,1
912,700,45,0.140912162942947,1
912,701,45,0.122697454043221,1
916,701,45,0.115842731084012,1
917,700,45,0.106494225626861,1
917,701,45,0.148747964493648,1
918,700,45,0.114518564433631,1
918,701,45,0.14606984982427,1
919,701,45,0.11220939295889,1
920,700,45,0.10618879371046,1
921,700,45,0.106076974152271,1
924,699,45,0.12244548358741,1
925,698,45,0.118213595723476,1
925,699,45,0.124124606227844,1
926,697,45,0.118543020045828,1
926,698,45,0.158390056244178,1
926,699,45,0.108951445081238,1
927,697,45,0.167672273059502,1
927,698,45,0.192675817823152,1
927,699,45,0.106748493821225,1
928,697,45,0.191420494096775,1
928,698,45,0.185535260649661,1
928,699,45,0.116747883916642,1
929,696,45,0.113736586003105,1
929,697,45,0.214143589117589,1
930,696,45,0.122739359886625,1
931,696,45,0.138581073719394,1
932,668,45,0.129712806773751,1
932,695,45,0.103273420804448,1
933,668,45,0.174983911368505,1
933,669,45,0.105658205724073,1
933,695,45,0.15640613746937,1
934,669,45,0.124889808936124,1
934,694,45,0.110503723630327,1
935,669,45,0.143625992946523,1
936,669,45,0.142461775669153,1
936,693,45,0.110199875591958,1
938,670,45,0.138758334210043,1
938,692,45,0.122369725139607,1
939,671,45,0.105607532781144,1
940,671,45,0.13121281734781,1
940,672,45,0.10981948832084,1
941,688,45,0.10453960859563,1
942,686,45,0.106167656746593,1
942,687,45,0.142640408110491,1
943,675,45,0.121232567637615,1
943,676,45,0.111171183217567,1
943,677,45,0.109169105615753,1
943,683,45,0.105857395117605,1
944,675,45,0.153680785310821,1
944,676,45,0.148573771372426,1
944,677,45,0.152925364722494,1
944,678,45,0.152312035840081,1
944,679,45,0.149180898591562,1
944,680,45,0.144211369727906,1
944,681,45,0.147206126154681,1
944,682,45,0.153402000469185,1
945,677,45,0.18286421766107,1
905,696,46,0.126148233494139,1
906,695,46,0.154496493650969,1
906,696,46,0.168128664167976,1
906,697,46,0.111177674886681,1
907,694,46,0.112390211598074,1
907,695,46,0.213184807513311,1
907,696,46,0.223185123396591,1
907,697,46,0.138939833247536,1
907,698,46,0.125729833150273,1
908,687,46,0.123778618110588,1
908,688,46,0.129782664718184,1
908,692,46,0.119011926021563,1
908,694,46,0.13876539473676,1
908,695,46,0.285719327354216,1
908,696,46,0.262307602320082,1
908,697,46,0.162550256896093,1
909,687,46,0.117476869357546,1
909,688,46,0.105291627192411,1
909,691,46,0.108979553339257,1
909,692,46,0.108605992359372,1
909,694,46,0.150254221347267,1
909,695,46,0.304574212984391,1
909,696,46,0.248574018992795,1
909,697,46,0.179915817551885,1
910,694,46,0.118974035643591,1
910,695,46,0.225014569447073,1
910,696,46,0.201002688487955,1
911,695,46,0.126048415715961,1
911,696,46,0.152140441617319,1
911,701,46,0.16996195837283,1
911,702,46,0.196785780540894,1
912,696,46,0.121121417323664,1
912,697,46,0.174939417780713,1
912,700,46,0.159069472995147,1
912,701,46,0.133927126976423,1
912,702,46,0.180019461176294,1
913,697,46,0.119561475928043,1
913,698,46,0.118073779447973,1
913,699,46,0.105494084728641,1
913,701,46,0.110896168451809,1
916,701,46,0.159935508502034,1
917,700,46,0.126992395868497,1
917,701,46,0.226625217247834,1
917,702,46,0.175787484079795,1
918,700,46,0.127717231995121,1
918,701,46,0.202275724878512,1
918,702,46,0.144479290504736,1
919,700,46,0.123043854861091,1
919,701,46,0.151311749938943,1
919,702,46,0.103237315077778,1
920,700,46,0.159452659937996,1
920,701,46,0.16917938877656,1
921,700,46,0.166560044905396,1
921,701,46,0.169033861616889,1
922,700,46,0.128058490786425,1
923,699,46,0.13406563822566,1
923,700,46,0.130797897073984,1
924,698,46,0.104552268465809,1
924,699,46,0.162095304662732,1
924,700,46,0.126459543605768,1
925,684,46,0.106886123898881,1
925,698,46,0.134454937599221,1
925,699,46,0.141678581444927,1
926,697,46,0.118838915231829,1
926,698,46,0.180574454269247,1
926,699,46,0.118433208220354,1
927,697,46,0.160498264828155,1
927,698,46,0.209964984249114,1
927,699,46,0.119550232624836,1
928,697,46,0.177127255275005,1
928,698,46,0.194583543141402,1
928,699,46,0.139875994396552,1
929,697,46,0.196256006801663,1
929,699,46,0.188029768162196,1
930,696,46,0.118458260263017,1
931,696,46,0.136664380528348,1
932,668,46,0.136641168907341,1
932,696,46,0.155926768975372,1
933,669,46,0.135459952826312,1
933,695,46,0.137277073628734,1
937,670,46,0.115693255383334,1
937,693,46,0.121167126705156,1
938,671,46,0.103467133549294,1
938,692,46,0.108834215798786,1
939,671,46,0.133893441683083,1
939,691,46,0.128395131792483,1
940,672,46,0.148239182715367,1
940,673,46,0.11770180234612,1
940,690,46,0.145105703112012,1
941,674,46,0.126556427863368,1
941,688,46,0.11017560433424,1
941,689,46,0.163927539230874,1
942,675,46,0.126341600462796,1
942,676,46,0.10294667345905,1
942,686,46,0.118140413865991,1
943,675,46,0.138628032356799,1
943,676,46,0.131532325701361,1
943,677,46,0.137596247360166,1
943,678,46,0.141445684449914,1
943,679,46,0.134203257149246,1
943,680,46,0.129975362442602,1
943,681,46,0.135438280467054,1
943,682,46,0.126234655233477,1
944,675,46,0.154825427194213,1
944,676,46,0.156748913214281,1
944,677,46,0.174419705013202,1
944,678,46,0.179991308301993,1
944,679,46,0.166224050835435,1
944,680,46,0.152468672454112,1
944,681,46,0.15210069966362,1
945,676,46,0.188926243127866,1
945,677,46,0.180285429990762,1
945,678,46,0.177903545129504,1
945,679,46,0.181324710522866,1
945,680,46,0.168597101672745,1
907,696,47,0.153629933902762,1
907,697,47,0.119879210784362,1
907,699,47,0.142569713610759,1
908,691,47,0.105143489980209,1
908,692,47,0.118587959796446,1
908,694,47,0.118392986641617,1
908,695,47,0.208069126862027,1
908,696,47,0.199361701615047,1
908,697,47,0.156809000192832,1
908,698,47,0.155673738882849,1
909,691,47,0.118177757694502,1
909,692,47,0.11296087616028,1
909,694,47,0.134519285432757,1
909,695,47,0.265011884439188,1
909,696,47,0.226314777153715,1
909,697,47,0.186048035585233,1
910,686,47,0.129030300345214,1
910,687,47,0.150904626360495,1
910,688,47,0.107805364322732,1
910,694,47,0.119769990124632,1
910,695,47,0.234695231973884,1
910,696,47,0.212671564106772,1
911,695,47,0.144213042838502,1
911,696,47,0.17170212724189,1
912,696,47,0.15455155014366,1
912,697,47,0.218961143768743,1
912,701,47,0.147674686354226,1
912,702,47,0.187252039432584,1
913,696,47,0.121005069212793,1
913,697,47,0.152558295411724,1
913,698,47,0.139228522903903,1
913,699,47,0.115613425699746,1
913,701,47,0.118879538357109,1
915,701,47,0.104673223207855,1
916,701,47,0.177390614036943,1
916,702,47,0.189988467583281,1
917,700,47,0.126263555430511,1
917,701,47,0.262116176159718,1
917,702,47,0.247165884498617,1
918,700,47,0.119736951767389,1
918,701,47,0.217492576519825,1
918,702,47,0.185886926188874,1
919,700,47,0.120102861054813,1
919,701,47,0.160864475275485,1
919,702,47,0.118282750961459,1
920,700,47,0.173359912145186,1
920,701,47,0.209297167731613,1
920,702,47,0.128288721958555,1
921,681,47,0.104132908871867,1
921,700,47,0.185127066280432,1
921,701,47,0.217272372857203,1
921,702,47,0.126906877608881,1
922,700,47,0.154232209101168,1
922,701,47,0.1422922672576,1
923,680,47,0.109127958249154,1
923,681,47,0.110022603947238,1
923,699,47,0.160684058182845,1
923,700,47,0.184497229373469,1
923,701,47,0.122137140458572,1
924,684,47,0.121215434985108,1
924,698,47,0.104766683165768,1
924,699,47,0.172029889607717,1
924,700,47,0.153539530160205,1
925,684,47,0.137983661695788,1
925,685,47,0.108563272268812,1
925,698,47,0.132659422231633,1
925,699,47,0.129708043985587,1
926,697,47,0.106091005973139,1
926,698,47,0.168721469560407,1
926,699,47,0.108767514456345,1
927,697,47,0.127121069227427,1
927,698,47,0.180691460470286,1
927,699,47,0.116145374482752,1
928,697,47,0.13567453483733,1
928,698,47,0.175976445190548,1
928,699,47,0.153950546509307,1
929,697,47,0.149491874081072,1
929,698,47,0.183097493894485,1
930,697,47,0.163452375821508,1
931,696,47,0.115494523306698,1
931,697,47,0.170567412481369,1
932,669,47,0.122085664422557,1
932,696,47,0.121893279012117,1
933,669,47,0.163323869773637,1
933,695,47,0.111695457999972,1
934,670,47,0.118450932038605,1
935,670,47,0.119286951941393,1
936,670,47,0.115605238611895,1
937,670,47,0.140514743405959,1
938,671,47,0.135058082815138,1
939,672,47,0.139416045139542,1
939,673,47,0.110450451788939,1
939,691,47,0.127202683562317,1
940,673,47,0.18278746650098,1
940,674,47,0.124638931579235,1
940,690,47,0.13063114371788,1
941,674,47,0.163957298291348,1
941,675,47,0.121447729660307,1
941,688,47,0.110932843036081,1
941,689,47,0.155912536381232,1
942,675,47,0.161615311540778,1
942,676,47,0.134020006922662,1
942,677,47,0.122986099083305,1
942,678,47,0.136985160445952,1
942,679,47,0.140758649468696,1
942,680,47,0.131121387430754,1
942,681,47,0.122705708055497,1
942,682,47,0.111260928869956,1
942,686,47,0.122118680471658,1
943,675,47,0.156904869430003,1
943,676,47,0.155155208446826,1
943,677,47,0.177852370253396,1
943,678,47,0.208217029838745,1
943,679,47,0.203714443834391,1
943,680,47,0.191402736816312,1
943,681,47,0.181674234480516,1
943,682,47,0.152097654602335,1
944,675,47,0.159853894167144,1
944,676,47,0.164816462890719,1
944,677,47,0.195688376146672,1
944,678,47,0.213231208447183,1
944,679,47,0.192390429771696,1
944,680,47,0.173527624751365,1
944,681,47,0.165239146397713,1
945,678,47,0.176430058935432,1
945,679,47,0.168456950775123,1
945,680,47,0.154072382422934,1
907,697,48,0.110566911440516,1
908,696,48,0.151624487771614,1
908,697,48,0.166186004300474,1
908,698,48,0.147232170909631,1
909,694,48,0.111517952119769,1
909,695,48,0.190833745364703,1
909,696,48,0.196679549172096,1
909,697,48,0.210160916654018,1
910,691,48,0.107544593305184,1
910,694,48,0.111789999902736,1
910,695,48,0.205662703045356,1
910,696,48,0.211037581990227,1
911,695,48,0.161639883958403,1
911,696,48,0.205054493881368,1
912,695,48,0.12622794048295,1
912,696,48,0.209723342462717,1
912,697,48,0.2755166320132,1
912,701,48,0.158282966011941,1
913,696,48,0.149025712006715,1
913,697,48,0.183265106114028,1
913,698,48,0.157901396409335,1
913,699,48,0.122615248542587,1
913,701,48,0.118497466821325,1
915,701,48,0.1165332349812,1
916,701,48,0.18020465221117,1
916,702,48,0.240971025204541,1
917,700,48,0.112143885102008,1
917,701,48,0.244414844515378,1
917,702,48,0.29159049551825,1
918,701,48,0.192317504457836,1
918,702,48,0.208537776294138,1
919,700,48,0.108353207656404,1
919,701,48,0.156672697449582,1
919,702,48,0.136865588808666,1
920,680,48,0.116179606325554,1
920,681,48,0.116747248134616,1
920,700,48,0.156486145618088,1
920,701,48,0.218118052185167,1
920,702,48,0.149692056186891,1
921,679,48,0.102956589427851,1
921,680,48,0.125451126387131,1
921,681,48,0.128398444551464,1
921,700,48,0.167795837854078,1
921,701,48,0.227308961778212,1
921,702,48,0.146058260744872,1
922,680,48,0.117420496684519,1
922,681,48,0.125663667203222,1
922,700,48,0.15774399016443,1
922,701,48,0.152600692034236,1
923,680,48,0.129327400170845,1
923,681,48,0.13449137794801,1
923,699,48,0.153915277337936,1
923,700,48,0.203270467206542,1
923,701,48,0.137018511117173,1
924,680,48,0.104341188832973,1
924,684,48,0.124660313932657,1
924,699,48,0.145873192404774,1
924,700,48,0.152145092864777,1
924,701,48,0.106655123095877,1
925,684,48,0.149953474140536,1
925,685,48,0.108662275799834,1
925,698,48,0.113962277468483,1
925,699,48,0.105187905489507,1
926,698,48,0.129913736202303,1
927,698,48,0.128639528634329,1
928,698,48,0.141201867619742,1
928,699,48,0.148590469016178,1
929,697,48,0.103121223510532,1
929,698,48,0.155046902420888,1
930,697,48,0.113125320623761,1
931,669,48,0.107692038965006,1
932,669,48,0.136516745249325,1
932,670,48,0.110493796507455,1
933,669,48,0.181366002892384,1
933,670,48,0.123052298492568,1
934,670,48,0.139499756439713,1
936,670,48,0.135364998222933,1
937,671,48,0.131159422811645,1
938,671,48,0.181738916936171,1
938,672,48,0.116049951408407,1
939,673,48,0.149153548810347,1
939,674,48,0.111868926106602,1
940,674,48,0.178783244372928,1
940,675,48,0.115847750415801,1
941,675,48,0.160380779002078,1
941,676,48,0.127895808666106,1
941,677,48,0.111084359931687,1
941,678,48,0.112007336969203,1
941,679,48,0.110016513824667,1
941,688,48,0.10547184351178,1
942,675,48,0.188598291142838,1
942,676,48,0.16938654217653,1
942,677,48,0.179122506585586,1
942,678,48,0.214759985369429,1
942,679,48,0.216381608775702,1
942,680,48,0.190428696443395,1
942,681,48,0.15544368617585,1
942,682,48,0.124400636014031,1
942,683,48,0.110377827634986,1
942,686,48,0.117671429811761,1
942,687,48,0.137705758025733,1
943,675,48,0.168301329181521,1
943,676,48,0.174705717692614,1
943,677,48,0.226196900935166,1
943,678,48,0.291107858881554,2
943,679,48,0.288171527476804,2
943,680,48,0.260547958443681,1
943,681,48,0.216220856309603,1
943,682,48,0.16226509192605,1
944,675,48,0.16094927967458,1
944,676,48,0.164279907476538,1
944,677,48,0.204121478180273,1
944,678,48,0.236278619225995,1
944,679,48,0.21537294616751,1
944,680,48,0.193047069910413,1
944,681,48,0.169961523364075,1
907,697,49,0.105098260223754,1
908,697,49,0.170213047657061,1
908,698,49,0.147227251964477,1
909,696,49,0.163101970692278,1
909,697,49,0.227666806672561,1
910,694,49,0.104509949921792,1
910,695,49,0.162340203437756,1
910,696,49,0.197218714638808,1
911,691,49,0.120535304373618,1
911,692,49,0.105843463683372,1
911,695,49,0.178205117737462,1
912,695,49,0.161109307126086,1
912,696,49,0.260723345050461,1
913,695,49,0.103926458178348,1
913,696,49,0.163196166818853,1
913,697,49,0.192225126444776,1
913,698,49,0.166737963486213,1
913,699,49,0.128552660732166,1
913,700,49,0.111080734858728,1
913,701,49,0.117403352877942,1
915,701,49,0.13022187855787,1
916,701,49,0.163513812442607,1
916,702,49,0.25743798046717,1
917,675,49,0.123767965973124,1
917,701,49,0.181496594751465,1
917,702,49,0.27019854959604,1
918,675,49,0.137286509972498,1
918,676,49,0.11861581151084,1
918,701,49,0.145259517746171,1
919,675,49,0.118415071701489,1
919,676,49,0.125782123433444,1
919,701,49,0.147412855699967,1
920,677,49,0.108340547786225,1
920,678,49,0.121362467944316,1
920,679,49,0.11995313996458,1
920,680,49,0.136111696328017,1
920,681,49,0.124772100028635,1
920,700,49,0.118551463677304,1
920,701,49,0.194622693929357,1
920,702,49,0.174903222821478,1
921,678,49,0.117650973246203,1
921,679,49,0.120769283313484,1
921,680,49,0.139278336983391,1
921,681,49,0.135593678979244,1
921,700,49,0.128027013999073,1
921,701,49,0.190671029782172,1
922,680,49,0.129674726776578,1
922,681,49,0.134815236389111,1
922,700,49,0.1388450905715,1
922,701,49,0.140415762183078,1
923,680,49,0.136894154383581,1
923,681,49,0.139965003880278,1
923,699,49,0.119631478875395,1
923,700,49,0.176972737934396,1
923,701,49,0.132702610793161,1
924,680,49,0.107555948149098,1
924,684,49,0.10944182264296,1
924,700,49,0.125493891093974,1
925,673,49,0.10424876620363,1
925,683,49,0.108504133386266,1
925,684,49,0.136079081825459,1
928,698,49,0.108773303419008,1
930,671,49,0.104820144626357,1
931,669,49,0.115057741054413,1
931,670,49,0.132430061077014,1
931,671,49,0.120186527738701,1
932,670,49,0.157772187655014,1
932,671,49,0.135422631305943,1
933,670,49,0.168995257378395,1
933,671,49,0.125074241494196,1
936,671,49,0.119589673418627,1
937,671,49,0.165307587775174,1
937,672,49,0.11254503009859,1
938,672,49,0.152032860605973,1
939,674,49,0.138199838738908,1
939,675,49,0.107840109252783,1
940,675,49,0.164696902407504,1
940,676,49,0.11948900793108,1
941,675,49,0.206628199400161,1
941,676,49,0.168953016912873,1
941,677,49,0.157564688478853,1
941,678,49,0.155955368012499,1
941,679,49,0.142677004616268,1
941,680,49,0.121990352888918,1
941,681,49,0.102920472547111,1
942,675,49,0.203787569921523,1
942,676,49,0.205652307451517,1
942,677,49,0.260926438368718,2
942,678,49,0.306230280160808,2
942,679,49,0.283211178413286,2
942,680,49,0.238726736958728,1
942,681,49,0.17734403463794,1
942,682,49,0.129502753315414,1
942,683,49,0.11408828500453,1
942,684,49,0.105608603571926,1
943,675,49,0.175024132947242,1
943,676,49,0.192849330546065,1
943,677,49,0.280076773022069,2
943,678,49,0.363750483975125,2
943,679,49,0.351172506982671,2
943,680,49,0.308859294611219,2
943,681,49,0.22870893149268,1
943,682,49,0.159654024375303,1
943,683,49,0.138955025091751,1
944,676,49,0.159525473711149,1
944,677,49,0.201857447229423,1
944,678,49,0.243474957906768,2
944,679,49,0.229319349162655,2
944,680,49,0.206268391389379,1
944,681,49,0.166759156220433,1
909,696,50,0.13195736271726,1
909,697,50,0.217729265898856,1
910,695,50,0.131877678036591,1
910,696,50,0.187106835740962,1
911,694,50,0.108496961318843,1
911,695,50,0.192978516992245,1
912,695,50,0.189449435965417,1
913,676,50,0.103097108409803,1
913,695,50,0.114152766686914,1
913,696,50,0.165301743042158,1
913,698,50,0.167288439180556,1
913,699,50,0.134232960439367,1
913,700,50,0.120617175252133,1
914,676,50,0.115068694351784,1
916,701,50,0.140149536824986,1
917,676,50,0.106299185547608,1
917,701,50,0.118386762670199,1
918,675,50,0.172113266285769,1
918,676,50,0.148701206629516,1
919,675,50,0.147321013082297,1
919,676,50,0.143904052773567,1
919,677,50,0.105555655198587,1
920,675,50,0.116157978582578,1
920,676,50,0.105999442207235,1
920,677,50,0.110382534652797,1
920,678,50,0.13366609941525,1
920,679,50,0.138184501891775,1
920,680,50,0.147516131240044,1
920,681,50,0.124622010854071,1
920,701,50,0.150189572353824,1
921,674,50,0.120796811559829,1
921,678,50,0.125074921892505,1
921,679,50,0.137752036264828,1
921,680,50,0.150848655234012,1
921,681,50,0.137145132127105,1
922,674,50,0.121256058110388,1
922,679,50,0.11803603407292,1
922,680,50,0.143053833738851,1
922,681,50,0.136438644446687,1
922,700,50,0.105888091120012,1
923,673,50,0.112732708491219,1
923,674,50,0.115820344864233,1
923,679,50,0.110545986403991,1
923,680,50,0.141533556218435,1
923,681,50,0.134031462153212,1
923,700,50,0.124720333986783,1
924,673,50,0.126227739709678,1
924,674,50,0.116749724338298,1
924,677,50,0.112114795285772,1
924,680,50,0.106288946110758,1
924,681,50,0.104268006975488,1
925,673,50,0.14547271665243,1
925,674,50,0.120542565673606,1
925,677,50,0.106115645315188,1
925,683,50,0.124462797649721,1
925,684,50,0.114518954826103,1
926,673,50,0.123602807649123,1
926,683,50,0.111196859888186,1
926,684,50,0.103435712532294,1
928,672,50,0.104770274776515,1
929,671,50,0.109218272759145,1
929,672,50,0.111285423209087,1
930,670,50,0.121191989128618,1
930,671,50,0.147980363660181,1
930,672,50,0.111262434669493,1
931,670,50,0.182103197729281,1
931,671,50,0.198194561971169,1
931,672,50,0.121982377728408,1
932,670,50,0.232098028932945,1
932,671,50,0.233461346371282,1
932,672,50,0.132481938659572,1
933,670,50,0.226540870165636,1
933,671,50,0.185653594185106,1
933,672,50,0.103375168236848,1
934,671,50,0.122418524198667,1
935,671,50,0.120078723645943,1
936,671,50,0.152880648053289,1
936,672,50,0.120431181124171,1
936,673,50,0.105181279971546,1
937,672,50,0.150010114511259,1
937,673,50,0.117996347889574,1
938,673,50,0.136086666593496,1
938,674,50,0.107595076628911,1
938,675,50,0.103710783068406,1
939,674,50,0.175822496707541,1
939,675,50,0.16591488230537,1
939,676,50,0.136462424925297,1
940,676,50,0.17327525274901,1
940,677,50,0.110504839037391,1
940,680,50,0.10377561052698,1
941,676,50,0.196511769641493,1
941,677,50,0.195660580202631,2
941,678,50,0.188143874304867,2
941,679,50,0.16417125567441,2
941,680,50,0.147485167539941,1
941,681,50,0.121364631834021,1
941,682,50,0.106059852653834,1
942,675,50,0.199540523675586,1
942,676,50,0.219085355499416,2
942,677,50,0.332188256441186,2
942,678,50,0.373398866621497,2
942,679,50,0.312446242956539,2
942,680,50,0.255363122554414,2
942,681,50,0.176923972337548,1
942,682,50,0.121136821095221,1
942,683,50,0.104115965838562,1
943,675,50,0.171055046141713,1
943,676,50,0.195626961833715,2
943,677,50,0.316611172934407,2
943,678,50,0.400736356050784,2
943,679,50,0.370380352024254,2
943,680,50,0.313759500925832,2
943,681,50,0.209535619453806,1
944,677,50,0.187178489490768,2
944,678,50,0.231239879354003,2
944,679,50,0.224254821079337,2
910,696,51,0.18201862756567,1
911,694,51,0.121618331170782,1
911,695,51,0.198915672638199,1
912,676,51,0.118919581470715,1
912,691,51,0.103806763846284,1
912,692,51,0.115043954623099,1
912,693,51,0.111448640724797,1
912,694,51,0.123154581320358,1
912,695,51,0.203023471466237,1
913,676,51,0.128770979356849,1
913,695,51,0.123319360405958,1
913,696,51,0.166912848159815,1
913,699,51,0.148127407773459,1
914,676,51,0.147706308144497,1
914,684,51,0.105487604213597,1
914,696,51,0.103994832631385,1
914,697,51,0.108524757262884,1
915,676,51,0.124030265098351,1
918,676,51,0.174058313124388,1
919,675,51,0.173336220899141,1
919,676,51,0.161341244871024,1
919,677,51,0.111709612515617,1
919,679,51,0.109448749320829,1
919,680,51,0.106459770702647,1
920,675,51,0.141333586039958,1
920,676,51,0.115586823241264,1
920,677,51,0.110099132025916,1
920,678,51,0.141219814519405,1
920,679,51,0.161048450516661,1
920,680,51,0.157195544510944,1
920,681,51,0.119635182026848,1
921,674,51,0.136653047992575,1
921,675,51,0.103205079813622,1
921,678,51,0.133836890544926,1
921,679,51,0.166850675370054,1
921,680,51,0.171132332697194,1
921,681,51,0.137604378677664,1
922,674,51,0.14850646771017,1
922,678,51,0.105296780373047,1
922,679,51,0.148206032817417,1
922,680,51,0.16269049702628,1
922,681,51,0.136237146160532,1
923,674,51,0.148812736181869,1
923,679,51,0.128720864117453,1
923,680,51,0.145387309933521,1
923,681,51,0.132427294867495,1
923,682,51,0.109984546258206,1
924,673,51,0.152474628727835,1
924,674,51,0.140797655253732,1
924,677,51,0.123428737222677,1
924,678,51,0.103047316638456,1
924,680,51,0.107208610389294,1
924,681,51,0.120991182394843,1
924,682,51,0.134673668924518,1
924,683,51,0.112853986701314,1
925,673,51,0.172889745759468,1
925,674,51,0.137173407696184,1
925,677,51,0.125298315619331,1
925,678,51,0.109843369186086,1
925,682,51,0.13106834982485,1
925,683,51,0.136046155008923,1
926,672,51,0.104034652663579,1
926,673,51,0.145451746999622,1
926,682,51,0.112350781958353,1
926,683,51,0.13835198026247,1
926,684,51,0.11768686704553,1
927,672,51,0.109033672890013,1
927,673,51,0.105833079243604,1
927,682,51,0.111261386186852,1
927,683,51,0.14101118878211,1
927,684,51,0.124827167675396,1
928,672,51,0.12091090654843,1
928,682,51,0.108195924106276,1
928,683,51,0.115485800823456,1
929,671,51,0.120532660858876,1
929,672,51,0.129489903826034,1
930,670,51,0.136479077952766,1
930,671,51,0.186058375408719,1
930,672,51,0.14591966026307,1
931,670,51,0.22834742806316,1
931,672,51,0.172362794000109,1
932,672,51,0.172297531532781,1
933,671,51,0.224702590091205,1
933,672,51,0.118648225240127,1
934,671,51,0.148415818578059,1
935,671,51,0.162702744195845,1
935,672,51,0.115635968076514,1
936,672,51,0.150331061739923,1
936,673,51,0.133999572665246,1
937,673,51,0.17970998033225,1
937,674,51,0.126948314981318,1
938,673,51,0.191306700268081,1
938,674,51,0.143116765005415,1
938,675,51,0.135988878856174,1
938,676,51,0.128500013518734,1
939,676,51,0.215973481330897,1
939,677,51,0.120827496408166,1
939,680,51,0.122016174562455,1
939,681,51,0.12339562078694,1
939,683,51,0.105454387391224,1
940,677,51,0.134083997825938,1
940,679,51,0.107804762002918,1
940,680,51,0.144939529767582,1
940,681,51,0.138266305845866,1
940,682,51,0.121502774998927,1
940,683,51,0.122586972973508,1
941,676,51,0.201013976407445,1
941,677,51,0.207832705180691,2
941,678,51,0.196536598602743,2
941,679,51,0.170597428085468,1
941,680,51,0.17482911517613,1
941,681,51,0.14594276034337,1
941,682,51,0.114497137463927,1
942,675,51,0.184880539011094,1
942,676,51,0.205928370699916,2
942,677,51,0.341602872075035,2
942,678,51,0.36870106207276,2
942,679,51,0.283831969368959,2
942,680,51,0.231919920732928,1
942,681,51,0.159498837790455,1
942,682,51,0.107954248857667,1
943,677,51,0.307236645030447,2
943,678,51,0.374143133139181,2
943,679,51,0.330067599914372,2
943,680,51,0.268738682522223,2
944,678,51,0.203422921044082,2
944,679,51,0.199631786281582,2
911,676,52,0.125990615321892,1
912,676,52,0.13593567393921,1
912,693,52,0.160411553082981,1
912,694,52,0.154827156075163,1
912,695,52,0.199990724274854,1
913,676,52,0.151190639039908,1
913,690,52,0.104728893174432,1
913,691,52,0.112560511948642,1
913,692,52,0.118195057658068,1
913,693,52,0.117068362674339,1
913,694,52,0.116433774133282,1
913,695,52,0.133020680271599,1
913,696,52,0.166631743271485,1
914,676,52,0.169473845087448,1
914,696,52,0.121957325685746,1
914,697,52,0.122528938343956,1
915,676,52,0.14356396515968,1
915,696,52,0.119784311951337,1
915,697,52,0.117461733283684,1
916,676,52,0.114884852959456,1
917,676,52,0.138787000171594,1
918,677,52,0.109403385715526,1
919,676,52,0.172691716389283,1
919,677,52,0.119239837146999,1
919,678,52,0.115795393208206,1
919,679,52,0.133321873641155,1
919,680,52,0.113826889359026,1
920,675,52,0.15208837441556,1
920,676,52,0.125839600359464,1
920,677,52,0.11164646932171,1
920,678,52,0.1439193896207,1
920,679,52,0.183026297461574,1
920,680,52,0.167045035050998,1
920,681,52,0.112257232767875,1
921,675,52,0.114286548610198,1
921,678,52,0.143373319784261,1
921,679,52,0.207612256128515,1
921,680,52,0.209745516755154,1
921,681,52,0.141566505343112,1
922,675,52,0.103522602742599,1
922,678,52,0.121292944622002,1
922,679,52,0.190396639644369,1
922,680,52,0.200845103777919,1
922,681,52,0.141377243072452,1
923,674,52,0.165491005312818,1
923,678,52,0.103523160446131,1
923,679,52,0.142352789244906,1
923,680,52,0.150054117319943,1
923,681,52,0.132892531153989,1
923,682,52,0.117533085873584,1
924,673,52,0.15707914062972,1
924,674,52,0.151903384153956,1
924,677,52,0.120553507816907,1
924,678,52,0.10530133123387,1
924,680,52,0.104718464118381,1
924,681,52,0.138675994860561,1
924,682,52,0.169827942214062,1
924,683,52,0.123253328307755,1
925,673,52,0.171172208499741,1
925,674,52,0.13903921601696,1
925,677,52,0.129280207297957,1
925,678,52,0.117319530037065,1
925,681,52,0.129460256306266,1
925,682,52,0.168280013752523,1
925,683,52,0.143131901079277,1
926,672,52,0.105797207752418,1
926,673,52,0.146423590020623,1
926,674,52,0.106177740026454,1
926,678,52,0.103316319360138,1
926,681,52,0.113673398192916,1
926,682,52,0.145257510013455,1
926,683,52,0.163081469510437,1
926,684,52,0.123717270722055,1
927,672,52,0.116879936958977,1
927,673,52,0.118622526261367,1
927,681,52,0.103861898417469,1
927,682,52,0.138831839535577,1
927,683,52,0.184934625099639,1
927,684,52,0.152113515690788,1
928,672,52,0.135819638142317,1
928,673,52,0.116774820997244,1
928,682,52,0.117368909107798,1
928,683,52,0.136226661334129,1
928,684,52,0.106350326961504,1
929,671,52,0.133689065646703,1
929,672,52,0.15882696119124,1
929,673,52,0.122374164459722,1
930,670,52,0.15783255348533,1
930,672,52,0.211398505408073,1
930,673,52,0.127802549481465,1
931,673,52,0.126541157940659,1
933,672,52,0.136210309466567,1
934,671,52,0.184705910881117,1
934,672,52,0.121394379740424,1
935,672,52,0.151420613668412,1
936,672,52,0.171978424725773,1
936,673,52,0.145160503061079,1
936,688,52,0.104065739058459,1
937,673,52,0.217509396858353,1
937,674,52,0.149676618953122,1
938,674,52,0.172969441594208,1
938,676,52,0.159291784777121,1
938,677,52,0.103999762730609,1
939,677,52,0.147110680772194,1
939,680,52,0.133405919563446,1
939,681,52,0.134565552517782,1
939,682,52,0.110717803708166,1
939,683,52,0.127918864130124,1
940,677,52,0.151280351230084,1
940,679,52,0.113468810229193,1
940,680,52,0.168085241370966,1
940,681,52,0.159751287871305,1
940,682,52,0.126427832582932,1
940,683,52,0.135822303965201,1
940,684,52,0.102951492017567,1
941,676,52,0.196137862885419,1
941,677,52,0.194458282928088,1
941,678,52,0.18002356587429,1
941,679,52,0.161459232630279,1
941,680,52,0.183293080523199,1
941,681,52,0.156482063228233,1
941,682,52,0.108904497597904,1
942,677,52,0.289971415240083,2
942,678,52,0.306161414928662,2
942,679,52,0.226026511352033,1
943,678,52,0.300417670867647,2
943,679,52,0.253091350678538,2
911,676,53,0.120417294306222,1
911,695,53,0.167572154121416,1
912,676,53,0.140478247286817,1
912,677,53,0.11803118205219,1
912,694,53,0.19978890252065,1
912,695,53,0.199143951847966,1
913,676,53,0.164466938933069,1
913,677,53,0.127823039509235,1
913,693,53,0.154645445110328,1
913,694,53,0.164127063246525,1
913,695,53,0.154917035576399,1
913,696,53,0.161924803538892,1
914,676,53,0.177707545800176,1
914,677,53,0.119684973798196,1
914,690,53,0.106793612036973,1
914,691,53,0.112191635678428,1
914,694,53,0.107249969683236,1
914,695,53,0.116162674446319,1
914,696,53,0.131341535323023,1
914,697,53,0.123665047363307,1
915,676,53,0.153458953153885,1
915,694,53,0.117934320102732,1
915,695,53,0.12932384202231,1
915,696,53,0.144842467044852,1
915,697,53,0.128791993625939,1
916,676,53,0.124568504777199,1
916,693,53,0.114333998026711,1
916,694,53,0.14084154652171,1
916,695,53,0.122705674593285,1
917,676,53,0.136131896349951,1
918,676,53,0.170346026487259,1
918,677,53,0.122215977429872,1
919,675,53,0.173221925137269,1
919,676,53,0.171939563943655,1
919,677,53,0.129500567117568,1
919,678,53,0.133567687049972,1
919,679,53,0.155729843858181,1
919,680,53,0.118054349056914,1
920,675,53,0.148694469570848,1
920,676,53,0.13886314901187,1
920,677,53,0.121342624852644,1
920,678,53,0.147985104140204,1
920,679,53,0.20291761933584,1
920,680,53,0.175895076245211,1
920,681,53,0.104971929219659,1
921,674,53,0.113230124271516,1
921,675,53,0.123969508875562,1
921,676,53,0.108726579017087,1
921,677,53,0.107274452868296,1
921,678,53,0.156630245056717,1
921,679,53,0.25962248289434,1
921,680,53,0.260467515286208,1
921,681,53,0.146178836248517,1
922,674,53,0.144017723907483,1
922,675,53,0.134777870252459,1
922,676,53,0.104900097004722,1
922,678,53,0.143421527677577,1
922,679,53,0.247234102794666,1
922,680,53,0.258016497495108,1
922,681,53,0.152929000949524,1
923,674,53,0.161494289874308,1
923,675,53,0.133977688378645,1
923,676,53,0.105605960057184,1
923,678,53,0.11678986783854,1
923,679,53,0.157086825784392,1
923,680,53,0.161100450793996,1
923,681,53,0.136554479470308,1
923,682,53,0.115675754646496,1
924,673,53,0.140566397907104,1
924,674,53,0.146535777663144,1
924,675,53,0.106132733351412,1
924,677,53,0.113512411491334,1
924,678,53,0.11120941937173,1
924,680,53,0.103556589195846,1
924,681,53,0.149688654195345,1
924,682,53,0.182406856148449,1
924,683,53,0.12093469818111,1
925,673,53,0.147695734085528,1
925,674,53,0.129955441272435,1
925,677,53,0.119316164452405,1
925,678,53,0.117185948887051,1
925,681,53,0.15389677273474,1
925,682,53,0.199448167970667,1
925,683,53,0.145879070600002,1
926,673,53,0.13355601989208,1
926,674,53,0.110865740147096,1
926,678,53,0.104396267633805,1
926,681,53,0.145170787114211,1
926,682,53,0.195759695274359,1
926,683,53,0.190718323041695,1
926,684,53,0.119323001897709,1
927,672,53,0.114971865864537,1
927,673,53,0.129606285399116,1
927,681,53,0.123509593080764,1
927,682,53,0.179921216122076,1
927,683,53,0.222709023045291,1
927,684,53,0.155378178318967,1
928,672,53,0.145628672868151,1
928,673,53,0.15460659548228,1
928,682,53,0.124150952142701,1
928,683,53,0.147768112849927,1
928,684,53,0.108651902514136,1
929,672,53,0.185532148663952,1
929,673,53,0.175742990492002,1
929,674,53,0.103978726153378,1
930,674,53,0.104927881794692,1
932,673,53,0.132986470736939,1
933,672,53,0.161269189574674,1
934,672,53,0.172058477490773,1
935,672,53,0.193757294204497,1
935,673,53,0.103638906237187,1
936,673,53,0.145195158758564,1
937,673,53,0.219032083658028,1
937,674,53,0.153214232843991,1
937,678,53,0.11606824408426,1
938,674,53,0.189383515407921,1
938,677,53,0.103253533096492,1
939,680,53,0.121476942171319,1
939,681,53,0.123908853039408,1
939,682,53,0.109425403850974,1
939,683,53,0.130426912684418,1
940,679,53,0.106417552545265,1
940,680,53,0.160849238814988,1
940,681,53,0.155372411664445,1
940,682,53,0.11583417591183,1
940,683,53,0.126266968576128,1
941,678,53,0.145252758379362,1
941,679,53,0.141782782772868,1
912,676,54,0.145396534349942,1
912,677,54,0.160744647094574,1
912,678,54,0.127026962333417,1
912,695,54,0.184074958567089,1
913,676,54,0.179370762735874,1
913,677,54,0.177372075971535,1
913,678,54,0.129196083297172,1
913,694,54,0.190563036070212,1
913,695,54,0.160842390215614,1
913,696,54,0.146599300095452,1
914,676,54,0.182365563778931,1
914,677,54,0.145276215389923,1
914,678,54,0.103461879982021,1
914,689,54,0.105835053514108,1
914,690,54,0.133205547838426,1
914,691,54,0.137945436695697,1
914,692,54,0.113845405116292,1
914,694,54,0.121116989157619,1
914,695,54,0.122799937644283,1
914,696,54,0.122652703911804,1
915,675,54,0.141767959012984,1
915,676,54,0.158243380215231,1
915,677,54,0.113485864803205,1
915,692,54,0.103150737181452,1
915,693,54,0.119875797638746,1
915,694,54,0.155884082347023,1
915,695,54,0.157971365894475,1
915,696,54,0.143871059032607,1
915,697,54,0.11436488364832,1
916,675,54,0.110628872302935,1
916,676,54,0.130759415530268,1
916,677,54,0.103759135964641,1
916,691,54,0.103728584965152,1
916,692,54,0.136215239565791,1
916,693,54,0.156767752439596,1
916,694,54,0.190582734158967,1
916,695,54,0.15881410054779,1
917,676,54,0.127540685364994,1
917,677,54,0.113745988884656,1
917,692,54,0.104010057937812,1
917,693,54,0.105686827069341,1
917,694,54,0.1134472271025,1
918,675,54,0.127200720445884,1
918,676,54,0.147507129905036,1
918,677,54,0.131978789686964,1
918,678,54,0.124861622599611,1
918,679,54,0.121213683796018,1
919,675,54,0.147445659821726,1
919,676,54,0.161904603516959,1
919,677,54,0.141554682028231,1
919,678,54,0.153698564899425,1
919,679,54,0.171404592407504,1
919,680,54,0.122494528036024,1
920,675,54,0.136581126545073,1
920,676,54,0.153172494311647,1
920,677,54,0.138189253525869,1
920,678,54,0.160415345466999,1
920,679,54,0.217356117619586,1
920,680,54,0.181878108583718,1
921,675,54,0.136082193811168,1
921,676,54,0.150075577751859,1
921,677,54,0.132084530276654,1
921,678,54,0.174695333252846,1
921,679,54,0.301094165252107,1
921,680,54,0.296183875657633,1
921,681,54,0.145613904878621,1
922,674,54,0.128284416487287,1
922,675,54,0.174746842751072,1
922,676,54,0.170799305610025,1
922,677,54,0.128228244587532,1
922,678,54,0.162682354554711,1
922,679,54,0.288221676178412,1
922,680,54,0.299015224949497,1
922,681,54,0.155538272694898,1
923,674,54,0.143339511796144,1
923,675,54,0.169994684416095,1
923,676,54,0.151849242295058,1
923,677,54,0.115298445898876,1
923,678,54,0.125280747958069,1
923,679,54,0.161362682994798,1
923,680,54,0.166714740711135,1
923,681,54,0.131799052992633,1
923,682,54,0.105532912048547,1
924,673,54,0.114520661398911,1
924,674,54,0.130856634409987,1
924,675,54,0.121419376012734,1
924,676,54,0.106553989137363,1
924,677,54,0.107712049367738,1
924,678,54,0.111451016541844,1
924,681,54,0.144105428364944,1
924,682,54,0.170123123539542,1
924,683,54,0.109666398701274,1
925,673,54,0.120833597684808,1
925,674,54,0.120122715300556,1
925,678,54,0.108064573770391,1
925,681,54,0.170701372869784,1
925,682,54,0.227686036290349,1
925,683,54,0.153129673834451,1
926,673,54,0.11952756755329,1
926,674,54,0.119307330428456,1
926,680,54,0.1054966836271,1
926,681,54,0.174030405639641,1
926,682,54,0.259891742159648,1
926,683,54,0.220868132918331,1
926,684,54,0.111508995401043,1
927,672,54,0.11138914491199,1
927,673,54,0.13901474398597,1
927,674,54,0.12206262011261,1
927,681,54,0.140137791588599,1
927,682,54,0.226111661527317,1
927,683,54,0.243562316588039,1
927,684,54,0.140927533252292,1
928,672,54,0.150086609127724,1
928,673,54,0.189756150599942,1
928,674,54,0.130918137955509,1
928,682,54,0.129234843692654,1
928,683,54,0.145968849714603,1
929,674,54,0.137571273395998,1
934,672,54,0.224549377776862,1
934,673,54,0.102918353273689,1
935,673,54,0.110938542766179,1
936,673,54,0.134205789123282,1
936,678,54,0.104440605064608,1
937,673,54,0.184905524129333,1
937,674,54,0.133229997561274,1
937,678,54,0.122321115699747,1
938,674,54,0.183870035981247,1
938,676,54,0.143542058564939,1
939,677,54,0.131139055478652,1
912,676,55,0.153870649901295,1
912,677,55,0.198997409667867,1
913,676,55,0.194326062574693,1
913,677,55,0.229492058792482,1
913,678,55,0.187494194306231,1
913,679,55,0.118358620949968,1
913,694,55,0.186763134208187,1
914,676,55,0.185094507548227,1
914,677,55,0.172142958421819,1
914,678,55,0.13791806460634,1
914,679,55,0.113509767976592,1
914,686,55,0.103550655230264,1
914,692,55,0.123436690075045,1
914,693,55,0.107500902810478,1
914,694,55,0.126500322888037,1
915,676,55,0.164065961247546,1
915,677,55,0.138135780911209,1
915,678,55,0.109313918914903,1
915,689,55,0.114190645910815,1
915,690,55,0.107479397762279,1
915,692,55,0.115249858767158,1
915,693,55,0.131549402583515,1
915,694,55,0.173643470929056,1
915,695,55,0.166404300617016,1
916,675,55,0.108198500696594,1
916,676,55,0.138999027900435,1
916,677,55,0.133286894475621,1
916,678,55,0.106527263984104,1
916,689,55,0.116484502846563,1
916,690,55,0.127431107775003,1
916,691,55,0.136613328347018,1
916,692,55,0.174558974739242,1
916,693,55,0.181430729964322,1
916,694,55,0.20813567204748,1
916,695,55,0.173592675291351,1
917,676,55,0.121914438284126,1
917,677,55,0.129467383757407,1
917,678,55,0.117020712484555,1
917,679,55,0.1045649617982,1
917,690,55,0.109203884008016,1
917,691,55,0.121381619483609,1
917,692,55,0.145552758263359,1
917,693,55,0.127248783336282,1
917,694,55,0.115117671875975,1
918,675,55,0.106399728340379,1
918,676,55,0.130473704010763,1
918,677,55,0.141492408851835,1
918,678,55,0.150726406619771,1
918,679,55,0.148106605431711,1
918,680,55,0.113275967501857,1
919,675,55,0.124711366113987,1
919,676,55,0.154615686049854,1
919,677,55,0.163492664324669,1
919,678,55,0.179963679669011,1
919,679,55,0.184195812922499,1
919,680,55,0.13290001553539,1
920,675,55,0.132781101988271,1
920,676,55,0.172866065667494,1
920,677,55,0.171836500330919,1
920,678,55,0.187709690951042,1
920,679,55,0.226143428320507,1
920,680,55,0.184432502301531,1
920,681,55,0.109234546548212,1
921,675,55,0.160051577761139,1
921,676,55,0.206069001222575,1
921,677,55,0.175287580941744,1
921,678,55,0.200017293271124,1
921,679,55,0.310530509015568,1
921,680,55,0.292644443653249,1
921,681,55,0.142282273210305,1
922,674,55,0.123535481678725,1
922,675,55,0.212776434678951,1
922,676,55,0.248173074769483,1
922,677,55,0.175858468585363,1
922,678,55,0.1831321384379,1
922,679,55,0.293837059194474,1
922,680,55,0.296265768844289,1
922,681,55,0.151730540675282,1
923,674,55,0.131138285847778,1
923,675,55,0.194184584342665,1
923,676,55,0.196642316884292,1
923,677,55,0.139242130870086,1
923,678,55,0.132763802024705,1
923,679,55,0.158165647496924,1
923,680,55,0.161760782930096,1
923,681,55,0.122769297412229,1
924,673,55,0.10642996702589,1
924,674,55,0.125874836068624,1
924,675,55,0.140834363300216,1
924,676,55,0.120553340505847,1
924,677,55,0.104675744027821,1
924,678,55,0.104543044049388,1
924,681,55,0.127358416696627,1
924,682,55,0.139720027026759,1
925,673,55,0.111983511874311,1
925,674,55,0.121886173869118,1
925,675,55,0.112731001918411,1
925,681,55,0.169799454717641,1
925,682,55,0.222487770900029,1
925,683,55,0.143879558434436,1
926,672,55,0.103404023817599,1
926,673,55,0.114650996714368,1
926,674,55,0.129196652154775,1
926,675,55,0.107008997141078,1
926,680,55,0.113980413987347,1
926,681,55,0.188569245942885,1
926,682,55,0.288195374879837,1
926,683,55,0.219232723080744,1
927,672,55,0.118734613517252,1
927,673,55,0.143794040174821,1
927,674,55,0.143244334111352,1
927,681,55,0.144733224076981,1
927,682,55,0.241684484179111,1
927,683,55,0.225358560985684,1
927,684,55,0.112576551502226,1
928,671,55,0.113972784603028,1
928,672,55,0.15998405101747,1
928,673,55,0.211633521676509,1
928,674,55,0.164224159431467,1
928,682,55,0.125057421155667,1
928,683,55,0.129485074113445,1
929,674,55,0.177933226111483,1
933,673,55,0.116621530604405,1
934,673,55,0.118432159737713,1
935,673,55,0.122194037372918,1
936,673,55,0.129404820575173,1
937,673,55,0.153463983639745,1
937,674,55,0.113187069558837,1
937,678,55,0.10810952467508,1
938,674,55,0.170658318157105,1
938,675,55,0.156903452863031,1
938,676,55,0.122417386483461,1
913,676,56,0.198077354996859,1
913,677,56,0.257786009779354,1
913,679,56,0.152848647024616,1
913,693,56,0.151461047174491,1
914,676,56,0.182096527595037,1
914,677,56,0.191532257884612,1
914,678,56,0.170311236940926,1
914,679,56,0.145621668111788,1
914,680,56,0.116498278123807,1
914,691,56,0.146929549819032,1
914,692,56,0.115860466056334,1
915,676,56,0.166602675763391,1
915,677,56,0.163125706554605,1
915,678,56,0.13565212630941,1
915,679,56,0.119337401802908,1
915,680,56,0.113685678824693,1
915,681,56,0.104688771982331,1
915,688,56,0.12203744537517,1
915,689,56,0.136114462537537,1
915,690,56,0.122090482981074,1
915,692,56,0.108525236887921,1
915,693,56,0.12207582653225,1
915,694,56,0.154220006547886,1
916,676,56,0.142537701428016,1
916,677,56,0.160961203376096,1
916,678,56,0.144570385799672,1
916,679,56,0.119202805632467,1
916,680,56,0.114784979410924,1
916,681,56,0.116413886425326,1
916,689,56,0.144222523798548,1
916,690,56,0.163844675640072,1
916,691,56,0.151773383460619,1
916,692,56,0.175435550842886,1
916,693,56,0.17446587171159,1
916,694,56,0.184231383253778,1
917,676,56,0.116922311273348,1
917,677,56,0.143212165771619,1
917,678,56,0.155141533556218,1
917,679,56,0.14366744147303,1
917,680,56,0.121857831375615,1
917,681,56,0.110194722411321,1
917,689,56,0.11720260191452,1
917,690,56,0.145900709497049,1
917,691,56,0.145947824291442,1
917,692,56,0.166503315302109,1
917,693,56,0.140317784826556,1
917,694,56,0.108384137894295,1
918,676,56,0.121003674953963,1
918,677,56,0.15177375154495,1
918,678,56,0.178245350470269,1
918,679,56,0.174898013870488,1
918,680,56,0.135225996194588,1
918,681,56,0.107103371732783,1
919,675,56,0.1126016370071,1
919,676,56,0.153558101687825,1
919,677,56,0.194716410430894,1
919,678,56,0.212429342308702,1
919,679,56,0.197355396620459,1
919,680,56,0.153215348251055,1
919,681,56,0.119573767713891,1
919,682,56,0.104632812009918,1
920,675,56,0.142086798122297,1
920,676,56,0.192228874212511,1
920,677,56,0.215711762217344,1
920,678,56,0.224812212297479,1
920,679,56,0.228570487167866,1
920,680,56,0.194683282841086,1
920,681,56,0.131450544055411,1
921,674,56,0.116243809156171,1
921,675,56,0.19465191759444,1
921,676,56,0.254219272610037,1
921,677,56,0.221932142025049,1
921,678,56,0.226787218969844,1
921,679,56,0.285403421765482,1
921,680,56,0.26310853151663,1
921,681,56,0.145469058117259,1
922,674,56,0.12924050996054,1
922,675,56,0.236576767534266,1
922,676,56,0.299157372425763,1
922,677,56,0.223095868523311,1
922,678,56,0.205204939986192,1
922,679,56,0.263611468561895,1
922,680,56,0.252614380309728,1
922,681,56,0.142722747459973,1
923,674,56,0.125342162271026,1
923,675,56,0.193632145531889,1
923,676,56,0.215721510875085,1
923,677,56,0.161072989472074,1
923,678,56,0.140655385082689,1
923,679,56,0.146038384190988,1
923,680,56,0.141192397813766,1
923,681,56,0.105532309728732,1
924,674,56,0.124532800597073,1
924,675,56,0.149187769499078,1
924,676,56,0.130271480710016,1
924,682,56,0.106260525538762,1
925,673,56,0.112241393987563,1
925,674,56,0.122442226598782,1
925,675,56,0.127377813625474,1
925,681,56,0.153496642758585,1
925,682,56,0.191210239865166,1
925,683,56,0.123178819115864,1
926,673,56,0.109844183433243,1
926,674,56,0.125123341713164,1
926,675,56,0.116802650403496,1
926,680,56,0.114242891577704,1
926,681,56,0.185018224859104,1
926,682,56,0.266330474054249,1
926,683,56,0.186980426658372,1
927,672,56,0.129107062659375,1
927,673,56,0.134538325431344,1
927,674,56,0.142271375683287,1
927,675,56,0.10849325816739,1
927,681,56,0.13959085173465,1
927,682,56,0.219467003180516,1
927,683,56,0.18076914857231,1
928,672,56,0.160721625092768,1
928,673,56,0.198936686907289,1
928,674,56,0.17486383779804,1
928,682,56,0.111171439761192,1
928,683,56,0.105993697860854,1
929,674,56,0.206875105907901,1
932,674,56,0.10524161233965,1
934,673,56,0.129714334881429,1
935,673,56,0.123671706343481,1
913,680,57,0.113307912760177,1
914,676,57,0.178708389404846,1
914,677,57,0.212222813536687,1
914,678,57,0.211574940497495,1
914,679,57,0.177812460988638,1
914,680,57,0.138375693816656,1
914,690,57,0.176688398365581,1
914,691,57,0.127620526202652,1
915,676,57,0.167938855347855,1
915,677,57,0.193127312294615,1
915,678,57,0.175692908714818,1
915,679,57,0.15115821415655,1
915,680,57,0.144391362965862,1
915,681,57,0.113812478299756,1
915,686,57,0.110384821237279,1
915,687,57,0.119671834302979,1
915,688,57,0.139223380877336,1
915,689,57,0.144384793218254,1
915,690,57,0.123058756699469,1
916,676,57,0.146094957637286,1
916,677,57,0.183175605851193,1
916,678,57,0.184105029941541,1
916,679,57,0.160475677835104,1
916,680,57,0.155478520338466,1
916,681,57,0.132061184806799,1
916,687,57,0.103462426531483,1
916,688,57,0.113447327489136,1
916,689,57,0.147389521384183,1
916,690,57,0.171974766190602,1
916,691,57,0.142260232766715,1
916,692,57,0.140833694055978,1
917,676,57,0.122756559463555,1
917,677,57,0.159901142810385,1
917,678,57,0.196758073829418,1
917,679,57,0.183778940686311,1
917,680,57,0.152832652087315,1
917,681,57,0.131798227591405,1
917,682,57,0.10651052172407,1
917,688,57,0.103925755471897,1
917,689,57,0.128783795384017,1
917,690,57,0.158462981558038,1
917,691,57,0.143882447338732,1
918,676,57,0.123419122413784,1
918,677,57,0.165801266941806,1
918,678,57,0.207537970018037,1
918,679,57,0.19634225007587,1
918,680,57,0.15396379754523,1
918,681,57,0.129113498558136,1
918,682,57,0.117859900143406,1
919,675,57,0.117202512681955,1
919,676,57,0.158797748680228,1
919,677,57,0.22630462694943,1
919,678,57,0.249224122846116,1
919,679,57,0.219200465508446,1
919,680,57,0.187776325369059,1
919,681,57,0.147651876279762,1
919,682,57,0.111831281118184,1
920,675,57,0.165209878116347,1
920,676,57,0.205998864426376,1
920,677,57,0.257529421538296,1
920,678,57,0.26511923121505,1
920,679,57,0.240563053916725,1
920,680,57,0.225711051926125,1
920,681,57,0.16378405326613,1
920,682,57,0.105053867022598,1
921,675,57,0.229356112979492,1
921,676,57,0.270235558802431,1
921,677,57,0.257968624223911,1
921,678,57,0.251819920474153,1
921,679,57,0.253849515168242,1
921,680,57,0.239808882584311,1
921,681,57,0.167175024590264,1
921,682,57,0.113641742940433,1
922,674,57,0.137672496587077,1
922,675,57,0.238497275417472,1
922,676,57,0.297207841650745,1
922,677,57,0.261002330665369,1
922,678,57,0.237245007906451,1
922,679,57,0.230392616148007,1
922,680,57,0.206584653908373,1
922,681,57,0.15018168642588,1
922,682,57,0.118142912377815,1
923,674,57,0.123655176010789,1
923,675,57,0.176225850210111,1
923,676,57,0.203351289602416,1
923,677,57,0.180441977372228,1
923,678,57,0.159767082035334,1
923,679,57,0.140891762147742,1
923,680,57,0.123625483874739,1
924,674,57,0.126700538456068,1
924,675,57,0.147582765658062,1
924,676,57,0.131778629889286,1
924,677,57,0.105680870795618,1
925,674,57,0.122087203684306,1
925,675,57,0.133446308453242,1
925,676,57,0.107775694494824,1
925,681,57,0.13291773935364,1
925,682,57,0.148920317193215,1
925,683,57,0.103674052713781,1
926,674,57,0.11300844827157,1
926,675,57,0.116547389496845,1
926,676,57,0.102990631651451,1
926,680,57,0.108353163040121,1
926,681,57,0.164971080617964,1
926,682,57,0.205286052387904,1
926,683,57,0.141387069808688,1
927,673,57,0.123474903921066,1
927,674,57,0.124787425721697,1
927,675,57,0.107763391554905,1
927,681,57,0.127382331024084,1
927,682,57,0.171350550935242,1
927,683,57,0.130875975568481,1
928,673,57,0.181497241687563,1
928,674,57,0.167742956405163,1
928,675,57,0.106131896796114,1
929,674,57,0.219249699576261,1
929,675,57,0.111422082882597,1
930,675,57,0.106897869135268,1
932,674,57,0.112770911183169,1
934,673,57,0.14738964407896,1
914,676,58,0.16822787962634,1
914,680,58,0.148185364324517,1
914,689,58,0.242292135639567,1
915,676,58,0.159084062519548,1
915,677,58,0.214145262228185,1
915,678,58,0.221657417265127,1
915,679,58,0.187826719460222,1
915,680,58,0.171406856683845,1
915,681,58,0.112464341551563,1
915,687,58,0.129400526257976,1
915,688,58,0.142777636641604,1
915,689,58,0.139473432832997,1
916,676,58,0.144366299769129,1
916,677,58,0.192041708907132,1
916,678,58,0.213347679252831,1
916,679,58,0.202746426659621,1
916,680,58,0.205612286646052,1
916,681,58,0.142008619241164,1
916,687,58,0.109545644732499,1
916,688,58,0.10850037446446,1
916,689,58,0.127955014473076,1
916,690,58,0.14895269746029,1
917,676,58,0.132795223041704,1
917,677,58,0.17743709304931,1
917,678,58,0.228229261838774,1
917,679,58,0.21568323010464,1
917,680,58,0.194857933279205,1
917,681,58,0.153780045385467,1
917,682,58,0.113981663243259,1
917,688,58,0.104863154722754,1
917,689,58,0.11747486162483,1
918,675,58,0.107354461017014,1
918,676,58,0.128883490467419,1
918,677,58,0.183911049498999,1
918,678,58,0.232633067393519,1
918,679,58,0.209389478820249,1
918,680,58,0.175416934698984,1
918,681,58,0.147624983815444,1
918,682,58,0.126533104701655,1
919,675,58,0.119303894974699,1
919,676,58,0.160664895489481,1
919,677,58,0.246194253404959,1
919,678,58,0.27696978433649,1
919,679,58,0.238336009864125,1
919,680,58,0.217922454402382,1
919,681,58,0.159965546414274,1
919,682,58,0.106912525584092,1
920,676,58,0.208227380816301,1
920,677,58,0.278365537812255,1
920,678,58,0.291184308881737,1
920,679,58,0.252946660074165,1
920,680,58,0.253262030267508,1
920,681,58,0.179999316924714,1
920,682,58,0.106311700414869,1
921,676,58,0.258092880570867,1
921,677,58,0.273793105017538,1
921,678,58,0.268199472439228,1
921,679,58,0.224048693853866,1
921,680,58,0.217577191299718,1
921,681,58,0.182493935977955,1
921,682,58,0.139775741609618,1
921,683,58,0.10556405421378,1
922,675,58,0.219775257076789,1
922,676,58,0.261976415654569,1
922,677,58,0.281171478131195,1
922,678,58,0.266239211448253,1
922,679,58,0.196387312521265,1
922,680,58,0.161204908665562,1
922,681,58,0.155268054179515,1
922,682,58,0.145911740872914,1
922,683,58,0.11558884212805,1
923,675,58,0.154131487843268,1
923,676,58,0.180884080116209,1
923,677,58,0.196292190606827,1
923,678,58,0.184629762040842,1
923,679,58,0.133241943570932,1
924,674,58,0.121889018157132,1
924,675,58,0.135343850104996,1
924,676,58,0.124702309008625,1
924,677,58,0.10801610933345,1
925,674,58,0.115038210276718,1
925,675,58,0.12990135518389,1
925,676,58,0.112594130317558,1
926,675,58,0.109173444549233,1
926,676,58,0.11029766332928,1
926,681,58,0.125535875015872,1
926,682,58,0.130487613136854,1
927,674,58,0.103790345054298,1
927,676,58,0.106770244258978,1
927,682,58,0.111652224822162,1
928,673,58,0.171064337482558,1
928,674,58,0.151638408051776,1
928,675,58,0.103283169462189,1
929,672,58,0.231141455834654,1
929,674,58,0.21328220485816,1
929,675,58,0.123551655081157,1
930,671,58,0.22973546292204,1
930,675,58,0.123592077433165,1
931,674,58,0.161801037971044,1
932,674,58,0.1127662264735,1
914,687,59,0.236317970787221,1
915,676,59,0.151246810939663,1
915,677,59,0.217508593765267,1
915,678,59,0.252740666697541,1
915,679,59,0.219227502975683,1
915,680,59,0.181665835465322,1
916,676,59,0.152235920462018,1
916,677,59,0.202213262082915,1
916,678,59,0.236178991067017,1
916,679,59,0.240585830528977,1
916,680,59,0.241535532719752,1
917,677,59,0.208962077141374,1
917,678,59,0.246491509387578,1
917,679,59,0.237025763493905,1
917,680,59,0.239911812348199,1
917,681,59,0.174242254903352,1
918,677,59,0.211375594946974,1
918,678,59,0.246035620212282,1
918,679,59,0.215853865077328,1
918,680,59,0.198861753860714,1
918,681,59,0.159539884770419,1
919,676,59,0.169785311356066,1
919,677,59,0.253401567691244,1
919,678,59,0.285789330301568,1
919,679,59,0.253456088788544,1
919,680,59,0.230755636531134,1
919,681,59,0.157807590675233,1
920,677,59,0.275264929255084,1
920,678,59,0.296559968611553,1
920,679,59,0.269314946427891,1
920,680,59,0.262045481659986,1
920,681,59,0.180744386535484,1
921,676,59,0.233769622575696,1
921,677,59,0.266257816438084,1
921,678,59,0.267300052798909,1
921,679,59,0.215619473436848,1
921,680,59,0.210043196592458,1
921,681,59,0.196814981897836,1
922,676,59,0.219974803400582,1
922,677,59,0.271155256543179,1
922,678,59,0.267707109452932,1
922,679,59,0.175872935414986,1
922,680,59,0.142498137939447,1
923,675,59,0.141140174455019,1
923,676,59,0.160566661589334,1
923,677,59,0.198606370259286,1
923,678,59,0.199288620144198,1
928,672,59,0.17348206037279,1
928,673,59,0.16643735012833,1
928,674,59,0.140267268040616,1
929,671,59,0.213009242441399,1
929,672,59,0.212855182417687,1
929,673,59,0.217651968189304,1
929,674,59,0.188319684766332,1
930,672,59,0.204142068594679,1
930,674,59,0.176069615142624,1
931,673,59,0.161424063845543,1
931,674,59,0.135516080109785,1
