x,y,z,signal,mito.p
132,761,1,0.122939932384916,1
133,761,1,0.12487115933001,1
133,762,1,0.156913870765011,1
134,761,1,0.118022481877089,1
134,762,1,0.157228337478632,1
135,761,1,0.109228233344229,1
135,762,1,0.154869943090147,1
136,762,1,0.149068220169933,1
121,737,2,0.110867759033883,1
121,738,2,0.118723939071648,1
133,761,2,0.134475528013627,1
134,761,2,0.136454193221163,1
134,762,2,0.174222657201233,1
135,761,2,0.134870649812063,1
135,762,2,0.193200951468996,1
135,763,2,0.206075492891689,1
136,761,2,0.114462437150158,1
136,762,2,0.177418532675761,1
136,763,2,0.196414952308317,1
137,762,2,0.145814064676299,1
121,737,3,0.113899335047848,1
121,738,3,0.129031136900512,1
121,739,3,0.109588955988803,1
132,760,3,0.106734718543982,1
132,761,3,0.131087077509458,1
133,760,3,0.108471440805213,1
133,761,3,0.149637334316319,1
133,762,3,0.164274341595287,1
134,761,3,0.166217057233143,1
134,762,3,0.202423940169208,1
135,761,3,0.17665956509297,1
135,762,3,0.258586938975901,1
135,763,3,0.270736510423122,2
136,761,3,0.143845616597471,1
136,762,3,0.228254291573296,1
137,761,3,0.111965397663588,1
121,737,4,0.105663515061699,1
121,738,4,0.122922141642241,1
121,739,4,0.10887473853743,1
132,760,4,0.110894640344131,1
132,761,4,0.128248578458313,1
133,760,4,0.118314049283681,1
133,761,4,0.161156622693751,1
133,762,4,0.170027298918653,1
134,760,4,0.11647889234903,1
134,761,4,0.194770485365369,1
134,762,4,0.231651464560707,1
134,763,4,0.230034860486223,2
135,760,4,0.10444532323649,1
135,761,4,0.212974798671256,1
135,762,4,0.315109009624714,2
135,763,4,0.329031096745858,2
135,764,4,0.293606259164742,2
136,761,4,0.169833340784253,1
136,762,4,0.27373148993131,1
136,763,4,0.313031251653591,2
137,761,4,0.128920856604071,1
121,738,5,0.105419854388516,1
132,759,5,0.110364721601982,1
132,760,5,0.11784956031992,1
133,760,5,0.128774883281574,1
133,761,5,0.17422902617557,1
134,760,5,0.127780531346017,1
134,761,5,0.216294450867702,1
134,762,5,0.262556739641951,2
134,763,5,0.267433143169814,2
135,760,5,0.117802233598185,1
135,761,5,0.232973735019079,2
135,762,5,0.33609840513744,2
135,763,5,0.358707483248147,2
135,764,5,0.298272921548246,2
136,760,5,0.107698497171908,1
136,761,5,0.187985129571485,1
136,762,5,0.281522139804051,2
136,763,5,0.328517808723036,2
136,764,5,0.273761338224349,2
137,760,5,0.123478986310921,1
137,761,5,0.151480600260327,1
137,763,5,0.180685983821601,2
138,760,5,0.138501455963149,1
139,759,5,0.107066607915946,1
139,760,5,0.123297944590325,1
140,759,5,0.116010700233816,1
140,760,5,0.112248064121807,1
141,758,5,0.10526070810859,1
141,759,5,0.121023651894483,1
131,759,6,0.109685717551626,1
131,760,6,0.105579435677196,1
132,759,6,0.13352145342716,1
132,760,6,0.133621360437903,1
133,759,6,0.114080901009765,1
133,760,6,0.14572259014296,1
133,761,6,0.186657237461508,1
133,763,6,0.214304363891828,2
134,760,6,0.1357761038046,1
134,761,6,0.226790319801483,1
134,762,6,0.292937304932036,2
134,763,6,0.324333403737827,2
134,764,6,0.264028162332953,2
135,760,6,0.127579880769231,1
135,761,6,0.233907330731847,2
135,762,6,0.32919383463653,2
135,763,6,0.370844071357141,2
135,764,6,0.30152221386708,2
135,765,6,0.199122692189322,2
136,760,6,0.134092073373083,1
136,761,6,0.204880646536335,1
136,762,6,0.269338169202968,2
136,763,6,0.307694876560577,2
136,764,6,0.250717675213273,2
137,760,6,0.169137650244216,1
137,761,6,0.186659892130321,1
138,759,6,0.126200099922626,1
138,760,6,0.187348834457619,1
138,761,6,0.17058774635215,1
139,759,6,0.136662919345094,1
139,760,6,0.154445999173171,1
140,758,6,0.117293039119289,1
140,759,6,0.147493287703369,1
141,758,6,0.117880412479317,1
131,759,7,0.112886601203872,1
132,758,7,0.118712729230652,1
132,759,7,0.153646955014562,1
132,760,7,0.147247942765519,1
133,759,7,0.141466408713167,1
133,760,7,0.165759115708849,1
133,761,7,0.195852407909539,1
133,762,7,0.219402800349899,2
133,763,7,0.231168314836761,2
134,760,7,0.144670850513948,1
134,761,7,0.229540043604385,2
134,762,7,0.31580435438856,2
134,763,7,0.375549661447186,2
134,764,7,0.296757484894488,2
135,760,7,0.139832315055916,1
135,761,7,0.232975519670382,2
135,762,7,0.317174341961141,2
135,763,7,0.374125175085447,2
135,764,7,0.316350502303494,2
135,765,7,0.210801807244988,2
136,760,7,0.169283088171322,1
136,761,7,0.228314835868743,1
136,762,7,0.25295404406893,2
136,763,7,0.265909809434042,2
136,764,7,0.223306345836333,2
137,759,7,0.126053055809348,1
137,760,7,0.21953374913924,1
137,761,7,0.22734971875234,1
138,759,7,0.152404525393848,1
138,760,7,0.223414518013423,1
138,761,7,0.194653345315482,1
139,758,7,0.130302823648521,1
139,759,7,0.173988243252613,1
139,760,7,0.181949706563171,1
140,758,7,0.13982127252598,1
140,759,7,0.18263762271597,1
141,758,7,0.127871358943258,1
142,755,7,0.107843455473976,1
142,756,7,0.120776923851874,1
142,757,7,0.109382639144131,1
131,759,8,0.107333368669429,1
132,758,8,0.122776491787793,1
132,759,8,0.156785509720059,1
132,760,8,0.147317555320398,1
133,758,8,0.105872888121727,1
133,759,8,0.156739264943175,1
133,760,8,0.174608498812895,1
133,761,8,0.193149330430063,1
133,762,8,0.216027578573512,2
133,763,8,0.231725081426947,2
133,764,8,0.17558651003496,2
134,759,8,0.107507137935967,1
134,760,8,0.151778190865066,1
134,761,8,0.228157362699414,2
134,762,8,0.331169912099677,2
134,763,8,0.412961128242276,2
134,764,8,0.326091419119915,2
134,765,8,0.186536550417158,2
135,760,8,0.153928282984305,1
135,761,8,0.239665664317262,2
135,762,8,0.318658681065947,2
135,763,8,0.387669139211814,2
135,764,8,0.342061170529589,2
135,765,8,0.22372944204394,2
136,759,8,0.112883656529223,1
136,760,8,0.209927573496179,1
136,761,8,0.276466178046986,2
136,762,8,0.263823797450643,2
136,763,8,0.242463930635601,2
136,764,8,0.207404210402893,2
137,759,8,0.142547193542132,1
137,760,8,0.261515640996332,1
137,761,8,0.283542320462517,2
138,758,8,0.107998017430868,1
138,759,8,0.173107540142831,1
138,760,8,0.236895127018541,1
139,758,8,0.166599798013166,1
139,759,8,0.223459156604133,1
139,760,8,0.20623265374704,1
140,728,8,0.111235553359245,1
140,729,8,0.108503642607158,1
140,758,8,0.170636266559445,1
140,759,8,0.223870184107305,1
141,728,8,0.151576335648651,1
141,729,8,0.152341716822061,1
141,756,8,0.121267156410677,1
141,757,8,0.11485228307318,1
141,758,8,0.139198061136978,1
142,728,8,0.122016129946172,1
142,729,8,0.127931568616586,1
142,755,8,0.151604499677023,1
142,756,8,0.173410562779973,1
142,757,8,0.136187822860152,1
143,755,8,0.137297028261113,1
143,756,8,0.144754349886777,1
144,755,8,0.11101131192305,1
145,750,8,0.103279488618877,1
146,750,8,0.119793346748557,1
132,758,9,0.121553514866279,1
132,759,9,0.14930328105465,1
133,758,9,0.111639977652596,1
133,759,9,0.162413965306914,1
133,760,9,0.181227413564653,1
133,762,9,0.210380361839836,2
133,763,9,0.22730822560955,2
133,764,9,0.17416217983021,2
134,759,9,0.122570253021615,1
134,760,9,0.16573465483193,1
134,761,9,0.226477336579257,2
134,762,9,0.342895651170629,2
134,763,9,0.441106551624474,2
134,764,9,0.3454257067063,2
134,765,9,0.189220665976542,2
135,759,9,0.108395726973693,1
135,760,9,0.173949494011201,1
135,761,9,0.251375430759054,2
135,762,9,0.332204005988933,2
135,763,9,0.419813520000721,2
135,764,9,0.373983206074311,2
135,765,9,0.22749940638036,2
136,759,9,0.128476489583749,1
136,760,9,0.253134851554043,2
136,761,9,0.34436966160602,2
136,762,9,0.295179027741601,2
136,763,9,0.242029970363188,2
136,764,9,0.206597369548905,2
137,759,9,0.153731090169418,1
137,760,9,0.296555506983296,2
137,761,9,0.360743658843915,2
137,762,9,0.247247041516611,2
138,758,9,0.118319001691046,1
138,759,9,0.191266322532356,1
138,760,9,0.240860287591203,1
138,761,9,0.228633150736735,2
139,758,9,0.189008337087794,1
139,759,9,0.269244229620018,1
140,728,9,0.121974502954535,1
140,729,9,0.12302785992379,1
140,757,9,0.105136061369161,1
140,758,9,0.189660894836656,1
140,759,9,0.258059708364777,1
140,760,9,0.21213065860504,1
141,728,9,0.179774261241362,1
141,729,9,0.194545619301218,1
141,730,9,0.116486633274056,1
141,755,9,0.112848811212536,1
141,756,9,0.141438434303996,1
141,757,9,0.126944042972262,1
141,759,9,0.201508704056718,1
142,728,9,0.150737114527588,1
142,729,9,0.178588616994288,1
142,730,9,0.118774355470951,1
142,754,9,0.103146331323548,1
142,755,9,0.179121045402332,1
142,756,9,0.214802638535565,1
143,729,9,0.11041609725136,1
143,754,9,0.114142772639618,1
143,755,9,0.171935080007256,1
143,756,9,0.187722964295106,1
144,754,9,0.119866372449053,1
145,750,9,0.122032481813734,1
145,751,9,0.108570622801365,1
146,750,9,0.127238934291905,1
147,749,9,0.105242047348405,1
148,747,9,0.107500679729065,1
151,744,9,0.109798462897679,1
151,746,9,0.10316320743243,1
152,744,9,0.109886457360977,1
152,745,9,0.107461160856779,1
152,746,9,0.110525641379139,1
153,744,9,0.105336957335501,1
153,745,9,0.109729876517299,1
132,758,10,0.110669339271225,1
132,759,10,0.129083226410412,1
133,758,10,0.109175173430183,1
133,759,10,0.155315458979745,1
133,760,10,0.179513378683108,1
133,762,10,0.187923447560832,2
133,763,10,0.205121462921505,2
133,764,10,0.159688021982621,2
134,730,10,0.104309265882794,1
134,759,10,0.14205160702942,1
134,760,10,0.18723912301878,1
134,761,10,0.218094918642655,2
134,762,10,0.316886410781578,2
134,763,10,0.420396788662753,2
134,764,10,0.324020197434189,2
134,765,10,0.173620460081321,2
135,729,10,0.106538942296066,1
135,759,10,0.129511988885906,1
135,760,10,0.201408852816327,1
135,761,10,0.26289843344201,2
135,762,10,0.32403132919669,2
135,763,10,0.423484993893369,2
135,764,10,0.367039440169164,2
135,765,10,0.20615486525838,2
136,729,10,0.112856262131725,1
136,730,10,0.113539939737679,1
136,759,10,0.142492572058196,1
136,760,10,0.286742601794949,2
136,761,10,0.40782039554833,2
136,762,10,0.323320234885097,2
136,763,10,0.246427551946515,2
136,764,10,0.200216772670492,2
137,729,10,0.125015269922709,1
137,730,10,0.121378395957194,1
137,759,10,0.15714373385281,2
137,760,10,0.307666433680439,2
137,761,10,0.4281135762797,2
137,762,10,0.299743786535716,2
138,729,10,0.105266775923019,1
138,758,10,0.124310087268556,1
138,759,10,0.205159855232656,1
138,760,10,0.236840115142133,2
138,761,10,0.246098395321858,2
139,758,10,0.195721369887632,1
139,759,10,0.29935004784204,1
139,760,10,0.240438150633672,1
140,728,10,0.124292776150919,1
140,729,10,0.134878189963817,1
140,757,10,0.109939863051213,1
140,758,10,0.197638754631059,1
140,759,10,0.281400605050331,1
140,760,10,0.224004278344568,1
141,728,10,0.189408768223855,1
141,729,10,0.232744496559237,1
141,730,10,0.15169578459116,1
141,755,10,0.121207158664692,1
141,756,10,0.152640032441391,1
141,757,10,0.13621938888007,1
141,759,10,0.206781634795918,1
142,728,10,0.170816694806156,1
142,729,10,0.242821909378798,1
142,730,10,0.176459249138303,1
142,754,10,0.109345518397033,1
142,755,10,0.191101420751979,1
142,756,10,0.233983289952922,1
142,757,10,0.170462619987684,1
143,729,10,0.144584205693198,1
143,730,10,0.130307396817485,1
143,754,10,0.118133821810241,1
143,755,10,0.193813756110088,1
143,756,10,0.219099275779578,1
143,757,10,0.15751793061472,1
144,730,10,0.105440779425041,1
144,750,10,0.121984463539619,1
144,751,10,0.104286645427532,1
144,754,10,0.128641034433865,1
144,756,10,0.168354389095566,1
145,730,10,0.115171557191248,1
145,731,10,0.117792518402655,1
145,750,10,0.130446510386537,1
145,751,10,0.116227513058963,1
146,744,10,0.106244430214825,1
146,749,10,0.103434150962404,1
146,750,10,0.121499283774816,1
147,743,10,0.117552404723936,1
147,744,10,0.12822717379675,1
147,748,10,0.107684543429534,1
148,744,10,0.111503875682618,1
148,745,10,0.102913077398275,1
151,744,10,0.104482053591116,1
151,746,10,0.10739798420066,1
152,744,10,0.106962529282782,1
152,745,10,0.109003445358573,1
152,746,10,0.116080435483472,1
153,744,10,0.105328223698188,1
153,745,10,0.112722725597994,1
154,744,10,0.1211458335843,1
124,733,11,0.105070955058822,1
132,731,11,0.125968407567243,1
132,759,11,0.111407593744833,1
133,730,11,0.112263010576468,1
133,731,11,0.131645606442805,1
133,758,11,0.1108253512573,1
133,759,11,0.153962894065508,1
133,760,11,0.176328813436211,1
133,763,11,0.18080335810697,2
134,729,11,0.107499820865625,1
134,730,11,0.120053002359041,1
134,731,11,0.109125102807069,1
134,758,11,0.11019313853329,1
134,759,11,0.173221166660465,1
134,760,11,0.207923967786687,1
134,762,11,0.270667132103726,2
134,763,11,0.363200476751749,2
134,764,11,0.277125227464963,2
135,729,11,0.115145099735684,1
135,730,11,0.128843603510802,1
135,731,11,0.110912821479278,1
135,759,11,0.160143253067749,1
135,760,11,0.226399101927771,1
135,761,11,0.26070578854327,2
135,762,11,0.293831482159153,2
135,763,11,0.386284695963681,2
135,764,11,0.322713252668879,2
135,765,11,0.174454840335725,1
136,729,11,0.12973397719983,1
136,730,11,0.155996169602909,1
136,731,11,0.130665375560682,1
136,759,11,0.162670241233994,1
136,760,11,0.303590847808417,2
136,761,11,0.417190528748457,2
136,762,11,0.318195050965626,2
136,763,11,0.237992352947633,2
136,764,11,0.186300954137049,1
137,729,11,0.143663582164587,1
137,730,11,0.159971000754818,1
137,731,11,0.123616705621143,1
137,759,11,0.167576638057814,2
137,760,11,0.303609252024977,2
137,761,11,0.439322301868235,2
137,762,11,0.322799072088402,2
137,763,11,0.165498668159349,2
138,729,11,0.117131249324621,1
138,730,11,0.117520370233051,1
138,758,11,0.130752444236116,1
138,759,11,0.21300752471452,1
138,760,11,0.236241163856778,2
138,761,11,0.258329614566181,2
138,762,11,0.202732283298046,2
139,729,11,0.106266939129381,1
139,730,11,0.103447022759926,1
139,758,11,0.188602172759422,1
139,759,11,0.297312042978687,1
139,760,11,0.248261660398525,1
139,761,11,0.184202806524792,1
140,728,11,0.117236064126448,1
140,729,11,0.144776936879828,1
140,730,11,0.119156237387535,1
140,757,11,0.120027370304705,1
140,758,11,0.201132410329526,1
140,759,11,0.287734399448329,1
140,760,11,0.238446970558875,1
140,761,11,0.174310707434884,1
141,728,11,0.170508351677318,1
141,729,11,0.242717261888031,1
141,730,11,0.179457876027591,1
141,755,11,0.119976953905402,1
141,756,11,0.149746666516756,1
141,758,11,0.173309674211012,1
141,759,11,0.217350652124971,1
141,760,11,0.182728673394624,1
142,728,11,0.163178297997684,1
142,729,11,0.276982209971186,1
142,730,11,0.228177551567276,1
142,731,11,0.111475700500175,1
142,754,11,0.111412880774317,1
142,755,11,0.185233275341089,1
142,756,11,0.224175961799896,1
142,757,11,0.171241084885958,1
142,759,11,0.164725044127734,1
143,729,11,0.168505995223738,1
143,730,11,0.170709816501261,1
143,731,11,0.114599487216141,1
143,751,11,0.106209886058045,1
143,754,11,0.117486952637407,1
143,755,11,0.197223867819444,1
143,756,11,0.225760888313755,1
143,757,11,0.160811471131793,1
144,730,11,0.126295467226619,1
144,731,11,0.128404356208905,1
144,750,11,0.136588477077626,1
144,751,11,0.129247414330268,1
144,756,11,0.180811411345974,1
145,730,11,0.128732352810215,1
145,731,11,0.148686416331844,1
145,732,11,0.116909874484582,1
145,749,11,0.107748099324054,1
145,750,11,0.131233541611064,1
145,751,11,0.125138366246319,1
146,731,11,0.113056812321875,1
146,743,11,0.120467454161901,1
146,744,11,0.126941767541851,1
147,742,11,0.120064156429684,1
147,743,11,0.150225533077575,1
147,744,11,0.154400735954504,1
147,745,11,0.11738820565001,1
148,742,11,0.116364139270261,1
149,743,11,0.115164797824439,1
149,744,11,0.118770886554981,1
150,743,11,0.108757163478789,1
150,744,11,0.113500086243274,1
150,745,11,0.113605704138187,1
151,744,11,0.104203581063458,1
151,745,11,0.106094798357157,1
151,746,11,0.118027668519938,1
152,744,11,0.105621776529355,1
152,745,11,0.112485311204371,1
152,746,11,0.125689544647112,1
153,743,11,0.107343886958045,1
153,744,11,0.111826016396841,1
153,745,11,0.11841039814589,1
154,744,11,0.121616713830539,1
125,745,12,0.105051524667763,1
132,731,12,0.157517094059422,1
132,732,12,0.154333108824199,1
133,730,12,0.110227069216184,1
133,731,12,0.156256784463468,1
133,732,12,0.14294061992183,1
133,758,12,0.111715011085808,1
133,759,12,0.152970148316123,1
134,730,12,0.119958493918488,1
134,731,12,0.133388095358559,1
134,732,12,0.114775989229986,1
134,758,12,0.128896261878304,1
134,759,12,0.196802243949162,1
134,763,12,0.279635629528162,2
135,729,12,0.114103945319712,1
135,730,12,0.143784559214775,1
135,731,12,0.14581564855433,1
135,732,12,0.113421472353387,1
135,758,12,0.112458485664476,1
135,759,12,0.181837663923568,1
135,761,12,0.240629041398645,2
135,762,12,0.250503517056939,2
135,763,12,0.310837179033809,2
135,764,12,0.25381578525862,1
136,729,12,0.137251765042447,1
136,730,12,0.186798057603369,1
136,731,12,0.17528733555219,1
136,732,12,0.116757141795275,1
136,758,12,0.109022306892029,1
136,759,12,0.184722530446374,1
136,760,12,0.297527785013052,2
136,761,12,0.3734273987342,2
136,762,12,0.287986102206445,2
136,763,12,0.216798793325868,2
137,729,12,0.147311978285077,1
137,730,12,0.193506439155749,1
137,731,12,0.171723108048768,1
137,732,12,0.10624486522358,1
137,758,12,0.115844694200445,1
137,760,12,0.288784421350462,2
137,761,12,0.402858975694031,2
137,762,12,0.321608731977587,2
137,763,12,0.17331606549349,2
138,729,12,0.126100627920638,1
138,730,12,0.146984093224473,1
138,731,12,0.119186219529421,1
138,758,12,0.141748405927148,1
138,759,12,0.211602267970569,1
138,760,12,0.24551693361927,1
138,761,12,0.283921291166663,2
138,762,12,0.246999175758796,2
139,729,12,0.134501249300528,1
139,730,12,0.142906666930795,1
139,758,12,0.183208599592154,1
139,759,12,0.274212364224844,1
139,760,12,0.262807170836014,1
139,761,12,0.21056413630774,1
140,728,12,0.116696742502747,1
140,729,12,0.169390736107092,1
140,730,12,0.157443644504242,1
140,757,12,0.146697801693295,1
140,758,12,0.205221314161895,1
140,759,12,0.284247703889942,1
140,760,12,0.258414006264661,1
140,761,12,0.181434299266928,1
141,728,12,0.146095604573383,1
141,729,12,0.234388361182371,1
141,730,12,0.201058034986483,1
141,731,12,0.110924778643006,1
141,755,12,0.122462627393987,1
141,758,12,0.18802880891212,1
141,759,12,0.22944637171913,1
141,760,12,0.193018426257004,1
142,728,12,0.141661761106398,1
142,729,12,0.266447814877406,1
142,730,12,0.253748102357962,1
142,731,12,0.14183247415758,1
142,751,12,0.124090039762923,1
142,752,12,0.112669754916514,1
142,754,12,0.118278501260544,1
142,756,12,0.202796753826359,1
142,759,12,0.159699611062018,1
143,729,12,0.171005533222132,1
143,730,12,0.197830225407706,1
143,731,12,0.148055252090474,1
143,750,12,0.115768790749724,1
143,751,12,0.146864354276127,1
143,752,12,0.125093404187559,1
143,756,12,0.208755570677501,1
144,730,12,0.140237999759251,1
144,731,12,0.160199804205906,1
144,732,12,0.126435049266638,1
144,748,12,0.108993060918805,1
144,749,12,0.112174123787519,1
144,750,12,0.131682091407877,1
144,751,12,0.144521954824943,1
145,730,12,0.129038799747044,1
145,731,12,0.175683472371055,1
145,732,12,0.15518097435001,1
145,743,12,0.109521607710265,1
145,744,12,0.114562299544619,1
145,745,12,0.110259114861139,1
145,746,12,0.109782947585416,1
145,747,12,0.110130820740611,1
145,748,12,0.110939278934842,1
146,731,12,0.126149962375089,1
146,732,12,0.121875387882807,1
146,742,12,0.107801460398008,1
146,743,12,0.134062381237033,1
146,744,12,0.139449217345633,1
146,745,12,0.121177154214664,1
147,741,12,0.104993869276612,1
147,742,12,0.143924118946652,1
149,743,12,0.135777999996609,1
149,744,12,0.139414249334169,1
149,745,12,0.140455459520495,1
150,742,12,0.11120803626697,1
150,743,12,0.123301391198153,1
150,744,12,0.128824005808683,1
150,745,12,0.130192877974199,1
150,746,12,0.130522703843095,1
151,743,12,0.109086866652907,1
151,744,12,0.113019780807342,1
151,745,12,0.117258071107825,1
151,746,12,0.126232402111207,1
152,743,12,0.107593950067777,1
152,744,12,0.112135664551944,1
152,745,12,0.119793893298019,1
152,746,12,0.13065354109173,1
153,743,12,0.122361114197071,1
153,744,12,0.122796959507422,1
153,745,12,0.124419519855629,1
125,744,13,0.104552692320494,1
125,745,13,0.140428232434056,1
125,746,13,0.10954479702313,1
126,745,13,0.127009439288438,1
131,731,13,0.104937942766411,1
131,732,13,0.129939156329297,1
131,733,13,0.105159931080336,1
132,731,13,0.16203399073641,1
132,732,13,0.205514264673247,1
132,733,13,0.150768100535833,1
133,731,13,0.163138009494523,1
133,732,13,0.19343474078966,1
133,733,13,0.135712157517607,1
133,758,13,0.110251429706467,1
134,730,13,0.115969463634651,1
134,731,13,0.160580782642767,1
134,732,13,0.163588221247862,1
134,733,13,0.104656971726929,1
134,758,13,0.134644478721647,1
135,729,13,0.108411855759842,1
135,730,13,0.150513620414127,1
135,731,13,0.183631316561359,1
135,732,13,0.154779405498743,1
135,758,13,0.122660177139134,1
135,761,13,0.22946979526748,2
135,763,13,0.226886958669528,1
136,729,13,0.130097822984185,1
136,730,13,0.192988176417421,1
136,731,13,0.205935866235388,1
136,732,13,0.138834237660765,1
136,758,13,0.131366988912229,1
136,760,13,0.277419516464791,2
136,761,13,0.310890205485643,2
136,762,13,0.252361495220124,2
137,729,13,0.13692608848783,1
137,730,13,0.206660278507328,1
137,731,13,0.210691337329346,1
137,732,13,0.12535890453106,1
137,760,13,0.271100356207477,2
137,761,13,0.345126242217693,2
137,762,13,0.302264941123015,2
138,729,13,0.130911222431711,1
138,730,13,0.168197362089063,1
138,731,13,0.149974343406708,1
138,759,13,0.202275970268066,1
138,760,13,0.25702072899258,2
138,761,13,0.30963164707878,2
138,762,13,0.286969609440663,2
139,729,13,0.162345735856795,1
139,730,13,0.177888609828914,1
139,731,13,0.119352682879688,1
139,758,13,0.175242250798654,1
139,759,13,0.238296368297062,1
139,760,13,0.273954125181332,1
139,761,13,0.235550905349144,2
140,728,13,0.113522003992086,1
140,729,13,0.191790720009537,1
140,730,13,0.195037335351417,1
140,731,13,0.118778259395676,1
140,757,13,0.17022605330343,1
140,758,13,0.196312714096809,1
140,759,13,0.262934014927359,1
140,760,13,0.263680445334747,1
140,761,13,0.174922508209619,1
141,728,13,0.121427183862184,1
141,729,13,0.207028809001353,1
141,730,13,0.209660121190316,1
141,731,13,0.133154205651259,1
141,758,13,0.191323119060067,1
141,759,13,0.233242570429702,1
141,760,13,0.196461687864309,1
142,728,13,0.116838789592378,1
142,729,13,0.218873874320037,1
142,730,13,0.247551525337007,1
142,731,13,0.171130336118549,1
142,750,13,0.103327930747677,1
142,751,13,0.14919302306635,1
142,752,13,0.142230072159698,1
142,759,13,0.158175373846524,1
143,729,13,0.152663835228142,1
143,730,13,0.202199386419036,1
143,731,13,0.177685683821717,1
143,732,13,0.125112265721016,1
143,747,13,0.104289099323073,1
143,748,13,0.113958819706584,1
143,750,13,0.118514800247103,1
143,751,13,0.165931959187523,1
144,730,13,0.143774799402963,1
144,731,13,0.185083286553161,1
144,732,13,0.163428751499888,1
144,742,13,0.10763603437631,1
144,743,13,0.116654189723246,1
144,744,13,0.107881758552562,1
144,745,13,0.107195325891159,1
144,747,13,0.117634019058827,1
144,748,13,0.135259737258281,1
145,730,13,0.119462528167375,1
145,731,13,0.194352319256985,1
145,732,13,0.196609970079429,1
145,733,13,0.116893656465868,1
145,742,13,0.112242855170817,1
145,743,13,0.131436958397369,1
145,744,13,0.130986813568454,1
145,745,13,0.130851682002621,1
145,746,13,0.117060086353923,1
146,731,13,0.130185605520141,1
146,732,13,0.139028307335872,1
146,742,13,0.11964979385939,1
146,743,13,0.140885237016416,1
149,743,13,0.149462237715375,1
149,744,13,0.148647365930525,1
150,742,13,0.117796277324461,1
150,743,13,0.126171010106391,1
150,744,13,0.13315699416892,1
150,745,13,0.137612498841092,1
151,743,13,0.108212521363392,1
151,744,13,0.114560648742164,1
151,745,13,0.123535314367665,1
152,743,13,0.110665914971538,1
152,744,13,0.11385406067511,1
152,745,13,0.123250573252307,1
124,745,14,0.106872237080932,1
125,744,14,0.109091495592224,1
125,745,14,0.152069010948925,1
125,746,14,0.11266117743619,1
126,745,14,0.131122982462856,1
129,730,14,0.112885508104949,1
131,731,14,0.105271895641444,1
131,732,14,0.154294939594461,1
131,733,14,0.150929288010686,1
132,731,14,0.148237531912912,1
132,732,14,0.233168262011083,1
132,733,14,0.206094187114086,1
132,734,14,0.10955850537595,1
133,731,14,0.162324353503373,1
133,732,14,0.234212952267449,1
133,733,14,0.177256932500294,1
134,730,14,0.116991890366015,1
134,731,14,0.188091918643815,1
134,732,14,0.223437138468685,1
134,733,14,0.137928337505402,1
135,730,14,0.152105529376208,1
135,731,14,0.210935589168273,1
135,732,14,0.198176916231413,1
135,733,14,0.107063373235459,1
136,729,14,0.118530694797768,1
136,730,14,0.183870905998757,1
136,731,14,0.219899736505158,1
136,732,14,0.158259363998461,1
136,754,14,0.115392987801641,1
136,761,14,0.261969187816792,2
137,729,14,0.127211472969984,1
137,730,14,0.203573924852438,1
137,731,14,0.232357227226533,1
137,732,14,0.142517267170599,1
137,760,14,0.249767437627106,2
137,761,14,0.293041863190237,2
137,762,14,0.271670440758009,2
138,729,14,0.138957467833222,1
138,730,14,0.183337585265062,1
138,731,14,0.176157397678579,1
138,732,14,0.104935154248751,1
138,759,14,0.192814262147965,1
138,760,14,0.261110257452905,2
138,761,14,0.32743508308578,2
138,762,14,0.30209330228397,2
139,729,14,0.181750941024324,1
139,730,14,0.204214369280583,1
139,731,14,0.140013011000323,1
139,758,14,0.176625868645559,1
139,759,14,0.20921012136432,1
139,760,14,0.271463555055734,1
139,761,14,0.254973377018028,2
140,728,14,0.109119826931655,1
140,729,14,0.202051929605143,1
140,730,14,0.222234662729012,1
140,731,14,0.138775734560245,1
140,757,14,0.17972734722024,1
140,758,14,0.188343108314681,1
140,759,14,0.235463078196906,1
140,760,14,0.249086927777214,1
140,761,14,0.166536900208813,1
141,729,14,0.176276846621088,1
141,730,14,0.206894603223384,1
141,731,14,0.15242087726141,1
141,752,14,0.111119506408281,1
141,758,14,0.194867258082262,1
141,759,14,0.225142595869906,1
141,760,14,0.185594890311315,1
142,729,14,0.163114574792104,1
142,730,14,0.217052481508559,1
142,731,14,0.192988778737236,1
142,732,14,0.135583930321502,1
142,750,14,0.104283354976692,1
142,751,14,0.160064806488921,1
142,752,14,0.167398641398503,1
142,759,14,0.15531831442183,1
143,729,14,0.124342300224572,1
143,730,14,0.185140261546002,1
143,731,14,0.201331555106775,1
143,732,14,0.168304519245724,1
143,733,14,0.119496771164247,1
143,747,14,0.119911356815954,1
143,748,14,0.124979353815241,1
144,730,14,0.135996887478895,1
144,731,14,0.195475266472978,1
144,732,14,0.194489335860757,1
144,733,14,0.124434901319045,1
144,742,14,0.113738192189277,1
144,743,14,0.120293907976776,1
144,744,14,0.113240386016507,1
144,745,14,0.120208690877068,1
144,746,14,0.109513454084625,1
144,747,14,0.124838901757712,1
145,730,14,0.106118400370636,1
145,731,14,0.189402388095448,1
145,732,14,0.2107714458647,1
145,733,14,0.125691641612393,1
145,742,14,0.120921090214926,1
145,743,14,0.141684481948297,1
146,731,14,0.118616045746324,1
146,732,14,0.134678721718519,1
150,743,14,0.115381766806574,1
150,744,14,0.126087287652149,1
151,744,14,0.103376852501515,1
124,745,15,0.111034445465562,1
125,745,15,0.137180178217064,1
125,746,15,0.108669793643447,1
126,745,15,0.114526818445906,1
130,733,15,0.108504981095635,1
131,732,15,0.154970151260798,1
131,733,15,0.193143708778459,1
131,734,15,0.128273273570715,1
132,731,15,0.126556260552309,1
132,732,15,0.218536932154071,1
132,733,15,0.241573010397111,1
132,734,15,0.138656162922959,1
133,731,15,0.155685495273306,1
133,732,15,0.238208608069247,1
133,733,15,0.199341646596032,1
134,730,15,0.123570672771602,1
134,731,15,0.199494033509148,1
134,732,15,0.25444313480783,1
134,733,15,0.1623638946838,1
135,730,15,0.149499191151413,1
135,731,15,0.213291105806533,1
135,732,15,0.216085490508287,1
135,733,15,0.121735047365984,1
135,754,15,0.110779965343856,1
136,729,15,0.105890846175461,1
136,730,15,0.168292249768018,1
136,731,15,0.211898542394972,1
136,732,15,0.166912368534777,1
136,753,15,0.126047478774027,1
136,754,15,0.150518472434856,1
136,755,15,0.114991073174183,1
137,729,15,0.120871532679062,1
137,730,15,0.191101376135696,1
137,731,15,0.224558011027539,1
137,732,15,0.152107570571136,1
137,753,15,0.116403078130874,1
137,754,15,0.112912311336703,1
137,761,15,0.254098853263382,2
138,729,15,0.143286641501299,1
138,730,15,0.190444312142295,1
138,731,15,0.185663800159744,1
138,732,15,0.121711768820553,1
138,760,15,0.250864016620101,1
138,761,15,0.315808882941241,2
138,762,15,0.275837623858147,1
139,729,15,0.174375189117268,1
139,730,15,0.20616597471274,1
139,731,15,0.153564247580749,1
139,759,15,0.190832362259943,1
139,760,15,0.250156357762265,1
139,761,15,0.254716097224591,1
140,729,15,0.180549246069596,1
140,730,15,0.216541335067301,1
140,731,15,0.150168513468451,1
140,758,15,0.187997421357333,1
140,759,15,0.207362739568245,1
140,760,15,0.221759967790613,1
141,729,15,0.145627133606403,1
141,730,15,0.189568516823596,1
141,731,15,0.158188424109176,1
141,732,15,0.111831236501901,1
141,752,15,0.122346814678507,1
141,759,15,0.203176884553852,1
142,729,15,0.119859925396222,1
142,730,15,0.173947843208746,1
142,731,15,0.18670328146512,1
142,732,15,0.157651690229864,1
142,733,15,0.118856728282645,1
143,730,15,0.153026621375786,1
143,731,15,0.202577420181247,1
143,732,15,0.207681567523487,1
143,733,15,0.162378495362271,1
143,747,15,0.124630075247145,1
144,731,15,0.19027146866362,1
144,732,15,0.213660863248328,1
144,733,15,0.148485654214351,1
144,742,15,0.110565539489827,1
144,743,15,0.112679693193456,1
145,731,15,0.167028315099105,1
145,732,15,0.197916892536597,1
145,733,15,0.126830003754014,1
146,732,15,0.119342376518415,1
125,745,16,0.111581898406761,1
130,733,16,0.118153084890241,1
131,732,16,0.141375926892116,1
131,733,16,0.21447872432411,1
131,734,16,0.153236864453324,1
132,731,16,0.106854312489409,1
132,732,16,0.186025838984655,1
132,733,16,0.254758148070912,1
132,734,16,0.16673999352707,1
133,731,16,0.146114343412062,1
133,732,16,0.211118047455841,1
133,733,16,0.204203817529755,1
133,734,16,0.117602363806344,1
134,730,16,0.134538001963295,1
134,731,16,0.199438173923371,1
134,732,16,0.245036460872279,1
134,733,16,0.177516253488659,1
135,730,16,0.148941164151245,1
135,731,16,0.202713142912824,1
135,732,16,0.208056567378484,1
135,733,16,0.138466209099919,1
135,754,16,0.121959322264391,1
135,755,16,0.111232820611937,1
136,730,16,0.15502852051247,1
136,731,16,0.192834384091404,1
136,732,16,0.166033539308863,1
136,733,16,0.114641248056626,1
136,752,16,0.120378522756669,1
136,753,16,0.148930266624228,1
136,754,16,0.160049793109836,1
137,729,16,0.117835907737454,1
137,730,16,0.17735619257494,1
137,731,16,0.198787534674659,1
137,732,16,0.153300085725725,1
137,733,16,0.109346912655864,1
137,752,16,0.12291256029556,1
137,753,16,0.137239885957212,1
137,754,16,0.122484779378283,1
138,729,16,0.140388791640265,1
138,730,16,0.191065370795663,1
138,731,16,0.184649950908704,1
138,732,16,0.137379111066971,1
138,761,16,0.278919984355747,1
139,729,16,0.148631906388614,1
139,730,16,0.189012107163671,1
139,731,16,0.163465124924253,1
139,732,16,0.124995159133341,1
139,760,16,0.213588741027554,1
140,729,16,0.142182578126903,1
140,730,16,0.184206654679164,1
140,731,16,0.155912659076009,1
140,732,16,0.117131639717094,1
140,759,16,0.188465446161487,1
141,729,16,0.116032417209357,1
141,730,16,0.159950577651472,1
141,731,16,0.154245660910363,1
141,732,16,0.122446130523507,1
142,730,16,0.13378347370062,1
142,731,16,0.164258815128953,1
142,732,16,0.164782554515966,1
142,733,16,0.137096277297692,1
143,731,16,0.183587046054979,1
143,732,16,0.229362805421878,1
143,733,16,0.195481758142092,1
143,734,16,0.112360050991057,1
144,731,16,0.165609941168077,1
144,732,16,0.212095969445342,1
144,733,16,0.165802783895414,1
145,732,16,0.161987679035103,1
145,733,16,0.123373479956715,1
130,733,17,0.11609271611525,1
131,732,17,0.124229532570377,1
131,733,17,0.203591682132901,1
131,734,17,0.164937373016483,1
132,732,17,0.158002954222534,1
132,733,17,0.247658403641902,1
132,734,17,0.198083601276418,1
133,730,17,0.10341913758332,1
133,731,17,0.146056264166227,1
133,732,17,0.180792304422964,1
133,733,17,0.20126373835727,1
133,734,17,0.148024132233381,1
134,730,17,0.146957870004393,1
134,731,17,0.209293375347594,1
134,732,17,0.216233438101288,1
134,733,17,0.178798458525284,1
134,734,17,0.115949687467402,1
135,730,17,0.15314319256807,1
135,731,17,0.206929939319179,1
135,732,17,0.192680390992115,1
135,733,17,0.151794375421568,1
135,734,17,0.105985510773003,1
135,754,17,0.112333928157613,1
136,730,17,0.145866276880976,1
136,731,17,0.176807200371993,1
136,732,17,0.15825048535823,1
136,733,17,0.135192009741341,1
136,734,17,0.105118884100372,1
136,752,17,0.137507951736961,1
136,753,17,0.152503919317342,1
137,729,17,0.113585626811031,1
137,730,17,0.165515399265313,1
137,731,17,0.173961718872625,1
137,732,17,0.14967623971472,1
137,733,17,0.137541257791899,1
137,734,17,0.10808557688541,1
137,752,17,0.134657528984299,1
137,753,17,0.140578801233658,1
138,729,17,0.12651235813026,1
138,730,17,0.183755940992646,1
138,731,17,0.183051427582732,1
138,732,17,0.153762276950934,1
138,733,17,0.133678982366842,1
138,740,17,0.119501422411705,1
138,741,17,0.106881628808412,1
139,729,17,0.118059268002068,1
139,730,17,0.16502588056703,1
139,731,17,0.173668846439768,1
139,732,17,0.155200906674248,1
139,733,17,0.120432564228931,1
139,738,17,0.111960088325962,1
139,739,17,0.1316227740602,1
139,740,17,0.124423423780354,1
140,729,17,0.108689603272908,1
140,730,17,0.150537456663089,1
140,731,17,0.162359678445098,1
140,732,17,0.144018292765086,1
140,738,17,0.123210373981711,1
140,739,17,0.125192987730255,1
141,730,17,0.132560374084329,1
141,731,17,0.148133051733204,1
141,732,17,0.134932175665726,1
142,730,17,0.107432149119038,1
142,731,17,0.140150908775675,1
142,732,17,0.167044689274808,1
142,733,17,0.150652901294238,1
143,731,17,0.153873761887005,1
143,732,17,0.230390385333878,1
143,733,17,0.21410019978279,1
143,734,17,0.121150808299806,1
144,732,17,0.192623215226002,1
144,733,17,0.171685496522562,1
144,734,17,0.109421131841918,1
144,741,17,0.107240711804603,1
130,733,18,0.104367936294373,1
131,732,18,0.105261210041769,1
131,733,18,0.1660530923947,1
131,734,18,0.156265774644406,1
132,732,18,0.129943272181364,1
132,733,18,0.213341499897695,1
132,734,18,0.210100840829538,1
132,735,18,0.108183866555911,1
133,731,18,0.141170045056199,1
133,732,18,0.146994522280524,1
133,733,18,0.178188018547167,1
133,734,18,0.169276719196985,1
133,747,18,0.108701025041246,1
134,730,18,0.146793079764722,1
134,731,18,0.215527095423788,1
134,732,18,0.179718624736998,1
134,733,18,0.1563517948372,1
134,734,18,0.132022926344496,1
134,740,18,0.11575968902808,1
134,741,18,0.152976695755591,1
134,742,18,0.128195429311702,1
135,730,18,0.147776132626718,1
135,731,18,0.210087589793615,1
135,732,18,0.171669590817826,1
135,733,18,0.145032755490011,1
135,734,18,0.121307199524283,1
135,740,18,0.120812594569788,1
135,741,18,0.153050892633504,1
135,742,18,0.127090306300595,1
135,752,18,0.103124469345089,1
136,730,18,0.133221152383255,1
136,731,18,0.162123669464375,1
136,732,18,0.145565920066717,1
136,733,18,0.141239546070372,1
136,734,18,0.121520275735765,1
136,741,18,0.105498334429555,1
136,751,18,0.11217726923544,1
136,752,18,0.137422946564595,1
137,729,18,0.106898939926049,1
137,730,18,0.14869469265226,1
137,731,18,0.154801903259228,1
137,732,18,0.14490979301525,1
137,733,18,0.155164700560943,1
137,734,18,0.129145644589727,1
137,740,18,0.105742497035917,1
137,751,18,0.104505030976639,1
137,752,18,0.127762015588751,1
138,729,18,0.109796142850986,1
138,730,18,0.164037774911033,1
138,731,18,0.179181745854768,1
138,732,18,0.169800168578162,1
138,733,18,0.161782834527756,1
138,734,18,0.119318038336273,1
138,739,18,0.127912461693575,1
138,740,18,0.14972590879129,1
138,741,18,0.121408445023504,1
139,730,18,0.144319028817746,1
139,731,18,0.182733558877565,1
139,732,18,0.181547122691475,1
139,733,18,0.14292810505457,1
139,738,18,0.131700863708768,1
139,739,18,0.169481229082214,1
139,740,18,0.169620454191972,1
139,741,18,0.123082392175161,1
140,730,18,0.124062589595072,1
140,731,18,0.160364962529907,1
140,732,18,0.156122969077972,1
140,733,18,0.110941375900122,1
140,738,18,0.137227649941718,1
140,739,18,0.147852125310005,1
140,740,18,0.124328982264225,1
141,731,18,0.132297740336983,1
141,732,18,0.134098475809632,1
141,733,18,0.107580754802207,1
142,731,18,0.115919794558081,1
142,732,18,0.157193982941054,1
142,733,18,0.154179662274372,1
143,731,18,0.122416817625859,1
143,732,18,0.208967587252271,1
143,733,18,0.217920045123124,1
143,734,18,0.126150709697822,1
143,740,18,0.114600658393559,1
143,741,18,0.113297115619795,1
144,732,18,0.165443723207365,1
144,733,18,0.176046726989665,1
144,734,18,0.120295413776312,1
144,740,18,0.111087929234293,1
131,733,19,0.12432039362983,1
131,734,19,0.131297443281774,1
131,747,19,0.104409429437163,1
132,732,19,0.107234844763445,1
132,733,19,0.164437849116834,1
132,734,19,0.187725418190647,1
132,735,19,0.112299372846762,1
132,747,19,0.121701038604595,1
132,748,19,0.106980230792891,1
132,750,19,0.105924107614117,1
133,731,19,0.131439969996442,1
133,732,19,0.12380487479288,1
133,733,19,0.148627857460971,1
133,734,19,0.169200135347955,1
133,735,19,0.116494831515978,1
133,741,19,0.108502750281506,1
133,747,19,0.118665603282188,1
133,748,19,0.108831806519528,1
134,730,19,0.134494144157529,1
134,731,19,0.202215760594739,1
134,732,19,0.154870389252973,1
134,733,19,0.133281819373479,1
134,734,19,0.138915885457867,1
134,735,19,0.11776447706906,1
134,740,19,0.148131690936586,1
134,741,19,0.191440682964638,1
134,742,19,0.151713954572236,1
134,748,19,0.106555573015394,1
135,730,19,0.135355550725099,1
135,731,19,0.200273725355192,1
135,732,19,0.16108888402274,1
135,733,19,0.135367842510947,1
135,734,19,0.129543253745916,1
135,735,19,0.11443381580489,1
135,736,19,0.107121842873767,1
135,737,19,0.106684759461574,1
135,739,19,0.107979256284047,1
135,740,19,0.150105024498355,1
135,741,19,0.191674829215563,1
135,742,19,0.157255865724978,1
135,743,19,0.111751484896808,1
135,748,19,0.111155991373353,1
135,749,19,0.11576715110134,1
135,750,19,0.105345780205379,1
136,730,19,0.120907984181922,1
136,731,19,0.151081184144694,1
136,732,19,0.141938939761861,1
136,733,19,0.140301444113064,1
136,734,19,0.128261494872117,1
136,737,19,0.118654192667921,1
136,738,19,0.123061768298543,1
136,739,19,0.115640496629195,1
136,740,19,0.122549484142079,1
136,741,19,0.13006041223125,1
136,742,19,0.115695185037555,1
136,749,19,0.109324816441921,1
136,750,19,0.112325618374984,1
136,751,19,0.115201695490124,1
137,730,19,0.129440212441322,1
137,731,19,0.141845424033596,1
137,732,19,0.144330283275024,1
137,733,19,0.158491859446931,1
137,734,19,0.137495883032526,1
137,737,19,0.104879049273419,1
137,738,19,0.119761691496074,1
137,739,19,0.119862167364421,1
137,740,19,0.11986389624537,1
137,741,19,0.105781101274411,1
138,730,19,0.139085728491539,1
138,731,19,0.17212995277545,1
138,732,19,0.184044351797246,1
138,733,19,0.176392324714449,1
138,734,19,0.133070739740642,1
138,738,19,0.112248989909671,1
138,739,19,0.153191054685196,1
138,740,19,0.171313274031155,1
138,741,19,0.128431438292424,1
138,742,19,0.103852305916717,1
138,743,19,0.105855521233737,1
138,744,19,0.103574558403651,1
139,731,19,0.188552804842758,1
139,732,19,0.203607520913213,1
139,733,19,0.158010572452783,1
139,734,19,0.104045204414406,1
139,738,19,0.137136911577042,1
139,739,19,0.206292863420368,1
139,740,19,0.214853501097694,1
139,741,19,0.144056573535531,1
139,742,19,0.107463068202859,1
139,743,19,0.104363508128328,1
140,731,19,0.157444157591492,1
140,732,19,0.15859792350467,1
140,733,19,0.116080558178249,1
140,738,19,0.131194513517886,1
140,739,19,0.16272278806079,1
140,740,19,0.153209481209897,1
140,741,19,0.113278811789871,1
141,732,19,0.132083849878345,1
141,733,19,0.113761292269578,1
142,732,19,0.143882592341651,1
142,733,19,0.148597730316166,1
142,740,19,0.103816724431368,1
143,732,19,0.173315641638806,1
143,733,19,0.197270514142871,1
143,734,19,0.120923097947642,1
143,740,19,0.117302196611286,1
131,734,20,0.103318561328337,1
131,737,20,0.114726030147579,1
131,738,20,0.156619581765183,1
131,739,20,0.130329816499476,1
131,746,20,0.10610891941059,1
131,747,20,0.114093717036933,1
132,733,20,0.118508118958788,1
132,734,20,0.143634715429765,1
132,735,20,0.107017072688223,1
132,738,20,0.143346650401355,1
132,739,20,0.128429095937589,1
132,746,20,0.103790623906065,1
132,747,20,0.127707026020484,1
133,732,20,0.106319207104411,1
133,733,20,0.118655151917996,1
133,734,20,0.145174802579642,1
133,735,20,0.127101092286907,1
133,738,20,0.110476552314242,1
133,739,20,0.118267815660868,1
133,740,20,0.117622909604467,1
133,741,20,0.119131642661768,1
133,747,20,0.116885625535005,1
133,748,20,0.109566692463801,1
134,731,20,0.167728857659871,1
134,732,20,0.137208688021626,1
134,733,20,0.116975873120573,1
134,734,20,0.134556473104279,1
134,735,20,0.149479504216729,1
134,736,20,0.135227301220853,1
134,737,20,0.106157316923108,1
134,738,20,0.108708442498223,1
134,739,20,0.131911329867719,1
134,740,20,0.171358771485305,1
134,741,20,0.20410093238215,1
134,742,20,0.160049815417977,1
134,743,20,0.112864148059669,1
134,748,20,0.11365523936591,1
135,731,20,0.171762124987876,1
135,732,20,0.154473125872973,1
135,733,20,0.1281101341335,1
135,734,20,0.129281200010244,1
135,735,20,0.144891489185325,1
135,736,20,0.147656081364394,1
135,737,20,0.129683560800527,1
135,738,20,0.125364950037348,1
135,739,20,0.134221226357051,1
135,740,20,0.16898006553418,1
135,741,20,0.208260553022392,1
135,742,20,0.177588364555362,1
135,743,20,0.130246484437707,1
135,744,20,0.110261579910751,1
135,748,20,0.125462983164224,1
135,749,20,0.132150383909727,1
135,750,20,0.113053109170422,1
136,731,20,0.134370255894904,1
136,732,20,0.139489662005782,1
136,733,20,0.134239597111399,1
136,734,20,0.125681948725005,1
136,735,20,0.115111325209779,1
136,736,20,0.120399313944346,1
136,737,20,0.142556986816156,1
136,738,20,0.16248716947254,1
136,739,20,0.145273694569957,1
136,740,20,0.137686316480603,1
136,741,20,0.147041112833597,1
136,742,20,0.139745592156672,1
136,743,20,0.119112334965486,1
136,744,20,0.108958795613791,1
136,749,20,0.12057196780382,1
137,731,20,0.127245660196503,1
137,732,20,0.144112321580601,1
137,733,20,0.152214973117351,1
137,734,20,0.135473449251789,1
137,737,20,0.125620958266732,1
137,738,20,0.161062571570094,1
137,739,20,0.147701299966779,1
137,740,20,0.127811037729224,1
137,741,20,0.114704893183712,1
137,742,20,0.115667065625465,1
137,743,20,0.121968557834882,1
137,744,20,0.121184493593146,1
138,731,20,0.1557846995776,1
138,732,20,0.189031292165176,1
138,733,20,0.176945800853795,1
138,734,20,0.137451668296499,1
138,738,20,0.132266999718293,1
138,739,20,0.169462958714501,1
138,740,20,0.173619010052138,1
138,741,20,0.129609040454565,1
138,742,20,0.119667004590391,1
138,743,20,0.135935317008949,1
138,744,20,0.132360002359309,1
138,745,20,0.10412947341811,1
139,731,20,0.175415451207589,1
139,732,20,0.207385761570051,1
139,733,20,0.161958366137455,1
139,734,20,0.112420974524906,1
139,738,20,0.13544429251113,1
139,739,20,0.216855366772166,1
139,740,20,0.229485834821063,1
139,741,20,0.155962897010183,1
139,742,20,0.119824187753883,1
139,743,20,0.118470775130277,1
139,744,20,0.108451809640883,1
140,732,20,0.155175296928053,1
140,733,20,0.121102477711713,1
140,738,20,0.121156206869997,1
140,739,20,0.164832580522798,1
140,740,20,0.168661047959738,1
140,741,20,0.132879592432043,1
141,733,20,0.116292541290808,1
141,739,20,0.107300676088376,1
141,740,20,0.110331672090668,1
142,740,20,0.107063618625014,1
132,734,21,0.107331929794316,1
133,734,21,0.119556278131124,1
133,735,21,0.131217278976067,1
133,747,21,0.107777836076387,1
134,733,21,0.115240578580383,1
134,734,21,0.132267434727048,1
134,735,21,0.178388033341926,1
134,739,21,0.160821085940687,1
134,740,21,0.173569285205214,1
134,741,21,0.182683432484098,1
134,742,21,0.151398428221905,1
135,732,21,0.14867627728163,1
135,733,21,0.129632820933175,1
135,734,21,0.132084652971431,1
135,735,21,0.174222835666363,1
135,736,21,0.187750024070484,1
135,737,21,0.147690525134538,1
135,738,21,0.147408862542677,1
135,739,21,0.163205212770144,1
135,740,21,0.173050654382555,1
135,741,21,0.194826746497689,1
135,742,21,0.177853909515145,1
135,743,21,0.137662547156064,1
136,733,21,0.126656491031101,1
136,734,21,0.121484103084672,1
136,735,21,0.130980779216236,1
136,736,21,0.143292765086081,1
136,737,21,0.155995533820882,1
136,738,21,0.187324295502206,1
136,739,21,0.17135312752556,1
136,740,21,0.145243757044353,1
136,741,21,0.151897059795902,1
136,742,21,0.153532882334103,1
136,743,21,0.130425440347093,1
136,744,21,0.113872643356801,1
137,732,21,0.142242096247851,1
137,733,21,0.141315126053045,1
137,734,21,0.128182858674088,1
137,737,21,0.142795661619762,1
137,738,21,0.191187976340164,1
137,739,21,0.171533109609446,1
137,740,21,0.130284374815679,1
137,741,21,0.120126831152623,1
137,742,21,0.132141873353826,1
137,743,21,0.14036526770528,1
137,744,21,0.133281540521712,1
138,731,21,0.13553406047166,1
138,732,21,0.179871134344892,1
138,733,21,0.163645586633176,1
138,734,21,0.133017702134737,1
138,738,21,0.1564620528255,1
138,739,21,0.176808092697644,1
138,740,21,0.15979514567707,1
138,741,21,0.12777033652545,1
138,742,21,0.13181376521181,1
138,743,21,0.15502331156148,1
138,744,21,0.150092576555518,1
139,731,21,0.148717658883713,1
139,732,21,0.186355162920371,1
139,733,21,0.152139270439901,1
139,734,21,0.118728891479013,1
139,738,21,0.137932497973752,1
139,739,21,0.200262660517115,1
139,740,21,0.208769334800674,1
139,741,21,0.155205000218174,1
140,732,21,0.147540837506517,1
140,733,21,0.123731692935395,1
140,739,21,0.155417362569134,1
140,740,21,0.165690317401127,1
140,741,21,0.142548520876539,1
141,740,21,0.121511475174028,1
136,732,22,0.121090944402669,1
136,733,22,0.116931948390383,1
137,731,22,0.104748323565491,1
137,732,22,0.13836378126921,1
137,733,22,0.132643449602473,1
137,734,22,0.1218341289755,1
137,739,22,0.178547280008488,1
138,731,22,0.116355216013748,1
138,732,22,0.164059648043563,1
138,733,22,0.150114583536895,1
138,734,22,0.127030922028495,1
138,738,22,0.177434973775888,1
138,739,22,0.182475241755558,1
138,740,22,0.146982698965643,1
139,731,22,0.121206556344877,1
139,732,22,0.158215885431097,1
139,733,22,0.14269665808874,1
139,734,22,0.124715191960217,1
139,738,22,0.144726130088052,1
139,739,22,0.176979809615184,1
139,740,22,0.176802214502416,1
139,741,22,0.149543216268239,1
140,732,22,0.145313168825961,1
140,733,22,0.134014530273977,1
140,739,22,0.144426565212809,1
140,740,22,0.160342420153139,1
140,741,22,0.150142056012887,1
141,740,22,0.1396047385526,1
141,741,22,0.144967381481976,1
136,732,23,0.111230411332679,1
136,733,23,0.110439108099096,1
136,742,23,0.156190049658815,1
136,743,23,0.132704350828181,1
137,732,23,0.140658207062561,1
137,733,23,0.130054299800538,1
137,734,23,0.119875128394507,1
137,742,23,0.145504371904913,1
137,743,23,0.143595397330751,1
138,731,23,0.106472765194945,1
138,732,23,0.155729732317474,1
138,733,23,0.142301023203055,1
138,734,23,0.125265812657479,1
138,735,23,0.12982981297479,1
138,739,23,0.175002382509489,1
138,740,23,0.135683123471725,1
139,731,23,0.103087973225947,1
139,732,23,0.138700009574654,1
139,733,23,0.137277776335185,1
139,734,23,0.134599996287925,1
139,739,23,0.155660978626034,1
139,740,23,0.147701288812708,1
139,741,23,0.140850514394507,1
140,732,23,0.143024866617392,1
140,733,23,0.147044035200105,1
140,739,23,0.133149041316552,1
140,740,23,0.150946409509122,1
140,741,23,0.151601744621574,1
140,742,23,0.125629580363339,1
141,739,23,0.129750964849419,1
141,740,23,0.153446940219803,1
141,741,23,0.162183890291774,1
141,742,23,0.129560152162939,1
142,740,23,0.121822539896103,1
142,741,23,0.128671027729823,1
135,742,24,0.135258822624489,1
135,743,24,0.121131879841926,1
136,734,24,0.116177319741072,1
136,741,24,0.145119433772973,1
136,742,24,0.145581803463312,1
136,743,24,0.131714427058669,1
136,744,24,0.115136778798985,1
137,732,24,0.126143894560659,1
137,733,24,0.118214934211953,1
137,734,24,0.111613497888891,1
137,735,24,0.131513575708611,1
137,741,24,0.132479841694291,1
137,742,24,0.141671967081036,1
137,743,24,0.139177894577257,1
137,744,24,0.125965072500121,1
138,732,24,0.12839889071429,1
138,733,24,0.124590065595751,1
138,734,24,0.11580830962201,1
138,735,24,0.125365786592646,1
138,742,24,0.130294971182789,1
138,743,24,0.13112964144303,1
139,732,24,0.113727785441368,1
139,733,24,0.125972858041429,1
139,734,24,0.13385866329082,1
139,735,24,0.141325164716623,1
139,740,24,0.130166989376238,1
139,741,24,0.133159983459852,1
140,732,24,0.125160473614332,1
140,733,24,0.146101650079671,1
140,734,24,0.153735150251132,1
140,735,24,0.156087800293236,1
140,739,24,0.122122562088242,1
140,740,24,0.139806582614944,1
140,741,24,0.149251671169788,1
140,742,24,0.128386777393572,1
141,739,24,0.123177436011104,1
141,740,24,0.152866192377736,1
141,741,24,0.166677352266342,1
141,742,24,0.129056077402469,1
142,740,24,0.118790071556486,1
142,741,24,0.126692329060075,1
135,742,25,0.124282246708233,1
135,743,25,0.121244000560024,1
136,732,25,0.103932983309673,1
136,733,25,0.10794718833095,1
136,734,25,0.122455957259743,1
136,741,25,0.13470287028146,1
136,742,25,0.13302070257974,1
136,743,25,0.133640880061528,1
136,744,25,0.118495938713647,1
137,732,25,0.123895668927909,1
137,733,25,0.120015022748504,1
137,734,25,0.117661937697645,1
137,735,25,0.127568771314871,1
137,741,25,0.129742521217942,1
137,742,25,0.134018958440022,1
137,743,25,0.138315573375894,1
137,744,25,0.124602268149034,1
137,745,25,0.12989267731693,1
138,732,25,0.119792655196177,1
138,733,25,0.125721545675785,1
138,734,25,0.123023532144381,1
138,735,25,0.126872400376526,1
138,742,25,0.126540254460937,1
138,743,25,0.12415092983456,1
138,744,25,0.135816838470586,1
139,732,25,0.107553449637274,1
139,733,25,0.128817937994254,1
139,734,25,0.144413648799006,1
139,735,25,0.165935773879683,1
139,740,25,0.125927182122148,1
139,741,25,0.13364508514616,1
139,742,25,0.133098301449199,1
139,743,25,0.130639520424933,1
140,732,25,0.112312445417555,1
140,733,25,0.146504925503747,1
140,734,25,0.171648186156264,1
140,735,25,0.200936344075774,1
140,736,25,0.176593321067425,1
140,739,25,0.124314437356107,1
140,740,25,0.13531128021872,1
140,741,25,0.149105987853128,1
140,742,25,0.136308688369633,1
140,743,25,0.124876089429234,1
141,734,25,0.15962949657396,1
141,735,25,0.174995567372327,1
141,739,25,0.122635515488944,1
141,740,25,0.148990141675436,1
141,741,25,0.163240872333987,1
141,742,25,0.12872254838212,1
142,740,25,0.117306100536011,1
142,741,25,0.123195360602627,1
135,742,26,0.116249821200248,1
135,743,26,0.119682151818323,1
135,744,26,0.116438068450479,1
136,732,26,0.114350907597805,1
136,733,26,0.11585640597462,1
136,734,26,0.129323351243201,1
136,741,26,0.122365430822409,1
136,742,26,0.122493658018514,1
136,743,26,0.128323288423476,1
136,744,26,0.117394005766744,1
136,745,26,0.1158195975415,1
137,732,26,0.121910110504716,1
137,733,26,0.123726082437862,1
137,734,26,0.128274299745214,1
137,735,26,0.12740935733725,1
137,741,26,0.127568503617176,1
137,742,26,0.128910293699173,1
137,743,26,0.131750320857996,1
137,744,26,0.121184136662886,1
137,745,26,0.127499203376275,1
138,732,26,0.112924513889986,1
138,733,26,0.130878864472777,1
138,734,26,0.13777411017063,1
138,735,26,0.130950785920279,1
138,741,26,0.132107251118553,1
138,742,26,0.13097841455326,1
138,743,26,0.124967630886996,1
138,744,26,0.132008916831769,1
139,732,26,0.104442757800242,1
139,733,26,0.133946813911107,1
139,734,26,0.159067509878714,1
139,735,26,0.186077783491636,1
139,736,26,0.175328839849051,1
139,740,26,0.129383594378741,1
139,741,26,0.138855062310654,1
139,742,26,0.14148380906337,1
139,743,26,0.134218214757978,1
140,733,26,0.141623212638258,1
140,734,26,0.186034293770202,1
140,735,26,0.24163290775646,1
140,736,26,0.213329051954858,1
140,737,26,0.1477431611939,1
140,739,26,0.136588477077626,1
140,740,26,0.139573060991975,1
140,741,26,0.150576283982995,1
140,742,26,0.144712745203281,1
140,743,26,0.13049778564928,1
141,734,26,0.178485452994917,1
141,735,26,0.204619038963489,1
141,736,26,0.171030986811338,1
141,739,26,0.134462990838225,1
141,740,26,0.150830964877973,1
141,741,26,0.156351281749951,1
141,742,26,0.129994670138884,1
142,735,26,0.175753229928852,1
142,740,26,0.124864054187011,1
142,741,26,0.124831261219322,1
135,742,27,0.113660515241324,1
135,743,27,0.121892944389998,1
135,744,27,0.117133335135831,1
136,733,27,0.117612134772226,1
136,734,27,0.135165842291614,1
136,741,27,0.111855596992184,1
136,742,27,0.114903011786462,1
136,743,27,0.124537295687542,1
136,744,27,0.116523921332214,1
136,745,27,0.113453796850108,1
137,732,27,0.115214076508537,1
137,733,27,0.122123777881942,1
137,734,27,0.141117922084087,1
137,735,27,0.135561722566853,1
137,740,27,0.121234207286,1
137,741,27,0.124101193833566,1
137,742,27,0.12266688073559,1
137,743,27,0.126111068130759,1
137,744,27,0.119793770603242,1
137,745,27,0.12292177355791,1
138,732,27,0.105382633254782,1
138,733,27,0.128715688628675,1
138,734,27,0.152141434329606,1
138,735,27,0.141269260514563,1
138,736,27,0.136531914785399,1
138,740,27,0.126872400376526,1
138,741,27,0.133790266529641,1
138,742,27,0.132294985281535,1
138,743,27,0.127733461167906,1
138,744,27,0.127155836465619,1
139,733,27,0.133599108066972,1
139,734,27,0.171523204794716,1
139,735,27,0.192073431084039,1
139,736,27,0.175498392876886,1
139,737,27,0.143760845660589,1
139,740,27,0.1287076242356,1
139,741,27,0.139340030148114,1
139,742,27,0.14527114028778,1
139,743,27,0.139345317177599,1
140,733,27,0.13695386212373,1
140,734,27,0.190855518110597,1
140,735,27,0.248736221488076,1
140,736,27,0.225689903808187,1
140,737,27,0.158989899855184,1
140,739,27,0.148322626317842,1
140,740,27,0.144555628964212,1
140,741,27,0.150437237338367,1
140,742,27,0.149906861279322,1
140,743,27,0.138092525425258,1
141,733,27,0.134174133870799,1
141,734,27,0.189413876788209,1
141,735,27,0.222466332776254,1
141,736,27,0.193239299163864,1
141,737,27,0.14790708141606,1
141,739,27,0.150768457466093,1
141,740,27,0.156396031881368,1
141,741,27,0.152193702304636,1
141,742,27,0.134141920914784,1
142,734,27,0.183003030070214,1
142,735,27,0.212546906213272,1
142,736,27,0.171501353970327,1
142,740,27,0.134503033951831,1
142,741,27,0.130056530614667,1
143,735,27,0.175683438908843,1
135,741,28,0.109561673132012,1
135,742,28,0.117437272406766,1
135,743,28,0.127652281841771,1
136,740,28,0.106507443200572,1
136,741,28,0.109367815384247,1
136,742,28,0.11567079108506,1
136,743,28,0.127717510846888,1
136,744,28,0.127755178143447,1
137,733,28,0.113415036454626,1
137,734,28,0.14435607148635,1
137,739,28,0.112032411320008,1
137,740,28,0.120553708590178,1
137,741,28,0.127133305242922,1
137,742,28,0.122425540109101,1
137,743,28,0.125917288461489,1
137,744,28,0.128437639955701,1
137,745,28,0.126093266234014,1
138,733,28,0.115972542158148,1
138,734,28,0.15573730593144,1
138,735,28,0.152042464260796,1
138,739,28,0.117656762208866,1
138,740,28,0.128198072826444,1
138,741,28,0.139667156731914,1
138,742,28,0.135657982196497,1
138,743,28,0.133824052209617,1
138,744,28,0.131524540160053,1
139,733,28,0.127095281016102,1
139,734,28,0.181070710026198,1
139,735,28,0.190138489833422,1
139,736,28,0.169093457816331,1
139,739,28,0.125462693158388,1
139,740,28,0.126776330366083,1
139,741,28,0.1386113904834,1
139,742,28,0.14558106729465,1
139,743,28,0.144620054876243,1
139,744,28,0.135465418320927,1
140,733,28,0.131460493486424,1
140,734,28,0.193701189229165,1
140,735,28,0.233685387034205,1
140,736,28,0.221003543335929,1
140,737,28,0.174281238380247,1
140,740,28,0.144402405495798,1
140,741,28,0.145393098896184,1
140,742,28,0.148938665639421,1
140,743,28,0.144100353262802,1
141,733,28,0.124840195629907,1
141,734,28,0.188682437451764,1
141,735,28,0.224645592790223,1
141,736,28,0.212589447838703,1
141,737,28,0.174376828765652,1
141,740,28,0.15529193504476,1
141,741,28,0.143461593099324,1
142,733,28,0.10880892952064,1
142,734,28,0.191467430426038,1
142,735,28,0.227171521319757,1
142,736,28,0.188263089011893,1
142,737,28,0.151166479322896,1
143,734,28,0.142532314011895,1
143,735,28,0.189580808609443,1
143,736,28,0.164821036059683,1
143,737,28,0.14396210971126,1
144,735,28,0.13263263015395,1
135,741,29,0.119300258747669,1
135,742,29,0.125057398847526,1
135,743,29,0.130992836766601,1
136,740,29,0.113055629990387,1
136,741,29,0.119474496485174,1
136,742,29,0.123921635604365,1
136,743,29,0.135242905765682,1
136,744,29,0.140256058199621,1
137,739,29,0.117347995225344,1
137,740,29,0.125250431194063,1
137,741,29,0.136938569892879,1
137,742,29,0.129786022093448,1
137,743,29,0.135487191066821,1
137,744,29,0.142525298101461,1
138,734,29,0.150224674214135,1
138,735,29,0.15645891853165,1
138,739,29,0.119266361526987,1
138,740,29,0.13097198980857,1
138,741,29,0.147289034361765,1
138,742,29,0.141494450046762,1
138,743,29,0.144805558225096,1
138,744,29,0.143796705997704,1
139,733,29,0.121594807235797,1
139,734,29,0.179457374094412,1
139,735,29,0.17869768149703,1
139,736,29,0.156914997326146,1
139,739,29,0.124520129572823,1
139,740,29,0.124701617456245,1
139,741,29,0.138068019932057,1
139,742,29,0.147322329262633,1
139,743,29,0.15494170838066,1
139,744,29,0.145866042645492,1
140,733,29,0.127414108971344,1
140,734,29,0.190011333428098,1
140,735,29,0.206125262354896,1
140,736,29,0.202130900425291,1
140,737,29,0.18210700126737,1
140,740,29,0.139503950370275,1
140,741,29,0.137517443851078,1
140,742,29,0.146597147359818,1
140,743,29,0.15136675066128,1
141,733,29,0.117162670341621,1
141,734,29,0.184705029709536,1
141,735,29,0.221334908466573,1
141,736,29,0.222935004516506,1
141,737,29,0.191619281943764,1
141,738,29,0.162623316058801,1
142,734,29,0.18304688787598,1
142,735,29,0.224383851368529,1
142,736,29,0.198542479742646,1
142,737,29,0.16306936734379,1
143,734,29,0.13832592435345,1
143,735,29,0.184053007356065,1
143,736,29,0.172644668519313,1
143,737,29,0.162025569413075,1
143,738,29,0.138179739103611,1
144,735,29,0.129729091716889,1
144,736,29,0.147641781845831,1
144,737,29,0.15584599119578,1
135,741,30,0.123391884173275,1
135,742,30,0.123290504825206,1
136,740,30,0.115623553595889,1
136,741,30,0.117671485582114,1
136,742,30,0.116192288503874,1
136,743,30,0.118887346206559,1
137,739,30,0.115009053536059,1
137,740,30,0.118170273313101,1
137,741,30,0.125028788656328,1
137,742,30,0.117797437347808,1
137,743,30,0.120726663609559,1
137,744,30,0.133788013407371,1
138,739,30,0.112347681126715,1
138,740,30,0.119798934937949,1
138,741,30,0.13323356686388,1
138,742,30,0.129128088082536,1
138,743,30,0.132445498310783,1
138,744,30,0.138216937929203,1
139,734,30,0.164903899650485,1
139,735,30,0.160325622122752,1
139,736,30,0.142820702508354,1
139,739,30,0.119099485476106,1
139,740,30,0.117686208955362,1
139,741,30,0.128817469523287,1
139,742,30,0.137052564494844,1
139,743,30,0.145908673503487,1
139,744,30,0.143950085623108,1
140,734,30,0.178354470743363,1
140,735,30,0.182182848947738,1
140,736,30,0.180575759295512,1
140,737,30,0.174925687119752,1
140,740,30,0.127482003799344,1
140,741,30,0.124764771804223,1
140,742,30,0.135092928131824,1
140,743,30,0.144154640124619,1
141,734,30,0.177298860651839,1
141,735,30,0.216575622680455,1
141,736,30,0.219838746046886,1
141,737,30,0.187013342320837,1
141,738,30,0.160318282744269,1
142,734,30,0.164349508877346,1
142,735,30,0.212832495038,1
142,736,30,0.204685918771061,1
142,737,30,0.168256333660549,1
142,738,30,0.140356701379027,1
143,734,30,0.126942046393617,1
143,735,30,0.170302001370434,1
143,736,30,0.184265849332063,1
143,737,30,0.182323780630305,1
143,738,30,0.144176992882186,1
144,735,30,0.126337953081696,1
144,736,30,0.168377043013041,1
144,737,30,0.184805371729035,1
144,738,30,0.138228359697541,1
145,736,30,0.119474753028799,1
145,737,30,0.126322772391551,1
135,741,31,0.130066022728784,1
136,740,31,0.124716664297542,1
136,741,31,0.122789687053363,1
136,742,31,0.115115485678129,1
137,739,31,0.116978472019032,1
137,740,31,0.114875327383127,1
137,741,31,0.117079773288606,1
137,742,31,0.11423414678632,1
137,743,31,0.114909191141598,1
138,739,31,0.112177760014548,1
138,740,31,0.11276676186889,1
138,741,31,0.121945758914489,1
138,742,31,0.124122553878846,1
138,743,31,0.127066213508008,1
138,744,31,0.131104243624177,1
139,739,31,0.116879680415353,1
139,740,31,0.114675825675618,1
139,741,31,0.123445222939087,1
139,742,31,0.130635594192066,1
139,743,31,0.137208119164023,1
139,744,31,0.138154151665557,1
140,735,31,0.156989294590695,1
140,736,31,0.158673135403011,1
140,740,31,0.116755033675924,1
140,741,31,0.117659160334055,1
140,742,31,0.12692543798243,1
140,743,31,0.13416876876282,1
141,734,31,0.157841320584855,1
141,735,31,0.197106817002123,1
141,736,31,0.199769605978439,1
141,737,31,0.168751741708131,1
142,734,31,0.141830767584772,1
142,735,31,0.190481990592925,1
142,736,31,0.195157353151529,1
142,737,31,0.162377056487158,1
142,738,31,0.138556434377345,1
143,735,31,0.145642046598852,1
143,736,31,0.178985668446946,1
143,737,31,0.183662168720756,1
143,738,31,0.141256600644384,1
144,735,31,0.114127904263452,1
144,736,31,0.174405974352241,1
144,737,31,0.19858352672261,1
144,738,31,0.136688004849968,1
145,736,31,0.117728382496461,1
145,737,31,0.130855708622123,1
136,740,32,0.140906619369838,1
136,741,32,0.135102821792484,1
136,742,32,0.118907122373808,1
137,739,32,0.124133975647184,1
137,740,32,0.121906340428839,1
137,741,32,0.120326199011285,1
137,742,32,0.118099601121511,1
137,743,32,0.113925926352259,1
138,739,32,0.11669940832563,1
138,740,32,0.115029153171357,1
138,741,32,0.118975719908258,1
138,742,32,0.124682845155354,1
138,743,32,0.125387057405361,1
138,744,32,0.123930335779466,1
139,740,32,0.116972683056369,1
139,741,32,0.12290214239358,1
139,742,32,0.1281636290563,1
139,743,32,0.130642030090827,1
140,741,32,0.117503817592218,1
140,742,32,0.122897613840899,1
141,735,32,0.166215205657416,1
141,736,32,0.172807908343165,1
142,735,32,0.163913953572832,1
142,736,32,0.178581087996605,1
142,737,32,0.154914180134315,1
143,735,32,0.128725348053851,1
143,736,32,0.170907198935348,1
143,737,32,0.176366045724016,1
143,738,32,0.138746254351538,1
144,735,32,0.103191315690449,1
144,736,32,0.169226369722106,1
144,737,32,0.198146421002276,1
144,738,32,0.13995547830395,1
145,736,32,0.11295116096475,1
145,737,32,0.133134451792151,1
137,740,33,0.133318951274647,1
137,741,33,0.130831370439982,1
137,742,33,0.121866196928597,1
138,740,33,0.12180512839183,1
138,741,33,0.119396061060417,1
138,742,33,0.1204769908923,1
138,743,33,0.11927857523434,1
139,741,33,0.121836582871042,1
139,742,33,0.120463494466822,1
142,736,33,0.153032889963487,1
142,737,33,0.150019907785283,1
143,736,33,0.153661232224985,1
143,737,33,0.158198942397791,1
143,738,33,0.134365258871256,1
144,736,33,0.148525184240708,1
144,737,33,0.170876949095766,1
144,738,33,0.137110777589527,1
145,737,33,0.12544259352309,1
143,737,34,0.144595627461536,1
144,737,34,0.13690803004746,1
