x,y,z,signal,mito.p
552,400,17,0.164826311935097,1
551,400,18,0.123047201082284,1
552,395,18,0.138979028651774,1
552,396,18,0.147357776899134,1
552,397,18,0.130624685510978,1
552,398,18,0.110841647354509,1
552,399,18,0.127802437940759,1
552,400,18,0.178633233276858,1
552,401,18,0.146320124861344,1
552,402,18,0.116517942750349,1
552,403,18,0.119189030355223,1
552,404,18,0.124346483001062,1
552,405,18,0.110351637877118,1
553,393,18,0.130090472451632,1
553,394,18,0.130168350172857,1
553,395,18,0.14620979994862,1
553,396,18,0.129885226397741,1
553,397,18,0.118484215785401,1
553,398,18,0.125578517027938,1
553,399,18,0.131477469981942,1
553,400,18,0.145486670394803,1
553,401,18,0.12898265015543,1
553,402,18,0.128898938855259,1
553,403,18,0.122405105851684,1
553,404,18,0.113205217231772,1
554,392,18,0.121807749598431,1
554,393,18,0.106809060424813,1
555,391,18,0.145551007074269,1
555,392,18,0.105519025230597,1
557,392,18,0.103583124729904,1
558,391,18,0.113481514715655,1
558,392,18,0.127145206636297,1
551,396,19,0.109287372226775,1
551,400,19,0.119776861032148,1
551,401,19,0.146305758418356,1
551,402,19,0.109437026392583,1
552,393,19,0.104558202431391,1
552,394,19,0.107359469194732,1
552,395,19,0.133554647941391,1
552,396,19,0.150667580051203,1
552,397,19,0.13931199996859,1
552,398,19,0.127051824756879,1
552,399,19,0.13616712090504,1
552,400,19,0.16961486600258,1
552,401,19,0.16599355196561,1
552,402,19,0.121803644900435,1
552,403,19,0.108393128075233,1
552,404,19,0.110438773476976,1
553,392,19,0.126607000419661,1
553,393,19,0.122021205048315,1
553,394,19,0.126319593481418,1
553,395,19,0.140497019587708,1
553,396,19,0.129119109055669,1
553,397,19,0.13224645392017,1
553,398,19,0.163983655360276,1
553,399,19,0.169498819051617,1
553,400,19,0.1471278134247,1
553,401,19,0.121118037640259,1
553,402,19,0.110436408814,1
553,403,19,0.10714758646881,1
554,391,19,0.158276730886451,1
554,392,19,0.110741773805977,1
554,398,19,0.10677775094852,1
554,399,19,0.113498301591971,1
555,390,19,0.141044773688814,1
555,391,19,0.12358054412412,1
549,411,20,0.105164738484783,1
550,411,20,0.120314107998709,1
550,412,20,0.106323144491348,1
551,400,20,0.1096210239419,1
551,401,20,0.162209689657169,1
551,402,20,0.122887764796522,1
552,392,20,0.115378375969099,1
552,393,20,0.106762626028729,1
552,395,20,0.115614440720175,1
552,396,20,0.136140919993101,1
552,397,20,0.12763108910755,1
552,398,20,0.122047249803265,1
552,399,20,0.128065227845093,1
552,400,20,0.14390046116282,1
552,401,20,0.162455670377046,1
552,402,20,0.119286494624496,1
553,391,20,0.156719511084068,1
553,392,20,0.117687346670568,1
553,393,20,0.10876083316803,1
553,394,20,0.110782162695773,1
553,395,20,0.116809264767387,1
553,396,20,0.114869917658866,1
553,397,20,0.124156194555903,1
553,398,20,0.163251346006321,1
553,399,20,0.169098555226615,1
553,400,20,0.131395364867943,1
553,401,20,0.107270035856322,1
554,390,20,0.180266233835186,1
554,391,20,0.138094934704517,1
554,399,20,0.109639863167215,1
555,390,20,0.11063694785008,1
549,412,21,0.103577224226534,1
550,411,21,0.13243137725735,1
550,412,21,0.135675951404302,1
551,411,21,0.102987173889552,1
551,412,21,0.110810092488661,1
552,391,21,0.16473330929408,1
552,392,21,0.137835747564999,1
552,393,21,0.118090945562692,1
552,396,21,0.113727874673933,1
552,397,21,0.112930180157872,1
552,398,21,0.110138952058109,1
552,399,21,0.114170970130202,1
552,400,21,0.128105092493569,1
552,401,21,0.148165075070019,1
552,402,21,0.113485842495064,1
553,390,21,0.18075161437326,1
553,391,21,0.145878490588329,1
553,392,21,0.115111626369686,1
553,397,21,0.109611409133007,1
553,398,21,0.138208237754102,1
553,399,21,0.143475346068427,1
553,400,21,0.11897748225142,1
554,389,21,0.104072621120045,1
554,390,21,0.135986703812399,1
554,391,21,0.121066583912386,1
550,411,22,0.126604836529956,1
550,412,22,0.152342597993641,1
550,413,22,0.117794224975463,1
550,414,22,0.10390461850803,1
551,392,22,0.172868653411883,1
551,411,22,0.117757896167381,1
551,412,22,0.13961065021004,1
551,413,22,0.11528254019414,1
551,414,22,0.106615961153852,1
552,391,22,0.185923723467924,1
552,392,22,0.168050139510654,1
552,393,22,0.127797195527557,1
552,400,22,0.119313108237049,1
552,401,22,0.127517473743987,1
552,402,22,0.10523223176624,1
552,412,22,0.103112311408089,1
552,414,22,0.105655606825613,1
553,389,22,0.121682299765916,1
553,390,22,0.135573568189875,1
553,391,22,0.137885728955548,1
553,392,22,0.119733705932832,1
553,398,22,0.107470463351695,1
553,399,22,0.111359542008505,1
553,400,22,0.106561127742574,1
554,390,22,0.103580035052336,1
554,391,22,0.103352023540265,1
550,412,23,0.143926829385818,1
550,413,23,0.129383036675209,1
550,414,23,0.125710804305757,1
550,415,23,0.124799717507545,1
551,391,23,0.239027673784659,1
551,392,23,0.182053160568379,1
551,411,23,0.121238055440371,1
551,412,23,0.152286035701414,1
551,413,23,0.128949065248726,1
551,414,23,0.120178797967746,1
551,415,23,0.114988708511207,1
552,389,23,0.170960069230193,1
552,390,23,0.181375628855349,1
552,391,23,0.219446033527709,1
552,392,23,0.197449581592964,1
552,393,23,0.131138486621049,1
552,400,23,0.105037392460259,1
552,401,23,0.106523081207613,1
552,412,23,0.107455762286588,1
553,388,23,0.131975633084972,1
553,389,23,0.113390731734696,1
553,390,23,0.118327713020218,1
553,391,23,0.145946842733226,1
553,392,23,0.137078698482359,1
553,393,23,0.104138240517635,1
550,414,24,0.133314735035944,1
550,415,24,0.136719593178028,1
551,389,24,0.249733953107038,1
551,390,24,0.261114875238151,1
551,391,24,0.24066696523883,1
551,392,24,0.17114926457643,1
551,411,24,0.113191943887708,1
551,412,24,0.143038452275435,1
551,413,24,0.132047007983013,1
551,414,24,0.12561639625184,1
551,415,24,0.127599634628339,1
551,416,24,0.11200623271621,1
552,388,24,0.176564900495428,1
552,389,24,0.163858450917315,1
552,390,24,0.193222813447455,1
552,391,24,0.251051962710425,1
552,392,24,0.205973723151148,1
552,393,24,0.122048766756872,1
552,412,24,0.105039467117398,1
552,415,24,0.104740270326487,1
553,387,24,0.191615757257441,1
553,388,24,0.140961374702621,1
553,389,24,0.107666975768272,1
553,390,24,0.121855723256264,1
553,391,24,0.168035126131569,1
553,392,24,0.152640846688548,1
553,393,24,0.106124758190903,1
551,388,25,0.17515311862015,1
551,389,25,0.23390217755121,1
551,390,25,0.24581974432907,1
551,391,25,0.215583802718934,1
551,392,25,0.150373123740315,1
551,413,25,0.124601877756561,1
551,414,25,0.122036184965187,1
551,415,25,0.135798066169695,1
551,416,25,0.135874281934394,1
551,417,25,0.109402348386956,1
552,387,25,0.21713272389276,1
552,388,25,0.16233923303361,1
552,389,25,0.154888592696261,1
552,390,25,0.211574873573071,1
552,391,25,0.260814496115751,1
552,392,25,0.19007560318314,1
552,393,25,0.109924024270901,1
552,415,25,0.106842611869305,1
553,386,25,0.186807348944214,1
553,387,25,0.17914618667756,1
553,388,25,0.124737667412562,1
553,389,25,0.104804082764632,1
553,390,25,0.143442854260645,1
553,391,25,0.194682368207294,1
553,392,25,0.160353730380771,1
553,393,25,0.108765406336993,1
550,389,26,0.296906949441096,1
550,390,26,0.220650360843109,1
550,391,26,0.144806941329856,1
550,392,26,0.125716091335241,1
551,387,26,0.186455739175354,1
551,388,26,0.184219214162707,1
551,389,26,0.220250041247753,1
551,390,26,0.220768928614037,1
551,391,26,0.185654218813062,1
551,392,26,0.13993968413992,1
551,393,26,0.103590676035729,1
551,414,26,0.112699290895575,1
551,415,26,0.130844576859622,1
551,416,26,0.145836283585018,1
551,417,26,0.11881705325337,1
552,386,26,0.215358914346642,1
552,387,26,0.207391450146078,1
552,388,26,0.14730734934576,1
552,389,26,0.152173870367034,1
552,390,26,0.221748256016439,1
552,391,26,0.242215707947525,1
552,392,26,0.164526278588887,1
552,393,26,0.104005473614778,1
552,415,26,0.10483322835122,1
552,416,26,0.10433889109442,1
553,386,26,0.150447789089195,1
553,387,26,0.142734894242902,1
553,388,26,0.103155644972535,1
553,389,26,0.102938385984562,1
553,390,26,0.162607075731946,1
553,391,26,0.19796902666278,1
553,392,26,0.148234341848708,1
553,393,26,0.103809797753499,1
550,388,27,0.23667581568157,1
550,389,27,0.251826992154941,1
550,390,27,0.180223681055685,1
550,391,27,0.120835583109382,1
551,387,27,0.215484152251815,1
551,388,27,0.196601894532283,1
551,389,27,0.203898463691849,1
551,390,27,0.191386496489457,1
551,391,27,0.152490790976196,1
551,392,27,0.130454797861024,1
551,393,27,0.111374521925378,1
551,415,27,0.118652631098031,1
551,416,27,0.142460147174839,1
551,417,27,0.124567935919596,1
552,386,27,0.190555986697566,1
552,387,27,0.186301879924913,1
552,388,27,0.143417445287722,1
552,389,27,0.155054621037773,1
552,390,27,0.209475387472337,1
552,391,27,0.196920410173548,1
552,392,27,0.137398173373699,1
552,416,27,0.104552770398988,1
553,386,27,0.110687085397617,1
553,387,27,0.10887335543267,1
553,389,27,0.10518483812008,1
553,390,27,0.164590816041624,1
553,391,27,0.175048225739829,1
553,392,27,0.126317753059762,1
555,422,27,0.11139608274393,1
556,421,27,0.10484642361679,1
556,422,27,0.113205384542832,1
559,420,27,0.109354296650629,1
564,387,27,0.216750183886009,1
564,388,27,0.147201831837483,1
565,388,27,0.236032872741602,1
565,389,27,0.105725777084024,1
566,389,27,0.104515616189678,1
550,387,28,0.214235498659682,1
550,388,28,0.216476953771553,1
550,389,28,0.202331986010832,1
550,390,28,0.155010830156431,1
550,391,28,0.112813519733023,1
551,386,28,0.233137008305143,1
551,387,28,0.257481414418251,1
551,388,28,0.215349544927303,1
551,389,28,0.190370026031816,1
551,390,28,0.171542423258432,1
551,391,28,0.135508651498737,1
551,392,28,0.123886957598737,1
551,393,28,0.120746529009373,1
551,416,28,0.130269718366855,1
552,385,28,0.120007192590913,1
552,386,28,0.166962216076478,1
552,387,28,0.175600106847074,1
552,388,28,0.149259780179145,1
552,389,28,0.155779959097577,1
552,390,28,0.182250955703081,1
552,391,28,0.154985733497486,1
552,392,28,0.118287491441482,1
552,416,28,0.104110522652088,1
553,389,28,0.107558535893487,1
553,390,28,0.147563156801873,1
553,391,28,0.140413921761422,1
553,392,28,0.103933462934711,1
555,421,28,0.11982413198353,1
555,422,28,0.129609151995271,1
555,423,28,0.104688258895081,1
556,421,28,0.110556805852514,1
556,422,28,0.116084540181469,1
559,419,28,0.103697085869657,1
559,420,28,0.132492791570307,1
559,421,28,0.105245650113223,1
560,420,28,0.107999645925182,1
562,385,28,0.103604105536783,1
563,384,28,0.247101748592423,1
563,385,28,0.244809453226565,1
563,386,28,0.133708752581387,1
564,385,28,0.287881298558689,1
564,386,28,0.190440252060581,1
564,387,28,0.16942004900474,1
564,388,28,0.121058642214088,1
565,386,28,0.193705807014411,1
565,387,28,0.280624571739458,1
565,388,28,0.231835194412328,1
566,387,28,0.266728562835475,1
566,388,28,0.239662072706516,1
566,389,28,0.110359568421345,1
549,388,29,0.159935988127072,1
549,389,29,0.15531032810725,1
549,390,29,0.134648672652209,1
550,386,29,0.215890071190633,1
550,387,29,0.237426975414911,1
550,388,29,0.202633792854274,1
550,389,29,0.173156372664103,1
550,390,29,0.14978250454573,1
550,391,29,0.116853356808637,1
551,385,29,0.180965248288274,1
551,386,29,0.252383290274159,1
551,387,29,0.288431618096043,1
551,388,29,0.230423356766697,1
551,389,29,0.187120599864134,1
551,390,29,0.167485453530312,1
551,391,29,0.129666985851552,1
551,392,29,0.114545356511314,1
551,393,29,0.122938850440064,1
551,394,29,0.111299700419509,1
552,384,29,0.108525181117568,1
552,385,29,0.119383635425721,1
552,386,29,0.148750864552015,1
552,387,29,0.168514929634322,1
552,388,29,0.154942589552241,1
552,389,29,0.153629298120735,1
552,390,29,0.155376784060137,1
552,391,29,0.124622490479108,1
552,392,29,0.105228394765939,1
552,417,29,0.103282120979549,1
552,421,29,0.103283738319792,1
553,389,29,0.103785013408531,1
553,390,29,0.116999954759089,1
553,391,29,0.10458596491322,1
553,423,29,0.109831557025275,1
554,422,29,0.117822634393389,1
554,423,29,0.108418313966744,1
555,421,29,0.133386165704338,1
555,422,29,0.144670069729003,1
555,423,29,0.107443247419327,1
556,421,29,0.112337040143322,1
556,422,29,0.114362697450474,1
559,420,29,0.134104409775213,1
559,421,29,0.11956194439901,1
560,420,29,0.121434344775536,1
560,421,29,0.10591512858725,1
563,383,29,0.115749694980784,1
563,384,29,0.227339523931772,1
563,385,29,0.217702384588608,1
563,386,29,0.112724008316118,1
564,384,29,0.299172698118826,1
564,385,29,0.310552214837038,1
564,386,29,0.179240795504749,1
564,387,29,0.120483292942213,1
565,384,29,0.1943553531642,1
565,385,29,0.227088378877188,1
565,386,29,0.19610801459238,1
565,387,29,0.218585653134637,1
565,388,29,0.18476361088855,1
566,385,29,0.145278925829089,1
566,386,29,0.18528833183378,1
566,387,29,0.264820413662541,1
566,388,29,0.230824546379563,1
566,389,29,0.107595533945808,1
567,387,29,0.194375118177378,1
567,388,29,0.161971349475683,1
549,387,30,0.165161781763737,1
549,388,30,0.151910701224298,1
549,389,30,0.142330849187952,1
549,390,30,0.135900058991649,1
550,386,30,0.236426053731746,1
550,387,30,0.245814434991444,1
550,388,30,0.201359841829924,1
550,389,30,0.166448872283303,1
550,390,30,0.150496755459315,1
550,391,30,0.126684521210625,1
550,392,30,0.104701543393216,1
550,393,30,0.106141310831736,1
551,385,30,0.203259313135899,1
551,386,30,0.258503149597235,1
551,387,30,0.281997080132004,1
551,388,30,0.226850038695702,1
551,389,30,0.18681561411056,1
551,390,30,0.167944566232024,1
551,391,30,0.131305384980071,1
551,392,30,0.108547545029206,1
551,393,30,0.114936105914058,1
551,394,30,0.11350330976969,1
551,423,30,0.116654914737838,1
552,384,30,0.109726876072297,1
552,385,30,0.119332360162978,1
552,386,30,0.139588130141413,1
552,387,30,0.157265447071659,1
552,388,30,0.150502611346403,1
552,389,30,0.14581495700195,1
552,390,30,0.136980709971766,1
552,391,30,0.109765814932909,1
552,417,30,0.11018360180289,1
552,423,30,0.121184259357663,1
552,424,30,0.153667824280734,1
553,422,30,0.11572304790602,1
553,423,30,0.131666208011282,1
553,424,30,0.133011522779602,1
554,421,30,0.115723672533976,1
554,422,30,0.139324626376557,1
554,423,30,0.121163412399632,1
555,421,30,0.13075129536684,1
555,422,30,0.139412977770116,1
559,420,30,0.109964190079284,1
559,421,30,0.109477482206803,1
560,420,30,0.111487668817975,1
560,421,30,0.114402283247184,1
563,384,30,0.171870230240542,1
563,385,30,0.160780596664255,1
564,383,30,0.13495429418781,1
564,384,30,0.260153015110375,1
564,385,30,0.269876531576594,1
564,386,30,0.151774331556624,1
565,383,30,0.12409206980378,1
565,384,30,0.2003589424549,1
565,385,30,0.243155170701451,1
565,386,30,0.189430585586032,1
565,387,30,0.155069221716244,1
565,388,30,0.125408250139582,1
566,384,30,0.119938795829734,1
566,385,30,0.163996136765325,1
566,386,30,0.200952182856086,1
566,387,30,0.222690551904308,1
566,388,30,0.179759939414658,1
567,385,30,0.115141775822633,1
567,386,30,0.169097595976539,1
567,387,30,0.205745064702979,1
567,388,30,0.163706588245519,1
568,387,30,0.118640752012797,1
549,386,31,0.1837028810786,1
549,387,31,0.171672022405226,1
549,388,31,0.157522314164483,1
549,389,31,0.135382722041184,1
549,390,31,0.129413587674698,1
550,385,31,0.245901592899444,1
550,386,31,0.249647397518853,1
550,387,31,0.241267901948759,1
550,388,31,0.209182704658681,1
550,389,31,0.166990703572899,1
550,390,31,0.1466115918813,1
550,391,31,0.13724174868701,1
550,392,31,0.118274006170075,1
550,393,31,0.110262159922425,1
550,423,31,0.105069348872649,1
551,384,31,0.168001262373099,1
551,385,31,0.214396808829312,1
551,386,31,0.243421886838652,1
551,387,31,0.248384622873287,1
551,388,31,0.214785617423765,1
551,389,31,0.180023365101019,1
551,390,31,0.159884166314867,1
551,391,31,0.134025137795158,1
551,392,31,0.110714256713702,1
551,393,31,0.107312822871306,1
551,394,31,0.106096203770058,1
551,418,31,0.118711000349702,1
551,419,31,0.111562613018621,1
551,420,31,0.103607094827715,1
551,423,31,0.118313948897045,1
551,424,31,0.175450073442863,1
552,385,31,0.11518756328262,1
552,386,31,0.135045958340349,1
552,387,31,0.150574488177622,1
552,388,31,0.148026206890521,1
552,389,31,0.136635179171406,1
552,390,31,0.125075803064086,1
552,391,31,0.10702587324996,1
552,417,31,0.11262854062549,1
552,418,31,0.11122175577386,1
552,422,31,0.108817361998046,1
552,423,31,0.139062215710624,1
552,424,31,0.165022333572566,1
552,425,31,0.172490887347367,1
553,417,31,0.104679291022285,1
553,421,31,0.104004280129219,1
553,422,31,0.135877315841609,1
553,423,31,0.146350118157301,1
553,424,31,0.133361437129724,1
553,425,31,0.111593197480322,1
554,421,31,0.118886219645424,1
554,422,31,0.139419056738616,1
554,423,31,0.116940648565484,1
555,421,31,0.111966736152065,1
555,422,31,0.111923023349218,1
563,384,31,0.119909884478629,1
563,385,31,0.110697748689151,1
564,383,31,0.116272631274711,1
564,384,31,0.19623459098603,1
564,385,31,0.202279071099705,1
564,386,31,0.12373367835997,1
565,383,31,0.11617207732787,1
565,384,31,0.189912530670348,1
565,385,31,0.230496014382862,1
565,386,31,0.172848955323129,1
565,387,31,0.107020943150736,1
566,383,31,0.114983555330571,1
566,384,31,0.123202443437485,1
566,385,31,0.17863032206442,1
566,386,31,0.200468720818163,1
566,387,31,0.166474493183569,1
566,388,31,0.119189811140168,1
567,385,31,0.11533306813415,1
567,386,31,0.17410018550558,1
567,387,31,0.188491435146084,1
567,388,31,0.144667816606734,1
568,386,31,0.10403640385267,1
568,387,31,0.11993698887029,1
568,388,31,0.107064633645442,1
549,385,32,0.266023915576713,2
549,386,32,0.215122470357165,1
549,387,32,0.185048061998072,1
549,388,32,0.163062128351943,1
549,389,32,0.130082028820155,1
550,384,32,0.252049828178234,1
550,385,32,0.312204779635273,2
550,386,32,0.270568597043672,1
550,387,32,0.242447132605213,1
550,388,32,0.2147855281912,1
550,389,32,0.164569032141659,1
550,390,32,0.139639059627966,1
550,391,32,0.144834625733191,1
550,392,32,0.132709782860584,1
550,393,32,0.116859458085278,1
550,420,32,0.114472654278867,1
550,421,32,0.111518342512241,1
550,424,32,0.149842569216139,1
551,383,32,0.146652962329313,1
551,384,32,0.16615728256857,1
551,385,32,0.222198568156413,1
551,386,32,0.228819914495571,1
551,387,32,0.22688577633804,1
551,388,32,0.206963535379954,1
551,389,32,0.16877916956784,1
551,390,32,0.14516712857904,1
551,391,32,0.135514830853873,1
551,392,32,0.118697492770154,1
551,393,32,0.106197259650078,1
551,418,32,0.11704390179742,1
551,419,32,0.116319087978937,1
551,420,32,0.10360614673171,1
551,423,32,0.116307220047773,1
551,424,32,0.165506476008799,1
551,425,32,0.217537705889644,1
552,385,32,0.117285532429747,1
552,386,32,0.148716309241165,1
552,387,32,0.16802611364249,1
552,388,32,0.160353730380771,1
552,389,32,0.132473718109508,1
552,390,32,0.115346006856095,1
552,391,32,0.106318738633444,1
552,417,32,0.111086088812637,1
552,418,32,0.113406815904563,1
552,422,32,0.116771876322594,1
552,423,32,0.145157045299179,1
552,424,32,0.158088249400736,1
552,425,32,0.163051688141822,1
552,426,32,0.147343666999772,1
553,386,32,0.105388098749397,1
553,387,32,0.115336258198353,1
553,388,32,0.103512631003444,1
553,417,32,0.105456116272174,1
553,421,32,0.107159041699359,1
553,422,32,0.140904812410394,1
553,423,32,0.141378726563848,1
553,424,32,0.119682229896818,1
553,425,32,0.107413800672831,1
554,421,32,0.110874194932643,1
554,422,32,0.118705456776593,1
564,384,32,0.127448218119368,1
564,385,32,0.129246142766215,1
565,384,32,0.14916228244766,1
565,385,32,0.177291989744323,1
565,386,32,0.13460980071602,1
566,384,32,0.112251332264506,1
566,385,32,0.163050070801579,1
566,386,32,0.170108455936647,1
566,387,32,0.119651690051399,1
567,385,32,0.106593028384611,1
567,386,32,0.150126864168672,1
567,387,32,0.14757856057343,1
567,388,32,0.112724856025487,1
568,387,32,0.106821106821107,1
570,395,32,0.121296792776374,1
548,385,33,0.192722709536133,2
548,388,33,0.141313151782541,1
549,384,33,0.291866313377095,2
549,385,33,0.323417565305522,2
549,386,33,0.239642575391033,2
549,387,33,0.187806352127229,1
549,388,33,0.153274397901036,1
549,389,33,0.121442476093034,1
549,390,33,0.114071866212544,1
549,421,33,0.12584924863057,1
549,424,33,0.126525006846369,1
550,384,33,0.29799032201445,2
550,385,33,0.359005542323853,2
550,386,33,0.271643447907055,2
550,387,33,0.222950263285145,1
550,388,33,0.188408917331472,1
550,389,33,0.14267286645606,1
550,390,33,0.127492823247867,1
550,391,33,0.138694521771898,1
550,392,33,0.133747100276255,1
550,393,33,0.114368977192246,1
550,419,33,0.109393871293268,1
550,420,33,0.114319174266827,1
550,421,33,0.104325249666025,1
550,424,33,0.142682715500437,1
550,425,33,0.204542945893566,1
551,383,33,0.154628836699141,1
551,384,33,0.169744152835396,1
551,385,33,0.210330793149902,2
551,386,33,0.19676661784753,1
551,387,33,0.195950251417214,1
551,388,33,0.181644163106064,1
551,389,33,0.141738858042678,1
551,390,33,0.12560268789902,1
551,391,33,0.131649566137883,1
551,392,33,0.125215273563398,1
551,393,33,0.107262975329605,1
551,418,33,0.112107667834632,1
551,419,33,0.118181617002944,1
551,420,33,0.103252506921993,1
551,423,33,0.116650419647369,1
551,424,33,0.151195301441436,1
551,425,33,0.184925066061099,1
551,426,33,0.204703653743382,1
552,382,33,0.174863503175921,1
552,385,33,0.112356950159418,1
552,386,33,0.151693129922347,1
552,387,33,0.17834451015828,1
552,388,33,0.166823180585921,1
552,389,33,0.122462616239916,1
552,417,33,0.105355049238083,1
552,418,33,0.107581948287765,1
552,422,33,0.119738892575681,1
552,423,33,0.139606846671951,1
552,424,33,0.140921197740167,1
552,425,33,0.14715367971452,1
552,426,33,0.154447248429083,1
553,386,33,0.128698723287228,1
553,387,33,0.132095873966497,1
553,388,33,0.107481293954288,1
553,421,33,0.105317638485149,1
553,422,33,0.126833885370598,1
553,423,33,0.120735653790497,1
553,424,33,0.105657904564165,1
553,425,33,0.108049593853518,1
565,385,33,0.110466480188452,1
566,385,33,0.120404902133738,1
566,386,33,0.118343574108672,1
567,386,33,0.110756095632682,1
570,395,33,0.115688615289946,1
548,385,34,0.189978317378997,2
548,387,34,0.146737543646994,1
549,384,34,0.307243092083278,2
549,385,34,0.334973182491036,2
549,386,34,0.241211618508297,2
549,387,34,0.174192318129086,1
549,388,34,0.128282709914479,1
549,389,34,0.106087815908935,1
549,390,34,0.104581826753012,1
549,391,34,0.110717971019226,1
549,392,34,0.107346787016412,1
549,420,34,0.113072093398655,1
549,421,34,0.110068491793861,1
549,424,34,0.125317790626672,1
549,425,34,0.191519341470808,1
550,383,34,0.221442277550577,1
550,384,34,0.31470021293567,2
550,385,34,0.349106973872973,2
550,386,34,0.244591904232756,2
550,387,34,0.183022371228708,1
550,388,34,0.142721330893001,1
550,389,34,0.113344141181623,1
550,390,34,0.112104232380874,1
550,391,34,0.129654537908715,1
550,392,34,0.127553568316586,1
550,393,34,0.106811648169202,1
550,419,34,0.108905423385767,1
550,420,34,0.112595658425236,1
550,424,34,0.131120461642891,1
550,425,34,0.180214913956161,1
550,426,34,0.217826105540173,1
551,382,34,0.21755691319929,1
551,383,34,0.159280965328598,1
551,384,34,0.173286339895228,1
551,385,34,0.187910888077289,2
551,386,34,0.159195346682347,1
551,387,34,0.153114827766426,1
551,388,34,0.140346038087493,1
551,389,34,0.11053624890032,1
551,390,34,0.109513208695071,1
551,391,34,0.132576770568173,1
551,392,34,0.130339498232794,1
551,393,34,0.105473806628213,1
551,418,34,0.105177264506114,1
551,419,34,0.113920081619243,1
551,423,34,0.109580478895115,1
551,424,34,0.132102845260649,1
551,425,34,0.15562495097786,1
551,426,34,0.189189345346178,1
552,381,34,0.216572856470936,1
552,382,34,0.16857496084252,1
552,383,34,0.103140430820178,1
552,385,34,0.105076498631931,1
552,386,34,0.136665429010988,1
552,387,34,0.158884795047521,1
552,388,34,0.146774207077195,1
552,422,34,0.108335216140458,1
552,423,34,0.120051150783315,1
552,424,34,0.121807615749583,1
552,425,34,0.135168775812193,1
552,426,34,0.162291370916484,1
553,381,34,0.132907544533073,1
553,382,34,0.103535262612778,1
553,386,34,0.127527021628457,1
553,387,34,0.123527551134498,1
553,425,34,0.113144137540934,1
553,426,34,0.141134363184214,1
548,386,35,0.168024808616225,1
548,387,35,0.144059083201425,1
548,424,35,0.121565840114339,1
549,384,35,0.310373571241629,1
549,385,35,0.30490444039983,2
549,386,35,0.226007103269115,1
549,387,35,0.155869381281917,1
549,388,35,0.11197966371994,1
549,391,35,0.105878175151211,1
549,419,35,0.103809686212792,1
549,420,35,0.115400728726666,1
549,424,35,0.124936611416539,1
549,425,35,0.177622852941788,1
550,383,35,0.23309268202841,1
550,384,35,0.303086773047946,1
550,385,35,0.297272289870917,2
550,386,35,0.206920614516122,1
550,387,35,0.144212931297796,1
550,388,35,0.111607151222696,1
550,391,35,0.123965939572956,1
550,392,35,0.120754526478024,1
550,419,35,0.107276661374283,1
550,420,35,0.107090600321898,1
550,424,35,0.12264882229522,1
550,425,35,0.169892825442988,1
550,426,35,0.219838746046886,1
551,382,35,0.17665591771187,1
551,383,35,0.1650500179759,1
551,384,35,0.18284338185711,1
551,385,35,0.17177782991934,1
551,386,35,0.135894749654023,1
551,387,35,0.122270442756819,1
551,388,35,0.113510336834195,1
551,391,35,0.134370200124551,1
551,392,35,0.132141036798528,1
551,419,35,0.104655532851817,1
551,424,35,0.118221771657257,1
551,425,35,0.146542860498002,1
551,426,35,0.185185480148387,1
551,427,35,0.248169505466878,1
552,381,35,0.192916254969919,1
552,382,35,0.166817726245377,1
552,383,35,0.120932366980346,1
552,384,35,0.108468038813667,1
552,385,35,0.106629368346764,1
552,386,35,0.117247162426737,1
552,387,35,0.129955039725892,1
552,388,35,0.120538717519235,1
552,424,35,0.10935274623481,1
552,425,35,0.135096140504169,1
552,426,35,0.170318922095598,1
552,427,35,0.225600782783754,1
553,380,35,0.104897096559719,1
553,381,35,0.145966418127203,1
553,382,35,0.122933295712884,1
553,386,35,0.107257297907648,1
553,387,35,0.104046085585987,1
553,425,35,0.120299752709792,1
553,426,35,0.15813501841894,1
553,427,35,0.207693502379074,1
554,426,35,0.123015824681567,1
548,385,36,0.194402936429561,1
548,386,36,0.17326205748344,1
548,387,36,0.145932911298993,1
548,388,36,0.114235864513199,1
548,420,36,0.105228985931683,1
548,424,36,0.126342916643132,1
548,425,36,0.149340502188384,1
549,383,36,0.282187212420174,1
549,384,36,0.315447401819862,1
549,385,36,0.266317490716021,1
549,386,36,0.199867672567527,1
549,387,36,0.140005515464851,1
549,388,36,0.103516780317723,1
549,419,36,0.105110317774119,1
549,420,36,0.108731721043653,1
549,424,36,0.117439581299389,1
549,425,36,0.157711297583377,1
549,426,36,0.211652372055894,1
550,382,36,0.140083939735538,1
550,383,36,0.22978235463502,1
550,384,36,0.275315122572975,1
550,385,36,0.237468133935582,1
550,386,36,0.166960252960045,1
550,387,36,0.115103216200422,1
550,391,36,0.11748493375062,1
550,392,36,0.11157632137144,1
550,424,36,0.111189565125986,1
550,425,36,0.158270417682468,1
550,426,36,0.222938663051677,1
550,427,36,0.28170114032972,1
551,381,36,0.13006699313293,1
551,382,36,0.152364181120334,1
551,383,36,0.176108063224128,1
551,384,36,0.195202928684174,1
551,385,36,0.163453524690785,1
551,386,36,0.120772462223617,1
551,391,36,0.123803882080593,1
551,392,36,0.122015616858923,1
551,424,36,0.105184079643277,1
551,425,36,0.140857530304941,1
551,426,36,0.181529889652333,1
551,427,36,0.231097308023052,1
552,380,36,0.104233786286757,1
552,381,36,0.165548727628392,1
552,382,36,0.168551258442405,1
552,383,36,0.145108458167461,1
552,384,36,0.13367617154104,1
552,385,36,0.112767698810824,1
552,425,36,0.132849019124413,1
552,426,36,0.169180894576097,1
552,427,36,0.219720312124805,1
553,381,36,0.149890922112374,1
553,382,36,0.139952801326995,1
553,383,36,0.107527137184629,1
553,425,36,0.119253623578313,1
553,426,36,0.160855585481183,1
553,427,36,0.209139516097153,1
554,381,36,0.109286457592982,1
554,426,36,0.120349120626455,1
573,401,36,0.10514836430908,1
547,387,37,0.128478274235052,1
547,423,37,0.118204036684935,1
548,384,37,0.274856891042844,1
548,385,37,0.217041862833307,1
548,386,37,0.183864458945926,1
548,387,37,0.150642840322519,1
548,388,37,0.114396672749651,1
548,423,37,0.104172606209284,1
548,424,37,0.129018845114664,1
548,425,37,0.144874702309009,1
549,383,37,0.26828892808578,1
549,384,37,0.30771176382353,1
549,385,37,0.230464671444357,1
549,386,37,0.172760436618511,1
549,387,37,0.129536628227955,1
549,419,37,0.103952235235602,1
549,424,37,0.112965940108352,1
549,425,37,0.144472252286161,1
549,426,37,0.207469060169608,1
550,382,37,0.126746080526501,1
550,383,37,0.210569802575627,1
550,384,37,0.241430483682442,1
550,385,37,0.18847903181953,1
550,386,37,0.135817663871813,1
550,391,37,0.108061919101578,1
550,392,37,0.103879399154307,1
550,424,37,0.106185280178208,1
550,425,37,0.149831738613545,1
550,426,37,0.218066966541625,1
550,427,37,0.264136200661195,1
551,382,37,0.147078534740602,1
551,383,37,0.191239887384933,1
551,384,37,0.207874042166492,1
551,385,37,0.162477220041527,1
551,386,37,0.114509730409682,1
551,391,37,0.102939668702686,1
551,392,37,0.104251933959692,1
551,425,37,0.141030719559805,1
551,426,37,0.181836626594999,1
551,427,37,0.210376636380242,1
552,381,37,0.138890253403531,1
552,382,37,0.174283056493762,1
552,383,37,0.173355338976222,1
552,384,37,0.160386311421117,1
552,385,37,0.12415873768401,1
552,425,37,0.130479470665285,1
552,426,37,0.16908979928116,1
552,427,37,0.201125316340597,1
553,381,37,0.142499543352348,1
553,382,37,0.151126291206372,1
553,383,37,0.127955404865548,1
553,384,37,0.107725077322249,1
553,425,37,0.11300533628586,1
553,426,37,0.157700466980783,1
553,427,37,0.193057063957709,1
554,381,37,0.119779147616629,1
554,382,37,0.109606925196608,1
554,426,37,0.120103820304888,1
555,426,37,0.105281343139278,1
573,400,37,0.145571653259028,1
573,401,37,0.148711903383262,1
573,402,37,0.103133414909744,1
547,386,38,0.157928366952148,1
547,423,38,0.115231766864576,1
547,424,38,0.149634010403268,1
548,384,38,0.312308200178269,1
548,385,38,0.238618274775801,1
548,386,38,0.185851935869269,1
548,387,38,0.147284160032895,1
548,388,38,0.108976954440797,1
548,424,38,0.123141497595495,1
548,425,38,0.138029728007541,1
548,426,38,0.149505660512386,1
549,383,38,0.225492565990382,1
549,384,38,0.281980951345855,1
549,385,38,0.204243749102655,1
549,386,38,0.152006682002175,1
549,387,38,0.120975945934346,1
549,424,38,0.107286142334329,1
549,425,38,0.132938586311671,1
549,426,38,0.190016040445909,1
549,427,38,0.232980405153323,1
550,382,38,0.118114056797063,1
550,383,38,0.190877246240208,1
550,384,38,0.216317428253225,1
550,385,38,0.165200966013904,1
550,386,38,0.119557337767835,1
550,425,38,0.13775744598909,1
550,426,38,0.19785947138093,1
550,427,38,0.230209153994081,1
551,382,38,0.157937725217417,1
551,383,38,0.215624024297671,1
551,384,38,0.222584699773911,1
551,385,38,0.170449235102913,1
551,386,38,0.114795876937942,1
551,425,38,0.13392794122358,1
551,426,38,0.175352419554389,1
551,427,38,0.184988432336418,1
552,381,38,0.12974005616833,1
552,382,38,0.196025675242898,1
552,383,38,0.213870872090383,1
552,384,38,0.189142208243643,1
552,385,38,0.141950138448786,1
552,425,38,0.119306594259794,1
552,426,38,0.159428433296561,1
552,427,38,0.168526619100355,1
553,381,38,0.140857798002636,1
553,382,38,0.168760620348362,1
553,383,38,0.154371623830128,1
553,384,38,0.125102639758051,1
553,426,38,0.144197806378005,1
554,380,38,0.107757301432334,1
554,381,38,0.13291652355994,1
554,382,38,0.126127765774511,1
554,383,38,0.104472449936292,1
554,426,38,0.117642596539151,1
555,380,38,0.110578846296103,1
555,381,38,0.120985504972886,1
555,382,38,0.104236162103804,1
572,400,38,0.132898364732935,1
572,401,38,0.12522259063374,1
573,400,38,0.172068248456656,1
573,401,38,0.167933401007311,1
573,402,38,0.107020530450122,1
547,386,39,0.171267843501429,1
547,423,39,0.112917888372024,1
547,424,39,0.139142268475625,1
547,425,39,0.151476618257108,1
548,384,39,0.301000894913396,1
548,385,39,0.236889014587829,1
548,386,39,0.178001946340711,1
548,387,39,0.138624195356498,1
548,419,39,0.104814879905014,1
548,424,39,0.117404155971028,1
548,425,39,0.13344089872898,1
548,426,39,0.136232673378205,1
549,383,39,0.175207438944179,1
549,384,39,0.235669495428214,1
549,385,39,0.181232856751126,1
549,386,39,0.140883151205206,1
549,387,39,0.117485457991941,1
549,424,39,0.107793942554395,1
549,425,39,0.130276020416768,1
549,426,39,0.166675132606284,1
549,427,39,0.196324559719831,1
550,382,39,0.110506277912504,1
550,383,39,0.179102641185772,1
550,384,39,0.206637234197381,1
550,385,39,0.162874918430281,1
550,386,39,0.117544686107052,1
550,425,39,0.132575554774473,1
550,426,39,0.17539637774679,1
550,427,39,0.192450505596176,1
551,382,39,0.167201816667947,1
551,383,39,0.243241480900082,1
551,384,39,0.245491792344042,1
551,385,39,0.185533442536147,1
551,386,39,0.119342354210274,1
551,425,39,0.126611640513048,1
551,426,39,0.167153698007196,1
551,427,39,0.162410730626428,1
552,381,39,0.126363484749396,1
552,382,39,0.220600970618304,1
552,383,39,0.262365715028129,1
552,384,39,0.227705488989549,1
552,385,39,0.167499161883132,1
552,386,39,0.107248463883699,1
552,425,39,0.107924712878606,1
552,426,39,0.148098964893321,1
553,381,39,0.141040100133215,1
553,382,39,0.188677574276964,1
553,383,39,0.186166369120678,1
553,384,39,0.148801448262379,1
553,385,39,0.111362163215106,1
553,426,39,0.128846247025544,1
554,380,39,0.122752253992287,1
554,381,39,0.149943312782181,1
554,382,39,0.145794745825946,1
554,383,39,0.123812526485341,1
554,426,39,0.114212519043345,1
555,379,39,0.103925030457305,1
555,380,39,0.144908554913408,1
555,381,39,0.159881623186761,1
555,382,39,0.133562400020488,1
556,380,39,0.112602875108942,1
556,381,39,0.123139344859861,1
556,382,39,0.104679569874051,1
572,399,39,0.108720276967174,1
572,400,39,0.151929440062977,1
572,401,39,0.135758179213078,1
573,400,39,0.163335994248426,1
573,401,39,0.155146452501372,1
573,403,39,0.103298517463393,1
573,404,39,0.112589534840454,1
546,423,40,0.110336367954409,1
547,386,40,0.182590329456446,1
547,419,40,0.106044984277668,1
547,423,40,0.107017061534152,1
547,424,40,0.119444659346205,1
547,425,40,0.129622191103852,1
548,385,40,0.222231628821797,1
548,386,40,0.167069228230221,1
548,387,40,0.131904470114274,1
548,418,40,0.103610374124484,1
548,419,40,0.108968945818076,1
548,424,40,0.106430402034645,1
548,425,40,0.119175020842496,1
548,426,40,0.116456204969344,1
549,383,40,0.132808741775323,1
549,384,40,0.183674627817663,1
549,385,40,0.162052116101204,1
549,386,40,0.137190294959136,1
549,387,40,0.120244941606656,1
549,425,40,0.120981355658607,1
549,426,40,0.136763975225114,1
550,383,40,0.163127401973342,1
550,384,40,0.194906743492336,1
550,385,40,0.163411094606061,1
550,386,40,0.124300394381168,1
550,425,40,0.122807187790201,1
550,426,40,0.148106884283477,1
550,427,40,0.151700435838618,1
551,382,40,0.166335000376115,1
551,383,40,0.26194743737904,1
551,384,40,0.267390623852525,1
551,385,40,0.194741417857274,1
551,386,40,0.123396568882945,1
551,425,40,0.114047438797837,1
551,426,40,0.149188338356681,1
552,381,40,0.120179746063751,1
552,382,40,0.235599648637852,1
552,383,40,0.310598504230204,3
552,384,40,0.273289387187328,1
552,385,40,0.187322600083468,1
552,386,40,0.112897097184347,1
552,426,40,0.133345676427906,1
553,381,40,0.138506207597243,1
553,382,40,0.204173969236716,1
553,383,40,0.220552205021456,1
553,384,40,0.178897238974893,1
553,385,40,0.127033074764129,1
553,426,40,0.114564864980867,1
554,380,40,0.135769656751769,1
554,381,40,0.173569999065735,1
554,382,40,0.169587125828892,1
554,383,40,0.145966551976051,1
554,384,40,0.110400548476885,1
554,426,40,0.106763351043321,1
555,379,40,0.12094094446067,1
555,380,40,0.187704760851818,1
555,381,40,0.223258517181418,1
555,382,40,0.174065184031904,1
555,383,40,0.121941966530471,1
556,379,40,0.108466945714744,1
556,380,40,0.14752299099349,1
556,381,40,0.173117467265703,1
556,382,40,0.13428770461808,1
572,398,40,0.106395813261583,1
572,399,40,0.143327945024887,1
572,400,40,0.15979948461055,1
572,401,40,0.124111265959356,1
573,400,40,0.134794400585151,1
573,401,40,0.120667948581697,1
573,404,40,0.108664785465728,1
547,425,41,0.106972311402735,1
548,385,41,0.201968742546292,1
548,386,41,0.154555242141043,1
548,387,41,0.125529282960123,1
548,388,41,0.10358843406753,1
548,419,41,0.103514437962888,1
548,425,41,0.105739173122866,1
549,384,41,0.14478912827904,1
549,385,41,0.15236879890558,1
549,386,41,0.143212455777456,1
549,387,41,0.128732754356758,1
549,388,41,0.105313556095294,1
549,425,41,0.113333901744773,1
549,426,41,0.114608377010443,1
550,383,41,0.147099047076514,1
550,384,41,0.185474671737932,1
550,385,41,0.175631974026899,1
550,386,41,0.150404154364842,1
550,387,41,0.118785766085218,1
550,425,41,0.112858035628957,1
550,426,41,0.124966415093296,1
551,382,41,0.157674935313083,1
551,383,41,0.264793576968575,3
551,384,41,0.279709424859532,1
551,385,41,0.206089591636981,1
551,386,41,0.139277031957126,1
551,426,41,0.125545512132907,1
552,381,41,0.112953425241091,1
552,382,41,0.234635713852936,3
552,383,41,0.343694884948438,3
552,384,41,0.312909605359165,3
552,385,41,0.201962942429558,1
552,386,41,0.118335476253385,1
552,426,41,0.117376772727601,1
552,427,41,0.108344496327232,1
553,381,41,0.139657620001515,1
553,382,41,0.21981311399255,1
553,383,41,0.259726327292021,3
553,384,41,0.216543387416299,1
553,385,41,0.145138540695984,1
553,426,41,0.10489624885035,1
554,380,41,0.142407566885831,1
554,381,41,0.197741550546099,1
554,382,41,0.203294783080542,1
554,383,41,0.180872602577518,1
554,384,41,0.135384573616911,1
555,379,41,0.139200961195345,1
555,380,41,0.213882316166862,1
555,381,41,0.279687139026389,1
555,382,41,0.220563649097935,1
555,383,41,0.151873178930657,1
556,379,41,0.126210127432134,1
556,380,41,0.178147596195159,1
556,381,41,0.222869329348564,1
556,382,41,0.16725881396893,1
556,383,41,0.110390621354013,1
557,381,41,0.115945236993216,1
571,399,41,0.111108185026579,1
571,400,41,0.11707272391596,1
572,398,41,0.111244565848324,1
572,399,41,0.165514607326297,1
572,400,41,0.150651964352304,1
548,385,42,0.172866433751825,1
548,386,42,0.139041324136311,1
548,387,42,0.118585405514269,1
548,388,42,0.11283083085066,1
548,389,42,0.112491010934469,1
548,390,42,0.10649733761257,1
549,384,42,0.118063562319265,1
549,385,42,0.143799996448544,1
549,386,42,0.149999328524947,1
549,387,42,0.137522373950302,1
549,388,42,0.120003255203976,1
549,389,42,0.110503679014044,1
549,390,42,0.105840976325619,1
550,383,42,0.129371726447578,1
550,384,42,0.17175577832168,1
550,385,42,0.19066527428172,1
550,386,42,0.184080323675068,1
550,387,42,0.140437111074288,1
551,382,42,0.141332838717225,1
551,383,42,0.247244453772222,3
551,384,42,0.273012409305136,3
551,385,42,0.21961586540731,1
551,386,42,0.163158109129821,1
551,387,42,0.107282059944474,1
552,381,42,0.103118256527741,1
552,382,42,0.218797000465169,3
552,383,42,0.352258801922533,3
552,384,42,0.332639237825399,3
552,385,42,0.213629386460975,3
552,386,42,0.125410246718227,1
553,381,42,0.142642984700809,1
553,382,42,0.234916394886581,1
553,383,42,0.29815526841111,3
553,384,42,0.257430551856122,3
553,385,42,0.165110450730641,1
554,380,42,0.141137720559477,1
554,381,42,0.220664325739553,1
554,382,42,0.244377790692704,1
554,383,42,0.220743363484125,1
554,384,42,0.168323124235556,1
554,385,42,0.108561833393699,1
555,380,42,0.21860965669466,1
555,381,42,0.317914593013394,1
555,382,42,0.264460873349454,1
555,383,42,0.179392067010801,1
555,384,42,0.114852506154593,1
556,379,42,0.14147235383282,1
556,380,42,0.204203170593658,1
556,381,42,0.274212564998116,1
556,382,42,0.204747333084018,1
556,383,42,0.128085673256581,1
557,380,42,0.12427455039949,1
557,381,42,0.149479883455131,1
557,382,42,0.116057558484585,1
559,380,42,0.105683079301605,1
560,380,42,0.149963010870936,1
560,381,42,0.136569347846475,1
561,380,42,0.114938771736941,1
561,381,42,0.108867298772312,1
570,413,42,0.103680945929438,1
571,399,42,0.112596327669475,1
571,400,42,0.122224867224174,1
572,399,42,0.166883055637129,1
572,400,42,0.140296402473134,1
548,386,43,0.129669473209305,1
548,387,43,0.116303137657918,1
548,388,43,0.122703878787911,1
548,389,43,0.130346146058897,1
548,390,43,0.116969180678187,1
549,385,43,0.133360444417437,1
549,386,43,0.150024804422295,1
549,387,43,0.144426587520951,1
549,388,43,0.13683579628598,1
549,389,43,0.12651842594469,1
549,390,43,0.105812912683883,1
550,384,43,0.15427077987745,1
550,385,43,0.192661183682469,1
550,386,43,0.199105336455402,1
550,387,43,0.155138588881569,1
550,388,43,0.112953001386406,1
551,383,43,0.214304832362795,3
551,384,43,0.252273378062049,3
551,385,43,0.232077817756941,1
551,386,43,0.184219247624919,1
551,387,43,0.12069994961037,1
552,382,43,0.192830257085266,3
552,383,43,0.327162432982997,3
552,384,43,0.3291620455352,3
552,385,43,0.229730532822816,3
552,386,43,0.140318543303359,1
553,381,43,0.144559767124421,1
553,382,43,0.248260321910048,3
553,383,43,0.323706031880475,3
553,384,43,0.29353833087453,3
553,385,43,0.19017491902814,1
553,386,43,0.103169710255615,1
554,380,43,0.131414951415991,1
554,381,43,0.23057792987766,1
554,382,43,0.288575237909634,3
554,383,43,0.260349906765354,3
554,384,43,0.204777917545719,1
554,385,43,0.130000124479428,1
555,380,43,0.202486960668338,1
555,381,43,0.317871805998409,1
555,382,43,0.297656993767373,3
555,383,43,0.201451349825474,1
555,384,43,0.13266440810121,1
556,379,43,0.146924508179102,1
556,380,43,0.214053798848918,1
556,381,43,0.303357125412176,1
556,382,43,0.241623716802251,1
556,383,43,0.147041202066162,1
557,380,43,0.139659995818562,1
557,381,43,0.179907128530855,1
557,382,43,0.144228837002532,1
558,381,43,0.107221638343804,1
559,380,43,0.137637673578532,1
559,381,43,0.154672962202602,1
560,380,43,0.190317200353254,1
560,381,43,0.202878446239744,1
560,382,43,0.10713213808097,1
561,380,43,0.126747195933565,1
561,381,43,0.133048665834841,1
570,413,43,0.115605528617731,1
571,400,43,0.107885863250559,1
572,399,43,0.137911104466259,1
572,400,43,0.120242398478549,1
573,399,43,0.125947058676033,1
548,388,44,0.122644159893692,1
548,389,44,0.131317933309544,1
548,390,44,0.120938312099998,1
549,385,44,0.117057208603697,1
549,386,44,0.137406148534208,1
549,387,44,0.142401454455119,1
549,388,44,0.141418970450725,1
549,389,44,0.12761390068469,1
549,390,44,0.104896170771855,1
550,384,44,0.135393675338555,1
550,385,44,0.178249912485162,1
550,386,44,0.185385974568184,1
550,387,44,0.155248300320407,1
550,388,44,0.119147012971113,1
551,383,44,0.17636438376749,1
551,384,44,0.230045189155638,3
551,385,44,0.240463961153138,1
551,386,44,0.191844460321892,1
551,387,44,0.128149753392421,1
552,382,44,0.166941982592333,1
552,383,44,0.283099236160319,3
552,384,44,0.315916876653201,3
552,385,44,0.251153955532379,3
552,386,44,0.158542253538094,1
553,381,44,0.140707396514094,1
553,382,44,0.255980031893503,3
553,383,44,0.334672067199974,3
553,384,44,0.316987712051152,3
553,385,44,0.213888450905715,3
553,386,44,0.116205004144406,1
554,381,44,0.226983619845715,3
554,382,44,0.328265102098563,3
554,383,44,0.301473158264394,3
554,384,44,0.236175890235379,3
554,385,44,0.150420673543464,1
555,380,44,0.182316608562882,1
555,381,44,0.295479295323294,3
555,382,44,0.316082202288262,3
555,383,44,0.221814756585609,3
555,384,44,0.149491907543284,1
556,380,44,0.210191077261035,1
556,381,44,0.309842459013921,1
556,382,44,0.267405191068784,3
556,383,44,0.165015072272578,1
557,380,44,0.146137543878998,1
557,381,44,0.204412577115898,1
557,382,44,0.176552541785156,1
557,383,44,0.118253672299294,1
558,381,44,0.131649655370449,1
558,382,44,0.108817172378845,1
559,380,44,0.147892335734671,1
559,381,44,0.193596184808138,1
559,382,44,0.115924847352082,1
560,380,44,0.192441448490814,1
560,381,44,0.242517180168848,1
560,382,44,0.131399848804342,1
561,380,44,0.121533448693194,1
561,381,44,0.143109135621096,1
570,413,44,0.109441967645878,1
571,412,44,0.112324090267306,1
573,399,44,0.121499540318441,1
548,388,45,0.116748129306196,1
548,389,45,0.118369975793882,1
548,390,45,0.116312852853448,1
549,385,45,0.107599170172837,1
549,386,45,0.125144891377645,1
549,387,45,0.135488150316896,1
549,388,45,0.135343258939251,1
549,389,45,0.118859316027034,1
549,390,45,0.106676048132403,1
550,384,45,0.121121919256843,1
550,385,45,0.158653515392751,1
550,386,45,0.160166832773087,1
550,387,45,0.147298124929339,1
550,388,45,0.121001934918942,1
551,383,45,0.140792669384155,1
551,384,45,0.208880697041967,1
551,385,45,0.246942423847367,1
551,386,45,0.193819712383811,1
551,387,45,0.133688262553617,1
552,382,45,0.141543260259893,1
552,383,45,0.228622866683603,3
552,384,45,0.29686378318771,3
552,385,45,0.282635382978585,1
552,386,45,0.186142387868797,1
552,387,45,0.108643760042567,1
553,382,45,0.244972481123074,3
553,383,45,0.32123286210508,3
553,384,45,0.317534707675455,3
553,385,45,0.236207077016895,3
553,386,45,0.138123455663149,1
554,381,45,0.211741626929175,3
554,382,45,0.340279419285174,3
554,383,45,0.334645096657161,3
554,384,45,0.257143401461504,3
554,385,45,0.167486858943213,1
555,380,45,0.161819486803887,1
555,381,45,0.261932847854639,3
555,382,45,0.313961612685873,3
555,383,45,0.243463669987278,3
555,384,45,0.170003484977832,1
555,385,45,0.114284351258282,1
556,380,45,0.189115304625254,1
556,381,45,0.288388898005483,1
556,382,45,0.273798481279588,3
556,383,45,0.182647828690608,1
556,384,45,0.121446212706699,1
557,380,45,0.143490270214946,1
557,381,45,0.215572581723868,1
557,382,45,0.203288603725406,1
557,383,45,0.141819948136248,1
558,380,45,0.106285532965142,1
558,381,45,0.149810133178711,1
558,382,45,0.132504336033422,1
559,380,45,0.13857787250112,1
559,381,45,0.201460719244814,1
559,382,45,0.135171430481005,1
560,380,45,0.162863273580531,1
560,381,45,0.235741015329173,1
560,382,45,0.146463298512109,1
561,380,45,0.106296742806138,1
561,381,45,0.13781492291511,1
573,399,45,0.116369091677627,1
573,400,45,0.109423708432236,1
574,398,45,0.171112589992157,1
548,389,46,0.106354375889147,1
548,390,46,0.110372964460186,1
548,391,46,0.104419512717024,1
549,386,46,0.120284471633012,1
549,387,46,0.130809486153381,1
549,388,46,0.12757308794021,1
549,389,46,0.114613864813199,1
549,390,46,0.112973145637987,1
549,391,46,0.10466878388774,1
550,385,46,0.14589603594145,1
550,386,46,0.150828220976595,1
550,387,46,0.14966616758893,1
550,388,46,0.126161897230676,1
551,384,46,0.189747405808558,1
551,385,46,0.254455471209961,1
551,386,46,0.205398418495555,1
551,387,46,0.149935426854237,1
552,383,46,0.184351958757422,1
552,384,46,0.275927771057078,1
552,385,46,0.315384002082331,1
552,386,46,0.217691074360977,1
552,387,46,0.128746663482849,1
553,382,46,0.21873623308831,3
553,383,46,0.29260348590585,3
553,384,46,0.301796068609492,3
553,385,46,0.25851104667925,1
553,386,46,0.166020489046212,1
554,381,46,0.199211947062602,3
554,382,46,0.321752574872592,3
554,383,46,0.351538940511415,3
554,384,46,0.266561519473535,3
554,385,46,0.181257395706539,1
554,386,46,0.115091470964036,1
555,381,46,0.236436672406998,1
555,382,46,0.296729956648143,3
555,383,46,0.268229811511376,3
555,384,46,0.191242564361888,1
555,385,46,0.135965499924108,1
556,380,46,0.1643544278225,1
556,381,46,0.259194501203792,1
556,382,46,0.262398574920242,1
556,383,46,0.198183764830787,1
556,384,46,0.140661720594814,1
557,380,46,0.138878764710769,1
557,381,46,0.22306702409663,1
557,382,46,0.217667137725378,1
557,383,46,0.158971964109592,1
557,384,46,0.10456044439959,1
558,380,46,0.112919104165724,1
558,381,46,0.169959236779593,1
558,382,46,0.156401118137581,1
558,383,46,0.114991965499835,1
559,380,46,0.120621915732156,1
559,381,46,0.187151585872379,1
559,382,46,0.150937988185787,1
560,380,46,0.122985440993137,1
560,381,46,0.19463888963993,1
560,382,46,0.152124033979404,1
561,381,46,0.122827733588324,1
561,382,46,0.107067243697972,1
573,399,46,0.112625473256063,1
573,400,46,0.109294778529681,1
574,397,46,0.11349237878046,1
574,398,46,0.183832881771937,1
574,399,46,0.249946259687645,1
575,398,46,0.19460712284674,1
548,389,47,0.106415422117773,1
548,390,47,0.108275207240402,1
548,391,47,0.108588179308556,1
549,386,47,0.119344752335462,1
549,387,47,0.125948196391239,1
549,388,47,0.124747951465694,1
549,389,47,0.120148113119409,1
549,390,47,0.118780668674935,1
549,391,47,0.111338527739415,1
550,385,47,0.137723671463185,1
550,386,47,0.153346932822423,1
550,387,47,0.155745916873976,1
550,388,47,0.134074929566506,1
550,389,47,0.11370976046321,1
551,384,47,0.162424907450214,1
551,385,47,0.239051498879551,1
551,386,47,0.217686813505991,1
551,387,47,0.171941627446723,1
551,388,47,0.116056978472911,1
552,383,47,0.148513316309545,1
552,384,47,0.236664840076058,1
552,385,47,0.306974970533176,1
552,386,47,0.232918388520552,1
552,387,47,0.147635669415119,1
553,382,47,0.185735911226447,1
553,383,47,0.246854239764869,3
553,384,47,0.266897948552251,1
553,385,47,0.259146627932595,1
553,386,47,0.185507308548631,1
553,387,47,0.113827257443357,1
554,382,47,0.284197979043018,3
554,383,47,0.335815247900112,3
554,384,47,0.26164583130887,3
554,385,47,0.189850647886424,1
554,386,47,0.138864688273618,1
555,381,47,0.219854874833035,1
555,382,47,0.274792085892412,1
555,383,47,0.283632400737025,3
555,384,47,0.206916286736712,1
555,385,47,0.151613356009113,1
555,386,47,0.11153603286828,1
556,381,47,0.223059974723984,1
556,382,47,0.242129420057036,1
556,383,47,0.212268634458886,1
556,384,47,0.157658706140298,1
556,385,47,0.121376388224478,1
557,380,47,0.132854964244065,1
557,381,47,0.220414697638576,1
557,382,47,0.216418372592539,1
557,383,47,0.166947515011371,1
557,384,47,0.115591106404391,1
558,380,47,0.122042197009263,1
558,381,47,0.19302808568218,1
558,382,47,0.176173972627554,1
558,383,47,0.127509353580559,1
559,380,47,0.104662437221544,1
559,381,47,0.169412207693079,1
559,382,47,0.159448097923103,1
559,383,47,0.105522215294801,1
560,381,47,0.143985265561914,1
560,382,47,0.144729253227832,1
561,381,47,0.103503083118974,1
561,382,47,0.108483409123013,1
573,399,47,0.105995225968532,1
573,400,47,0.102981373772818,1
574,397,47,0.123392107254688,1
574,398,47,0.181909551908859,1
574,399,47,0.227238356511046,1
575,398,47,0.163139180671941,1
547,392,48,0.105509254264714,1
548,389,48,0.117113190884251,1
548,390,48,0.110696298659968,1
548,391,48,0.114516088229948,1
548,392,48,0.104142345215631,1
549,387,48,0.126059179394131,1
549,388,48,0.127792198503909,1
549,389,48,0.125484521674635,1
549,390,48,0.11809038785916,1
549,391,48,0.110400024235565,1
550,386,48,0.162589351913695,1
550,387,48,0.159202462979416,1
550,388,48,0.135564499930443,1
550,389,48,0.124981160774685,1
550,390,48,0.109316874743624,1
551,385,48,0.215605017761296,1
551,386,48,0.241652338147519,1
551,387,48,0.195166276408043,1
551,388,48,0.124099721496241,1
552,384,48,0.191353413515932,1
552,385,48,0.273289364879187,1
552,386,48,0.249524881206917,1
552,387,48,0.170464750415177,1
553,383,48,0.201494716852132,1
553,384,48,0.233613086348301,1
553,385,48,0.252707873729853,1
553,386,48,0.203657424225267,1
553,387,48,0.131484396659811,1
554,382,48,0.251311384085426,1
554,383,48,0.298953208316725,3
554,384,48,0.255556667988201,1
554,385,48,0.207288832696168,1
554,386,48,0.16420216360416,1
554,387,48,0.105647497816256,1
555,381,48,0.215425749537931,1
555,382,48,0.265130452210117,1
555,383,48,0.290113228094231,1
555,384,48,0.22328651389873,1
555,385,48,0.170476729887047,1
555,386,48,0.13906508230678,1
556,381,48,0.191224070912763,1
556,382,48,0.227264501652632,1
556,383,48,0.223640321019507,1
556,384,48,0.170373242419627,1
556,385,48,0.132561244101839,1
556,386,48,0.103259701297558,1
557,380,48,0.122009136343879,1
557,381,48,0.202968883444513,1
557,382,48,0.205371782574861,1
557,383,48,0.167696120462535,1
557,384,48,0.121352529667374,1
558,380,48,0.128998343932824,1
558,381,48,0.214024597491976,1
558,382,48,0.198152533432988,1
558,383,48,0.138262792313614,1
559,381,48,0.161696357018065,1
559,382,48,0.168927295625971,1
559,383,48,0.120064479897732,1
560,381,48,0.109400284883887,1
560,382,48,0.134070925255145,1
560,383,48,0.103781745265833,1
561,382,48,0.106295181236248,1
571,402,48,0.105779171620189,1
571,403,48,0.104335957573842,1
574,397,48,0.118708959154775,1
574,398,48,0.160654901442186,1
574,399,48,0.182552572927322,1
574,400,48,0.146314815523718,1
575,399,48,0.160524911902919,1
547,391,49,0.118366741113396,1
547,392,49,0.11332203381361,1
548,389,49,0.13370238360705,1
548,390,49,0.120489985384598,1
548,391,49,0.122546215999381,1
548,392,49,0.112425793083423,1
549,387,49,0.133362675231565,1
549,388,49,0.141788872895439,1
549,389,49,0.140040951947282,1
549,390,49,0.125626033368875,1
549,391,49,0.113274684783733,1
550,386,49,0.165608914993578,1
550,387,49,0.157331992257112,1
550,388,49,0.141148372696941,1
550,389,49,0.138856077331083,1
550,390,49,0.120708683247683,1
551,385,49,0.192388667428534,1
551,386,49,0.253530843369989,1
551,387,49,0.201600725139517,1
551,388,49,0.128984278649744,1
552,384,49,0.157912338552635,1
552,385,49,0.240410756236174,1
552,386,49,0.275215338257008,1
552,387,49,0.195822648849065,1
552,388,49,0.106057209139092,1
553,383,49,0.167498704566236,1
553,384,49,0.201208347242459,1
553,385,49,0.237719234373883,1
553,386,49,0.224121931481704,1
553,387,49,0.151763579032524,1
554,382,49,0.2328605435102,1
554,383,49,0.252179371554675,1
554,384,49,0.238253536665795,1
554,385,49,0.21656649865067,1
554,386,49,0.182649769498899,1
554,387,49,0.122479581581363,1
555,382,49,0.277251647701623,1
555,383,49,0.28862047882016,1
555,384,49,0.234982270827795,1
555,385,49,0.190505235676143,1
555,386,49,0.166642953112481,1
555,387,49,0.110168443420887,1
556,381,49,0.177421075803867,1
556,382,49,0.233395024267242,1
556,383,49,0.239515062055449,1
556,384,49,0.185997407258587,1
556,385,49,0.144830286799711,1
556,386,49,0.12532157185662,1
557,381,49,0.181537931737266,1
557,382,49,0.199946197224849,1
557,383,49,0.169570082408951,1
557,384,49,0.126596984064224,1
558,380,49,0.132277049535942,1
558,381,49,0.234679950897104,1
558,382,49,0.230006239140955,1
558,383,49,0.148736130024697,1
559,381,49,0.173484268878778,1
559,382,49,0.190956172444074,1
559,383,49,0.133255149990573,1
560,382,49,0.129719621910914,1
560,383,49,0.111919297889623,1
561,382,49,0.104145401430987,1
571,402,49,0.129388647172742,1
571,403,49,0.128808546266773,1
574,398,49,0.12179627205974,1
574,399,49,0.128579921280816,1
547,392,50,0.117930505410572,1
547,393,50,0.106305264516108,1
548,390,50,0.13622060467377,1
548,391,50,0.129801091242886,1
548,392,50,0.115145010503119,1
549,389,50,0.158477916858628,1
549,390,50,0.142081209932905,1
549,391,50,0.123021714030866,1
550,387,50,0.153131860032297,1
550,388,50,0.148999209934868,1
550,389,50,0.150797848442236,1
550,390,50,0.128761855327064,1
551,386,50,0.233227311661063,1
551,387,50,0.187035895851676,1
551,388,50,0.128574031931517,1
551,389,50,0.106825613065646,1
552,385,50,0.208375886112834,1
552,386,50,0.284441583945848,1
552,387,50,0.211124739898227,1
552,388,50,0.114162749580138,1
552,428,50,0.115020497612538,1
553,384,50,0.163186942402432,1
553,385,50,0.211028457960442,1
553,386,50,0.236045008370461,1
553,387,50,0.170964151620048,1
554,383,50,0.203111254002192,1
554,384,50,0.207414472147884,1
554,385,50,0.210254253917153,1
554,386,50,0.188968003968351,1
554,387,50,0.136347069526713,1
555,383,50,0.268271416194872,1
555,384,50,0.236838062793135,1
555,385,50,0.208315074119692,1
555,386,50,0.181206120443796,1
555,387,50,0.129270748646052,1
556,382,50,0.229666686922459,1
556,383,50,0.234996146491674,1
556,384,50,0.191450320081673,1
556,385,50,0.153511767678377,1
556,386,50,0.133428830024545,1
557,382,50,0.185979159199016,1
557,383,50,0.161756544383252,1
557,384,50,0.124415816704176,1
558,381,50,0.22311199730946,1
558,382,50,0.234698890509055,1
558,383,50,0.145925270760603,1
559,381,50,0.179451350896265,1
559,382,50,0.2021084807433,1
559,383,50,0.136587718600823,1
560,382,50,0.128513978415178,1
560,383,50,0.119593153488668,1
561,383,50,0.107059592005512,1
570,402,50,0.105639176879557,1
571,402,50,0.130673908424723,1
571,403,50,0.135647106977621,1
546,393,51,0.116216760534864,1
547,390,51,0.143684016422004,1
547,391,51,0.127667652151116,1
547,392,51,0.120625340031844,1
547,393,51,0.11566801372147,1
548,389,51,0.160602945781133,1
548,390,51,0.155153289946676,1
548,391,51,0.13669012412339,1
548,392,51,0.115936826823952,1
549,387,51,0.153168568078781,1
549,388,51,0.174022798563463,1
549,389,51,0.178822807861496,1
549,390,51,0.163294322640506,1
549,391,51,0.139341848261629,1
549,392,51,0.108244712011265,1
550,386,51,0.1387676590131,1
550,387,51,0.152434719463077,1
550,388,51,0.159243967276277,1
550,389,51,0.162332429050518,1
550,390,51,0.137236941282563,1
550,391,51,0.110166279531183,1
551,385,51,0.14389473912458,1
551,386,51,0.195956586929339,1
551,387,51,0.169286267081455,1
551,388,51,0.130808147664904,1
551,389,51,0.111345878271969,1
551,428,51,0.112723316763738,1
552,384,51,0.116051512978297,1
552,385,51,0.182734283892157,1
552,386,51,0.263551348121133,1
552,387,51,0.213566142880433,1
552,388,51,0.125130603013152,1
552,428,51,0.132629741249654,1
553,384,51,0.132839582780649,1
553,385,51,0.179694141551938,1
553,386,51,0.228928532835487,1
553,387,51,0.185701545534798,1
553,388,51,0.106779546753893,1
553,428,51,0.105614135990965,1
554,383,51,0.163547174267898,1
554,384,51,0.170913155209071,1
554,385,51,0.184460822486892,1
554,386,51,0.181027276075116,1
554,387,51,0.144523505240762,1
555,382,51,0.255753225021061,1
555,383,51,0.233672872166944,1
555,384,51,0.221904011458889,1
555,385,51,0.20678219249945,1
555,386,51,0.179074599852177,1
555,387,51,0.137538513890521,1
556,381,51,0.161746550335956,1
556,382,51,0.212808603018684,1
556,383,51,0.212277133860716,1
556,384,51,0.184826263303349,1
556,385,51,0.155370013539257,1
556,386,51,0.132285905868032,1
556,427,51,0.110325470427391,1
557,381,51,0.130915650597756,1
557,382,51,0.166606903156165,1
557,383,51,0.147100307486496,1
557,384,51,0.116992860770161,1
558,381,51,0.19132715683364,1
558,382,51,0.211242080721385,1
558,383,51,0.135270422857957,1
559,381,51,0.177715710579886,1
559,382,51,0.196140004466982,1
559,383,51,0.131631083842829,1
560,381,51,0.107128200694033,1
560,382,51,0.131689731946267,1
560,383,51,0.124411221227071,1
561,382,51,0.103140430820178,1
561,383,51,0.118723582141387,1
570,403,51,0.10568940365966,1
571,402,51,0.118620384679804,1
571,403,51,0.139341446715086,1
571,404,51,0.103288333796897,1
546,393,52,0.132427584873331,1
546,394,52,0.112195015361832,1
547,390,52,0.159187516524756,1
547,391,52,0.138394098033216,1
547,392,52,0.124675505776872,1
547,393,52,0.124513715982204,1
547,394,52,0.1107574564293,1
548,389,52,0.180301480698416,1
548,390,52,0.181467304161959,1
548,391,52,0.1457828332785,1
548,392,52,0.117252728307987,1
548,393,52,0.106082015792201,1
549,387,52,0.144209863928369,1
549,388,52,0.180211746200098,1
549,389,52,0.198862646186365,1
549,390,52,0.18145082959962,1
549,391,52,0.152745516487456,1
549,392,52,0.121358173627119,1
550,386,52,0.121134980673565,1
550,387,52,0.146411766705742,1
550,388,52,0.161981042363071,1
550,389,52,0.163898728266405,1
550,390,52,0.142042639156624,1
550,391,52,0.128576463518917,1
550,392,52,0.103991430639839,1
550,428,52,0.115940875751595,1
551,385,52,0.120874633510701,1
551,386,52,0.156324902372881,1
551,387,52,0.154643827770084,1
551,388,52,0.131757169457371,1
551,389,52,0.110271819347601,1
551,428,52,0.127228973706822,1
552,385,52,0.148675518804826,1
552,386,52,0.215464364930495,1
552,387,52,0.207224808330681,1
552,388,52,0.136292269577647,1
552,428,52,0.137452772549493,1
553,384,52,0.108102966081542,1
553,385,52,0.149436047957507,1
553,386,52,0.21110899035048,1
553,387,52,0.205522585609946,1
553,388,52,0.125158153567638,1
553,428,52,0.105638931490003,1
554,383,52,0.137673667764495,1
554,384,52,0.141529975761758,1
554,385,52,0.161781161417159,1
554,386,52,0.180063988226298,1
554,387,52,0.161944836249766,1
555,382,52,0.221330714536012,1
555,383,52,0.195750749709704,1
555,384,52,0.193850296845513,1
555,385,52,0.190265512389897,1
555,386,52,0.171437563840323,1
555,387,52,0.138827065593342,1
556,381,52,0.151230325223253,1
556,382,52,0.180179812095849,1
556,383,52,0.177232616626293,1
556,384,52,0.165082799789518,1
556,385,52,0.147732553672719,1
556,386,52,0.124980290757175,1
557,381,52,0.11209843226414,1
557,382,52,0.139120518037872,1
557,383,52,0.128144823293197,1
557,384,52,0.106303859103207,1
558,381,52,0.150391527956875,1
558,382,52,0.166449418832765,1
558,383,52,0.119294012468109,1
559,381,52,0.166935301304018,1
559,382,52,0.176172600676865,1
559,383,52,0.125155086198212,1
560,381,52,0.123458830905271,1
560,382,52,0.141095859332357,1
560,383,52,0.130610029062154,1
561,382,52,0.113152313474715,1
561,383,52,0.13210911384835,1
561,384,52,0.103093862575246,1
562,383,52,0.103796290173951,1
571,403,52,0.128156445834807,1
545,393,53,0.140823789241247,1
546,391,53,0.150901068211961,1
546,392,53,0.149814728655816,1
546,393,53,0.155030171314925,1
546,394,53,0.128741856078402,1
547,390,53,0.177272224731145,1
547,391,53,0.154551951690203,1
547,392,53,0.129692171743063,1
547,393,53,0.129535646669738,1
547,394,53,0.118642436277464,1
548,388,53,0.131282396440477,1
548,389,53,0.19484898771455,1
548,390,53,0.205493763491406,1
548,391,53,0.155232751545932,1
548,392,53,0.119637691692743,1
548,393,53,0.116073720732946,1
548,394,53,0.113560931698628,1
549,387,53,0.119102809389158,1
549,388,53,0.167471388247232,1
549,389,53,0.200022691841315,1
549,390,53,0.181363861310821,1
549,391,53,0.153675509435407,1
549,392,53,0.13238467516357,1
549,393,53,0.112426941952699,1
550,386,53,0.109246905258484,1
550,387,53,0.132931235779118,1
550,388,53,0.149882277707626,1
550,389,53,0.14988651625447,1
550,390,53,0.136376560889492,1
550,391,53,0.139137795693297,1
550,392,53,0.119402073104493,1
551,385,53,0.108042310245389,1
551,386,53,0.130715814268127,1
551,387,53,0.141094509689809,1
551,388,53,0.128719525628976,1
551,389,53,0.106206484066499,1
552,385,53,0.123041679817316,1
552,386,53,0.169022272537491,1
552,387,53,0.191167162844345,1
552,388,53,0.143388467012193,1
553,385,53,0.134506603254437,1
553,386,53,0.197429459649525,1
553,387,53,0.220862265877173,1
553,388,53,0.142499019111028,1
554,383,53,0.129482988302235,1
554,384,53,0.130410783898269,1
554,385,53,0.154175568730446,1
554,386,53,0.192956075002113,1
554,387,53,0.185720909001433,1
554,388,53,0.106176301151341,1
555,382,53,0.185783070637123,1
555,383,53,0.169656057985462,1
555,384,53,0.166605899289807,1
555,385,53,0.166866770693991,1
555,386,53,0.165239681793103,1
555,387,53,0.139066286946409,1
556,381,53,0.136687435992366,1
556,382,53,0.151278666965417,1
556,383,53,0.149400444164016,1
556,384,53,0.14300815781957,1
556,385,53,0.131114839991287,1
556,386,53,0.113992058837098,1
557,382,53,0.118493373277399,1
557,383,53,0.112551187145585,1
558,382,53,0.131821896529308,1
558,383,53,0.107743013067841,1
559,381,53,0.150644156502854,1
559,382,53,0.156336123367948,1
559,383,53,0.121517777223941,1
560,381,53,0.142400751748668,1
560,382,53,0.159352987162735,1
560,383,53,0.139952611707794,1
561,381,53,0.106559231550565,1
561,382,53,0.137277709410761,1
561,383,53,0.145610157110885,1
561,384,53,0.112494535620792,1
562,383,53,0.111446945306059,1
571,403,53,0.109204307862701,1
545,393,54,0.169131660508281,1
545,394,54,0.145285294803426,1
545,395,54,0.104062225526207,1
546,391,54,0.146650106887228,1
546,392,54,0.156692774776738,1
546,393,54,0.18369435936863,1
546,394,54,0.156599716365368,1
546,395,54,0.103905399292975,1
547,390,54,0.186161985570916,1
547,391,54,0.165017191546,1
547,392,54,0.131415486811382,1
547,393,54,0.13353378982929,1
547,394,54,0.125914053781002,1
548,389,54,0.189346550817812,1
548,390,54,0.21093224294708,1
548,391,54,0.159763278497245,1
548,392,54,0.120997484444756,1
548,393,54,0.120383464009963,1
548,394,54,0.123487731102305,1
549,388,54,0.143812924016418,1
549,389,54,0.181061641766766,1
549,390,54,0.167992841049764,1
549,391,54,0.147591822763424,1
549,392,54,0.138532408509182,1
549,393,54,0.123974416666644,1
550,387,54,0.114950740054741,1
550,388,54,0.128604214846675,1
550,389,54,0.129506802243057,1
550,390,54,0.124481291098846,1
550,391,54,0.137215101612245,1
550,392,54,0.125600401314538,1
551,386,54,0.108393752703189,1
551,387,54,0.122098625452643,1
551,388,54,0.117414640797432,1
552,386,54,0.132206801199036,1
552,387,54,0.163215262587793,1
552,388,54,0.137699824060151,1
553,385,54,0.125765771565883,1
553,386,54,0.183861514271276,1
553,387,54,0.216571852604578,1
553,388,54,0.150006946755196,1
554,383,54,0.119043235497857,1
554,384,54,0.124153138340547,1
554,385,54,0.15420619780843,1
554,386,54,0.20332079437328,1
554,387,54,0.199595758633407,1
554,388,54,0.115737224729806,1
555,382,54,0.14305451413716,1
555,383,54,0.143860273046295,1
555,384,54,0.140923796638627,1
555,385,54,0.144149498098052,1
555,386,54,0.154806599122969,1
555,387,54,0.135839704315403,1
556,382,54,0.121415405163585,1
556,383,54,0.125684536469394,1
556,384,54,0.121151890244659,1
556,385,54,0.111587731985707,1
558,382,54,0.103243985212022,1
559,381,54,0.129050656524136,1
559,382,54,0.138136595158366,1
559,383,54,0.120075968590494,1
560,381,54,0.152257157812521,1
560,382,54,0.177536319661744,1
560,383,54,0.154446211100513,1
560,384,54,0.11304839099854,1
561,381,54,0.127183018935775,1
561,382,54,0.162690965497247,1
561,383,54,0.157960814143647,1
561,384,54,0.118991101371674,1
562,382,54,0.104647691540155,1
562,383,54,0.116389024001865,1
545,393,55,0.17121976945696,1
545,394,55,0.150770297887749,1
546,391,55,0.137489067895363,1
546,392,55,0.150154169333605,1
546,393,55,0.190252819057506,1
546,394,55,0.169854321591131,1
546,395,55,0.108640926908624,1
547,390,55,0.1773405545679,1
547,391,55,0.165675292867971,1
547,392,55,0.131869513256881,1
547,393,55,0.133707648328393,1
547,394,55,0.127060089923225,1
548,389,55,0.158079883847755,1
548,390,55,0.188679292003843,1
548,391,55,0.158579195820061,1
548,392,55,0.12530611231471,1
548,393,55,0.12052213141619,1
548,394,55,0.121324466025638,1
548,395,55,0.104320754575556,1
549,388,55,0.112071361334691,1
549,389,55,0.144615950178247,1
549,390,55,0.146341908761308,1
549,391,55,0.1394316385303,1
549,392,55,0.137131457236498,1
549,393,55,0.124614470702317,1
549,394,55,0.1056176941395,1
550,388,55,0.105085455350657,1
550,389,55,0.110352284813215,1
550,390,55,0.112370301581977,1
550,391,55,0.124287912976119,1
550,392,55,0.119028411737973,1
552,386,55,0.113348413190679,1
552,387,55,0.132307109756323,1
552,388,55,0.12107898723894,1
553,385,55,0.131169963408402,1
553,386,55,0.172721073903214,1
553,387,55,0.193835171925722,1
553,388,55,0.145875757841022,1
554,383,55,0.111346179431876,1
554,384,55,0.12900470175309,1
554,385,55,0.167626496753585,1
554,386,55,0.207403496542372,1
554,387,55,0.203871872387438,1
554,388,55,0.131048428654683,1
555,382,55,0.112260679375704,1
555,383,55,0.129437089301542,1
555,384,55,0.133765448722462,1
555,385,55,0.141516858574683,1
555,386,55,0.152324818405038,1
555,387,55,0.142259530060265,1
556,382,55,0.106758052859765,1
556,383,55,0.116282145696969,1
556,384,55,0.111662821189272,1
559,382,55,0.133063891141268,1
559,383,55,0.125279007923049,1
559,384,55,0.103370951998145,1
560,381,55,0.153091080750028,1
560,382,55,0.191405213019995,1
560,383,55,0.176923805026488,1
560,384,55,0.128965417116287,1
561,381,55,0.138547064958006,1
561,382,55,0.176766934176974,1
561,383,55,0.17220427234814,1
561,384,55,0.127735390822127,1
562,382,55,0.112241650531188,1
562,383,55,0.119898295399231,1
562,384,55,0.10346724509,1
546,393,56,0.172241370787096,1
546,394,56,0.159398094224413,1
546,395,56,0.105882346773632,1
547,390,56,0.14816613470673,1
547,391,56,0.15054857727152,1
547,392,56,0.131527585221338,1
547,393,56,0.129457925105502,1
547,394,56,0.120847105264355,1
548,389,56,0.115476308709339,1
548,390,56,0.147257022179022,1
548,391,56,0.147390313323198,1
548,392,56,0.131481117363042,1
548,393,56,0.118611584118067,1
548,394,56,0.10997158522812,1
549,389,56,0.103929659396622,1
549,390,56,0.119016599577163,1
549,391,56,0.126190340110814,1
549,392,56,0.130572361765595,1
549,393,56,0.11947668268302,1
550,391,56,0.105212366366426,1
550,392,56,0.104943954810487,1
553,385,56,0.126823289003487,1
553,386,56,0.148222328914626,1
553,387,56,0.158684345244007,1
553,388,56,0.133173992972579,1
554,384,56,0.136025631518941,1
554,385,56,0.177210118865808,1
554,386,56,0.193841886676248,1
554,387,56,0.196944391425429,1
554,388,56,0.150561527147536,1
555,383,56,0.114862109809416,1
555,384,56,0.136438666754828,1
555,385,56,0.152366679632158,1
555,386,56,0.154301721269412,1
555,387,56,0.153098420128511,1
555,388,56,0.111753671094654,1
556,383,56,0.108395280810867,1
556,384,56,0.108273812981571,1
559,382,56,0.129685925463503,1
559,383,56,0.136289659525117,1
559,384,56,0.115896560628933,1
560,381,56,0.145708982176777,1
560,382,56,0.193762090454873,1
560,383,56,0.20568916050092,1
560,384,56,0.15122887519407,1
561,381,56,0.140390520521215,1
561,382,56,0.178717937289316,1
561,383,56,0.192617705115105,1
561,384,56,0.144027450257083,1
562,381,56,0.110055162679443,1
562,382,56,0.115079502646236,1
562,383,56,0.123428748376748,1
562,384,56,0.106836109046121,1
547,391,57,0.125583000964336,1
547,392,57,0.123628573552306,1
547,393,57,0.115353803551474,1
548,390,57,0.108785026347253,1
548,391,57,0.128110189903853,1
548,392,57,0.131919238103804,1
548,393,57,0.114170479351094,1
549,391,57,0.109959483061473,1
549,392,57,0.119159393989526,1
549,393,57,0.110179820572943,1
551,423,57,0.102970063545187,1
551,424,57,0.116933420727708,1
552,423,57,0.106577256528723,1
552,424,57,0.113120323600113,1
553,385,57,0.111750481030451,1
553,386,57,0.117136380197117,1
553,387,57,0.124800241748865,1
553,388,57,0.12027487913226,1
554,384,57,0.143597895842574,1
554,385,57,0.18143278231332,1
554,386,57,0.175616358327999,1
554,387,57,0.185564317003685,1
554,388,57,0.16967321294611,1
555,383,57,0.109952812927229,1
555,384,57,0.156170630421826,1
555,385,57,0.18615616314604,1
555,386,57,0.172746839806397,1
555,387,57,0.168037535410828,1
555,388,57,0.13751869310699,1
556,383,57,0.10405984970916,1
556,384,57,0.116631926198244,1
556,385,57,0.11921884518605,1
556,386,57,0.107145545273882,1
559,382,57,0.12642397327449,1
559,383,57,0.14300191154001,1
559,384,57,0.124111845971029,1
560,381,57,0.135023795201983,1
560,382,57,0.183943630539346,1
560,383,57,0.219861165728877,1
560,384,57,0.1685332892346,1
560,385,57,0.107358677255717,1
561,381,57,0.134772427065986,1
561,382,57,0.16972651824971,1
561,383,57,0.204738722141482,1
561,384,57,0.164243969060928,1
561,385,57,0.103773234709933,1
562,382,57,0.115671259556027,1
562,383,57,0.129138952147342,1
562,384,57,0.118286175261146,1
566,382,57,0.103875484075512,1
547,392,58,0.107494109981457,1
548,391,58,0.105473048151409,1
548,392,58,0.119913565321941,1
548,393,58,0.104959046268067,1
549,392,58,0.104185645317865,1
550,423,58,0.116792065190457,1
550,424,58,0.137942804335025,1
551,422,58,0.103567854807195,1
551,423,58,0.133306336020751,1
551,424,58,0.155410078961005,1
552,422,58,0.109042239216267,1
552,423,58,0.134403193865511,1
552,424,58,0.154579379549913,1
553,388,58,0.107365670858009,1
553,423,58,0.11980172345561,1
554,384,58,0.139815427792964,1
554,385,58,0.172652520985045,1
554,386,58,0.158260490559596,1
554,387,58,0.165906951761143,1
554,388,58,0.168472254160044,1
554,389,58,0.104153521594415,1
555,384,58,0.167582850875162,1
555,385,58,0.215567919322339,1
555,386,58,0.191419579462982,1
555,387,58,0.170417010992827,1
555,388,58,0.145206859378668,1
556,384,58,0.122285333441126,1
556,385,58,0.139545822751467,1
556,386,58,0.120577901769401,1
558,383,58,0.107894184187258,1
558,384,58,0.106913953305134,1
559,382,58,0.117570742016072,1
559,383,58,0.145342437107327,1
559,384,58,0.13277812385141,1
559,385,58,0.113984685996403,1
560,381,58,0.122226774570254,1
560,382,58,0.161473387145924,1
560,383,58,0.214038272382584,1
560,384,58,0.179619409278634,1
560,385,58,0.128640644041393,1
561,381,58,0.128153188846179,1
561,382,58,0.15323905065117,1
561,383,58,0.198696026679109,1
561,384,58,0.17657083446101,1
561,385,58,0.123703919299496,1
562,382,58,0.116415894158042,1
562,383,58,0.131371740546323,1
562,384,58,0.129420001265318,1
550,422,59,0.115379446759881,1
550,423,59,0.154085075755325,1
551,422,59,0.130628042886242,1
551,423,59,0.158935791458498,1
552,421,59,0.107209725796358,1
552,422,59,0.129571997785962,1
552,423,59,0.152858395682357,1
553,422,59,0.125446385907108,1
553,423,59,0.145216117257301,1
554,384,59,0.123870438420116,1
554,385,59,0.153704197705099,1
554,386,59,0.147190532763922,1
554,387,59,0.149372982842095,1
554,388,59,0.151599279571962,1
554,389,59,0.102964073809252,1
554,422,59,0.110454969187549,1
555,384,59,0.162817865358946,1
555,385,59,0.221580855724238,1
555,386,59,0.197388234204431,1
555,387,59,0.160472186610993,1
555,388,59,0.134090824117171,1
556,384,59,0.125604271777051,1
556,385,59,0.15479881358166,1
556,386,59,0.12988955417715,1
557,384,59,0.103407615428346,1
558,383,59,0.117739770802587,1
558,384,59,0.117324605139207,1
558,385,59,0.109854099402044,1
559,382,59,0.116524099797344,1
559,383,59,0.151610545183311,1
559,384,59,0.149534527247208,1
559,385,59,0.134338199095878,1
560,382,59,0.141445595217349,1
560,383,59,0.196051151140245,1
560,384,59,0.188812984694563,1
560,385,59,0.151651279849297,1
560,386,59,0.105065266482794,1
561,382,59,0.137828129334751,1
561,383,59,0.177469596011162,1
561,384,59,0.179482281134157,1
561,385,59,0.142849524626894,1
562,382,59,0.11925495091272,1
562,383,59,0.130537683759968,1
562,384,59,0.138284163512965,1
562,385,59,0.113077146192656,1
563,384,59,0.114493333925838,1
563,385,59,0.103358381360531,1
564,385,59,0.106204398255289,1
550,422,60,0.141331957545644,1
551,421,60,0.128690692356365,1
551,422,60,0.156260086068378,1
551,423,60,0.173465842354076,1
552,421,60,0.121362044089632,1
552,422,60,0.143922769304105,1
553,421,60,0.110933367277401,1
553,422,60,0.139738553938096,1
554,385,60,0.128721354896561,1
554,386,60,0.133240136611488,1
554,387,60,0.128435386833432,1
554,388,60,0.123043977555868,1
555,384,60,0.139429173480688,1
555,385,60,0.200467895416935,1
555,386,60,0.185793298919902,1
555,387,60,0.141257426045612,1
555,388,60,0.11384502587789,1
556,384,60,0.122345543114454,1
556,385,60,0.162649818130647,1
556,386,60,0.13678023786011,1
557,384,60,0.105603718088985,1
557,385,60,0.110676611725284,1
558,383,60,0.121820621395952,1
558,384,60,0.124042880352247,1
558,385,60,0.116860818881896,1
559,382,60,0.112254477712427,1
559,383,60,0.153149829240102,1
559,384,60,0.16725638238153,1
559,385,60,0.155372199737103,1
559,386,60,0.129618097559927,1
560,382,60,0.115423918039532,1
560,383,60,0.166045686091793,1
560,384,60,0.19292096198773,1
560,385,60,0.174859119626158,1
560,386,60,0.130283103251626,1
561,382,60,0.113504637104096,1
561,383,60,0.143515255333185,1
561,384,60,0.170688021447226,1
561,385,60,0.158049265923841,1
561,386,60,0.105727037494007,1
562,382,60,0.111612337865545,1
562,383,60,0.119730995493666,1
562,384,60,0.134933369151285,1
562,385,60,0.122692088935242,1
563,384,60,0.116366738168721,1
563,385,60,0.110640974469582,1
564,385,60,0.106187655995255,1
564,386,60,0.103528982871006,1
550,421,61,0.115455562137944,1
550,422,61,0.148801414800167,1
551,420,61,0.103365163035481,1
551,421,61,0.144611800863968,1
551,422,61,0.166444600274247,1
552,421,61,0.123517824784898,1
552,422,61,0.146317749044297,1
553,421,61,0.113939935864986,1
553,422,61,0.139295224246344,1
554,385,61,0.111585478863438,1
554,386,61,0.124195847277037,1
554,387,61,0.114742214704081,1
554,421,61,0.121732604624513,1
555,384,61,0.116184971433533,1
555,385,61,0.169501919883255,1
555,386,61,0.16619027630953,1
555,387,61,0.125392522899976,1
556,384,61,0.1179580782732,1
556,385,61,0.164652408819711,1
556,386,61,0.143859793421258,1
557,384,61,0.107686250002342,1
557,385,61,0.124784994134297,1
557,386,61,0.10628063632813,1
558,383,61,0.121633601093492,1
558,384,61,0.127443522255628,1
558,385,61,0.124657034635888,1
558,386,61,0.113843508924283,1
559,382,61,0.112689508775621,1
559,383,61,0.15308833684865,1
559,384,61,0.179959017267483,1
559,385,61,0.176156750742482,1
559,386,61,0.158371607411336,1
559,387,61,0.10362368093076,1
560,383,61,0.141043357121843,1
560,384,61,0.19259747163096,1
560,385,61,0.19723542343663,1
560,386,61,0.156713945202817,1
561,383,61,0.116015552254546,1
561,384,61,0.157906371124842,1
561,385,61,0.166870830775705,1
561,386,61,0.118993499496862,1
562,383,61,0.108071667759319,1
562,384,61,0.125926936732594,1
562,385,61,0.125027204778297,1
563,382,61,0.104027569828721,1
563,383,61,0.104671750870531,1
563,384,61,0.113026082857255,1
563,385,61,0.112200291237246,1
564,385,61,0.10465489706979,1
564,386,61,0.120752641440085,1
564,387,61,0.106994006070134,1
550,421,62,0.12048985153575,1
551,420,62,0.115010191251265,1
551,421,62,0.152545880931099,1
552,421,62,0.12699263010398,1
553,421,62,0.113218345572918,1
554,386,62,0.108638807635202,1
554,420,62,0.107303988847357,1
554,421,62,0.13219472134053,1
555,385,62,0.134747230020405,1
555,386,62,0.138399875841809,1
555,387,62,0.108670384809191,1
555,420,62,0.111835843133077,1
556,384,62,0.108397489316854,1
556,385,62,0.159704663856019,1
556,386,62,0.147957442045011,1
556,387,62,0.104988883407035,1
557,384,62,0.107431914883555,1
557,385,62,0.140118773898154,1
557,386,62,0.127237238873168,1
558,383,62,0.115625159782062,1
558,384,62,0.126821024727147,1
558,385,62,0.13299934253446,1
558,386,62,0.126459097442943,1
559,383,62,0.143092661058757,1
559,384,62,0.174821418867387,1
559,385,62,0.183462968173153,1
559,386,62,0.172387042949686,1
559,387,62,0.127648846388013,1
560,383,62,0.119784122332136,1
560,384,62,0.17726624614928,1
560,385,62,0.203399319030602,1
560,386,62,0.172031629642737,1
560,387,62,0.118059914938165,1
561,384,62,0.137383561541157,1
561,385,62,0.161434214049828,1
561,386,62,0.127521913064103,1
562,384,62,0.110987620677006,1
562,385,62,0.118739945163019,1
563,383,62,0.104526335251566,1
563,385,62,0.104100773994347,1
563,386,62,0.106110458672339,1
564,386,62,0.129245462367906,1
564,387,62,0.139718621613858,1
564,388,62,0.103326346869646,1
565,386,62,0.11113806678183,1
565,387,62,0.116665533413089,1
551,420,63,0.122152443843493,1
551,421,63,0.15034092193837,1
552,392,63,0.108622121145521,1
552,393,63,0.129682367314968,1
552,420,63,0.113010032149601,1
552,421,63,0.138543964126367,1
554,420,63,0.108763666301973,1
555,385,63,0.111710750230822,1
555,386,63,0.117586837340009,1
556,385,63,0.148262985502117,1
556,386,63,0.151125856197617,1
556,387,63,0.115110968279519,1
557,384,63,0.104080763591614,1
557,385,63,0.146930531377248,1
557,386,63,0.142508845847264,1
557,387,63,0.106728394185927,1
558,384,63,0.1195464848571,1
558,385,63,0.134769058536652,1
558,386,63,0.127934714064507,1
558,387,63,0.105800810517236,1
559,383,63,0.126192481692378,1
559,384,63,0.153767430131571,1
559,385,63,0.173615864604217,1
559,386,63,0.164716756653247,1
559,387,63,0.13875706264599,1
560,383,63,0.105095951331131,1
560,384,63,0.151474365134838,1
560,385,63,0.19003393157522,1
560,386,63,0.172295412259359,1
560,387,63,0.129400849726025,1
561,384,63,0.117984256876998,1
561,385,63,0.150108359565477,1
561,386,63,0.137407988955864,1
562,385,63,0.11628979738943,1
562,386,63,0.113441828532309,1
563,383,63,0.107732372084449,1
563,386,63,0.107542161717784,1
564,383,63,0.105803431723837,1
564,386,63,0.123343765512524,1
564,387,63,0.157776660437341,1
564,388,63,0.142979491858019,1
565,386,63,0.113370676715681,1
565,387,63,0.138134977818123,1
565,388,63,0.109722035205638,1
551,393,64,0.115341734847039,1
551,394,64,0.10326130748373,1
551,398,64,0.106400174503204,1
551,399,64,0.105780365105748,1
551,420,64,0.127057267943353,1
552,392,64,0.118755259702011,1
552,393,64,0.155660353998078,1
552,394,64,0.125615303152917,1
552,420,64,0.133152789084287,1
553,420,64,0.105772200326038,1
554,390,64,0.109124333176195,1
554,420,64,0.108289774456661,1
555,390,64,0.104672576271758,1
556,385,64,0.129668647808078,1
556,386,64,0.147535740096234,1
556,387,64,0.123233485216082,1
557,385,64,0.140491888715213,1
557,386,64,0.147566837645185,1
557,387,64,0.117139514490967,1
558,384,64,0.108032148887033,1
558,385,64,0.13033908553218,1
558,386,64,0.12747516635404,1
558,387,64,0.112320933665314,1
559,384,64,0.125008019776792,1
559,385,64,0.149840461096788,1
559,386,64,0.148026597282993,1
559,387,64,0.139104188478452,1
559,388,64,0.113182976014911,1
560,384,64,0.12070637435506,1
560,385,64,0.1627830423504,1
560,386,64,0.165174017779232,1
560,387,64,0.134103350138502,1
560,388,64,0.104557477416799,1
561,385,64,0.139455530549616,1
561,386,64,0.152352357805454,1
561,387,64,0.106255561977326,1
562,385,64,0.11513529530759,1
562,386,64,0.130124046204265,1
563,386,64,0.106782803742521,1
563,387,64,0.1094197710453,1
563,388,64,0.105866229141553,1
564,386,64,0.111791316083072,1
564,387,64,0.16304730459206,1
564,388,64,0.171546115255815,1
564,389,64,0.104613671624696,1
565,386,64,0.111895952419769,1
565,387,64,0.158747064583229,1
565,388,64,0.142265218636293,1
566,387,64,0.103237783548745,1
551,393,65,0.120054943167333,1
551,394,65,0.114227677425348,1
551,398,65,0.111733024909895,1
551,399,65,0.111750324873462,1
552,392,65,0.116362789627714,1
552,393,65,0.151700458146759,1
552,394,65,0.134422981186831,1
553,393,65,0.108911301580996,1
554,390,65,0.110881043532018,1
554,391,65,0.104411269858819,1
555,390,65,0.109330270782465,1
556,385,65,0.107641946033751,1
556,386,65,0.132883853287029,1
556,387,65,0.124048334692791,1
557,385,65,0.120936672451614,1
557,386,65,0.138405129409081,1
557,387,65,0.121568360934304,1
558,385,65,0.118346396088544,1
558,386,65,0.124289006075042,1
558,387,65,0.115215292302237,1
559,385,65,0.125180863255466,1
559,386,65,0.131591007267011,1
559,387,65,0.130243026675808,1
559,388,65,0.120038067058451,1
560,385,65,0.134637529735637,1
560,386,65,0.152375457885754,1
560,387,65,0.133402104871286,1
560,388,65,0.113777755677846,1
561,385,65,0.12696797960786,1
561,386,65,0.157278620029088,1
561,387,65,0.120703161982715,1
562,385,65,0.111798287377224,1
562,386,65,0.13770067176952,1
562,387,65,0.107487328306506,1
563,386,65,0.10977763824779,1
563,387,65,0.115098308409339,1
563,388,65,0.111388977600931,1
564,386,65,0.103561887379401,1
564,387,65,0.151117524106847,1
564,388,65,0.169072767015289,1
564,389,65,0.12070672013125,1
565,386,65,0.105451375792151,1
565,387,65,0.164314094703057,1
565,388,65,0.166248511712354,1
565,389,65,0.105231317132447,1
566,387,65,0.121465308475639,1
566,388,65,0.109096436845518,1
551,393,66,0.103058069162555,1
551,394,66,0.106337321315135,1
552,393,66,0.118859472184023,1
552,394,66,0.118224537866776,1
555,390,66,0.103602599737246,1
556,387,66,0.103540716953322,1
557,386,66,0.110873257990709,1
557,387,66,0.107424820894626,1
558,386,66,0.109036662180946,1
558,387,66,0.106256242375635,1
559,386,66,0.107866053621098,1
559,387,66,0.110955731189039,1
559,388,66,0.107642916437897,1
560,386,66,0.123572981664225,1
560,387,66,0.120515003965049,1
560,388,66,0.106728907273177,1
561,386,66,0.132313556809154,1
561,387,66,0.120112654328837,1
562,386,66,0.117494604329867,1
562,387,66,0.10815607061187,1
563,387,66,0.106581997008746,1
564,387,66,0.12005835631295,1
564,388,66,0.135317805350046,1
564,389,66,0.112100462304997,1
565,387,66,0.139627425932286,1
565,388,66,0.158734951262511,1
565,389,66,0.112006957730802,1
566,387,66,0.119060513153282,1
566,388,66,0.128380609192507,1
550,396,67,0.103884552334944,1
560,387,67,0.106792039313013,1
561,386,67,0.105689303273024,1
561,387,67,0.110676500184578,1
565,387,67,0.106074821416637,1
565,388,67,0.129443090191548,1
566,388,67,0.122883470479324,1
