x,y,z,signal,cytoplasm.p
148,575,7,0.0557892224934735,1
149,574,7,0.0498708937502149,1
150,574,7,0.0522044282112684,1
151,574,7,0.0531543603953639,1
152,574,7,0.0524713025589435,1
153,574,7,0.0510803867567748,1
143,576,8,0.0510951928903569,1
143,577,8,0.056630838249686,1
146,575,8,0.0518570530943906,1
146,576,8,0.0608919834150969,1
146,577,8,0.0660133054398024,1
147,575,8,0.0554351173158766,1
147,576,8,0.0632745057859343,1
148,574,8,0.0553851704446512,1
148,575,8,0.0611994287639999,1
148,576,8,0.0651700201663814,1
148,577,8,0.0671710607435293,1
149,574,8,0.0599298389148124,1
149,575,8,0.0647416185845711,1
149,576,8,0.0656667621930907,1
150,573,8,0.0491894592159938,1
150,574,8,0.0603674603909642,1
150,575,8,0.0653167412669346,1
151,573,8,0.0504844037746201,1
151,574,8,0.0595523604962974,1
151,575,8,0.0636095530490999,1
151,576,8,0.0657101638636339,1
152,573,8,0.0503045002974398,1
152,574,8,0.0576735701723154,1
152,575,8,0.0611696778518081,1
153,573,8,0.049118530730578,1
153,574,8,0.0555533237557348,1
153,575,8,0.0594187297971087,1
154,573,8,0.0489629016869957,1
154,574,8,0.0552835725237351,1
155,573,8,0.0484088761563457,1
142,576,9,0.051529746845271,1
142,577,9,0.0558464886667857,1
143,575,9,0.0508021839549622,1
143,576,9,0.0555162131033231,1
143,577,9,0.0587389070113345,1
143,578,9,0.0614524848239153,1
144,576,9,0.0585180223747194,1
144,577,9,0.0612731301499696,1
145,574,9,0.049251497089009,1
145,575,9,0.0549957050081172,1
145,576,9,0.0597086307731327,1
145,577,9,0.0623360580316325,1
146,574,9,0.0497784001861171,1
146,575,9,0.0553199783972561,1
146,576,9,0.0604314912862524,1
146,577,9,0.0633440882592063,1
146,578,9,0.0653729502719106,1
147,574,9,0.0546310108165305,1
147,575,9,0.0581981047502005,1
147,576,9,0.0612520156676276,1
147,577,9,0.0625501779462715,1
148,573,9,0.051876076347565,1
148,574,9,0.0615719621765273,1
148,575,9,0.062514615496669,1
148,576,9,0.0621371832931632,1
148,577,9,0.0617322127210325,1
148,578,9,0.0615344586965371,1
149,573,9,0.055975330335643,1
149,574,9,0.0653648395377908,1
149,575,9,0.0645500689250648,1
149,576,9,0.0621008294115276,1
149,577,9,0.060543626229273,1
150,573,9,0.057333947623236,1
150,574,9,0.0646183169399453,1
150,575,9,0.0641694016709129,1
150,576,9,0.0628476292994285,1
150,577,9,0.0617418427735808,1
151,572,9,0.0486043252072558,1
151,573,9,0.057458982330708,1
151,574,9,0.0629475345956316,1
151,575,9,0.0630899634772025,1
151,576,9,0.0633011140774985,1
151,577,9,0.0623397610092471,1
152,573,9,0.0552800197449005,1
152,574,9,0.0604603814438974,1
152,575,9,0.0625600910657514,1
152,576,9,0.0639270097243774,1
152,577,9,0.0629281647298881,1
153,573,9,0.0530519363811577,1
153,574,9,0.0582186299911748,1
153,575,9,0.0611449470449938,1
153,576,9,0.0624437967719001,1
153,577,9,0.0605297443958756,1
154,573,9,0.0515447320620139,1
154,574,9,0.0568421794868951,1
154,575,9,0.0601221453450949,1
154,576,9,0.0609429412396492,1
155,573,9,0.0496785064436663,1
155,574,9,0.0549883163835165,1
141,576,10,0.0521398889508786,1
141,577,10,0.0563814447292521,1
142,575,10,0.0512352763602094,1
142,576,10,0.0553811497388482,1
142,577,10,0.0586267662914378,1
142,578,10,0.0604409769168969,1
143,574,10,0.0537921448533672,1
143,575,10,0.0560702097495923,1
143,576,10,0.0588346991717161,1
143,577,10,0.0614606359961682,1
143,578,10,0.0636732662161997,1
144,573,10,0.0494220131424395,1
144,574,10,0.0557061452375063,1
144,575,10,0.0577288317696023,1
144,576,10,0.0604054722360559,1
144,577,10,0.0633612398045068,1
145,573,10,0.0497820916099793,1
145,574,10,0.0558046005377948,1
145,575,10,0.057849314298665,1
145,576,10,0.0605212292804249,1
145,577,10,0.0627148882391675,1
146,573,10,0.049594071621803,1
146,574,10,0.0556336743261574,1
146,575,10,0.0578182058205771,1
146,576,10,0.0602130849295073,1
146,577,10,0.0613473167935361,1
146,578,10,0.0619172922792466,1
147,573,10,0.0527737566868497,1
147,574,10,0.0592926032600437,1
147,575,10,0.0599730615021948,1
147,576,10,0.0599779025244117,1
147,577,10,0.05858416760668,1
147,578,10,0.0583283790843439,1
148,573,10,0.0567572305230541,1
148,574,10,0.0636380850404233,1
148,575,10,0.0620149734781305,1
148,576,10,0.0594441480521853,1
148,577,10,0.0566867930721113,1
148,578,10,0.0559241067747876,1
149,572,10,0.0516176882309597,1
149,573,10,0.0608675818902235,1
149,574,10,0.0662264779467522,1
149,575,10,0.0620541060371961,1
149,576,10,0.0584643783027556,1
149,577,10,0.0557742314998545,1
149,578,10,0.0544885530505788,1
150,572,10,0.054152673917247,1
150,573,10,0.0625937933612324,1
150,574,10,0.0659440406947188,1
150,575,10,0.0616649641057266,1
150,576,10,0.0592874445096384,1
150,577,10,0.0578859570241083,1
150,578,10,0.0564818699443091,1
150,579,10,0.0596968863839121,1
151,572,10,0.0549255679547344,1
151,573,10,0.0621435840719416,1
151,574,10,0.0653290286825136,1
151,575,10,0.0627459851635032,1
151,576,10,0.0609237677876949,1
151,577,10,0.0584224497356317,1
151,578,10,0.0565409789411143,1
152,572,10,0.0538609878864915,1
152,573,10,0.0594833383800123,1
152,574,10,0.0644262993534705,1
152,575,10,0.0654990594783472,1
152,576,10,0.0634169404443813,1
152,577,10,0.0588783088098008,1
152,578,10,0.0568528436002749,1
152,579,10,0.0562560980704679,1
153,572,10,0.0521216686834897,1
153,573,10,0.0569999113133973,1
153,574,10,0.0627552917109869,1
153,575,10,0.064847266095671,1
153,576,10,0.0622639683941098,1
153,577,10,0.0566411384198682,1
153,578,10,0.0557120723124401,1
153,579,10,0.0557070695376909,1
154,572,10,0.0495778097154302,1
154,573,10,0.0540903645310526,1
154,574,10,0.0590623716378119,1
154,575,10,0.0612046799444237,1
154,576,10,0.0599171182335219,1
154,577,10,0.0569779707377653,1
154,578,10,0.0571293480004984,1
155,573,10,0.051084338140064,1
155,574,10,0.0552949471928819,1
155,575,10,0.0574103237028648,1
155,576,10,0.0590582469482381,1
155,577,10,0.0595714472951095,1
156,572,10,0.0486361500179869,1
156,573,10,0.0520111339351637,1
140,576,11,0.0485333793912115,1
141,576,11,0.0512176568879404,1
141,577,11,0.0548338427151651,1
142,574,11,0.0503806799632794,1
142,575,11,0.052182470305008,1
142,576,11,0.0550136999773362,1
142,577,11,0.058242384505919,1
142,578,11,0.059410850138035,1
143,573,11,0.0529077628829884,1
143,574,11,0.0557127366531978,1
143,575,11,0.0560096680875009,1
143,576,11,0.0579896288435637,1
143,577,11,0.0612189834897804,1
143,578,11,0.0626360916484302,1
144,573,11,0.0551255460765491,1
144,574,11,0.0571195504185416,1
144,575,11,0.0564590801678825,1
144,576,11,0.0583194653644386,1
144,577,11,0.0618136146829151,1
144,578,11,0.0635023342276862,1
145,573,11,0.0550532484714848,1
145,574,11,0.0573515786492573,1
145,575,11,0.0564576012875871,1
145,576,11,0.0574760529997423,1
145,577,11,0.0592420613705745,1
146,573,11,0.0536565846775431,1
146,574,11,0.0570059365952257,1
146,575,11,0.0565921447332081,1
146,576,11,0.0566654244072186,1
146,577,11,0.0563334446652906,1
146,578,11,0.0555172587179069,1
147,572,11,0.04898440322004,1
147,573,11,0.0549587503313616,1
147,574,11,0.0590759184123924,1
147,575,11,0.0582098780238018,1
147,576,11,0.0562195246675385,1
147,577,11,0.0535404579131003,1
147,578,11,0.052485484789901,1
148,572,11,0.0521198316368728,1
148,573,11,0.0577492761343104,1
148,574,11,0.0610576295619298,1
148,575,11,0.058762106945968,1
148,576,11,0.0551493352525502,1
148,577,11,0.0516739318971927,1
148,578,11,0.0505084298025436,1
149,572,11,0.0559017964790818,1
149,573,11,0.0616226253803957,1
149,574,11,0.0622914085558401,1
149,575,11,0.0577623780894271,1
149,576,11,0.0546673011525284,1
149,577,11,0.0518584799828006,1
149,578,11,0.0498672485413619,1
149,579,11,0.0502463907002091,1
150,571,11,0.0502239417594757,1
150,572,11,0.0592755499216378,1
150,573,11,0.0652792146794398,1
150,574,11,0.0639591233789161,1
150,575,11,0.0585986560120736,1
150,576,11,0.0564954167188896,1
150,577,11,0.0549100166041285,1
150,578,11,0.0520346227136049,1
150,579,11,0.0525293255030319,1
151,571,11,0.0527357795030149,1
151,572,11,0.0598984704772975,1
151,573,11,0.0647022722810878,1
151,574,11,0.064682105206435,1
151,575,11,0.0608168551407173,1
151,576,11,0.0580586567367249,1
151,577,11,0.0553364829324274,1
151,578,11,0.0525045773655892,1
152,571,11,0.0542598118623946,1
152,572,11,0.0593702271449218,1
152,573,11,0.0628494952304262,1
152,574,11,0.065685745008132,1
152,575,11,0.0648149906886,1
152,576,11,0.0598739880761579,1
152,577,11,0.0550254501434329,1
152,578,11,0.0526311602758703,1
152,579,11,0.0512866905579778,1
153,571,11,0.0501161741348273,1
153,572,11,0.0557500494962749,1
153,573,11,0.0597335695474885,1
153,574,11,0.064722416248236,1
153,575,11,0.0653550361789578,1
153,576,11,0.0598933810494061,1
153,577,11,0.054338799090045,1
153,578,11,0.0526835276582041,1
153,579,11,0.0515986072090238,1
153,580,11,0.0533224905989428,1
154,572,11,0.0518114273265283,1
154,573,11,0.0558971056556449,1
154,574,11,0.0598614984699135,1
154,575,11,0.0606330696027617,1
154,576,11,0.0579526452824273,1
154,577,11,0.0557446770014519,1
154,578,11,0.0551287406890621,1
154,579,11,0.0545352071023966,1
155,572,11,0.0488299295516885,1
155,573,11,0.0520248193547719,1
155,574,11,0.0552007667809471,1
155,575,11,0.0561299715334029,1
155,576,11,0.0573640913630063,1
155,577,11,0.0583113892915757,1
155,578,11,0.0591357957337261,1
156,572,11,0.0492486721965698,1
156,573,11,0.0525909589947163,1
156,577,11,0.0581757482394854,1
157,572,11,0.0484216950445309,1
158,572,11,0.0488578838553966,1
158,573,11,0.0552309047438413,1
141,574,12,0.0484372637257653,1
141,575,12,0.0488739551248563,1
141,576,12,0.0505081236281074,1
141,577,12,0.0530318501827711,1
142,573,12,0.0512506890657876,1
142,574,12,0.0526136621180006,1
142,575,12,0.0522269869126488,1
142,576,12,0.0539696971419529,1
142,577,12,0.0565267389413953,1
142,578,12,0.0574630203671394,1
143,572,12,0.0510617909924359,1
143,573,12,0.0573284133758807,1
143,574,12,0.057018535962117,1
143,575,12,0.0549061114358486,1
143,576,12,0.0562883157087774,1
143,577,12,0.0588732598200424,1
143,578,12,0.0592606051430281,1
144,572,12,0.0531590050037915,1
144,573,12,0.0592808993089562,1
144,574,12,0.0582585424285211,1
144,575,12,0.0554300798798706,1
144,576,12,0.056327523367233,1
144,577,12,0.0585219737580086,1
144,578,12,0.0587865315783461,1
145,572,12,0.0518378392043032,1
145,573,12,0.057900035271295,1
145,574,12,0.0579087410236588,1
145,575,12,0.0555635083883939,1
145,576,12,0.0551998771420195,1
145,577,12,0.0549826319373813,1
145,578,12,0.0539763174420251,1
146,572,12,0.0500850367723585,1
146,573,12,0.0554017500792125,1
146,574,12,0.0572366072600452,1
146,575,12,0.0560967429417665,1
146,576,12,0.0546502015991133,1
146,577,12,0.0521789810718111,1
146,578,12,0.0498272436739971,1
147,572,12,0.0510891791622809,1
147,573,12,0.0553493826968787,1
147,574,12,0.0584277933460739,1
147,575,12,0.057182870758063,1
147,576,12,0.054071520361039,1
147,577,12,0.0499661313304857,1
148,571,12,0.0490659264963218,1
148,572,12,0.0540119087760084,1
148,573,12,0.0578059010743696,1
148,574,12,0.0600602865552404,1
148,575,12,0.0576273262787046,1
148,576,12,0.0533263553290897,1
148,577,12,0.0487773542018132,1
149,571,12,0.0513341591493333,1
149,572,12,0.057733932751246,1
149,573,12,0.061162387434102,1
149,574,12,0.060411110467182,1
149,575,12,0.0562781657373753,1
149,576,12,0.0535569393407669,1
149,577,12,0.0497835184983893,1
150,570,12,0.0482209745941305,1
150,571,12,0.0547301015731959,1
150,572,12,0.0625992120710646,1
150,573,12,0.0660026297726702,1
150,574,12,0.0627912296575394,1
150,575,12,0.0574225071346731,1
150,576,12,0.0556048708216548,1
150,577,12,0.053091323122774,1
150,578,12,0.0495323457001001,1
150,579,12,0.0481141572656095,1
151,570,12,0.050386225764387,1
151,571,12,0.0579345752138184,1
151,572,12,0.0640997960901363,1
151,573,12,0.0660527903883133,1
151,574,12,0.0637560257439785,1
151,575,12,0.0582624995886864,1
151,576,12,0.0553369681900243,1
151,577,12,0.0529476984278393,1
151,578,12,0.0506646885256266,1
152,570,12,0.0517585458022168,1
152,571,12,0.0593401816120461,1
152,572,12,0.0641899326887634,1
152,573,12,0.0659013900180756,1
152,574,12,0.0662787182378106,1
152,575,12,0.0615377110778117,1
152,576,12,0.0557575709890271,1
152,577,12,0.0521872131203302,1
152,578,12,0.0506288834472256,1
152,579,12,0.0487253912008101,1
153,571,12,0.053077458620005,1
153,572,12,0.0588606084612657,1
153,573,12,0.0625245459467773,1
153,574,12,0.066098653008098,1
153,575,12,0.062659077838646,1
153,576,12,0.057001216887408,1
153,577,12,0.0528294457729719,1
153,578,12,0.050860074030899,1
153,579,12,0.0490076378159304,1
154,571,12,0.0483976719050455,1
154,572,12,0.0538772729003689,1
154,573,12,0.0584298499139846,1
154,574,12,0.0621396500192809,1
154,575,12,0.0592980681848852,1
154,576,12,0.0562340419573129,1
154,577,12,0.0542875870829419,1
154,578,12,0.0526265387749473,1
154,579,12,0.0508391790698508,1
155,572,12,0.0497567426774167,1
155,573,12,0.053108116501753,1
155,574,12,0.0564223276817923,1
155,575,12,0.0543464765584533,1
155,576,12,0.0544581204670008,1
155,577,12,0.0548519763294117,1
155,578,12,0.0556369786993174,1
156,572,12,0.049479365968894,1
156,573,12,0.0530908667495579,1
156,574,12,0.0557431345755188,1
156,575,12,0.0533341483350211,1
156,576,12,0.0536290000939089,1
156,577,12,0.0543487122095248,1
157,572,12,0.0484946454366006,1
157,573,12,0.053262907898293,1
157,576,12,0.0535567313732254,1
158,572,12,0.0495137326051327,1
158,573,12,0.0545287658854851,1
159,572,12,0.0483283667218289,1
141,574,13,0.0488446836933852,1
141,576,13,0.0485646034068226,1
141,577,13,0.0502914734417131,1
141,578,13,0.0519162834055951,1
142,572,13,0.0483259953141678,1
142,573,13,0.0514542372970653,1
142,574,13,0.0521317666630064,1
142,575,13,0.0503555794363913,1
142,576,13,0.0515074192189368,1
142,577,13,0.0529235453086405,1
142,578,13,0.0528854930254157,1
143,572,13,0.0525495907845793,1
143,573,13,0.0559047889009294,1
143,574,13,0.0548718083452476,1
143,575,13,0.0520330051882818,1
143,576,13,0.0532250058138482,1
143,577,13,0.0544216279403375,1
143,578,13,0.0533519064523178,1
144,572,13,0.0540694984543852,1
144,573,13,0.0576308328425299,1
144,574,13,0.0560327871458682,1
144,575,13,0.0528957469805886,1
144,576,13,0.0535536003063501,1
144,577,13,0.0540219143255067,1
144,578,13,0.0527114992925406,1
145,572,13,0.0523484052956485,1
145,573,13,0.0560904519236351,1
145,574,13,0.055655222074211,1
145,575,13,0.053832490556425,1
145,576,13,0.0537478766514009,1
145,577,13,0.0519933180491055,1
145,578,13,0.0494095639743281,1
146,572,13,0.0514017890384653,1
146,573,13,0.0553599717108686,1
146,574,13,0.0564229631381692,1
146,575,13,0.0557212979836576,1
146,576,13,0.0550026257057494,1
146,577,13,0.0513439971694231,1
147,571,13,0.048691908426623,1
147,572,13,0.0521588717659199,1
147,573,13,0.0555311463281805,1
147,574,13,0.0577173531166848,1
147,575,13,0.0565637282794078,1
147,576,13,0.0549563298202532,1
147,577,13,0.0506236495974303,1
148,570,13,0.0480023053895204,1
148,571,13,0.0516449493095293,1
148,572,13,0.0545578235725385,1
148,573,13,0.0577726435983524,1
148,574,13,0.0594710798488141,1
148,577,13,0.0497743563728095,1
149,570,13,0.0493341064180077,1
149,571,13,0.0532814170094896,1
149,572,13,0.0572877210602536,1
149,573,13,0.0600203394566372,1
149,574,13,0.0602148584304865,1
149,577,13,0.0506055102063075,1
150,570,13,0.0513321545733079,1
150,571,13,0.0570150236214155,1
150,572,13,0.0624860257365841,1
150,573,13,0.064979365922679,1
150,574,13,0.0631461262671693,1
150,576,13,0.0562993379884788,1
150,577,13,0.0528527323607477,1
150,578,13,0.04918308154472,1
151,570,13,0.0526412524785109,1
151,571,13,0.0588787016373793,1
151,572,13,0.0636011534711724,1
151,573,13,0.0649350515057035,1
151,574,13,0.063064545222126,1
151,575,13,0.0580998863018343,1
151,576,13,0.0548526002320363,1
151,577,13,0.0526983337917862,1
151,578,13,0.0506268442099433,1
152,570,13,0.0527333127768972,1
152,571,13,0.0588714747653109,1
152,572,13,0.0630525928653638,1
152,573,13,0.0644729707359167,1
152,574,13,0.0636400722858202,1
152,575,13,0.0581619126210972,1
152,576,13,0.0539393858727741,1
152,577,13,0.0524329787625395,1
152,578,13,0.0513584624673121,1
152,579,13,0.0488021138930082,1
153,570,13,0.0483156027139672,1
153,571,13,0.0526244764301604,1
153,572,13,0.0574465504932251,1
153,573,13,0.0606408799393215,1
153,574,13,0.0625819738726218,1
153,575,13,0.0579661342882463,1
153,576,13,0.0547120430583392,1
153,577,13,0.0531489647930362,1
153,578,13,0.0517243351416342,1
153,579,13,0.0498752090767018,1
154,571,13,0.0483164576916379,1
154,572,13,0.0536208720291606,1
154,573,13,0.0583536875787735,1
154,574,13,0.0611823638718417,1
154,575,13,0.057117384089984,1
154,576,13,0.0549014032817833,1
154,577,13,0.0540459114690494,1
154,578,13,0.0524932835727086,1
154,579,13,0.0507599607671544,1
155,572,13,0.0501409858179077,1
155,573,13,0.0536068919888685,1
155,574,13,0.0560348841519121,1
155,575,13,0.0529333659981019,1
155,576,13,0.0525413991741932,1
155,577,13,0.0531443028539802,1
155,578,13,0.0538988148715463,1
156,572,13,0.0490901604917869,1
156,573,13,0.0525372167158579,1
156,574,13,0.0543983413525617,1
156,575,13,0.0519318405330772,1
156,576,13,0.0519401130197294,1
156,577,13,0.0525257207323119,1
157,572,13,0.048424104001887,1
157,573,13,0.0518995015803685,1
157,574,13,0.0535182400474129,1
157,575,13,0.0512337339342763,1
157,576,13,0.0517938309617639,1
157,577,13,0.0515079102534098,1
158,572,13,0.0488141182416557,1
158,573,13,0.0515154606305428,1
158,576,13,0.0503176311369373,1
159,572,13,0.0482950254811075,1
141,573,14,0.0483841684570361,1
141,574,14,0.0484426188899598,1
141,578,14,0.0480208982654213,1
142,572,14,0.0516336728472771,1
142,573,14,0.0523674227719467,1
142,574,14,0.0512503366763422,1
142,575,14,0.0487652227618903,1
142,576,14,0.0487878450089084,1
142,577,14,0.0486828676154423,1
143,571,14,0.0486187327363833,1
143,572,14,0.0544083757864408,1
143,573,14,0.0550445138347403,1
143,574,14,0.0527447278841771,1
143,575,14,0.0496251743230148,1
143,576,14,0.0498195084368272,1
143,577,14,0.0491869289442384,1
144,571,14,0.0489688749769387,1
144,572,14,0.0542814693710951,1
144,573,14,0.0553119543162785,1
144,574,14,0.0529152785988644,1
144,575,14,0.0498494326553037,1
144,576,14,0.0498439446229576,1
144,577,14,0.0484875398789315,1
145,572,14,0.0522154562678459,1
145,573,14,0.0537788407075851,1
145,574,14,0.0527310366876926,1
145,576,14,0.0513260484152134,1
145,577,14,0.0483373353220576,1
146,572,14,0.0521681378752705,1
146,573,14,0.0549986685455841,1
146,577,14,0.049715391797908,1
147,571,14,0.0500258353455348,1
147,572,14,0.0532930920761963,1
147,573,14,0.0561892653902451,1
148,570,14,0.0503870634114293,1
148,571,14,0.0523766080050312,1
148,572,14,0.0549366537800735,1
148,573,14,0.0576401336131375,1
149,570,14,0.051110524719669,1
149,571,14,0.0540594293592492,1
149,572,14,0.0567389178256467,1
149,573,14,0.0589422530519468,1
150,570,14,0.0534568029695177,1
150,571,14,0.0578675518966825,1
150,572,14,0.0610396114852062,1
150,573,14,0.0636242205376543,1
151,570,14,0.0543051314558209,1
151,571,14,0.0588512556987728,1
151,572,14,0.0613562767284506,1
151,573,14,0.0631535611067792,1
151,574,14,0.0624955980203708,1
152,570,14,0.0535989141229001,1
152,571,14,0.0574642681723886,1
152,572,14,0.0595124711664557,1
152,573,14,0.0606304122397309,1
152,574,14,0.0592332805188208,1
152,575,14,0.054045894138421,1
152,576,14,0.0503471971890922,1
152,577,14,0.0501645439188627,1
152,578,14,0.0494942645324945,1
153,570,14,0.0507042312428991,1
153,571,14,0.0525044040593046,1
153,572,14,0.054952979232084,1
153,573,14,0.0567122979803302,1
153,574,14,0.0564103522175255,1
153,575,14,0.0517465472304454,1
153,576,14,0.0492600873038496,1
153,578,14,0.0487911782664491,1
154,570,14,0.0485924479498837,1
154,571,14,0.0491723423319502,1
154,572,14,0.0528541650260338,1
154,573,14,0.0563278122110407,1
154,574,14,0.0564429106915281,1
154,575,14,0.0519762184956904,1
154,576,14,0.049743906458603,1
154,579,14,0.0487145191198888,1
155,572,14,0.0505862732087155,1
155,573,14,0.0531043384247485,1
155,574,14,0.0527179578400805,1
155,575,14,0.0496590845860374,1
155,576,14,0.0496028004816713,1
156,572,14,0.0492319828013616,1
156,573,14,0.0514987423509538,1
156,574,14,0.050971359773125,1
156,575,14,0.0494883547881892,1
156,576,14,0.0504942302409577,1
156,577,14,0.0519046025620122,1
157,572,14,0.0484439677905417,1
157,573,14,0.0498776642490671,1
157,574,14,0.0493495364542144,1
157,575,14,0.0481102723163961,1
157,576,14,0.0494660444924834,1
157,577,14,0.0492505496813198,1
158,572,14,0.048201079032657,1
158,573,14,0.048311651330678,1
142,572,15,0.0507641605561181,1
142,573,15,0.050234397905314,1
142,574,15,0.0489072126008735,1
143,571,15,0.0492661356931826,1
143,572,15,0.0524233718174958,1
143,573,15,0.0514531050293391,1
143,574,15,0.0499143705201481,1
144,571,15,0.0485289543040778,1
144,572,15,0.051473803576598,1
144,573,15,0.0514383162263855,1
145,572,15,0.0501546943450206,1
145,573,15,0.0514907702618616,1
146,572,15,0.0504594938846451,1
147,571,15,0.0484576387679596,1
147,572,15,0.0520990868746046,1
148,570,15,0.0496802395065124,1
148,571,15,0.0509088193118844,1
148,572,15,0.0539501366392963,1
149,570,15,0.0507824501460209,1
149,571,15,0.0526073710998692,1
149,572,15,0.0555400196099527,1
150,569,15,0.04938874411267,1
150,570,15,0.05380990874754,1
150,571,15,0.0554921697447711,1
150,572,15,0.0579230618996439,1
150,573,15,0.0613957963382184,1
151,569,15,0.0510397868711662,1
151,570,15,0.0548997684258318,1
151,571,15,0.0559102018338855,1
151,572,15,0.0575542603491119,1
151,573,15,0.0602361982109985,1
152,569,15,0.0513407216806439,1
152,570,15,0.0539504948056178,1
152,571,15,0.0541311203923174,1
152,572,15,0.0546551812663578,1
152,573,15,0.0551714144732099,1
152,574,15,0.0557647112079531,1
153,568,15,0.0479519628022785,1
153,569,15,0.0510265982629072,1
153,570,15,0.0517727280331742,1
153,571,15,0.0509703661504265,1
153,572,15,0.0518976529799993,1
153,573,15,0.0521598884961229,1
153,574,15,0.0522534218979284,1
153,575,15,0.0496887257375823,1
154,568,15,0.0480321631739211,1
154,569,15,0.0502290600717479,1
154,570,15,0.0496477503550237,1
154,571,15,0.0486252028376755,1
154,572,15,0.0506737177830549,1
154,573,15,0.0520060329535199,1
154,574,15,0.0514501241612438,1
154,575,15,0.0494778119892086,1
155,569,15,0.0487219481826225,1
155,570,15,0.0480129781682145,1
155,572,15,0.0503003698309899,1
155,573,15,0.050911361137392,1
155,574,15,0.0495588904460266,1
155,575,15,0.0489548371678851,1
156,572,15,0.0493880624412838,1
156,573,15,0.0495359273633154,1
156,575,15,0.0480933316270752,1
156,576,15,0.0505516119517929,1
157,570,15,0.0480054306795196,1
157,571,15,0.0479698480108505,1
157,572,15,0.048546319593796,1
157,573,15,0.0479540424776939,1
142,571,16,0.0484588894616469,1
142,572,16,0.05024341560899,1
142,573,16,0.0487800231185962,1
143,571,16,0.0493817367618955,1
143,572,16,0.0507908497239485,1
143,573,16,0.0486775008974955,1
144,571,16,0.0485583932649573,1
144,572,16,0.049856093393509,1
145,572,16,0.0498723379692533,1
146,572,16,0.0505413984347531,1
147,569,16,0.048628940476547,1
147,570,16,0.0490988315828936,1
147,571,16,0.0498700734338011,1
147,572,16,0.0526357009005272,1
148,568,16,0.0483703299502098,1
148,569,16,0.0518612182220975,1
148,570,16,0.0526274341907512,1
148,571,16,0.0530391983692387,1
148,572,16,0.0551776015075706,1
149,569,16,0.0516688020311681,1
149,570,16,0.0543194003399206,1
149,571,16,0.0548217228289945,1
149,572,16,0.0566384348418282,1
150,568,16,0.0488049445623235,1
150,569,16,0.0539328984408535,1
150,570,16,0.0572194094997355,1
150,571,16,0.056328424559913,1
150,572,16,0.0571530505233573,1
151,568,16,0.0517264494783065,1
151,569,16,0.0557515168228179,1
151,570,16,0.0575075600822849,1
151,571,16,0.0554636377534477,1
151,572,16,0.0555354212165343,1
152,568,16,0.0526939433659094,1
152,569,16,0.0556989241423141,1
152,570,16,0.055771470153053,1
152,571,16,0.0534310149943673,1
152,572,16,0.0523764578062512,1
152,573,16,0.0517248030686027,1
153,568,16,0.0525976486173024,1
153,569,16,0.0548724438016245,1
153,570,16,0.0536671563609045,1
153,571,16,0.0514780033655618,1
153,572,16,0.050649639763246,1
153,573,16,0.0488236212029286,1
153,574,16,0.049118155233628,1
154,568,16,0.0523036056210761,1
154,569,16,0.053482850904095,1
154,570,16,0.0517731035301242,1
154,571,16,0.0500568976086136,1
154,572,16,0.0499383792174431,1
154,573,16,0.0481636795364376,1
155,568,16,0.0510821775883825,1
155,569,16,0.0506373754551716,1
155,570,16,0.0499464321828014,1
155,571,16,0.0497457377283437,1
155,572,16,0.0502459112194884,1
155,573,16,0.0480837477895361,1
156,568,16,0.0496867038309285,1
156,569,16,0.0494445602900676,1
156,570,16,0.0505080600824698,1
156,571,16,0.0503570987548198,1
156,572,16,0.049818786327308,1
157,568,16,0.0499169412300365,1
157,569,16,0.0515669152664443,1
157,570,16,0.0529293568460511,1
157,571,16,0.0505618832375943,1
157,572,16,0.0484062505661339,1
158,568,16,0.0489630807701565,1
158,569,16,0.0508048124336121,1
158,570,16,0.0507897059024701,1
142,572,17,0.0482598154209503,1
143,572,17,0.0483631521815888,1
144,572,17,0.0480033278965996,1
147,568,17,0.0480986867912697,1
147,569,17,0.0487587988756073,1
147,570,17,0.0483651307616714,1
147,571,17,0.048782380084067,1
148,568,17,0.0499348033311039,1
148,569,17,0.0519141055232852,1
148,570,17,0.0518397109121771,1
148,571,17,0.0518726622137581,1
149,568,17,0.0494299679009032,1
149,569,17,0.0527993366944585,1
149,570,17,0.0538847308474834,1
149,571,17,0.0533567821357915,1
149,572,17,0.0545195979830291,1
150,568,17,0.0514266064984219,1
150,569,17,0.0550347971290497,1
150,570,17,0.055845373729688,1
150,571,17,0.0536841692611773,1
150,572,17,0.0540481355663686,1
151,567,17,0.0483964154344821,1
151,568,17,0.05451061494061,1
151,569,17,0.0566859380944406,1
151,570,17,0.0555872224650051,1
151,571,17,0.0523660420985459,1
151,572,17,0.0523927601507571,1
152,567,17,0.0491899098123338,1
152,568,17,0.0553533167495394,1
152,569,17,0.0565665820562278,1
152,570,17,0.0540204123377068,1
152,571,17,0.0504916595310692,1
152,572,17,0.0494888227151577,1
153,567,17,0.0486757042890117,1
153,568,17,0.0544632098948923,1
153,569,17,0.055541082555165,1
153,570,17,0.0530499318051324,1
153,571,17,0.0501469995459837,1
153,572,17,0.0485343845676623,1
154,567,17,0.0479409838491483,1
154,568,17,0.0526454291599701,1
154,569,17,0.0535813697500212,1
154,570,17,0.0521567516523714,1
154,571,17,0.050208852558962,1
154,572,17,0.0481524897273277,1
155,567,17,0.0479560759381,1
155,568,17,0.0509248154819541,1
155,569,17,0.0512313249769202,1
155,570,17,0.0518834360877849,1
155,571,17,0.0514446187982693,1
155,572,17,0.0493470639512206,1
156,568,17,0.0502093955853205,1
156,569,17,0.0508807032556441,1
156,570,17,0.0527512499773546,1
156,571,17,0.0519674665283174,1
156,572,17,0.049395693694683,1
157,568,17,0.0518582546846306,1
157,569,17,0.0533295557184789,1
157,570,17,0.054153159174844,1
157,571,17,0.0510619180837113,1
157,572,17,0.0481116760973015,1
158,568,17,0.0510242644049411,1
158,569,17,0.0518739793415212,1
158,570,17,0.0501646247951289,1
159,569,17,0.0481028085924054,1
147,568,18,0.0500061939666121,1
147,569,18,0.0495025081347659,1
147,570,18,0.0480448809667736,1
147,571,18,0.0481326143849207,1
148,568,18,0.0512414402870655,1
148,569,18,0.0519779457816603,1
148,570,18,0.050812172173832,1
148,571,18,0.0502589207445866,1
149,568,18,0.0525130347122783,1
149,569,18,0.053548112274004,1
149,570,18,0.0521378208292156,1
149,571,18,0.0508515011466868,1
149,572,18,0.0511242794617911,1
150,567,18,0.0501012524637221,1
150,568,18,0.0548038491741748,1
150,569,18,0.0551246910988783,1
150,570,18,0.0524804935689042,1
150,571,18,0.0499291073312163,1
150,572,18,0.0501533483328767,1
151,567,18,0.0521177577383336,1
151,568,18,0.0567321935418037,1
151,569,18,0.0554869243412235,1
151,570,18,0.0511627361263467,1
151,572,18,0.0487038607833851,1
152,567,18,0.0522900299621148,1
152,568,18,0.0564808301066014,1
152,569,18,0.0544087050683816,1
152,570,18,0.0494451148701783,1
153,567,18,0.0517025274341538,1
153,568,18,0.0553266102510806,1
153,569,18,0.0536859774234134,1
153,570,18,0.0498731929469241,1
154,567,18,0.0503139859280843,1
154,568,18,0.0531720491901467,1
154,569,18,0.0531640482166737,1
154,570,18,0.0519512508369538,1
154,571,18,0.0492404863630599,1
155,567,18,0.0497125611285927,1
155,568,18,0.0522382980361579,1
155,569,18,0.0534730302146336,1
155,570,18,0.0543794971825482,1
155,571,18,0.0513832799272687,1
156,567,18,0.0491492406042113,1
156,568,18,0.052759978837223,1
156,569,18,0.0546862955213219,1
156,570,18,0.0555229316102899,1
156,571,18,0.0513570644632829,1
157,567,18,0.0484238122696413,1
157,568,18,0.0534524645355262,1
157,569,18,0.0542788062311882,1
157,570,18,0.0531918407678494,1
157,571,18,0.0483920741120525,1
158,568,18,0.0520222890830166,1
158,569,18,0.0511635506658843,1
147,568,19,0.0490143216616403,1
147,569,19,0.0488469944438467,1
147,570,19,0.0483446112975733,1
147,571,19,0.0482463610763882,1
148,567,19,0.0496027831510428,1
148,568,19,0.0518883464325155,1
148,569,19,0.0512233471109519,1
148,570,19,0.0506558036901021,1
148,571,19,0.0496227653656587,1
149,567,19,0.0548893758256311,1
149,568,19,0.0565288532780676,1
149,569,19,0.0530178816962313,1
149,570,19,0.0504782571783925,1
149,571,19,0.0487501855532621,1
150,566,19,0.0489333240810885,1
150,567,19,0.0579138246746741,1
150,568,19,0.0595299231093162,1
150,569,19,0.0541949837581972,1
150,570,19,0.049103239339399,1
151,566,19,0.048195255941494,1
151,567,19,0.0564528007035034,1
151,568,19,0.0584767292639724,1
151,569,19,0.0533840258837327,1
152,566,19,0.049203970728892,1
152,567,19,0.0560457273484527,1
152,568,19,0.0574907031576682,1
152,569,19,0.0526628060034406,1
153,566,19,0.0500702595231572,1
153,567,19,0.055326812441746,1
153,568,19,0.0561847709805975,1
153,569,19,0.0523284866266703,1
154,566,19,0.0499542482962375,1
154,567,19,0.0546604902155431,1
154,568,19,0.0565362014645352,1
154,569,19,0.0554770689905052,1
154,570,19,0.0522046708400669,1
155,566,19,0.0487196432090371,1
155,567,19,0.0542063757579724,1
155,568,19,0.0593156298883926,1
155,569,19,0.0612806285352171,1
155,570,19,0.0572470576290074,1
155,571,19,0.0492905141105515,1
156,567,19,0.054444261741108,1
156,568,19,0.0628908576636871,1
156,569,19,0.0666287969327283,1
156,570,19,0.0596609484373596,1
156,571,19,0.0489089918787289,1
157,567,19,0.0520724150374027,1
157,568,19,0.0602235237447172,1
157,569,19,0.0623072314196253,1
157,570,19,0.054908081350617,1
158,568,19,0.0539191956906168,1
158,569,19,0.0536854632814357,1
145,568,20,0.0482217689146017,1
147,568,20,0.048034676115048,1
147,569,20,0.0487187651238618,1
148,566,20,0.0480975169738486,1
148,567,20,0.0536541872739393,1
148,568,20,0.0527261552273427,1
148,569,20,0.0509830117323271,1
148,570,20,0.0510080775979583,1
149,566,20,0.0538827204945819,1
149,567,20,0.0628132222250567,1
149,568,20,0.0600247356593902,1
149,569,20,0.0519725386255804,1
149,570,20,0.0482342267480273,1
150,566,20,0.0544784666248144,1
150,567,20,0.0642922584960749,1
150,568,20,0.0619981858760277,1
150,569,20,0.0517529306785953,1
151,566,20,0.0518644590496198,1
151,567,20,0.0593578877374573,1
151,568,20,0.0583037407075481,1
151,569,20,0.050117254410668,1
152,566,20,0.0529868598712857,1
152,567,20,0.0583204069952517,1
152,568,20,0.0568543282574464,1
152,569,20,0.0503021548857214,1
153,566,20,0.0548168702530253,1
153,567,20,0.0583884123813337,1
153,568,20,0.0567771549689084,1
153,569,20,0.051973538025155,1
154,566,20,0.0547370280477042,1
154,567,20,0.0597045754060728,1
154,568,20,0.0632024508096685,1
154,569,20,0.0619197185672312,1
154,570,20,0.0528554706000446,1
155,566,20,0.0527047807855738,1
155,567,20,0.0641470162758171,1
155,568,20,0.0780342857137575,1
155,569,20,0.0799847959551885,1
155,570,20,0.0611001011554122,1
156,566,20,0.0495748172935825,1
156,567,20,0.0651963222835095,1
156,568,20,0.0839411358040986,1
156,569,20,0.0873910342512374,1
156,570,20,0.0628161857625236,1
157,567,20,0.057923853331677,1
157,568,20,0.0710068776252436,1
157,569,20,0.0726640554262152,1
157,570,20,0.0542013325450901,1
158,567,20,0.0498930134090076,1
158,568,20,0.0542149255346799,1
158,569,20,0.0531891660741902,1
145,568,21,0.0480008582820439,1
147,568,21,0.0482328922896357,1
148,566,21,0.0518185617685782,1
148,567,21,0.0556993400773972,1
148,568,21,0.0536503572050493,1
148,569,21,0.0514070113345083,1
149,566,21,0.0583229257132547,1
149,567,21,0.0659388877211897,1
149,568,21,0.0620743424343627,1
149,569,21,0.0534115180373484,1
150,566,21,0.0573591521338949,1
150,567,21,0.0654156009485538,1
150,568,21,0.0623555607655276,1
150,569,21,0.0528226579434912,1
151,566,21,0.0541970403261079,1
151,567,21,0.0594440094071576,1
151,568,21,0.0576708954786562,1
151,569,21,0.0509063756932714,1
152,566,21,0.0537536766350593,1
152,567,21,0.0575971189932966,1
152,568,21,0.0558893357572181,1
152,569,21,0.0509433477006554,1
153,566,21,0.0554116747524447,1
153,567,21,0.0598219441988887,1
153,568,21,0.0591934605114929,1
153,569,21,0.0549217783239776,1
154,566,21,0.0568811965084376,1
154,567,21,0.0657155363584569,1
154,568,21,0.0729176025206036,1
154,569,21,0.0698736509376656,1
154,570,21,0.0531256204364989,1
155,566,21,0.056005387422271,1
155,567,21,0.0741240742209351,1
155,568,21,0.0947777698133912,1
155,569,21,0.0925252271560134,1
155,570,21,0.0615441522947231,1
156,566,21,0.0526933483476655,1
156,567,21,0.0737542443864477,1
156,568,21,0.097541883738565,1
156,569,21,0.095462988201493,1
156,570,21,0.0610697436712242,1
157,567,21,0.0606959797840761,1
157,568,21,0.0742795877269943,1
157,569,21,0.0722932550765339,1
157,570,21,0.051076522026628,1
158,567,21,0.0500118495283666,1
158,568,21,0.0529074220472953,1
158,569,21,0.0506604309679013,1
147,568,22,0.0483227487097694,1
148,566,22,0.0512872451380886,1
148,567,22,0.0543874577178881,1
148,568,22,0.0539452262945656,1
148,569,22,0.0509755595620888,1
149,565,22,0.0493387856876923,1
149,566,22,0.0568178241770308,1
149,567,22,0.0634862918426072,1
149,568,22,0.0630664227068759,1
149,569,22,0.0554481268409749,1
150,565,22,0.0502458130125938,1
150,566,22,0.0562024020066187,1
150,567,22,0.062462877793836,1
150,568,22,0.0622490929380138,1
150,569,22,0.0547650170126692,1
151,565,22,0.0507319255871802,1
151,566,22,0.0539408531993172,1
151,567,22,0.0562951844145242,1
151,568,22,0.0557356939590328,1
151,569,22,0.051013704275332,1
152,565,22,0.0486190446876956,1
152,566,22,0.0522376510260287,1
152,567,22,0.0542333884308673,1
152,568,22,0.0536479424708171,1
152,569,22,0.0500053736501982,1
153,566,22,0.0540187543742506,1
153,567,22,0.059665021135048,1
153,568,22,0.0607824134050886,1
153,569,22,0.0545636351099492,1
154,566,22,0.0565462821134235,1
154,567,22,0.067897566465502,1
154,568,22,0.0764378806499235,1
154,569,22,0.0684491945925481,1
154,570,22,0.049571830648611,1
155,566,22,0.0561187990549216,1
155,567,22,0.0747282834747328,1
155,568,22,0.0951663398341214,1
155,569,22,0.0864827417904582,1
155,570,22,0.055604090943374,1
156,566,22,0.0530375230751541,1
156,567,22,0.071598828347843,1
156,568,22,0.0925183526733904,1
156,569,22,0.0839322163073172,1
156,570,22,0.0533015551997616,1
157,566,22,0.0482596478915419,1
157,567,22,0.05677556055109,1
157,568,22,0.0664027362150795,1
157,569,22,0.0597686525163703,1
158,568,22,0.048492895043126,1
143,567,23,0.0480224984601159,1
148,566,23,0.0511223846464127,1
148,567,23,0.0526027207145654,1
148,568,23,0.0541339683922612,1
148,569,23,0.0506484901648915,1
149,566,23,0.0555627054026085,1
149,567,23,0.059460669917985,1
149,568,23,0.0632669727394298,1
149,569,23,0.0569693747460485,1
150,565,23,0.0536352911120403,1
150,566,23,0.0554938277082273,1
150,567,23,0.0588175014114064,1
150,568,23,0.0626234749509104,1
150,569,23,0.0564927535789827,1
151,564,23,0.0496106454794881,1
151,565,23,0.0526825109280011,1
151,566,23,0.0525716295671059,1
151,567,23,0.0526689294921636,1
151,568,23,0.0544062556728924,1
151,569,23,0.0509375246094924,1
152,565,23,0.0492475283750914,1
152,566,23,0.0506058799263813,1
152,567,23,0.0517405046179886,1
152,568,23,0.0520820681974557,1
152,569,23,0.0487349057158354,1
153,566,23,0.0533693410645498,1
153,567,23,0.0596356283891777,1
153,568,23,0.0600669357396934,1
153,569,23,0.052032184871868,1
154,566,23,0.0571452228561689,1
154,567,23,0.0686312066295246,1
154,568,23,0.0727640993674459,1
154,569,23,0.061099904741623,1
155,566,23,0.0558101347851501,1
155,567,23,0.0699465262303452,1
155,568,23,0.0808340487416762,1
155,569,23,0.0693842859818046,1
155,570,23,0.0491381027869869,1
156,566,23,0.0523474290035785,1
156,567,23,0.0639379800121934,1
156,568,23,0.0738767719296689,1
156,569,23,0.0639125270958599,1
157,566,23,0.0479369255936503,1
157,567,23,0.0517188124480312,1
157,568,23,0.0550784529821436,1
157,569,23,0.0481594421977788,1
148,567,24,0.0494381075194038,1
148,568,24,0.0498257936780825,1
149,567,24,0.0538958455572033,1
149,568,24,0.0574204216823816,1
149,569,24,0.0522490372489277,1
150,566,24,0.0522678120964274,1
150,567,24,0.0528547196061446,1
150,568,24,0.056709738824194,1
150,569,24,0.0516721352887089,1
151,565,24,0.0496634114662765,1
151,566,24,0.0483696136175667,1
151,568,24,0.0492026478242528,1
153,566,24,0.0510151080562374,1
153,567,24,0.0564201324688539,1
153,568,24,0.0549000803771441,1
154,566,24,0.0551434139544926,1
154,567,24,0.0637793296623827,1
154,568,24,0.0626418743014601,1
154,569,24,0.0512729647002365,1
155,566,24,0.0528618771556991,1
155,567,24,0.060623913254058,1
155,568,24,0.0622502945282538,1
155,569,24,0.0521723434411104,1
156,567,24,0.0531706511861175,1
156,568,24,0.054418826155403,1
149,568,25,0.0492450385414691,1
150,568,25,0.0484527024272862,1
153,566,25,0.0480621307189687,1
153,567,25,0.0510572734752837,1
153,568,25,0.0486097150327073,1
154,566,25,0.0504674890812419,1
154,567,25,0.0545414345748903,1
154,568,25,0.0515839743817264,1
155,566,25,0.0490282612637993,1
155,567,25,0.0514694651426066,1
155,568,25,0.0495018206865036,1
152,566,28,0.0519739077452289,1
151,566,29,0.0491266992334594,1
152,565,29,0.0560217590892907,1
152,566,29,0.0542991466121256,1
152,567,29,0.048095391083424,1
153,566,29,0.0518822287206687,1
154,566,29,0.0490638814821634,1
152,565,30,0.0563874815648328,1
152,566,30,0.0531861852060949,1
153,565,30,0.0561677869647054,1
153,566,30,0.0509485411123176,1
154,565,30,0.0524865939501225,1
137,572,31,0.049192809804163,1
138,572,31,0.0515724783981804,1
139,572,31,0.0486299225454931,1
152,565,31,0.0517807116760187,1
153,565,31,0.0523354362086833,1
159,571,31,0.0484980537935313,1
137,572,32,0.0553880588827281,1
137,573,32,0.0507786374077595,1
138,572,32,0.0550127756771516,1
138,573,32,0.0500931186220977,1
139,572,32,0.0509223545327126,1
140,572,32,0.0492473435150544,1
141,572,32,0.0483435656829894,1
142,564,32,0.0496566178599197,1
159,570,32,0.0481814232115438,1
159,571,32,0.0482198423264044,1
137,571,33,0.0482193426266171,1
137,572,33,0.0542667787750361,1
137,573,33,0.0515992080041438,1
138,572,33,0.0518613741977537,1
138,573,33,0.0494090440554743,1
139,572,33,0.0487195450021425,1
140,572,33,0.0481110348640484,1
141,571,33,0.0514819431950987,1
141,572,33,0.0482193715109979,1
156,572,33,0.0522389161619063,1
157,571,33,0.0562816203093152,1
157,572,33,0.052751111332327,1
158,570,33,0.0503070074616905,1
158,571,33,0.0505572790672998,1
158,572,33,0.0484165074097449,1
159,569,33,0.0496835034415393,1
159,570,33,0.0499305746577594,1
159,571,33,0.0480549298428431,1
137,572,34,0.048952052713579,1
138,570,34,0.0486289578071755,1
155,569,34,0.0506216392445288,1
155,572,34,0.0480792678220789,1
156,568,34,0.0516358218452063,1
156,572,34,0.0554054934949602,1
157,568,34,0.0519710019765235,1
157,572,34,0.0557314075169267,1
158,569,34,0.0585076875432804,1
158,571,34,0.057196700599575,1
139,569,35,0.0485588958531827,1
155,568,35,0.0548341604433535,1
155,571,35,0.0521803617452118,1
156,567,35,0.0501169309056034,1
156,572,35,0.0529684894051167,1
157,567,35,0.0509463978912646,1
157,572,35,0.0542641040813769,1
139,570,36,0.0482344116080642,1
155,571,36,0.0481548466927985,1
139,569,37,0.0526455620281217,1
139,569,38,0.0481520362425497,1
156,571,41,0.0481522124372724,1
156,572,42,0.0483350101294057,1
157,572,42,0.0502369628383262,1
157,572,43,0.0499910412204608,1
139,568,44,0.0493833658409708,1
151,578,44,0.0483855375766846,1
139,567,46,0.0484063256655239,1
140,566,46,0.0485905531345053,1
140,567,46,0.0512049535372783,1
140,566,47,0.0543948983343741,1
140,567,47,0.0516630655931475,1
140,566,48,0.0507768812374087,1
151,569,49,0.0482748555180166,1
151,570,49,0.0566800110195068,1
151,571,49,0.0501379009660416,1
152,570,49,0.0529160989152783,1
150,570,50,0.0483048230630643,1
151,570,50,0.0584363662302861,1
151,571,50,0.0489620351555727,1
152,570,50,0.0512057854074445,1
151,570,51,0.0544865831358104,1
